frequency,raw,error,smoothed,error_smoothed,equalization,parametric_eq,fixed_band_eq,equalized_raw,equalized_smoothed,target
20.00,5.50,-1.94,5.19,-2.25,2.25,2.21,0.41,7.74,7.44,7.44
20.20,5.35,-2.08,5.17,-2.25,2.25,2.18,0.42,7.60,7.43,7.43
20.40,5.20,-2.22,5.16,-2.25,2.25,2.14,0.44,7.45,7.42,7.41
20.61,5.05,-2.36,5.16,-2.25,2.25,2.11,0.45,7.30,7.41,7.41
20.81,4.90,-2.50,5.17,-2.23,2.23,2.07,0.46,7.13,7.40,7.39
21.02,4.79,-2.61,5.18,-2.21,2.21,2.03,0.48,7.00,7.39,7.39
21.23,4.97,-2.41,5.21,-2.18,2.18,1.99,0.49,7.15,7.39,7.38
21.44,5.16,-2.23,5.24,-2.14,2.14,1.95,0.51,7.30,7.38,7.39
21.66,5.35,-2.04,5.28,-2.09,2.09,1.91,0.52,7.44,7.37,7.38
21.87,5.53,-1.84,5.33,-2.04,2.04,1.87,0.54,7.57,7.37,7.37
22.09,5.62,-1.74,5.38,-1.98,1.98,1.82,0.55,7.60,7.36,7.36
22.31,5.58,-1.78,5.45,-1.91,1.91,1.78,0.57,7.49,7.36,7.36
22.54,5.53,-1.82,5.58,-1.77,1.77,1.73,0.59,7.30,7.35,7.35
22.76,5.49,-1.86,5.71,-1.63,1.63,1.69,0.61,7.12,7.35,7.35
22.99,5.44,-1.90,5.85,-1.50,1.50,1.64,0.62,6.94,7.34,7.34
23.22,5.69,-1.64,5.97,-1.37,1.37,1.60,0.64,7.06,7.34,7.33
23.45,5.95,-1.39,6.06,-1.28,1.28,1.55,0.66,7.23,7.34,7.34
23.69,6.20,-1.12,6.11,-1.22,1.22,1.50,0.68,7.43,7.34,7.33
23.92,6.48,-0.85,6.15,-1.19,1.19,1.46,0.70,7.67,7.34,7.33
24.16,6.52,-0.82,6.17,-1.16,1.16,1.41,0.72,7.68,7.34,7.34
24.40,6.46,-0.89,6.18,-1.15,1.15,1.36,0.74,7.61,7.34,7.35
24.65,6.40,-0.95,6.19,-1.15,1.15,1.32,0.76,7.55,7.34,7.35
24.89,6.34,-1.01,6.18,-1.16,1.16,1.27,0.77,7.49,7.34,7.34
25.14,6.24,-1.11,6.17,-1.17,1.17,1.22,0.79,7.41,7.34,7.34
25.39,6.11,-1.24,6.17,-1.18,1.18,1.18,0.81,7.29,7.35,7.34
25.65,5.98,-1.36,6.16,-1.19,1.19,1.13,0.83,7.17,7.35,7.34
25.91,5.86,-1.49,6.14,-1.21,1.21,1.08,0.85,7.07,7.35,7.35
26.16,5.84,-1.52,6.12,-1.23,1.23,1.04,0.87,7.07,7.35,7.36
26.43,5.90,-1.46,6.10,-1.25,1.25,0.99,0.88,7.15,7.36,7.36
26.69,5.95,-1.41,6.09,-1.26,1.26,0.95,0.90,7.21,7.36,7.36
26.96,6.00,-1.36,6.11,-1.24,1.24,0.90,0.92,7.24,7.36,7.36
27.23,6.18,-1.18,6.15,-1.20,1.20,0.86,0.93,7.38,7.36,7.36
27.50,6.38,-0.98,6.21,-1.15,1.15,0.81,0.94,7.53,7.36,7.36
27.77,6.58,-0.78,6.28,-1.08,1.08,0.77,0.95,7.66,7.36,7.36
28.05,6.73,-0.63,6.38,-0.98,0.98,0.72,0.96,7.71,7.36,7.36
28.33,6.61,-0.74,6.49,-0.87,0.87,0.68,0.97,7.48,7.36,7.35
28.62,6.49,-0.86,6.60,-0.76,0.76,0.64,0.98,7.25,7.36,7.35
28.90,6.37,-0.99,6.68,-0.68,0.68,0.59,0.98,7.05,7.36,7.36
29.19,6.46,-0.90,6.73,-0.63,0.63,0.55,0.98,7.09,7.36,7.36
29.48,6.66,-0.70,6.75,-0.60,0.60,0.51,0.98,7.26,7.35,7.36
29.78,6.86,-0.50,6.79,-0.57,0.57,0.47,0.98,7.42,7.35,7.35
30.08,7.02,-0.35,6.83,-0.52,0.52,0.43,0.97,7.54,7.35,7.36
30.38,7.08,-0.27,6.88,-0.47,0.47,0.39,0.96,7.55,7.34,7.35
30.68,7.14,-0.20,6.93,-0.40,0.40,0.34,0.95,7.54,7.34,7.34
30.99,7.20,-0.14,7.01,-0.33,0.33,0.30,0.93,7.53,7.33,7.34
31.30,7.04,-0.29,7.09,-0.24,0.24,0.26,0.92,7.28,7.33,7.33
31.61,6.87,-0.45,7.17,-0.15,0.15,0.22,0.90,7.02,7.32,7.32
31.93,6.70,-0.61,7.23,-0.08,0.08,0.18,0.87,6.78,7.32,7.31
32.24,6.95,-0.36,7.28,-0.04,0.04,0.14,0.84,6.99,7.31,7.31
32.57,7.32,0.02,7.29,-0.02,0.02,0.10,0.82,7.34,7.31,7.30
32.89,7.69,0.39,7.28,-0.02,0.02,0.06,0.78,7.71,7.30,7.30
33.22,7.74,0.45,7.28,-0.02,0.02,0.02,0.75,7.75,7.30,7.29
33.55,7.64,0.35,7.32,0.02,-0.02,-0.01,0.71,7.62,7.30,7.29
33.89,7.53,0.23,7.38,0.08,-0.08,-0.05,0.67,7.45,7.29,7.30
34.23,7.43,0.14,7.45,0.16,-0.16,-0.09,0.63,7.27,7.29,7.29
34.57,7.32,0.04,7.54,0.25,-0.25,-0.13,0.58,7.07,7.29,7.28
34.92,7.21,-0.07,7.63,0.34,-0.34,-0.17,0.53,6.87,7.28,7.28
35.27,7.28,-0.01,7.68,0.40,-0.40,-0.21,0.48,6.87,7.28,7.29
35.62,7.41,0.13,7.70,0.43,-0.43,-0.25,0.43,6.98,7.27,7.27
35.97,7.54,0.27,7.68,0.42,-0.42,-0.28,0.38,7.12,7.26,7.27
36.33,7.80,0.55,7.67,0.42,-0.42,-0.32,0.33,7.38,7.25,7.26
36.70,8.08,0.83,7.69,0.45,-0.45,-0.36,0.27,7.63,7.24,7.24
37.06,8.27,1.04,7.71,0.49,-0.49,-0.40,0.21,7.78,7.22,7.23
37.43,8.08,0.87,7.72,0.52,-0.52,-0.44,0.15,7.56,7.20,7.21
37.81,7.89,0.70,7.73,0.55,-0.55,-0.48,0.10,7.34,7.19,7.19
38.19,7.71,0.54,7.74,0.58,-0.58,-0.51,0.03,7.13,7.16,7.17
38.57,7.51,0.37,7.75,0.61,-0.61,-0.55,-0.03,6.90,7.14,7.14
38.95,7.32,0.20,7.75,0.63,-0.63,-0.59,-0.09,6.69,7.12,7.12
39.34,7.51,0.43,7.75,0.66,-0.66,-0.63,-0.15,6.86,7.09,7.08
39.74,7.74,0.67,7.73,0.66,-0.66,-0.67,-0.22,7.08,7.07,7.07
40.14,7.83,0.78,7.70,0.65,-0.65,-0.71,-0.28,7.18,7.05,7.04
40.54,7.64,0.62,7.67,0.65,-0.65,-0.75,-0.35,6.99,7.02,7.02
40.94,7.45,0.46,7.66,0.66,-0.66,-0.79,-0.41,6.79,7.00,6.99
41.35,7.63,0.65,7.68,0.70,-0.70,-0.82,-0.48,6.93,6.97,6.98
41.76,7.86,0.92,7.72,0.77,-0.77,-0.86,-0.55,7.09,6.95,6.94
42.18,8.00,1.07,7.77,0.84,-0.84,-0.90,-0.61,7.15,6.93,6.93
42.60,8.00,1.09,7.83,0.92,-0.92,-0.94,-0.68,7.08,6.91,6.91
43.03,7.99,1.11,7.87,0.99,-0.99,-0.99,-0.75,7.00,6.88,6.88
43.46,7.85,0.99,7.91,1.05,-1.05,-1.03,-0.82,6.80,6.86,6.86
43.90,7.70,0.86,7.93,1.10,-1.10,-1.07,-0.89,6.60,6.84,6.84
44.33,7.81,1.00,7.96,1.15,-1.15,-1.11,-0.96,6.66,6.81,6.81
44.78,8.01,1.22,8.01,1.22,-1.22,-1.15,-1.03,6.79,6.79,6.78
45.23,8.10,1.32,8.06,1.30,-1.30,-1.19,-1.11,6.80,6.76,6.78
45.68,8.10,1.36,8.10,1.37,-1.37,-1.24,-1.18,6.73,6.73,6.74
46.13,8.11,1.41,8.12,1.42,-1.42,-1.28,-1.25,6.69,6.70,6.70
46.60,8.16,1.49,8.14,1.47,-1.47,-1.32,-1.33,6.69,6.67,6.67
47.06,8.21,1.57,8.17,1.53,-1.53,-1.37,-1.40,6.67,6.63,6.64
47.53,8.25,1.64,8.21,1.61,-1.61,-1.41,-1.48,6.64,6.60,6.61
48.01,8.30,1.74,8.24,1.68,-1.68,-1.46,-1.55,6.62,6.56,6.56
48.49,8.30,1.78,8.28,1.76,-1.76,-1.50,-1.63,6.54,6.52,6.52
48.97,8.30,1.82,8.30,1.82,-1.82,-1.55,-1.71,6.48,6.49,6.48
49.46,8.30,1.85,8.30,1.86,-1.86,-1.60,-1.78,6.44,6.45,6.45
49.96,8.30,1.91,8.30,1.89,-1.89,-1.65,-1.86,6.40,6.41,6.39
50.46,8.30,1.94,8.31,1.94,-1.94,-1.70,-1.94,6.36,6.37,6.36
50.96,8.30,1.97,8.31,1.98,-1.98,-1.74,-2.01,6.32,6.33,6.32
51.47,8.30,2.01,8.32,2.03,-2.03,-1.79,-2.09,6.27,6.29,6.29
51.99,8.31,2.06,8.33,2.08,-2.08,-1.85,-2.17,6.23,6.25,6.25
52.51,8.30,2.08,8.32,2.11,-2.11,-1.90,-2.24,6.19,6.21,6.22
53.03,8.30,2.11,8.30,2.12,-2.12,-1.95,-2.32,6.18,6.17,6.19
53.56,8.30,2.15,8.28,2.14,-2.14,-2.00,-2.39,6.16,6.14,6.15
54.10,8.30,2.20,8.26,2.16,-2.16,-2.05,-2.47,6.14,6.10,6.10
54.64,8.30,2.23,8.26,2.19,-2.19,-2.11,-2.54,6.11,6.07,6.07
55.18,8.30,2.28,8.25,2.22,-2.22,-2.16,-2.61,6.08,6.03,6.02
55.74,8.30,2.31,8.25,2.25,-2.25,-2.22,-2.68,6.05,6.00,5.98
56.29,8.30,2.34,8.25,2.28,-2.28,-2.28,-2.74,6.02,5.97,5.96
56.86,8.30,2.37,8.25,2.32,-2.32,-2.33,-2.81,5.98,5.93,5.93
57.42,8.13,2.25,8.26,2.36,-2.36,-2.39,-2.87,5.76,5.90,5.88
58.00,7.90,2.04,8.27,2.41,-2.41,-2.45,-2.93,5.49,5.86,5.86
58.58,8.20,2.36,8.28,2.45,-2.45,-2.50,-2.99,5.75,5.83,5.84
59.16,8.41,2.60,8.28,2.49,-2.49,-2.56,-3.04,5.92,5.79,5.81
59.76,8.41,2.63,8.31,2.56,-2.56,-2.62,-3.09,5.85,5.75,5.78
60.35,8.41,2.68,8.34,2.63,-2.63,-2.68,-3.14,5.78,5.71,5.73
60.96,8.41,2.72,8.36,2.69,-2.69,-2.74,-3.18,5.72,5.67,5.69
61.57,8.41,2.77,8.38,2.75,-2.75,-2.80,-3.22,5.66,5.63,5.63
62.18,8.41,2.83,8.40,2.81,-2.81,-2.85,-3.25,5.60,5.59,5.58
62.80,8.41,2.88,8.41,2.87,-2.87,-2.91,-3.28,5.54,5.54,5.53
63.43,8.41,2.93,8.43,2.93,-2.93,-2.97,-3.31,5.48,5.50,5.48
64.07,8.41,2.96,8.45,2.99,-2.99,-3.02,-3.33,5.42,5.45,5.45
64.71,8.41,3.01,8.45,3.04,-3.04,-3.08,-3.36,5.37,5.41,5.40
65.35,8.49,3.13,8.42,3.06,-3.06,-3.13,-3.37,5.43,5.36,5.36
66.01,8.64,3.32,8.41,3.10,-3.10,-3.18,-3.39,5.54,5.31,5.31
66.67,8.35,3.07,8.40,3.14,-3.14,-3.23,-3.40,5.21,5.27,5.28
67.33,8.25,3.02,8.39,3.17,-3.17,-3.28,-3.40,5.08,5.23,5.22
68.01,8.35,3.16,8.39,3.21,-3.21,-3.32,-3.41,5.14,5.18,5.18
68.69,8.39,3.26,8.40,3.27,-3.27,-3.37,-3.41,5.12,5.14,5.13
69.37,8.41,3.31,8.42,3.33,-3.33,-3.41,-3.42,5.08,5.09,5.10
70.07,8.41,3.36,8.43,3.38,-3.38,-3.45,-3.41,5.03,5.04,5.05
70.77,8.41,3.40,8.43,3.43,-3.43,-3.49,-3.41,4.97,5.00,5.00
71.48,8.41,3.45,8.43,3.48,-3.48,-3.52,-3.41,4.93,4.95,4.96
72.19,8.41,3.51,8.43,3.53,-3.53,-3.56,-3.41,4.88,4.91,4.90
72.91,8.41,3.55,8.43,3.57,-3.57,-3.59,-3.40,4.84,4.86,4.86
73.64,8.41,3.60,8.42,3.60,-3.60,-3.62,-3.40,4.81,4.82,4.81
74.38,8.51,3.74,8.42,3.64,-3.64,-3.65,-3.40,4.86,4.78,4.77
75.12,8.66,3.94,8.43,3.69,-3.69,-3.68,-3.40,4.97,4.74,4.72
75.87,8.55,3.85,8.43,3.73,-3.73,-3.70,-3.39,4.82,4.70,4.69
76.63,8.38,3.73,8.42,3.77,-3.77,-3.73,-3.39,4.61,4.66,4.65
77.40,8.30,3.68,8.42,3.80,-3.80,-3.75,-3.39,4.50,4.62,4.62
78.17,8.30,3.72,8.41,3.82,-3.82,-3.77,-3.40,4.48,4.59,4.58
78.95,8.30,3.74,8.39,3.84,-3.84,-3.80,-3.40,4.46,4.55,4.55
79.74,8.30,3.78,8.36,3.85,-3.85,-3.82,-3.40,4.45,4.52,4.52
80.54,8.30,3.81,8.35,3.87,-3.87,-3.84,-3.41,4.43,4.48,4.49
81.35,8.34,3.89,8.34,3.89,-3.89,-3.86,-3.42,4.45,4.45,4.45
82.16,8.45,4.02,8.33,3.92,-3.92,-3.88,-3.43,4.53,4.42,4.42
82.98,8.63,4.24,8.32,3.93,-3.93,-3.90,-3.45,4.69,4.38,4.39
83.81,8.28,3.93,8.30,3.96,-3.96,-3.93,-3.46,4.32,4.35,4.35
84.65,8.20,3.89,8.29,3.98,-3.98,-3.95,-3.48,4.21,4.31,4.31
85.50,8.20,3.94,8.29,4.02,-4.02,-3.97,-3.51,4.18,4.27,4.26
86.35,8.20,3.97,8.29,4.06,-4.06,-3.99,-3.53,4.14,4.24,4.23
87.22,8.21,4.01,8.29,4.09,-4.09,-4.01,-3.56,4.12,4.20,4.20
88.09,8.25,4.09,8.27,4.11,-4.11,-4.04,-3.59,4.13,4.16,4.16
88.97,8.50,4.37,8.25,4.13,-4.13,-4.06,-3.62,4.37,4.12,4.13
89.86,8.27,4.20,8.22,4.14,-4.14,-4.08,-3.66,4.13,4.08,4.07
90.76,8.14,4.10,8.21,4.17,-4.17,-4.11,-3.69,3.97,4.04,4.04
91.66,8.11,4.12,8.19,4.20,-4.20,-4.13,-3.73,3.90,3.99,3.99
92.58,8.11,4.16,8.19,4.24,-4.24,-4.16,-3.78,3.87,3.94,3.95
93.51,8.17,4.26,8.19,4.29,-4.29,-4.18,-3.83,3.87,3.90,3.91
94.44,8.30,4.44,8.18,4.33,-4.33,-4.21,-3.87,3.97,3.85,3.86
95.39,8.26,4.45,8.15,4.36,-4.36,-4.23,-3.93,3.90,3.80,3.80
96.34,8.03,4.28,8.13,4.38,-4.38,-4.26,-3.98,3.65,3.74,3.75
97.30,8.00,4.31,8.09,4.41,-4.41,-4.29,-4.04,3.59,3.69,3.69
98.28,8.01,4.37,8.05,4.42,-4.42,-4.31,-4.09,3.59,3.63,3.64
99.26,8.12,4.55,8.01,4.43,-4.43,-4.34,-4.16,3.69,3.58,3.57
100.25,8.16,4.65,7.98,4.46,-4.46,-4.37,-4.22,3.70,3.52,3.51
101.25,7.92,4.45,7.92,4.46,-4.46,-4.40,-4.28,3.46,3.46,3.46
102.27,7.83,4.42,7.87,4.46,-4.46,-4.42,-4.35,3.37,3.41,3.41
103.29,7.82,4.47,7.82,4.47,-4.47,-4.45,-4.41,3.35,3.35,3.35
104.32,7.80,4.50,7.77,4.47,-4.47,-4.48,-4.48,3.32,3.29,3.30
105.37,7.74,4.50,7.71,4.47,-4.47,-4.51,-4.55,3.27,3.24,3.24
106.42,7.64,4.45,7.67,4.48,-4.48,-4.54,-4.61,3.15,3.18,3.18
107.48,7.56,4.44,7.64,4.51,-4.51,-4.56,-4.68,3.04,3.13,3.12
108.56,7.50,4.42,7.60,4.53,-4.53,-4.59,-4.75,2.97,3.07,3.08
109.64,7.48,4.46,7.56,4.54,-4.54,-4.62,-4.81,2.94,3.02,3.02
110.74,7.46,4.49,7.52,4.55,-4.55,-4.65,-4.88,2.91,2.97,2.96
111.85,7.48,4.56,7.49,4.58,-4.58,-4.68,-4.94,2.90,2.91,2.92
112.97,7.66,4.79,7.48,4.62,-4.62,-4.70,-5.00,3.04,2.86,2.87
114.10,7.54,4.72,7.45,4.64,-4.64,-4.73,-5.05,2.90,2.82,2.82
115.24,7.33,4.56,7.42,4.65,-4.65,-4.76,-5.10,2.68,2.77,2.77
116.39,7.38,4.67,7.38,4.66,-4.66,-4.79,-5.15,2.72,2.72,2.71
117.55,7.49,4.81,7.36,4.68,-4.68,-4.81,-5.20,2.81,2.68,2.68
118.73,7.46,4.84,7.34,4.71,-4.71,-4.84,-5.24,2.75,2.64,2.62
119.92,7.26,4.67,7.32,4.73,-4.73,-4.87,-5.27,2.53,2.60,2.59
121.12,7.25,4.69,7.29,4.74,-4.74,-4.89,-5.30,2.51,2.56,2.56
122.33,7.24,4.72,7.26,4.74,-4.74,-4.92,-5.32,2.50,2.52,2.52
123.55,7.20,4.71,7.22,4.74,-4.74,-4.94,-5.34,2.45,2.48,2.48
124.79,7.15,4.70,7.20,4.76,-4.76,-4.96,-5.36,2.39,2.44,2.45
126.03,7.08,4.67,7.18,4.78,-4.78,-4.99,-5.36,2.30,2.40,2.41
127.29,7.08,4.71,7.16,4.80,-4.80,-5.01,-5.36,2.28,2.36,2.37
128.57,7.17,4.84,7.14,4.81,-4.81,-5.03,-5.36,2.36,2.33,2.33
129.85,7.28,4.99,7.10,4.81,-4.81,-5.05,-5.35,2.47,2.29,2.29
131.15,7.11,4.86,7.08,4.82,-4.82,-5.08,-5.33,2.29,2.25,2.25
132.46,7.03,4.82,7.06,4.84,-4.84,-5.10,-5.31,2.19,2.22,2.21
133.79,7.01,4.83,7.04,4.86,-4.86,-5.12,-5.28,2.15,2.18,2.17
135.12,7.02,4.88,7.02,4.88,-4.88,-5.13,-5.25,2.14,2.14,2.14
136.48,7.15,5.04,7.01,4.90,-4.90,-5.15,-5.22,2.24,2.10,2.11
137.84,7.06,4.98,6.99,4.92,-4.92,-5.17,-5.18,2.13,2.07,2.08
139.22,6.87,4.85,6.96,4.93,-4.93,-5.19,-5.14,1.94,2.03,2.02
140.61,6.69,4.69,6.91,4.91,-4.91,-5.20,-5.10,1.77,1.99,2.00
142.02,6.82,4.86,6.87,4.91,-4.91,-5.22,-5.05,1.91,1.96,1.96
143.44,6.95,5.03,6.82,4.90,-4.90,-5.23,-5.01,2.05,1.92,1.91
144.87,6.83,4.94,6.78,4.89,-4.89,-5.24,-4.96,1.93,1.89,1.88
146.32,6.77,4.91,6.76,4.90,-4.90,-5.25,-4.91,1.86,1.85,1.85
147.78,6.83,5.01,6.73,4.91,-4.91,-5.26,-4.86,1.91,1.81,1.81
149.26,6.77,4.99,6.70,4.92,-4.92,-5.27,-4.81,1.84,1.78,1.78
150.75,6.65,4.92,6.66,4.92,-4.92,-5.28,-4.76,1.73,1.74,1.73
152.26,6.46,4.76,6.61,4.91,-4.91,-5.29,-4.72,1.55,1.70,1.70
153.78,6.37,4.70,6.59,4.93,-4.93,-5.30,-4.67,1.44,1.66,1.67
155.32,6.56,4.93,6.56,4.94,-4.94,-5.30,-4.63,1.62,1.62,1.63
156.88,6.68,5.09,6.53,4.95,-4.95,-5.31,-4.59,1.73,1.58,1.59
158.44,6.49,4.94,6.49,4.95,-4.95,-5.31,-4.55,1.54,1.54,1.54
160.03,6.46,4.96,6.45,4.95,-4.95,-5.31,-4.51,1.51,1.50,1.50
161.63,6.54,5.08,6.40,4.95,-4.95,-5.31,-4.47,1.59,1.46,1.46
163.24,6.41,5.00,6.35,4.94,-4.94,-5.31,-4.44,1.47,1.41,1.41
164.88,6.27,4.90,6.31,4.94,-4.94,-5.31,-4.41,1.33,1.37,1.37
166.53,6.11,4.79,6.27,4.95,-4.95,-5.31,-4.38,1.16,1.32,1.32
168.19,6.23,4.95,6.23,4.95,-4.95,-5.31,-4.36,1.27,1.28,1.28
169.87,6.33,5.09,6.19,4.96,-4.96,-5.30,-4.34,1.37,1.23,1.23
171.57,6.16,4.97,6.13,4.94,-4.94,-5.30,-4.32,1.22,1.19,1.19
173.29,6.12,4.98,6.06,4.92,-4.92,-5.29,-4.31,1.20,1.15,1.14
175.02,5.94,4.83,6.00,4.90,-4.90,-5.28,-4.29,1.04,1.10,1.11
176.77,5.81,4.75,5.95,4.89,-4.89,-5.27,-4.29,0.92,1.06,1.06
178.54,5.85,4.83,5.91,4.89,-4.89,-5.26,-4.28,0.96,1.02,1.02
180.32,5.95,4.97,5.87,4.89,-4.89,-5.25,-4.28,1.06,0.98,0.97
182.13,5.92,4.98,5.84,4.90,-4.90,-5.24,-4.28,1.02,0.95,0.94
183.95,5.79,4.88,5.81,4.90,-4.90,-5.23,-4.29,0.89,0.91,0.91
185.79,5.74,4.87,5.77,4.90,-4.90,-5.21,-4.30,0.84,0.87,0.87
187.65,5.70,4.86,5.73,4.89,-4.89,-5.20,-4.31,0.80,0.84,0.84
189.52,5.64,4.84,5.70,4.90,-4.90,-5.18,-4.32,0.74,0.80,0.80
191.42,5.64,4.86,5.68,4.92,-4.92,-5.16,-4.34,0.72,0.77,0.78
193.33,5.66,4.92,5.66,4.92,-4.92,-5.14,-4.36,0.74,0.74,0.74
195.27,5.72,5.02,5.63,4.93,-4.93,-5.12,-4.39,0.79,0.70,0.70
197.22,5.72,5.05,5.60,4.93,-4.93,-5.10,-4.41,0.79,0.67,0.67
199.19,5.56,4.92,5.56,4.92,-4.92,-5.08,-4.44,0.64,0.64,0.64
201.18,5.48,4.88,5.51,4.90,-4.90,-5.05,-4.47,0.58,0.61,0.60
203.19,5.45,4.87,5.46,4.88,-4.88,-5.03,-4.50,0.56,0.58,0.58
205.23,5.43,4.88,5.42,4.88,-4.88,-5.00,-4.53,0.55,0.55,0.55
207.28,5.48,4.95,5.37,4.86,-4.86,-4.98,-4.57,0.62,0.52,0.53
209.35,5.35,4.86,5.32,4.84,-4.84,-4.95,-4.60,0.51,0.49,0.49
211.44,5.18,4.72,5.28,4.82,-4.82,-4.92,-4.64,0.36,0.46,0.46
213.56,5.22,4.78,5.22,4.80,-4.80,-4.89,-4.67,0.42,0.43,0.44
215.69,5.20,4.80,5.17,4.77,-4.77,-4.86,-4.71,0.43,0.40,0.40
217.85,5.10,4.72,5.12,4.75,-4.75,-4.83,-4.74,0.35,0.37,0.38
220.03,4.97,4.63,5.07,4.72,-4.72,-4.80,-4.77,0.24,0.35,0.34
222.23,4.93,4.61,5.04,4.71,-4.71,-4.76,-4.81,0.22,0.33,0.32
224.45,5.03,4.73,4.99,4.68,-4.68,-4.73,-4.83,0.34,0.30,0.30
226.70,5.03,4.75,4.94,4.65,-4.65,-4.69,-4.86,0.38,0.28,0.28
228.96,4.89,4.62,4.89,4.62,-4.62,-4.66,-4.88,0.27,0.27,0.27
231.25,4.94,4.68,4.85,4.60,-4.60,-4.62,-4.90,0.34,0.25,0.26
233.57,4.91,4.67,4.82,4.58,-4.58,-4.58,-4.92,0.33,0.24,0.24
235.90,4.71,4.48,4.78,4.55,-4.55,-4.55,-4.93,0.16,0.23,0.23
238.26,4.72,4.50,4.74,4.51,-4.51,-4.51,-4.94,0.20,0.23,0.22
240.64,4.67,4.44,4.70,4.48,-4.48,-4.47,-4.94,0.19,0.22,0.23
243.05,4.63,4.41,4.67,4.45,-4.45,-4.43,-4.94,0.18,0.22,0.22
245.48,4.60,4.39,4.63,4.42,-4.42,-4.38,-4.93,0.18,0.22,0.21
247.93,4.54,4.33,4.58,4.37,-4.37,-4.34,-4.91,0.17,0.21,0.20
250.41,4.55,4.33,4.53,4.32,-4.32,-4.30,-4.89,0.23,0.21,0.22
252.92,4.58,4.36,4.49,4.28,-4.28,-4.26,-4.86,0.30,0.21,0.22
255.45,4.48,4.28,4.45,4.24,-4.24,-4.21,-4.83,0.23,0.20,0.20
258.00,4.38,4.17,4.40,4.20,-4.20,-4.17,-4.78,0.18,0.20,0.21
260.58,4.38,4.18,4.35,4.16,-4.16,-4.12,-4.74,0.22,0.19,0.20
263.19,4.34,4.14,4.31,4.13,-4.13,-4.08,-4.69,0.21,0.18,0.19
265.82,4.27,4.09,4.26,4.09,-4.09,-4.03,-4.63,0.18,0.18,0.18
268.48,4.19,4.02,4.21,4.05,-4.05,-3.98,-4.57,0.14,0.17,0.17
271.16,4.13,3.97,4.16,4.01,-4.01,-3.94,-4.50,0.12,0.16,0.16
273.87,4.06,3.91,4.11,3.96,-3.96,-3.89,-4.43,0.10,0.15,0.15
276.61,4.07,3.93,4.06,3.92,-3.92,-3.84,-4.36,0.15,0.14,0.14
279.38,4.05,3.94,4.01,3.87,-3.87,-3.79,-4.28,0.17,0.13,0.11
282.17,3.91,3.79,3.95,3.83,-3.83,-3.74,-4.20,0.08,0.13,0.12
284.99,3.86,3.75,3.91,3.79,-3.79,-3.69,-4.11,0.07,0.12,0.11
287.84,3.89,3.77,3.86,3.74,-3.74,-3.64,-4.03,0.15,0.12,0.12
290.72,3.90,3.79,3.81,3.70,-3.70,-3.59,-3.94,0.20,0.11,0.10
293.63,3.77,3.66,3.77,3.65,-3.65,-3.54,-3.85,0.11,0.11,0.11
296.57,3.72,3.60,3.72,3.61,-3.61,-3.49,-3.76,0.11,0.11,0.12
299.53,3.64,3.53,3.68,3.57,-3.57,-3.44,-3.67,0.07,0.11,0.11
302.53,3.63,3.51,3.63,3.52,-3.52,-3.39,-3.58,0.11,0.11,0.12
305.55,3.61,3.49,3.58,3.47,-3.47,-3.34,-3.48,0.13,0.11,0.12
308.61,3.49,3.37,3.53,3.42,-3.42,-3.28,-3.39,0.07,0.11,0.12
311.69,3.45,3.34,3.48,3.37,-3.37,-3.23,-3.30,0.08,0.11,0.11
314.81,3.46,3.34,3.44,3.33,-3.33,-3.18,-3.21,0.13,0.11,0.12
317.96,3.41,3.31,3.38,3.27,-3.27,-3.12,-3.12,0.14,0.11,0.10
321.14,3.35,3.24,3.32,3.21,-3.21,-3.07,-3.04,0.14,0.11,0.11
324.35,3.28,3.17,3.26,3.15,-3.15,-3.02,-2.95,0.12,0.11,0.11
327.59,3.22,3.10,3.21,3.10,-3.10,-2.96,-2.86,0.12,0.11,0.11
330.87,3.17,3.06,3.15,3.04,-3.04,-2.91,-2.78,0.12,0.11,0.11
334.18,3.08,2.98,3.09,2.99,-2.99,-2.85,-2.70,0.09,0.11,0.10
337.52,3.03,2.92,3.03,2.92,-2.92,-2.80,-2.62,0.11,0.11,0.11
340.90,2.97,2.86,2.97,2.86,-2.86,-2.74,-2.54,0.11,0.11,0.11
344.30,2.93,2.82,2.91,2.80,-2.80,-2.69,-2.46,0.13,0.11,0.11
347.75,2.81,2.69,2.84,2.73,-2.73,-2.63,-2.39,0.08,0.12,0.12
351.23,2.75,2.64,2.78,2.66,-2.66,-2.58,-2.31,0.09,0.12,0.11
354.74,2.73,2.60,2.72,2.60,-2.60,-2.52,-2.24,0.13,0.13,0.13
358.28,2.67,2.54,2.67,2.53,-2.53,-2.47,-2.17,0.13,0.13,0.13
361.87,2.61,2.47,2.61,2.48,-2.48,-2.41,-2.10,0.13,0.14,0.13
365.49,2.58,2.44,2.56,2.42,-2.42,-2.35,-2.03,0.16,0.14,0.14
369.14,2.50,2.35,2.51,2.36,-2.36,-2.30,-1.97,0.13,0.15,0.15
372.83,2.44,2.28,2.46,2.31,-2.31,-2.24,-1.90,0.13,0.15,0.16
376.56,2.40,2.24,2.40,2.25,-2.25,-2.18,-1.84,0.15,0.15,0.16
380.33,2.33,2.17,2.35,2.20,-2.20,-2.13,-1.78,0.13,0.16,0.16
384.13,2.30,2.13,2.30,2.15,-2.15,-2.07,-1.72,0.15,0.16,0.16
387.97,2.31,2.15,2.26,2.10,-2.10,-2.01,-1.67,0.20,0.15,0.16
391.85,2.24,2.08,2.21,2.05,-2.05,-1.96,-1.61,0.19,0.15,0.16
395.77,2.14,1.99,2.15,2.00,-2.00,-1.90,-1.56,0.14,0.15,0.15
399.73,2.11,1.96,2.10,1.95,-1.95,-1.84,-1.50,0.16,0.14,0.15
403.72,2.06,1.90,2.04,1.90,-1.90,-1.78,-1.45,0.16,0.14,0.16
407.76,1.94,1.80,1.97,1.84,-1.84,-1.73,-1.40,0.10,0.14,0.14
411.84,1.90,1.76,1.91,1.78,-1.78,-1.67,-1.35,0.12,0.13,0.14
415.96,1.90,1.76,1.85,1.72,-1.72,-1.61,-1.30,0.18,0.13,0.14
420.12,1.85,1.72,1.79,1.65,-1.65,-1.55,-1.25,0.19,0.14,0.12
424.32,1.75,1.62,1.74,1.59,-1.59,-1.50,-1.21,0.16,0.15,0.13
428.56,1.69,1.54,1.68,1.52,-1.52,-1.44,-1.16,0.17,0.16,0.15
432.85,1.61,1.44,1.63,1.45,-1.45,-1.38,-1.12,0.16,0.18,0.17
437.18,1.56,1.38,1.60,1.39,-1.39,-1.32,-1.07,0.17,0.21,0.18
441.55,1.52,1.30,1.57,1.33,-1.33,-1.26,-1.03,0.19,0.24,0.22
445.96,1.46,1.20,1.54,1.27,-1.27,-1.20,-0.99,0.19,0.27,0.26
450.42,1.48,1.18,1.53,1.21,-1.21,-1.15,-0.94,0.27,0.32,0.30
454.93,1.51,1.16,1.52,1.15,-1.15,-1.09,-0.90,0.36,0.37,0.35
459.48,1.51,1.10,1.50,1.09,-1.09,-1.03,-0.86,0.42,0.42,0.41
464.07,1.49,1.01,1.50,1.03,-1.03,-0.97,-0.82,0.46,0.47,0.48
468.71,1.50,0.97,1.50,0.97,-0.97,-0.91,-0.78,0.53,0.52,0.53
473.40,1.49,0.90,1.49,0.91,-0.91,-0.85,-0.74,0.57,0.58,0.59
478.13,1.53,0.88,1.49,0.86,-0.86,-0.79,-0.70,0.67,0.63,0.64
482.91,1.58,0.88,1.48,0.80,-0.80,-0.73,-0.66,0.78,0.68,0.69
487.74,1.50,0.76,1.47,0.74,-0.74,-0.67,-0.62,0.76,0.73,0.73
492.62,1.47,0.70,1.45,0.68,-0.68,-0.62,-0.58,0.79,0.77,0.77
497.55,1.44,0.63,1.42,0.62,-0.62,-0.56,-0.54,0.82,0.80,0.81
502.52,1.35,0.52,1.39,0.56,-0.56,-0.50,-0.50,0.79,0.83,0.83
507.55,1.33,0.47,1.35,0.50,-0.50,-0.44,-0.46,0.83,0.85,0.86
512.62,1.31,0.44,1.30,0.44,-0.44,-0.38,-0.42,0.87,0.86,0.87
517.75,1.20,0.32,1.24,0.38,-0.38,-0.32,-0.38,0.82,0.86,0.88
522.93,1.15,0.27,1.17,0.31,-0.31,-0.26,-0.34,0.83,0.86,0.88
528.16,1.14,0.28,1.10,0.25,-0.25,-0.20,-0.30,0.89,0.85,0.86
533.44,1.07,0.23,1.02,0.19,-0.19,-0.14,-0.26,0.88,0.83,0.84
538.77,0.99,0.18,0.94,0.13,-0.13,-0.08,-0.22,0.86,0.81,0.81
544.16,0.86,0.07,0.86,0.08,-0.08,-0.02,-0.18,0.78,0.78,0.79
549.60,0.81,0.05,0.77,0.02,-0.02,0.04,-0.13,0.79,0.75,0.76
555.10,0.72,-0.01,0.68,-0.04,0.04,0.10,-0.09,0.76,0.72,0.73
