frequency,raw
20.00,-8.92
20.20,-8.84
20.40,-8.77
20.61,-8.69
20.81,-8.60
21.02,-8.52
21.23,-8.43
21.44,-8.35
21.66,-8.27
21.87,-8.19
22.09,-8.09
22.31,-8.01
22.54,-7.93
22.76,-7.83
22.99,-7.75
23.22,-7.66
23.45,-7.56
23.69,-7.47
23.92,-7.38
24.16,-7.28
24.40,-7.19
24.65,-7.10
24.89,-7.00
25.14,-6.90
25.39,-6.80
25.65,-6.70
25.91,-6.61
26.16,-6.51
26.43,-6.41
26.69,-6.31
26.96,-6.22
27.23,-6.12
27.50,-6.03
27.77,-5.92
28.05,-5.82
28.33,-5.72
28.62,-5.62
28.90,-5.52
29.19,-5.43
29.48,-5.32
29.78,-5.22
30.08,-5.12
30.38,-5.03
30.68,-4.93
30.99,-4.83
31.30,-4.75
31.61,-4.65
31.93,-4.57
32.24,-4.49
32.57,-4.40
32.89,-4.32
33.22,-4.23
33.55,-4.14
33.89,-4.06
34.23,-3.98
34.57,-3.89
34.92,-3.81
35.27,-3.72
35.62,-3.64
35.97,-3.56
36.33,-3.47
36.70,-3.40
37.06,-3.32
37.43,-3.24
37.81,-3.16
38.19,-3.08
38.57,-3.01
38.95,-2.93
39.34,-2.85
39.74,-2.77
40.14,-2.70
40.54,-2.63
40.94,-2.55
41.35,-2.48
41.76,-2.41
42.18,-2.34
42.60,-2.27
43.03,-2.21
43.46,-2.14
43.90,-2.07
44.33,-2.00
44.78,-1.94
45.23,-1.87
45.68,-1.81
46.13,-1.74
46.60,-1.68
47.06,-1.62
47.53,-1.55
48.01,-1.50
48.49,-1.44
48.97,-1.38
49.46,-1.33
49.96,-1.27
50.46,-1.21
50.96,-1.16
51.47,-1.11
51.99,-1.07
52.51,-1.02
53.03,-0.97
53.56,-0.92
54.10,-0.87
54.64,-0.83
55.18,-0.79
55.74,-0.74
56.29,-0.70
56.86,-0.66
57.42,-0.62
58.00,-0.58
58.58,-0.55
59.16,-0.51
59.76,-0.48
60.35,-0.45
60.96,-0.43
61.57,-0.39
62.18,-0.36
62.80,-0.34
63.43,-0.31
64.07,-0.30
64.71,-0.27
65.35,-0.25
66.01,-0.23
66.67,-0.21
67.33,-0.19
68.01,-0.18
68.69,-0.16
69.37,-0.15
70.07,-0.14
70.77,-0.12
71.48,-0.11
72.19,-0.11
72.91,-0.09
73.64,-0.09
74.38,-0.09
75.12,-0.07
75.87,-0.07
76.63,-0.07
77.40,-0.07
78.17,-0.07
78.95,-0.07
79.74,-0.07
80.54,-0.07
81.35,-0.07
82.16,-0.07
82.98,-0.07
83.81,-0.08
84.65,-0.09
85.50,-0.09
86.35,-0.10
87.22,-0.12
88.09,-0.12
88.97,-0.13
89.86,-0.14
90.76,-0.15
91.66,-0.16
92.58,-0.18
93.51,-0.19
94.44,-0.19
95.39,-0.21
96.34,-0.22
97.30,-0.24
98.28,-0.25
99.26,-0.26
100.25,-0.28
101.25,-0.29
102.27,-0.31
103.29,-0.33
104.32,-0.34
105.37,-0.36
106.42,-0.38
107.48,-0.40
108.56,-0.41
109.64,-0.43
110.74,-0.44
111.85,-0.46
112.97,-0.48
114.10,-0.50
115.24,-0.51
116.39,-0.53
117.55,-0.55
118.73,-0.57
119.92,-0.59
121.12,-0.61
122.33,-0.63
123.55,-0.64
124.79,-0.66
126.03,-0.68
127.29,-0.70
128.57,-0.72
129.85,-0.73
131.15,-0.75
132.46,-0.76
133.79,-0.78
135.12,-0.80
136.48,-0.82
137.84,-0.84
139.22,-0.85
140.61,-0.87
142.02,-0.88
143.44,-0.90
144.87,-0.92
146.32,-0.93
147.78,-0.95
149.26,-0.96
150.75,-0.98
152.26,-1.00
153.78,-1.01
155.32,-1.03
156.88,-1.04
158.44,-1.06
160.03,-1.07
161.63,-1.09
163.24,-1.10
164.88,-1.11
166.53,-1.12
168.19,-1.14
169.87,-1.15
171.57,-1.16
173.29,-1.18
175.02,-1.19
176.77,-1.21
178.54,-1.22
180.32,-1.24
182.13,-1.26
183.95,-1.28
185.79,-1.30
187.65,-1.33
189.52,-1.37
191.42,-1.39
193.33,-1.43
195.27,-1.47
197.22,-1.52
199.19,-1.56
201.18,-1.60
203.19,-1.66
205.23,-1.70
207.28,-1.74
209.35,-1.79
211.44,-1.82
213.56,-1.86
215.69,-1.89
217.85,-1.93
220.03,-1.95
222.23,-1.97
224.45,-1.99
226.70,-2.02
228.96,-2.03
231.25,-2.05
233.57,-2.05
235.90,-2.06
238.26,-2.06
240.64,-2.06
243.05,-2.05
245.48,-2.04
247.93,-2.01
250.41,-1.98
252.92,-1.94
255.45,-1.90
258.00,-1.85
260.58,-1.78
263.19,-1.72
265.82,-1.66
268.48,-1.59
271.16,-1.53
273.87,-1.49
276.61,-1.45
279.38,-1.42
282.17,-1.41
284.99,-1.41
287.84,-1.41
290.72,-1.42
293.63,-1.43
296.57,-1.45
299.53,-1.48
302.53,-1.50
305.55,-1.52
308.61,-1.53
311.69,-1.55
314.81,-1.56
317.96,-1.59
321.14,-1.60
324.35,-1.61
327.59,-1.63
330.87,-1.64
334.18,-1.66
337.52,-1.66
340.90,-1.68
344.30,-1.70
347.75,-1.73
351.23,-1.74
354.74,-1.77
358.28,-1.79
361.87,-1.81
365.49,-1.83
369.14,-1.85
372.83,-1.86
376.56,-1.86
380.33,-1.87
384.13,-1.87
387.97,-1.88
391.85,-1.87
395.77,-1.87
399.73,-1.85
403.72,-1.85
407.76,-1.84
411.84,-1.83
415.96,-1.80
420.12,-1.79
424.32,-1.77
428.56,-1.75
432.85,-1.73
437.18,-1.71
441.55,-1.68
445.96,-1.66
450.42,-1.65
454.93,-1.64
459.48,-1.62
464.07,-1.61
468.71,-1.59
473.40,-1.58
478.13,-1.56
482.91,-1.55
487.74,-1.53
492.62,-1.51
497.55,-1.49
502.52,-1.49
507.55,-1.47
512.62,-1.45
517.75,-1.43
522.93,-1.42
528.16,-1.40
533.44,-1.38
538.77,-1.37
544.16,-1.35
549.60,-1.33
555.10,-1.31
560.65,-1.30
566.25,-1.28
571.92,-1.25
577.64,-1.24
583.41,-1.23
589.25,-1.20
595.14,-1.19
601.09,-1.17
607.10,-1.15
613.17,-1.13
619.30,-1.11
625.50,-1.09
631.75,-1.08
638.07,-1.06
644.45,-1.04
650.89,-1.02
657.40,-1.00
663.98,-0.98
670.62,-0.96
677.32,-0.93
684.10,-0.92
690.94,-0.89
697.85,-0.87
704.83,-0.84
711.87,-0.82
718.99,-0.80
726.18,-0.79
733.44,-0.76
740.78,-0.74
748.19,-0.72
755.67,-0.70
763.23,-0.68
770.86,-0.66
778.57,-0.64
786.35,-0.62
794.22,-0.60
802.16,-0.58
810.18,-0.57
818.28,-0.54
826.46,-0.52
834.73,-0.50
843.08,-0.48
851.51,-0.45
860.02,-0.44
868.62,-0.41
877.31,-0.39
886.08,-0.36
894.94,-0.33
903.89,-0.31
912.93,-0.28
922.06,-0.25
931.28,-0.22
940.59,-0.19
950.00,-0.16
959.50,-0.13
969.09,-0.10
978.78,-0.07
988.57,-0.04
998.46,-0.00
1008.44,0.03
1018.53,0.06
1028.71,0.10
1039.00,0.14
1049.39,0.18
1059.88,0.22
1070.48,0.25
1081.19,0.29
1092.00,0.34
1102.92,0.38
1113.95,0.42
1125.09,0.47
1136.34,0.51
1147.70,0.57
1159.18,0.62
1170.77,0.68
1182.48,0.74
1194.30,0.81
1206.25,0.88
1218.31,0.96
1230.49,1.03
1242.80,1.11
1255.22,1.20
1267.78,1.28
1280.45,1.36
1293.26,1.45
1306.19,1.54
1319.25,1.63
1332.45,1.72
1345.77,1.81
1359.23,1.91
1372.82,2.02
1386.55,2.12
1400.41,2.23
1414.42,2.34
1428.56,2.46
1442.85,2.58
1457.28,2.70
1471.85,2.82
1486.57,2.95
1501.43,3.08
1516.45,3.21
1531.61,3.35
1546.93,3.49
1562.40,3.63
1578.02,3.78
1593.80,3.93
1609.74,4.09
1625.84,4.25
1642.10,4.42
1658.52,4.59
1675.10,4.79
1691.85,4.99
1708.77,5.22
1725.86,5.49
1743.12,5.81
1760.55,6.17
1778.15,6.60
1795.94,7.10
1813.90,7.65
1832.03,8.22
1850.36,8.81
1868.86,9.39
1887.55,9.95
1906.42,10.45
1925.49,10.89
1944.74,11.27
1964.19,11.56
1983.83,11.83
2003.67,12.06
2023.71,12.28
2043.94,12.49
2064.38,12.68
2085.03,12.87
2105.88,13.05
2126.94,13.23
2148.20,13.40
2169.69,13.56
2191.38,13.72
2213.30,13.86
2235.43,13.99
2257.78,14.11
2280.36,14.20
2303.17,14.27
2326.20,14.32
2349.46,14.33
2372.95,14.30
2396.68,14.25
2420.65,14.16
2444.86,14.06
2469.31,13.95
2494.00,13.85
2518.94,13.75
2544.13,13.68
2569.57,13.61
2595.27,13.57
2621.22,13.52
2647.43,13.47
2673.90,13.42
2700.64,13.36
2727.65,13.28
2754.93,13.20
2782.48,13.09
2810.30,12.95
2838.40,12.81
2866.79,12.67
2895.46,12.52
2924.41,12.38
2953.65,12.26
2983.19,12.15
3013.02,12.05
3043.15,11.98
3073.58,11.91
3104.32,11.85
3135.36,11.78
3166.72,11.68
3198.38,11.56
3230.37,11.41
3262.67,11.22
3295.30,11.02
3328.25,10.80
3361.53,10.58
3395.15,10.37
3429.10,10.17
3463.39,9.99
3498.03,9.84
3533.01,9.70
3568.34,9.59
3604.02,9.50
3640.06,9.42
3676.46,9.34
3713.22,9.28
3750.36,9.23
3787.86,9.19
3825.74,9.16
3864.00,9.16
3902.64,9.15
3941.66,9.14
3981.08,9.15
4020.89,9.14
4061.10,9.15
4101.71,9.15
4142.73,9.17
4184.15,9.19
4226.00,9.18
4268.26,9.16
4310.94,9.12
4354.05,9.03
4397.59,8.90
4441.56,8.73
4485.98,8.50
4530.84,8.20
4576.15,7.87
4621.91,7.51
4668.13,7.11
4714.81,6.71
4761.96,6.31
4809.58,5.96
4857.67,5.66
4906.25,5.40
4955.31,5.30
5004.87,5.32
5054.91,5.43
5105.46,5.67
5156.52,5.95
5208.08,6.24
5260.16,6.53
5312.77,6.78
5365.89,6.99
5419.55,7.15
5473.75,7.22
5528.49,7.23
5583.77,7.20
5639.61,7.11
5696.00,7.02
5752.96,6.89
5810.49,6.73
5868.60,6.53
5927.28,6.29
5986.56,6.00
6046.42,5.68
6106.89,5.37
6167.96,5.06
6229.64,4.78
6291.93,4.51
6354.85,4.26
6418.40,4.06
6482.58,3.91
6547.41,3.79
6612.88,3.72
6679.01,3.68
6745.80,3.67
6813.26,3.69
6881.39,3.73
6950.21,3.78
7019.71,3.88
7089.91,4.01
7160.81,4.16
7232.41,4.35
7304.74,4.55
7377.79,4.78
7451.56,5.04
7526.08,5.39
7601.34,5.77
7677.35,6.20
7754.13,6.72
7831.67,7.28
7909.98,7.89
7989.08,8.52
8068.98,9.14
8149.67,9.72
8231.16,10.24
8313.47,10.63
8396.61,10.95
8480.57,11.16
8565.38,11.24
8651.03,11.28
8737.54,11.25
8824.92,11.18
8913.17,11.11
9002.30,11.04
9092.32,11.00
9183.25,10.98
9275.08,10.99
9367.83,11.03
9461.51,11.09
9556.12,11.14
9651.68,11.17
9748.20,11.13
9845.68,11.04
9944.14,10.87
10043.58,10.58
10144.02,10.24
10245.46,9.84
10347.91,9.37
10451.39,8.88
10555.91,8.42
10661.46,7.97
10768.08,7.59
10875.76,7.24
10984.52,6.96
11094.36,6.75
11205.31,6.58
11317.36,6.45
11430.53,6.33
11544.84,6.19
11660.29,6.00
11776.89,5.69
11894.66,5.29
12013.60,4.78
12133.74,4.13
12255.08,3.43
12377.63,2.70
12501.41,2.01
12626.42,1.42
12752.68,0.91
12880.21,0.55
13009.01,0.28
13139.10,0.05
13270.49,-0.21
13403.20,-0.65
13537.23,-1.13
13672.60,-1.66
13809.33,-2.15
13947.42,-2.57
14086.90,-2.93
14227.77,-3.20
14370.04,-3.47
14513.74,-3.74
14658.88,-4.09
14805.47,-4.50
14953.52,-4.97
15103.06,-5.50
15254.09,-6.13
15406.63,-6.73
15560.70,-7.28
15716.30,-7.65
15873.47,-7.90
16032.20,-8.05
16192.52,-8.10
16354.45,-8.17
16517.99,-8.31
16683.17,-8.59
16850.01,-9.01
17018.51,-9.51
17188.69,-10.12
17360.58,-10.78
17534.18,-11.50
17709.53,-12.24
17886.62,-13.02
18065.49,-13.81
18246.14,-14.58
18428.60,-15.22
18612.89,-15.75
18799.02,-16.19
18987.01,-16.53
19176.88,-16.82
19368.65,-17.07
19562.33,-17.34
19757.96,-17.54
19955.54,-17.70
