frequency,raw
20.00,6.35
20.20,6.38
20.40,6.41
20.61,6.44
20.81,6.47
21.02,6.50
21.23,6.53
21.44,6.56
21.66,6.59
21.87,6.61
22.09,6.64
22.31,6.67
22.54,6.70
22.76,6.72
22.99,6.75
23.22,6.77
23.45,6.80
23.69,6.82
23.92,6.84
24.16,6.87
24.40,6.89
24.65,6.92
24.89,6.94
25.14,6.96
25.39,6.98
25.65,7.00
25.91,7.02
26.16,7.04
26.43,7.06
26.69,7.08
26.96,7.10
27.23,7.11
27.50,7.13
27.77,7.15
28.05,7.16
28.33,7.18
28.62,7.19
28.90,7.21
29.19,7.22
29.48,7.23
29.78,7.24
30.08,7.25
30.38,7.27
30.68,7.28
30.99,7.29
31.30,7.30
31.61,7.31
31.93,7.32
32.24,7.33
32.57,7.34
32.89,7.35
33.22,7.35
33.55,7.36
33.89,7.37
34.23,7.37
34.57,7.38
34.92,7.39
35.27,7.39
35.62,7.40
35.97,7.40
36.33,7.40
36.70,7.41
37.06,7.41
37.43,7.41
37.81,7.42
38.19,7.42
38.57,7.43
38.95,7.43
39.34,7.43
39.74,7.43
40.14,7.43
40.54,7.42
40.94,7.42
41.35,7.42
41.76,7.42
42.18,7.42
42.60,7.41
43.03,7.41
43.46,7.41
43.90,7.40
44.33,7.40
44.78,7.39
45.23,7.39
45.68,7.38
46.13,7.38
46.60,7.37
47.06,7.36
47.53,7.35
48.01,7.35
48.49,7.35
48.97,7.34
49.46,7.34
49.96,7.34
50.46,7.34
50.96,7.33
51.47,7.29
51.99,7.25
52.51,7.20
53.03,7.16
53.56,7.15
54.10,7.14
54.64,7.15
55.18,7.15
55.74,7.15
56.29,7.14
56.86,7.11
57.42,7.07
58.00,7.04
58.58,7.01
59.16,6.99
59.76,6.98
60.35,6.98
60.96,6.97
61.57,6.96
62.18,6.96
62.80,6.94
63.43,6.92
64.07,6.90
64.71,6.88
65.35,6.86
66.01,6.83
66.67,6.81
67.33,6.79
68.01,6.76
68.69,6.74
69.37,6.72
70.07,6.70
70.77,6.68
71.48,6.66
72.19,6.65
72.91,6.63
73.64,6.60
74.38,6.57
75.12,6.52
75.87,6.48
76.63,6.44
77.40,6.40
78.17,6.36
78.95,6.33
79.74,6.32
80.54,6.30
81.35,6.28
82.16,6.26
82.98,6.23
83.81,6.21
84.65,6.17
85.50,6.14
86.35,6.10
87.22,6.06
88.09,6.03
88.97,5.99
89.86,5.96
90.76,5.94
91.66,5.91
92.58,5.88
93.51,5.85
94.44,5.82
95.39,5.78
96.34,5.74
97.30,5.69
98.28,5.65
99.26,5.59
100.25,5.54
101.25,5.49
102.27,5.45
103.29,5.43
104.32,5.40
105.37,5.37
106.42,5.33
107.48,5.29
108.56,5.24
109.64,5.19
110.74,5.14
111.85,5.10
112.97,5.06
114.10,5.03
115.24,4.99
116.39,4.96
117.55,4.92
118.73,4.87
119.92,4.82
121.12,4.78
122.33,4.73
123.55,4.68
124.79,4.64
126.03,4.59
127.29,4.55
128.57,4.52
129.85,4.48
131.15,4.44
132.46,4.39
133.79,4.34
135.12,4.27
136.48,4.21
137.84,4.16
139.22,4.10
140.61,4.05
142.02,3.99
143.44,3.94
144.87,3.89
146.32,3.84
147.78,3.79
149.26,3.74
150.75,3.69
152.26,3.64
153.78,3.59
155.32,3.53
156.88,3.47
158.44,3.43
160.03,3.38
161.63,3.33
163.24,3.28
164.88,3.23
166.53,3.18
168.19,3.13
169.87,3.08
171.57,3.04
173.29,2.99
175.02,2.94
176.77,2.90
178.54,2.84
180.32,2.78
182.13,2.71
183.95,2.65
185.79,2.60
187.65,2.55
189.52,2.50
191.42,2.47
193.33,2.43
195.27,2.40
197.22,2.36
199.19,2.32
201.18,2.27
203.19,2.22
205.23,2.17
207.28,2.12
209.35,2.08
211.44,2.04
213.56,1.99
215.69,1.95
217.85,1.88
220.03,1.82
222.23,1.75
224.45,1.69
226.70,1.65
228.96,1.61
231.25,1.57
233.57,1.54
235.90,1.49
238.26,1.45
240.64,1.41
243.05,1.36
245.48,1.32
247.93,1.26
250.41,1.22
252.92,1.16
255.45,1.12
258.00,1.07
260.58,1.02
263.19,0.96
265.82,0.90
268.48,0.85
271.16,0.80
273.87,0.74
276.61,0.69
279.38,0.63
282.17,0.58
284.99,0.53
287.84,0.47
290.72,0.42
293.63,0.36
296.57,0.31
299.53,0.25
302.53,0.19
305.55,0.14
308.61,0.08
311.69,0.03
314.81,-0.03
317.96,-0.08
321.14,-0.14
324.35,-0.20
327.59,-0.25
330.87,-0.31
334.18,-0.37
337.52,-0.42
340.90,-0.48
344.30,-0.54
347.75,-0.59
351.23,-0.65
354.74,-0.71
358.28,-0.77
361.87,-0.82
365.49,-0.88
369.14,-0.94
372.83,-0.99
376.56,-1.04
380.33,-1.10
384.13,-1.15
387.97,-1.20
391.85,-1.24
395.77,-1.28
399.73,-1.32
403.72,-1.35
407.76,-1.38
411.84,-1.40
415.96,-1.42
420.12,-1.45
424.32,-1.47
428.56,-1.49
432.85,-1.51
437.18,-1.54
441.55,-1.57
445.96,-1.59
450.42,-1.63
454.93,-1.65
459.48,-1.69
464.07,-1.72
468.71,-1.76
473.40,-1.80
478.13,-1.84
482.91,-1.88
487.74,-1.93
492.62,-1.97
497.55,-2.02
502.52,-2.07
507.55,-2.13
512.62,-2.19
517.75,-2.26
522.93,-2.33
528.16,-2.39
533.44,-2.43
538.77,-2.47
544.16,-2.49
549.60,-2.50
555.10,-2.51
560.65,-2.53
566.25,-2.54
571.92,-2.54
577.64,-2.55
583.41,-2.56
589.25,-2.55
595.14,-2.54
601.09,-2.53
607.10,-2.51
613.17,-2.50
619.30,-2.51
625.50,-2.51
631.75,-2.52
638.07,-2.53
644.45,-2.52
650.89,-2.51
657.40,-2.49
663.98,-2.47
670.62,-2.46
677.32,-2.45
684.10,-2.46
690.94,-2.46
697.85,-2.46
704.83,-2.45
711.87,-2.43
718.99,-2.41
726.18,-2.38
733.44,-2.35
740.78,-2.32
748.19,-2.29
755.67,-2.27
763.23,-2.25
770.86,-2.23
778.57,-2.19
786.35,-2.14
794.22,-2.08
802.16,-2.01
810.18,-1.94
818.28,-1.87
826.46,-1.79
834.73,-1.71
843.08,-1.63
851.51,-1.54
860.02,-1.44
868.62,-1.35
877.31,-1.26
886.08,-1.15
894.94,-1.05
903.89,-0.95
912.93,-0.85
922.06,-0.76
931.28,-0.67
940.59,-0.57
950.00,-0.47
959.50,-0.37
969.09,-0.27
978.78,-0.17
988.57,-0.09
998.46,-0.01
1008.44,0.06
1018.53,0.14
1028.71,0.21
1039.00,0.32
1049.39,0.46
1059.88,0.63
1070.48,0.84
1081.19,1.05
1092.00,1.27
1102.92,1.47
1113.95,1.63
1125.09,1.77
1136.34,1.87
1147.70,1.94
1159.18,2.00
1170.77,2.05
1182.48,2.11
1194.30,2.17
1206.25,2.23
1218.31,2.30
1230.49,2.38
1242.80,2.47
1255.22,2.56
1267.78,2.67
1280.45,2.77
1293.26,2.88
1306.19,2.97
1319.25,3.05
1332.45,3.12
1345.77,3.18
1359.23,3.26
1372.82,3.35
1386.55,3.45
1400.41,3.55
1414.42,3.65
1428.56,3.76
1442.85,3.84
1457.28,3.93
1471.85,4.00
1486.57,4.09
1501.43,4.19
1516.45,4.29
1531.61,4.42
1546.93,4.55
1562.40,4.67
1578.02,4.80
1593.80,4.92
1609.74,5.04
1625.84,5.16
1642.10,5.30
1658.52,5.42
1675.10,5.56
1691.85,5.70
1708.77,5.85
1725.86,5.99
1743.12,6.16
1760.55,6.33
1778.15,6.49
1795.94,6.66
1813.90,6.84
1832.03,7.01
1850.36,7.18
1868.86,7.35
1887.55,7.53
1906.42,7.71
1925.49,7.89
1944.74,8.07
1964.19,8.25
1983.83,8.43
2003.67,8.63
2023.71,8.83
2043.94,9.05
2064.38,9.26
2085.03,9.49
2105.88,9.72
2126.94,9.95
2148.20,10.19
2169.69,10.42
2191.38,10.65
2213.30,10.90
2235.43,11.15
2257.78,11.41
2280.36,11.69
2303.17,11.97
2326.20,12.24
2349.46,12.52
2372.95,12.78
2396.68,13.05
2420.65,13.33
2444.86,13.60
2469.31,13.92
2494.00,14.23
2518.94,14.54
2544.13,14.87
2569.57,15.20
2595.27,15.51
2621.22,15.80
2647.43,16.05
2673.90,16.27
2700.64,16.45
2727.65,16.60
2754.93,16.72
2782.48,16.81
2810.30,16.88
2838.40,16.93
2866.79,16.96
2895.46,16.98
2924.41,16.96
2953.65,16.92
2983.19,16.85
3013.02,16.74
3043.15,16.62
3073.58,16.46
3104.32,16.30
3135.36,16.12
3166.72,15.93
3198.38,15.73
3230.37,15.51
3262.67,15.30
3295.30,15.09
3328.25,14.89
3361.53,14.70
3395.15,14.52
3429.10,14.35
3463.39,14.20
3498.03,14.06
3533.01,13.93
3568.34,13.79
3604.02,13.66
3640.06,13.54
3676.46,13.43
3713.22,13.34
3750.36,13.27
3787.86,13.20
3825.74,13.16
3864.00,13.15
3902.64,13.17
3941.66,13.19
3981.08,13.23
4020.89,13.27
4061.10,13.33
4101.71,13.40
4142.73,13.50
4184.15,13.61
4226.00,13.75
4268.26,13.92
4310.94,14.12
4354.05,14.35
4397.59,14.63
4441.56,14.96
4485.98,15.33
4530.84,15.75
4576.15,16.16
4621.91,16.56
4668.13,16.90
4714.81,17.15
4761.96,17.35
4809.58,17.46
4857.67,17.62
4906.25,17.86
4955.31,18.22
5004.87,18.63
5054.91,19.02
5105.46,19.29
5156.52,19.33
5208.08,19.17
5260.16,18.82
5312.77,18.24
5365.89,17.56
5419.55,16.81
5473.75,16.00
5528.49,15.19
5583.77,14.38
5639.61,13.60
5696.00,12.87
5752.96,12.15
5810.49,11.46
5868.60,10.81
5927.28,10.20
5986.56,9.61
6046.42,9.08
6106.89,8.59
6167.96,8.13
6229.64,7.72
6291.93,7.34
6354.85,6.97
6418.40,6.64
6482.58,6.35
6547.41,6.11
6612.88,5.90
6679.01,5.72
6745.80,5.56
6813.26,5.44
6881.39,5.32
6950.21,5.25
7019.71,5.20
7089.91,5.18
7160.81,5.22
7232.41,5.30
7304.74,5.41
7377.79,5.54
7451.56,5.69
7526.08,5.88
7601.34,6.15
7677.35,6.47
7754.13,6.87
7831.67,7.35
7909.98,7.87
7989.08,8.42
8068.98,8.98
8149.67,9.48
8231.16,9.92
8313.47,10.22
8396.61,10.37
8480.57,10.34
8565.38,10.02
8651.03,9.44
8737.54,8.67
8824.92,7.77
8913.17,6.87
9002.30,5.84
9092.32,4.87
9183.25,4.00
9275.08,3.11
9367.83,2.18
9461.51,1.26
9556.12,0.36
9651.68,-0.48
9748.20,-1.22
9845.68,-1.88
9944.14,-2.48
10043.58,-3.04
10144.02,-3.54
10245.46,-3.98
10347.91,-4.42
10451.39,-4.85
10555.91,-5.20
10661.46,-5.46
10768.08,-5.69
10875.76,-5.90
10984.52,-6.09
11094.36,-6.22
11205.31,-6.31
11317.36,-6.29
11430.53,-5.98
11544.84,-6.03
11660.29,-6.47
11776.89,-6.33
11894.66,-6.09
12013.60,-5.82
12133.74,-5.26
12255.08,-4.85
12377.63,-4.50
12501.41,-4.10
12626.42,-3.77
12752.68,-3.49
12880.21,-3.30
13009.01,-3.21
13139.10,-3.22
13270.49,-3.25
13403.20,-3.21
13537.23,-3.16
13672.60,-3.12
13809.33,-3.13
13947.42,-3.16
14086.90,-3.21
14227.77,-3.35
14370.04,-3.69
14513.74,-4.18
14658.88,-4.83
14805.47,-5.61
14953.52,-6.43
15103.06,-7.24
15254.09,-7.94
15406.63,-8.53
15560.70,-9.02
15716.30,-9.35
15873.47,-9.53
16032.20,-9.58
16192.52,-9.48
16354.45,-9.22
16517.99,-8.84
16683.17,-8.37
16850.01,-7.82
17018.51,-7.30
17188.69,-6.85
17360.58,-6.63
17534.18,-6.65
17709.53,-6.87
17886.62,-7.38
18065.49,-8.08
18246.14,-8.92
18428.60,-9.86
18612.89,-10.86
18799.02,-11.85
18987.01,-12.80
19176.88,-13.65
19368.65,-14.41
19562.33,-15.05
19757.96,-15.63
19955.54,-16.22
