frequency,raw,error,smoothed,error_smoothed,equalization,parametric_eq,equalized_raw,equalized_smoothed,target
20,-6.80,-11.05,-6.70,-10.95,6.00,2.84,-0.80,-0.70,4.25
21,-6.31,-10.55,-6.38,-10.62,6.00,3.26,-0.31,-0.38,4.24
22,-6.06,-10.29,-6.08,-10.30,6.00,3.72,-0.06,-0.08,4.23
23,-5.78,-10.00,-5.78,-10.00,6.00,4.22,0.22,0.22,4.22
24,-5.47,-9.68,-5.49,-9.70,6.00,4.75,0.53,0.51,4.21
25,-5.09,-9.29,-5.21,-9.41,6.00,5.30,0.91,0.79,4.19
26,-4.89,-9.07,-4.94,-9.12,6.00,5.84,1.11,1.06,4.18
27,-4.69,-8.86,-4.69,-8.85,6.00,6.36,1.31,1.31,4.17
28,-4.49,-8.64,-4.44,-8.59,6.00,6.82,1.51,1.56,4.15
29,-4.25,-8.39,-4.20,-8.34,6.00,7.20,1.75,1.80,4.13
30,-3.98,-8.10,-3.98,-8.09,6.00,7.45,2.02,2.02,4.12
31,-3.76,-7.86,-3.76,-7.86,6.00,7.57,2.24,2.24,4.10
32,-3.56,-7.64,-3.55,-7.63,6.00,7.56,2.44,2.45,4.08
33,-3.36,-7.42,-3.36,-7.41,6.00,7.43,2.64,2.64,4.06
34,-3.08,-7.12,-3.17,-7.20,6.00,7.21,2.92,2.83,4.04
35,-2.98,-7.00,-2.99,-7.00,6.00,6.94,3.02,3.01,4.01
36,-2.78,-6.77,-2.81,-6.80,6.00,6.64,3.22,3.19,3.99
37,-2.68,-6.65,-2.65,-6.61,6.00,6.32,3.32,3.35,3.96
38,-2.51,-6.45,-2.49,-6.43,6.00,6.01,3.49,3.51,3.93
39,-2.38,-6.29,-2.34,-6.25,5.97,5.72,3.59,3.63,3.91
40,-2.21,-6.09,-2.20,-6.08,5.91,5.45,3.70,3.71,3.88
41,-1.98,-5.83,-2.07,-5.91,5.82,5.20,3.83,3.75,3.85
42,-1.98,-5.80,-1.94,-5.75,5.71,4.97,3.72,3.77,3.82
43,-1.78,-5.57,-1.81,-5.60,5.58,4.77,3.80,3.77,3.78
44,-1.70,-5.45,-1.70,-5.44,5.44,4.59,3.74,3.75,3.75
45,-1.57,-5.29,-1.58,-5.29,5.29,4.44,3.72,3.71,3.71
46,-1.47,-5.15,-1.47,-5.15,5.15,4.30,3.67,3.68,3.68
47,-1.37,-5.01,-1.37,-5.00,5.00,4.18,3.63,3.64,3.64
48,-1.27,-4.87,-1.26,-4.86,4.86,4.08,3.59,3.60,3.60
49,-1.17,-4.73,-1.16,-4.72,4.72,4.00,3.55,3.56,3.56
50,-1.07,-4.59,-1.07,-4.59,4.59,3.92,3.51,3.52,3.52
51,-0.97,-4.45,-0.97,-4.45,4.45,3.86,3.48,3.48,3.48
52,-0.87,-4.31,-0.88,-4.31,4.31,3.81,3.44,3.44,3.44
53,-0.80,-4.20,-0.79,-4.18,4.18,3.76,3.38,3.39,3.39
54,-0.67,-4.02,-0.70,-4.05,4.05,3.71,3.37,3.35,3.35
55,-0.67,-3.98,-0.62,-3.92,3.92,3.67,3.24,3.30,3.30
56,-0.47,-3.73,-0.53,-3.79,3.79,3.63,3.31,3.26,3.26
57,-0.47,-3.68,-0.45,-3.66,3.66,3.58,3.19,3.21,3.21
58,-0.37,-3.53,-0.37,-3.53,3.53,3.53,3.16,3.16,3.16
59,-0.27,-3.39,-0.30,-3.41,3.41,3.48,3.14,3.11,3.11
60,-0.27,-3.34,-0.22,-3.29,3.29,3.43,3.01,3.06,3.06
61,-0.07,-3.09,-0.15,-3.17,3.17,3.36,3.09,3.01,3.01
62,-0.07,-3.04,-0.08,-3.05,3.05,3.29,2.97,2.96,2.96
63,-0.07,-2.98,-0.02,-2.93,2.93,3.22,2.86,2.91,2.91
64,0.03,-2.83,0.05,-2.81,2.81,3.14,2.84,2.86,2.86
65,0.14,-2.67,0.11,-2.70,2.70,3.05,2.83,2.81,2.81
66,0.14,-2.62,0.17,-2.59,2.59,2.95,2.72,2.75,2.75
67,0.23,-2.48,0.23,-2.47,2.47,2.85,2.70,2.70,2.70
68,0.28,-2.37,0.28,-2.36,2.36,2.75,2.64,2.65,2.65
69,0.34,-2.26,0.34,-2.26,2.26,2.65,2.59,2.59,2.59
70,0.44,-2.11,0.39,-2.15,2.15,2.54,2.59,2.54,2.54
71,0.44,-2.05,0.44,-2.05,2.05,2.43,2.49,2.49,2.49
72,0.52,-1.92,0.48,-1.95,1.95,2.31,2.46,2.43,2.43
73,0.54,-1.84,0.53,-1.85,1.85,2.20,2.39,2.38,2.38
74,0.54,-1.79,0.57,-1.75,1.75,2.09,2.29,2.32,2.32
75,0.64,-1.63,0.61,-1.66,1.66,1.98,2.29,2.27,2.27
76,0.64,-1.58,0.65,-1.57,1.57,1.86,2.20,2.22,2.22
77,0.64,-1.53,0.69,-1.47,1.47,1.75,2.11,2.16,2.16
78,0.74,-1.37,0.73,-1.38,1.38,1.64,2.12,2.11,2.11
79,0.79,-1.27,0.76,-1.29,1.29,1.54,2.08,2.05,2.05
80,0.84,-1.16,0.80,-1.20,1.20,1.43,2.04,2.00,2.00
81,0.84,-1.11,0.84,-1.11,1.11,1.33,1.95,1.95,1.95
82,0.84,-1.06,0.87,-1.02,1.02,1.22,1.86,1.89,1.89
83,0.89,-0.95,0.91,-0.93,0.93,1.12,1.82,1.84,1.84
84,0.94,-0.85,0.95,-0.84,0.84,1.02,1.78,1.79,1.79
85,0.99,-0.75,0.98,-0.75,0.75,0.92,1.74,1.73,1.73
86,1.04,-0.65,1.02,-0.66,0.66,0.83,1.70,1.68,1.68
87,1.04,-0.59,1.06,-0.57,0.57,0.73,1.61,1.63,1.63
88,1.14,-0.44,1.09,-0.49,0.49,0.64,1.62,1.58,1.58
89,1.14,-0.39,1.12,-0.40,0.40,0.55,1.54,1.53,1.53
90,1.15,-0.33,1.16,-0.32,0.32,0.46,1.47,1.48,1.48
91,1.15,-0.28,1.19,-0.24,0.24,0.37,1.39,1.43,1.43
92,1.23,-0.15,1.22,-0.16,0.16,0.28,1.39,1.38,1.38
93,1.25,-0.08,1.24,-0.09,0.09,0.20,1.33,1.33,1.33
94,1.25,-0.03,1.27,-0.01,0.01,0.11,1.26,1.28,1.28
95,1.35,0.12,1.29,0.06,-0.06,0.03,1.28,1.23,1.23
96,1.35,0.16,1.31,0.13,-0.13,-0.05,1.22,1.18,1.18
97,1.34,0.20,1.33,0.20,-0.20,-0.13,1.14,1.13,1.13
98,1.33,0.24,1.34,0.26,-0.26,-0.21,1.06,1.08,1.09
99,1.32,0.27,1.36,0.32,-0.32,-0.29,0.99,1.03,1.04
100,1.31,0.31,1.36,0.38,-0.38,-0.36,0.93,0.98,1.00
101,1.39,0.44,1.37,0.43,-0.43,-0.44,0.95,0.94,0.95
102,1.37,0.46,1.37,0.48,-0.48,-0.51,0.88,0.89,0.91
104,1.45,0.63,1.37,0.53,-0.53,-0.66,0.92,0.84,0.82
105,1.42,0.64,1.36,0.57,-0.57,-0.72,0.85,0.79,0.78
106,1.40,0.66,1.36,0.61,-0.61,-0.79,0.79,0.75,0.74
107,1.37,0.67,1.35,0.65,-0.65,-0.86,0.72,0.70,0.70
108,1.35,0.69,1.34,0.68,-0.68,-0.92,0.66,0.66,0.66
109,1.33,0.71,1.34,0.72,-0.72,-0.98,0.61,0.62,0.62
110,1.31,0.73,1.34,0.76,-0.76,-1.04,0.55,0.58,0.58
111,1.29,0.74,1.34,0.80,-0.80,-1.10,0.49,0.54,0.54
112,1.28,0.77,1.34,0.84,-0.84,-1.16,0.44,0.50,0.51
113,1.27,0.79,1.35,0.88,-0.88,-1.21,0.38,0.47,0.47
114,1.33,0.88,1.36,0.93,-0.93,-1.26,0.39,0.43,0.44
115,1.37,0.96,1.38,0.98,-0.98,-1.31,0.38,0.39,0.41
117,1.47,1.12,1.40,1.04,-1.04,-1.40,0.43,0.36,0.34
118,1.47,1.15,1.41,1.09,-1.09,-1.44,0.38,0.32,0.32
119,1.48,1.19,1.43,1.14,-1.14,-1.48,0.33,0.29,0.29
120,1.48,1.22,1.45,1.19,-1.19,-1.52,0.28,0.26,0.26
121,1.49,1.25,1.47,1.24,-1.24,-1.56,0.24,0.22,0.23
123,1.50,1.32,1.48,1.29,-1.29,-1.62,0.21,0.19,0.18
124,1.51,1.35,1.49,1.33,-1.33,-1.65,0.17,0.16,0.15
125,1.51,1.37,1.51,1.38,-1.38,-1.68,0.13,0.13,0.13
126,1.52,1.41,1.52,1.42,-1.42,-1.70,0.10,0.10,0.11
128,1.53,1.47,1.53,1.46,-1.46,-1.74,0.06,0.07,0.06
129,1.53,1.49,1.55,1.50,-1.50,-1.76,0.02,0.04,0.04
130,1.54,1.52,1.57,1.55,-1.55,-1.78,-0.01,0.01,0.02
131,1.54,1.54,1.58,1.60,-1.60,-1.79,-0.06,-0.01,-0.00
133,1.55,1.59,1.61,1.65,-1.65,-1.82,-0.10,-0.04,-0.05
134,1.58,1.64,1.63,1.70,-1.70,-1.83,-0.12,-0.07,-0.07
135,1.66,1.74,1.65,1.75,-1.75,-1.83,-0.09,-0.10,-0.08
137,1.75,1.87,1.68,1.80,-1.80,-1.85,-0.05,-0.12,-0.13
138,1.76,1.90,1.70,1.85,-1.85,-1.85,-0.09,-0.15,-0.15
140,1.77,1.95,1.72,1.90,-1.90,-1.86,-0.13,-0.18,-0.19
141,1.77,1.97,1.74,1.94,-1.94,-1.87,-0.18,-0.20,-0.20
142,1.77,1.99,1.75,1.98,-1.98,-1.87,-0.22,-0.23,-0.22
144,1.77,2.03,1.76,2.02,-2.02,-1.87,-0.26,-0.26,-0.26
145,1.77,2.05,1.77,2.06,-2.06,-1.87,-0.29,-0.29,-0.28
147,1.77,2.08,1.78,2.09,-2.09,-1.88,-0.32,-0.31,-0.32
148,1.77,2.10,1.78,2.12,-2.12,-1.88,-0.35,-0.34,-0.34
150,1.77,2.14,1.78,2.14,-2.14,-1.88,-0.38,-0.37,-0.37
151,1.77,2.16,1.78,2.17,-2.17,-1.88,-0.40,-0.39,-0.39
153,1.77,2.19,1.77,2.19,-2.19,-1.88,-0.43,-0.42,-0.42
154,1.77,2.21,1.77,2.22,-2.22,-1.89,-0.45,-0.45,-0.44
156,1.77,2.24,1.77,2.24,-2.24,-1.89,-0.48,-0.47,-0.47
157,1.77,2.26,1.77,2.26,-2.26,-1.89,-0.50,-0.50,-0.49
159,1.77,2.29,1.77,2.29,-2.29,-1.90,-0.52,-0.52,-0.52
160,1.77,2.30,1.76,2.31,-2.31,-1.90,-0.54,-0.54,-0.54
162,1.77,2.33,1.76,2.33,-2.33,-1.91,-0.56,-0.57,-0.57
164,1.77,2.36,1.76,2.35,-2.35,-1.92,-0.58,-0.59,-0.60
165,1.76,2.37,1.75,2.36,-2.36,-1.93,-0.61,-0.61,-0.61
167,1.76,2.39,1.75,2.38,-2.38,-1.94,-0.63,-0.63,-0.64
169,1.75,2.41,1.74,2.40,-2.40,-1.96,-0.65,-0.65,-0.66
170,1.75,2.42,1.74,2.41,-2.41,-1.97,-0.66,-0.67,-0.67
172,1.74,2.43,1.73,2.42,-2.42,-1.99,-0.69,-0.69,-0.69
174,1.73,2.44,1.73,2.44,-2.44,-2.01,-0.71,-0.71,-0.71
175,1.73,2.44,1.73,2.45,-2.45,-2.02,-0.72,-0.72,-0.72
177,1.72,2.45,1.73,2.47,-2.47,-2.04,-0.75,-0.74,-0.74
179,1.72,2.47,1.73,2.48,-2.48,-2.07,-0.76,-0.75,-0.75
181,1.73,2.49,1.73,2.50,-2.50,-2.09,-0.77,-0.76,-0.77
183,1.73,2.51,1.74,2.52,-2.52,-2.12,-0.79,-0.77,-0.78
184,1.74,2.52,1.75,2.54,-2.54,-2.14,-0.80,-0.78,-0.78
186,1.75,2.54,1.76,2.56,-2.56,-2.17,-0.81,-0.79,-0.79
188,1.77,2.57,1.77,2.58,-2.58,-2.20,-0.81,-0.80,-0.80
190,1.79,2.60,1.79,2.60,-2.60,-2.24,-0.81,-0.81,-0.81
192,1.80,2.62,1.80,2.62,-2.62,-2.27,-0.82,-0.82,-0.82
194,1.82,2.64,1.81,2.64,-2.64,-2.31,-0.82,-0.83,-0.83
196,1.83,2.66,1.82,2.65,-2.65,-2.35,-0.83,-0.84,-0.84
198,1.84,2.68,1.82,2.66,-2.66,-2.38,-0.83,-0.84,-0.84
200,1.85,2.70,1.82,2.67,-2.67,-2.42,-0.83,-0.85,-0.85
202,1.86,2.71,1.82,2.68,-2.68,-2.46,-0.82,-0.86,-0.86
204,1.86,2.72,1.82,2.68,-2.68,-2.50,-0.82,-0.86,-0.86
206,1.82,2.68,1.81,2.68,-2.68,-2.54,-0.86,-0.87,-0.87
208,1.77,2.64,1.80,2.67,-2.67,-2.58,-0.91,-0.88,-0.87
210,1.76,2.64,1.78,2.67,-2.67,-2.62,-0.91,-0.88,-0.88
212,1.76,2.64,1.77,2.66,-2.66,-2.66,-0.90,-0.89,-0.89
214,1.76,2.65,1.75,2.64,-2.64,-2.70,-0.89,-0.89,-0.89
216,1.75,2.64,1.73,2.63,-2.63,-2.73,-0.89,-0.90,-0.90
218,1.75,2.65,1.72,2.62,-2.62,-2.77,-0.87,-0.90,-0.90
221,1.75,2.66,1.70,2.61,-2.61,-2.82,-0.86,-0.91,-0.91
223,1.69,2.60,1.69,2.60,-2.60,-2.85,-0.91,-0.91,-0.91
225,1.64,2.55,1.68,2.59,-2.59,-2.88,-0.96,-0.91,-0.92
227,1.64,2.55,1.67,2.59,-2.59,-2.91,-0.96,-0.92,-0.92
229,1.65,2.56,1.67,2.59,-2.59,-2.93,-0.95,-0.92,-0.92
232,1.65,2.57,1.68,2.60,-2.60,-2.97,-0.95,-0.92,-0.92
234,1.66,2.58,1.68,2.60,-2.60,-2.99,-0.95,-0.92,-0.92
236,1.68,2.60,1.69,2.61,-2.61,-3.00,-0.94,-0.92,-0.92
239,1.69,2.61,1.70,2.62,-2.62,-3.02,-0.94,-0.92,-0.92
241,1.71,2.63,1.71,2.63,-2.63,-3.03,-0.93,-0.92,-0.92
244,1.73,2.65,1.72,2.64,-2.64,-3.04,-0.91,-0.92,-0.92
246,1.75,2.66,1.73,2.65,-2.65,-3.04,-0.90,-0.92,-0.92
248,1.77,2.68,1.74,2.65,-2.65,-3.04,-0.88,-0.91,-0.91
251,1.79,2.70,1.74,2.65,-2.65,-3.04,-0.86,-0.91,-0.91
253,1.81,2.71,1.73,2.64,-2.64,-3.03,-0.84,-0.91,-0.91
256,1.80,2.70,1.73,2.63,-2.63,-3.02,-0.84,-0.90,-0.90
259,1.73,2.63,1.72,2.62,-2.62,-3.00,-0.89,-0.90,-0.90
261,1.67,2.56,1.70,2.60,-2.60,-2.98,-0.94,-0.90,-0.90
264,1.63,2.52,1.69,2.58,-2.58,-2.95,-0.96,-0.89,-0.89
266,1.63,2.51,1.67,2.56,-2.56,-2.93,-0.93,-0.89,-0.89
269,1.63,2.51,1.65,2.54,-2.54,-2.89,-0.91,-0.89,-0.89
272,1.62,2.50,1.63,2.51,-2.51,-2.85,-0.90,-0.88,-0.88
274,1.62,2.49,1.61,2.49,-2.49,-2.82,-0.88,-0.88,-0.88
277,1.62,2.49,1.59,2.47,-2.47,-2.77,-0.85,-0.88,-0.88
280,1.62,2.49,1.58,2.45,-2.45,-2.73,-0.83,-0.87,-0.87
283,1.62,2.49,1.56,2.43,-2.43,-2.68,-0.81,-0.87,-0.87
286,1.59,2.45,1.55,2.41,-2.41,-2.62,-0.83,-0.87,-0.87
288,1.49,2.35,1.53,2.40,-2.40,-2.59,-0.91,-0.86,-0.86
291,1.45,2.31,1.52,2.38,-2.38,-2.54,-0.93,-0.86,-0.86
294,1.46,2.31,1.51,2.37,-2.37,-2.48,-0.91,-0.86,-0.86
297,1.47,2.32,1.50,2.35,-2.35,-2.43,-0.89,-0.86,-0.86
300,1.48,2.33,1.49,2.34,-2.34,-2.37,-0.87,-0.85,-0.85
303,1.50,2.35,1.48,2.33,-2.33,-2.32,-0.83,-0.85,-0.85
306,1.51,2.35,1.47,2.32,-2.32,-2.27,-0.81,-0.85,-0.85
309,1.51,2.35,1.46,2.30,-2.30,-2.21,-0.79,-0.84,-0.84
312,1.45,2.29,1.44,2.28,-2.28,-2.16,-0.84,-0.84,-0.84
316,1.42,2.26,1.42,2.26,-2.26,-2.09,-0.85,-0.84,-0.84
319,1.43,2.26,1.41,2.24,-2.24,-2.04,-0.82,-0.84,-0.84
322,1.43,2.26,1.38,2.22,-2.22,-1.99,-0.79,-0.83,-0.83
325,1.42,2.25,1.36,2.19,-2.19,-1.95,-0.78,-0.83,-0.83
328,1.33,2.16,1.33,2.16,-2.16,-1.90,-0.84,-0.83,-0.83
332,1.26,2.08,1.31,2.14,-2.14,-1.84,-0.88,-0.83,-0.83
335,1.22,2.04,1.28,2.11,-2.11,-1.80,-0.89,-0.83,-0.83
338,1.22,2.04,1.25,2.08,-2.08,-1.75,-0.86,-0.82,-0.82
342,1.22,2.04,1.23,2.05,-2.05,-1.70,-0.84,-0.82,-0.82
345,1.22,2.04,1.20,2.02,-2.02,-1.66,-0.81,-0.82,-0.82
349,1.22,2.04,1.17,2.00,-2.00,-1.61,-0.78,-0.82,-0.82
352,1.15,1.97,1.15,1.97,-1.97,-1.57,-0.82,-0.82,-0.82
356,1.12,1.94,1.12,1.94,-1.94,-1.53,-0.83,-0.82,-0.82
359,1.12,1.94,1.10,1.92,-1.92,-1.49,-0.80,-0.82,-0.82
363,1.11,1.93,1.07,1.89,-1.89,-1.45,-0.79,-0.82,-0.82
366,1.04,1.86,1.04,1.87,-1.87,-1.42,-0.83,-0.82,-0.82
370,1.00,1.82,1.02,1.84,-1.84,-1.38,-0.84,-0.82,-0.82
374,0.95,1.77,0.99,1.81,-1.81,-1.34,-0.86,-0.82,-0.82
377,0.96,1.78,0.96,1.78,-1.78,-1.32,-0.82,-0.82,-0.82
381,0.97,1.79,0.93,1.75,-1.75,-1.28,-0.78,-0.82,-0.82
385,0.94,1.75,0.90,1.72,-1.72,-1.25,-0.78,-0.82,-0.82
389,0.88,1.69,0.87,1.68,-1.68,-1.22,-0.81,-0.82,-0.82
393,0.80,1.61,0.84,1.65,-1.65,-1.19,-0.85,-0.81,-0.81
397,0.78,1.58,0.81,1.61,-1.61,-1.16,-0.83,-0.80,-0.81
401,0.78,1.57,0.78,1.57,-1.57,-1.13,-0.79,-0.80,-0.80
405,0.78,1.56,0.74,1.53,-1.53,-1.10,-0.75,-0.78,-0.79
409,0.77,1.54,0.72,1.49,-1.49,-1.08,-0.72,-0.77,-0.77
413,0.67,1.43,0.69,1.44,-1.44,-1.05,-0.78,-0.76,-0.76
417,0.67,1.41,0.66,1.40,-1.40,-1.03,-0.73,-0.74,-0.74
421,0.67,1.39,0.64,1.36,-1.36,-1.01,-0.69,-0.72,-0.72
425,0.68,1.37,0.62,1.31,-1.31,-0.98,-0.64,-0.69,-0.70
430,0.57,1.24,0.61,1.27,-1.27,-0.96,-0.71,-0.66,-0.67
434,0.51,1.15,0.60,1.23,-1.23,-0.94,-0.73,-0.63,-0.64
438,0.53,1.13,0.59,1.20,-1.20,-0.92,-0.67,-0.60,-0.61
443,0.57,1.14,0.60,1.16,-1.16,-0.90,-0.60,-0.57,-0.57
447,0.62,1.15,0.60,1.13,-1.13,-0.88,-0.52,-0.53,-0.53
451,0.63,1.12,0.61,1.10,-1.10,-0.86,-0.48,-0.49,-0.50
456,0.62,1.07,0.62,1.08,-1.08,-0.84,-0.46,-0.45,-0.46
460,0.69,1.10,0.64,1.05,-1.05,-0.82,-0.37,-0.41,-0.42
465,0.66,1.03,0.66,1.03,-1.03,-0.80,-0.38,-0.38,-0.38
470,0.67,1.00,0.67,1.01,-1.01,-0.78,-0.34,-0.34,-0.34
474,0.66,0.95,0.69,0.99,-0.99,-0.76,-0.33,-0.30,-0.30
479,0.71,0.97,0.70,0.96,-0.96,-0.74,-0.26,-0.27,-0.26
484,0.76,0.99,0.70,0.94,-0.94,-0.72,-0.18,-0.23,-0.23
489,0.69,0.89,0.71,0.91,-0.91,-0.71,-0.23,-0.20,-0.20
494,0.74,0.91,0.70,0.88,-0.88,-0.69,-0.15,-0.18,-0.17
499,0.72,0.87,0.70,0.85,-0.85,-0.67,-0.14,-0.16,-0.15
504,0.69,0.82,0.68,0.82,-0.82,-0.65,-0.13,-0.14,-0.13
509,0.59,0.70,0.66,0.78,-0.78,-0.63,-0.20,-0.13,-0.12
514,0.60,0.70,0.63,0.75,-0.75,-0.61,-0.15,-0.12,-0.11
519,0.63,0.73,0.59,0.70,-0.70,-0.59,-0.08,-0.11,-0.10
524,0.64,0.74,0.55,0.66,-0.66,-0.57,-0.02,-0.11,-0.10
529,0.61,0.71,0.50,0.61,-0.61,-0.55,-0.00,-0.11,-0.10
535,0.40,0.51,0.44,0.55,-0.55,-0.53,-0.16,-0.11,-0.11
540,0.34,0.45,0.38,0.50,-0.50,-0.51,-0.16,-0.12,-0.12
545,0.32,0.44,0.31,0.44,-0.44,-0.49,-0.12,-0.13,-0.13
551,0.27,0.41,0.23,0.37,-0.37,-0.47,-0.11,-0.14,-0.14
556,0.16,0.31,0.16,0.31,-0.31,-0.45,-0.15,-0.15,-0.15
562,0.03,0.19,0.08,0.24,-0.24,-0.43,-0.21,-0.16,-0.16
568,0.05,0.22,0.00,0.17,-0.17,-0.40,-0.13,-0.17,-0.17
573,0.02,0.20,-0.07,0.11,-0.11,-0.39,-0.09,-0.18,-0.18
579,-0.18,0.01,-0.14,0.04,-0.04,-0.36,-0.23,-0.18,-0.19
585,-0.32,-0.13,-0.21,-0.02,0.02,-0.34,-0.30,-0.19,-0.19
591,-0.30,-0.11,-0.26,-0.08,0.08,-0.32,-0.23,-0.19,-0.19
596,-0.26,-0.07,-0.31,-0.13,0.13,-0.30,-0.13,-0.18,-0.19
602,-0.33,-0.15,-0.35,-0.18,0.18,-0.28,-0.16,-0.18,-0.18
608,-0.39,-0.22,-0.39,-0.22,0.22,-0.26,-0.18,-0.17,-0.17
615,-0.51,-0.36,-0.41,-0.26,0.26,-0.23,-0.26,-0.15,-0.16
621,-0.48,-0.34,-0.42,-0.29,0.29,-0.21,-0.20,-0.13,-0.14
627,-0.43,-0.32,-0.43,-0.31,0.31,-0.19,-0.12,-0.11,-0.12
633,-0.40,-0.31,-0.42,-0.33,0.33,-0.17,-0.07,-0.09,-0.09
639,-0.33,-0.27,-0.41,-0.35,0.35,-0.15,0.02,-0.06,-0.06
646,-0.33,-0.30,-0.40,-0.37,0.37,-0.12,0.03,-0.03,-0.03
652,-0.38,-0.38,-0.38,-0.38,0.38,-0.10,-0.01,-0.00,-0.00
659,-0.44,-0.47,-0.36,-0.39,0.39,-0.08,-0.06,0.03,0.03
665,-0.43,-0.50,-0.34,-0.40,0.40,-0.06,-0.03,0.06,0.06
672,-0.34,-0.44,-0.32,-0.41,0.41,-0.03,0.07,0.10,0.10
679,-0.28,-0.42,-0.30,-0.43,0.43,-0.01,0.14,0.13,0.13
686,-0.20,-0.37,-0.28,-0.45,0.45,0.01,0.24,0.16,0.17
692,-0.16,-0.36,-0.28,-0.47,0.47,0.03,0.30,0.19,0.20
699,-0.28,-0.51,-0.27,-0.50,0.50,0.06,0.21,0.22,0.23
706,-0.26,-0.52,-0.28,-0.53,0.53,0.08,0.27,0.25,0.26
713,-0.26,-0.55,-0.29,-0.57,0.57,0.10,0.31,0.28,0.28
721,-0.25,-0.56,-0.31,-0.61,0.61,0.13,0.36,0.30,0.31
728,-0.26,-0.59,-0.34,-0.66,0.66,0.15,0.40,0.32,0.33
735,-0.36,-0.71,-0.37,-0.71,0.71,0.17,0.35,0.34,0.35
742,-0.43,-0.80,-0.40,-0.76,0.76,0.20,0.32,0.36,0.36
750,-0.46,-0.84,-0.43,-0.81,0.81,0.22,0.34,0.38,0.38
757,-0.49,-0.89,-0.46,-0.85,0.85,0.24,0.36,0.39,0.39
765,-0.51,-0.92,-0.48,-0.89,0.89,0.27,0.37,0.41,0.41
773,-0.53,-0.95,-0.50,-0.92,0.92,0.29,0.39,0.42,0.42
780,-0.54,-0.97,-0.52,-0.95,0.95,0.31,0.40,0.43,0.43
788,-0.55,-0.99,-0.53,-0.97,0.97,0.34,0.41,0.44,0.44
796,-0.55,-1.00,-0.53,-0.98,0.98,0.36,0.42,0.44,0.44
804,-0.54,-0.99,-0.53,-0.98,0.98,0.39,0.44,0.45,0.45
812,-0.54,-1.00,-0.53,-0.98,0.98,0.41,0.44,0.46,0.46
820,-0.52,-0.99,-0.51,-0.98,0.98,0.43,0.46,0.47,0.46
828,-0.43,-0.91,-0.50,-0.97,0.97,0.45,0.54,0.47,0.47
837,-0.43,-0.91,-0.48,-0.96,0.96,0.48,0.53,0.48,0.48
845,-0.43,-0.92,-0.46,-0.95,0.95,0.50,0.52,0.49,0.48
853,-0.43,-0.93,-0.44,-0.94,0.94,0.52,0.50,0.49,0.49
862,-0.44,-0.94,-0.42,-0.92,0.92,0.54,0.48,0.50,0.50
871,-0.45,-0.96,-0.40,-0.91,0.91,0.56,0.45,0.51,0.51
879,-0.45,-0.97,-0.38,-0.89,0.89,0.58,0.44,0.51,0.51
888,-0.29,-0.82,-0.35,-0.87,0.87,0.60,0.58,0.52,0.52
897,-0.27,-0.80,-0.33,-0.86,0.86,0.61,0.58,0.53,0.53
906,-0.28,-0.82,-0.30,-0.84,0.84,0.63,0.56,0.54,0.54
915,-0.28,-0.83,-0.28,-0.82,0.82,0.64,0.54,0.55,0.55
924,-0.29,-0.85,-0.25,-0.81,0.81,0.66,0.51,0.56,0.56
933,-0.19,-0.76,-0.22,-0.79,0.79,0.67,0.60,0.57,0.57
943,-0.19,-0.77,-0.19,-0.77,0.77,0.68,0.58,0.58,0.58
952,-0.18,-0.78,-0.16,-0.75,0.75,0.69,0.57,0.59,0.59
962,-0.09,-0.70,-0.13,-0.73,0.73,0.70,0.64,0.60,0.60
971,-0.07,-0.69,-0.09,-0.71,0.71,0.70,0.64,0.62,0.62
981,-0.06,-0.70,-0.06,-0.69,0.69,0.71,0.63,0.64,0.63
991,-0.05,-0.71,-0.02,-0.67,0.67,0.71,0.62,0.65,0.65
1001,0.01,-0.66,0.02,-0.65,0.65,0.71,0.66,0.67,0.67
1011,0.09,-0.60,0.07,-0.63,0.63,0.71,0.71,0.69,0.69
1021,0.11,-0.61,0.11,-0.60,0.60,0.71,0.71,0.71,0.71
1031,0.14,-0.60,0.16,-0.57,0.57,0.70,0.71,0.74,0.74
1041,0.17,-0.60,0.22,-0.55,0.55,0.69,0.71,0.76,0.76
1052,0.30,-0.49,0.27,-0.52,0.52,0.69,0.82,0.79,0.79
1062,0.34,-0.48,0.32,-0.50,0.50,0.68,0.83,0.82,0.82
1073,0.39,-0.46,0.38,-0.47,0.47,0.66,0.86,0.85,0.85
1084,0.44,-0.44,0.43,-0.45,0.45,0.65,0.88,0.88,0.88
1094,0.49,-0.43,0.49,-0.43,0.43,0.64,0.91,0.91,0.91
1105,0.55,-0.40,0.54,-0.41,0.41,0.62,0.95,0.95,0.94
1116,0.61,-0.37,0.59,-0.39,0.39,0.60,1.00,0.98,0.98
1128,0.68,-0.34,0.64,-0.38,0.38,0.58,1.05,1.01,1.01
1139,0.75,-0.30,0.68,-0.36,0.36,0.57,1.11,1.05,1.05
1150,0.74,-0.34,0.73,-0.35,0.35,0.55,1.09,1.08,1.08
1162,0.78,-0.34,0.77,-0.34,0.34,0.52,1.11,1.11,1.11
1173,0.73,-0.42,0.82,-0.33,0.33,0.50,1.05,1.14,1.15
1185,0.81,-0.37,0.86,-0.31,0.31,0.48,1.12,1.17,1.18
1197,0.92,-0.29,0.91,-0.29,0.29,0.46,1.21,1.20,1.20
1209,0.96,-0.27,0.95,-0.27,0.27,0.43,1.23,1.23,1.23
1221,1.03,-0.23,1.00,-0.25,0.25,0.41,1.28,1.25,1.25
1233,1.08,-0.20,1.05,-0.22,0.22,0.38,1.30,1.27,1.28
1246,1.14,-0.16,1.10,-0.19,0.19,0.36,1.32,1.29,1.29
1258,1.19,-0.12,1.16,-0.15,0.15,0.33,1.34,1.31,1.31
1271,1.16,-0.17,1.21,-0.11,0.11,0.30,1.26,1.32,1.32
1283,1.27,-0.07,1.27,-0.06,0.06,0.28,1.32,1.33,1.33
1296,1.33,-0.01,1.33,-0.00,0.00,0.25,1.33,1.33,1.34
1309,1.32,-0.03,1.39,0.05,-0.05,0.23,1.26,1.34,1.34
1322,1.42,0.07,1.46,0.12,-0.12,0.20,1.30,1.34,1.34
1335,1.52,0.18,1.52,0.18,-0.18,0.17,1.33,1.34,1.34
1349,1.60,0.26,1.58,0.25,-0.25,0.14,1.35,1.33,1.34
1362,1.71,0.38,1.64,0.32,-0.32,0.12,1.39,1.33,1.33
1376,1.76,0.43,1.71,0.38,-0.38,0.09,1.37,1.32,1.32
1390,1.80,0.48,1.76,0.45,-0.45,0.06,1.34,1.31,1.31
1404,1.85,0.54,1.82,0.52,-0.52,0.03,1.33,1.30,1.31
1418,1.81,0.51,1.87,0.58,-0.58,0.01,1.23,1.30,1.30
1432,1.95,0.66,1.93,0.64,-0.64,-0.02,1.31,1.29,1.29
1446,2.06,0.78,1.97,0.69,-0.69,-0.05,1.36,1.28,1.28
1461,1.93,0.65,2.02,0.75,-0.75,-0.08,1.18,1.28,1.27
1475,2.03,0.75,2.07,0.80,-0.80,-0.10,1.23,1.27,1.27
1490,2.18,0.91,2.12,0.85,-0.85,-0.13,1.33,1.27,1.27
1505,2.32,1.04,2.17,0.90,-0.90,-0.16,1.42,1.27,1.27
1520,2.28,1.00,2.23,0.95,-0.95,-0.18,1.33,1.28,1.28
1535,2.17,0.88,2.29,1.00,-1.00,-0.21,1.17,1.29,1.29
1550,2.30,0.99,2.36,1.05,-1.05,-0.24,1.25,1.31,1.30
1566,2.37,1.04,2.43,1.10,-1.10,-0.26,1.26,1.32,1.32
1582,2.40,1.05,2.50,1.15,-1.15,-0.29,1.24,1.35,1.35
1597,2.44,1.06,2.58,1.21,-1.21,-0.32,1.23,1.38,1.37
1613,2.79,1.38,2.67,1.26,-1.26,-0.34,1.53,1.41,1.41
1629,2.88,1.43,2.75,1.30,-1.30,-0.37,1.57,1.45,1.45
1646,2.89,1.39,2.84,1.34,-1.34,-0.39,1.54,1.50,1.50
1662,2.95,1.40,2.93,1.38,-1.38,-0.42,1.57,1.55,1.55
1679,3.02,1.41,3.01,1.41,-1.41,-0.44,1.61,1.61,1.60
1696,3.10,1.43,3.09,1.43,-1.43,-0.46,1.67,1.67,1.66
1713,3.17,1.43,3.17,1.44,-1.44,-0.48,1.73,1.73,1.73
1730,3.26,1.45,3.25,1.44,-1.44,-0.50,1.81,1.80,1.80
1747,3.35,1.47,3.32,1.44,-1.44,-0.52,1.91,1.88,1.88
1764,3.44,1.48,3.39,1.43,-1.43,-0.53,2.01,1.96,1.96
1782,3.45,1.40,3.46,1.41,-1.41,-0.55,2.03,2.04,2.04
1800,3.51,1.37,3.53,1.39,-1.39,-0.56,2.11,2.13,2.13
1818,3.56,1.33,3.59,1.37,-1.37,-0.57,2.19,2.22,2.22
1836,3.67,1.35,3.66,1.34,-1.34,-0.58,2.32,2.32,2.32
1854,3.73,1.31,3.73,1.32,-1.32,-0.59,2.41,2.41,2.42
1873,3.81,1.29,3.80,1.29,-1.29,-0.59,2.52,2.51,2.52
1892,3.85,1.23,3.87,1.26,-1.26,-0.59,2.59,2.61,2.62
