frequency,raw
20.00,17.60
20.20,17.58
20.40,17.56
20.61,17.54
20.81,17.53
21.02,17.51
21.23,17.49
21.44,17.47
21.66,17.45
21.87,17.43
22.09,17.41
22.31,17.39
22.54,17.36
22.76,17.33
22.99,17.30
23.22,17.27
23.45,17.25
23.69,17.23
23.92,17.22
24.16,17.21
24.40,17.21
24.65,17.20
24.89,17.20
25.14,17.19
25.39,17.17
25.65,17.14
25.91,17.12
26.16,17.09
26.43,17.05
26.69,17.02
26.96,16.99
27.23,16.96
27.50,16.94
27.77,16.93
28.05,16.92
28.33,16.90
28.62,16.89
28.90,16.87
29.19,16.85
29.48,16.84
29.78,16.82
30.08,16.79
30.38,16.77
30.68,16.73
30.99,16.70
31.30,16.68
31.61,16.66
31.93,16.64
32.24,16.61
32.57,16.59
32.89,16.56
33.22,16.53
33.55,16.50
33.89,16.48
34.23,16.46
34.57,16.44
34.92,16.41
35.27,16.39
35.62,16.37
35.97,16.34
36.33,16.31
36.70,16.28
37.06,16.24
37.43,16.20
37.81,16.17
38.19,16.14
38.57,16.11
38.95,16.10
39.34,16.09
39.74,16.06
40.14,16.03
40.54,15.99
40.94,15.95
41.35,15.91
41.76,15.87
42.18,15.83
42.60,15.80
43.03,15.78
43.46,15.76
43.90,15.73
44.33,15.69
44.78,15.65
45.23,15.60
45.68,15.56
46.13,15.52
46.60,15.48
47.06,15.45
47.53,15.41
48.01,15.38
48.49,15.35
48.97,15.31
49.46,15.26
49.96,15.21
50.46,15.17
50.96,15.13
51.47,15.10
51.99,15.08
52.51,15.06
53.03,15.03
53.56,15.00
54.10,14.95
54.64,14.92
55.18,14.88
55.74,14.85
56.29,14.82
56.86,14.79
57.42,14.75
58.00,14.71
58.58,14.67
59.16,14.62
59.76,14.57
60.35,14.53
60.96,14.49
61.57,14.44
62.18,14.40
62.80,14.36
63.43,14.33
64.07,14.30
64.71,14.26
65.35,14.22
66.01,14.16
66.67,14.11
67.33,14.06
68.01,14.02
68.69,13.98
69.37,13.94
70.07,13.89
70.77,13.84
71.48,13.78
72.19,13.72
72.91,13.68
73.64,13.64
74.38,13.60
75.12,13.56
75.87,13.52
76.63,13.46
77.40,13.41
78.17,13.38
78.95,13.34
79.74,13.30
80.54,13.25
81.35,13.19
82.16,13.12
82.98,13.07
83.81,13.02
84.65,12.98
85.50,12.94
86.35,12.89
87.22,12.83
88.09,12.79
88.97,12.74
89.86,12.68
90.76,12.63
91.66,12.57
92.58,12.52
93.51,12.46
94.44,12.40
95.39,12.34
96.34,12.28
97.30,12.23
98.28,12.17
99.26,12.11
100.25,12.05
101.25,11.98
102.27,11.92
103.29,11.86
104.32,11.81
105.37,11.76
106.42,11.70
107.48,11.65
108.56,11.59
109.64,11.55
110.74,11.49
111.85,11.43
112.97,11.36
114.10,11.30
115.24,11.25
116.39,11.20
117.55,11.13
118.73,11.07
119.92,11.00
121.12,10.94
122.33,10.89
123.55,10.83
124.79,10.77
126.03,10.71
127.29,10.65
128.57,10.60
129.85,10.55
131.15,10.49
132.46,10.43
133.79,10.36
135.12,10.30
136.48,10.24
137.84,10.18
139.22,10.12
140.61,10.05
142.02,9.98
143.44,9.92
144.87,9.87
146.32,9.80
147.78,9.73
149.26,9.66
150.75,9.59
152.26,9.55
153.78,9.49
155.32,9.43
156.88,9.37
158.44,9.31
160.03,9.26
161.63,9.20
163.24,9.13
164.88,9.06
166.53,9.00
168.19,8.95
169.87,8.90
171.57,8.83
173.29,8.76
175.02,8.70
176.77,8.64
178.54,8.59
180.32,8.52
182.13,8.45
183.95,8.37
185.79,8.32
187.65,8.26
189.52,8.20
191.42,8.13
193.33,8.06
195.27,7.99
197.22,7.94
199.19,7.88
201.18,7.81
203.19,7.73
205.23,7.67
207.28,7.61
209.35,7.56
211.44,7.49
213.56,7.42
215.69,7.36
217.85,7.31
220.03,7.25
222.23,7.19
224.45,7.12
226.70,7.06
228.96,7.00
231.25,6.96
233.57,6.89
235.90,6.82
238.26,6.75
240.64,6.69
243.05,6.64
245.48,6.58
247.93,6.51
250.41,6.44
252.92,6.38
255.45,6.33
258.00,6.27
260.58,6.21
263.19,6.14
265.82,6.08
268.48,6.03
271.16,5.97
273.87,5.91
276.61,5.84
279.38,5.77
282.17,5.72
284.99,5.66
287.84,5.60
290.72,5.52
293.63,5.45
296.57,5.38
299.53,5.33
302.53,5.27
305.55,5.20
308.61,5.13
311.69,5.07
314.81,5.02
317.96,4.97
321.14,4.91
324.35,4.84
327.59,4.78
330.87,4.73
334.18,4.68
337.52,4.62
340.90,4.56
344.30,4.50
347.75,4.45
351.23,4.40
354.74,4.34
358.28,4.27
361.87,4.20
365.49,4.15
369.14,4.09
372.83,4.03
376.56,3.95
380.33,3.87
384.13,3.80
387.97,3.74
391.85,3.68
395.77,3.60
399.73,3.53
403.72,3.46
407.76,3.40
411.84,3.33
415.96,3.26
420.12,3.19
424.32,3.13
428.56,3.06
432.85,3.00
437.18,2.93
441.55,2.86
445.96,2.80
450.42,2.73
454.93,2.67
459.48,2.59
464.07,2.52
468.71,2.46
473.40,2.39
478.13,2.32
482.91,2.25
487.74,2.18
492.62,2.12
497.55,2.06
502.52,1.99
507.55,1.92
512.62,1.85
517.75,1.79
522.93,1.74
528.16,1.68
533.44,1.61
538.77,1.54
544.16,1.48
549.60,1.43
555.10,1.37
560.65,1.31
566.25,1.25
571.92,1.19
577.64,1.13
583.41,1.08
589.25,1.02
595.14,0.97
601.09,0.92
607.10,0.87
613.17,0.82
619.30,0.76
625.50,0.71
631.75,0.65
638.07,0.61
644.45,0.57
650.89,0.52
657.40,0.48
663.98,0.44
670.62,0.41
677.32,0.40
684.10,0.38
690.94,0.37
697.85,0.37
704.83,0.35
711.87,0.34
718.99,0.33
726.18,0.32
733.44,0.31
740.78,0.29
748.19,0.26
755.67,0.23
763.23,0.20
770.86,0.17
778.57,0.14
786.35,0.11
794.22,0.08
802.16,0.06
810.18,0.03
818.28,0.02
826.46,0.00
834.73,-0.00
843.08,-0.00
851.51,0.01
860.02,0.02
868.62,0.02
877.31,0.02
886.08,0.02
894.94,0.02
903.89,0.02
912.93,0.02
922.06,0.02
931.28,0.02
940.59,0.02
950.00,0.02
959.50,0.02
969.09,0.02
978.78,0.02
988.57,0.01
998.46,0.00
1008.44,-0.00
1018.53,0.00
1028.71,0.01
1039.00,0.03
1049.39,0.05
1059.88,0.08
1070.48,0.10
1081.19,0.12
1092.00,0.14
1102.92,0.17
1113.95,0.20
1125.09,0.24
1136.34,0.28
1147.70,0.32
1159.18,0.35
1170.77,0.39
1182.48,0.44
1194.30,0.48
1206.25,0.51
1218.31,0.55
1230.49,0.60
1242.80,0.66
1255.22,0.71
1267.78,0.78
1280.45,0.85
1293.26,0.91
1306.19,0.99
1319.25,1.06
1332.45,1.13
1345.77,1.20
1359.23,1.28
1372.82,1.37
1386.55,1.46
1400.41,1.56
1414.42,1.66
1428.56,1.76
1442.85,1.86
1457.28,1.97
1471.85,2.09
1486.57,2.21
1501.43,2.33
1516.45,2.47
1531.61,2.62
1546.93,2.78
1562.40,2.93
1578.02,3.11
1593.80,3.29
1609.74,3.48
1625.84,3.68
1642.10,3.89
1658.52,4.10
1675.10,4.32
1691.85,4.54
1708.77,4.77
1725.86,5.00
1743.12,5.25
1760.55,5.49
1778.15,5.72
1795.94,5.94
1813.90,6.16
1832.03,6.38
1850.36,6.59
1868.86,6.80
1887.55,7.00
1906.42,7.20
1925.49,7.38
1944.74,7.55
1964.19,7.71
1983.83,7.85
2003.67,7.99
2023.71,8.11
2043.94,8.23
2064.38,8.34
2085.03,8.43
2105.88,8.51
2126.94,8.57
2148.20,8.62
2169.69,8.67
2191.38,8.69
2213.30,8.70
2235.43,8.70
2257.78,8.68
2280.36,8.65
2303.17,8.60
2326.20,8.56
2349.46,8.51
2372.95,8.43
2396.68,8.32
2420.65,8.21
2444.86,8.09
2469.31,7.98
2494.00,7.85
2518.94,7.72
2544.13,7.57
2569.57,7.42
2595.27,7.26
2621.22,7.10
2647.43,6.93
2673.90,6.76
2700.64,6.59
2727.65,6.41
2754.93,6.23
2782.48,6.06
2810.30,5.88
2838.40,5.70
2866.79,5.54
2895.46,5.38
2924.41,5.22
2953.65,5.06
2983.19,4.89
3013.02,4.75
3043.15,4.61
3073.58,4.48
3104.32,4.35
3135.36,4.23
3166.72,4.13
3198.38,4.07
3230.37,4.01
3262.67,3.97
3295.30,3.95
3328.25,3.95
3361.53,3.97
3395.15,4.03
3429.10,4.09
3463.39,4.18
3498.03,4.30
3533.01,4.44
3568.34,4.62
3604.02,4.82
3640.06,5.03
3676.46,5.25
3713.22,5.49
3750.36,5.74
3787.86,6.00
3825.74,6.27
3864.00,6.54
3902.64,6.82
3941.66,7.09
3981.08,7.36
4020.89,7.60
4061.10,7.84
4101.71,8.06
4142.73,8.26
4184.15,8.42
4226.00,8.54
4268.26,8.64
4310.94,8.71
4354.05,8.76
4397.59,8.77
4441.56,8.75
4485.98,8.69
4530.84,8.60
4576.15,8.46
4621.91,8.30
4668.13,8.10
4714.81,7.87
4761.96,7.61
4809.58,7.30
4857.67,6.93
4906.25,6.53
4955.31,6.08
5004.87,5.59
5054.91,5.06
5105.46,4.49
5156.52,3.88
5208.08,3.23
5260.16,2.55
5312.77,1.85
5365.89,1.14
5419.55,0.41
5473.75,-0.33
5528.49,-1.06
5583.77,-1.78
5639.61,-2.48
5696.00,-3.16
5752.96,-3.82
5810.49,-4.45
5868.60,-5.06
5927.28,-5.64
5986.56,-6.21
6046.42,-6.76
6106.89,-7.27
6167.96,-7.77
6229.64,-8.24
6291.93,-8.69
6354.85,-9.10
6418.40,-9.49
6482.58,-9.87
6547.41,-10.26
6612.88,-10.63
6679.01,-10.98
6745.80,-11.33
6813.26,-11.66
6881.39,-11.98
6950.21,-12.29
7019.71,-12.57
7089.91,-12.86
7160.81,-13.13
7232.41,-13.37
7304.74,-13.60
7377.79,-13.80
7451.56,-13.99
7526.08,-14.15
7601.34,-14.28
7677.35,-14.38
7754.13,-14.44
7831.67,-14.45
7909.98,-14.43
7989.08,-14.38
8068.98,-14.32
8149.67,-14.24
8231.16,-14.11
8313.47,-13.95
8396.61,-13.76
8480.57,-13.56
8565.38,-13.33
8651.03,-13.07
8737.54,-12.80
8824.92,-12.53
8913.17,-12.23
9002.30,-11.92
9092.32,-11.59
9183.25,-11.25
9275.08,-10.92
9367.83,-10.56
9461.51,-10.20
9556.12,-9.84
9651.68,-9.47
9748.20,-9.10
9845.68,-8.74
9944.14,-8.40
10043.58,-8.07
10144.02,-7.75
10245.46,-7.43
10347.91,-7.14
10451.39,-6.88
10555.91,-6.65
10661.46,-6.45
10768.08,-6.28
10875.76,-6.14
10984.52,-6.01
11094.36,-5.90
11205.31,-5.82
11317.36,-5.76
11430.53,-5.73
11544.84,-5.72
11660.29,-5.73
11776.89,-5.76
11894.66,-5.82
12013.60,-5.91
12133.74,-6.02
12255.08,-6.16
12377.63,-6.33
12501.41,-6.53
12626.42,-6.76
12752.68,-7.02
12880.21,-7.32
13009.01,-7.66
13139.10,-8.02
13270.49,-8.41
13403.20,-8.82
13537.23,-9.27
13672.60,-9.74
13809.33,-10.27
13947.42,-10.85
14086.90,-11.48
14227.77,-12.14
14370.04,-12.82
14513.74,-13.54
14658.88,-14.28
14805.47,-15.04
14953.52,-15.80
15103.06,-16.57
15254.09,-17.34
15406.63,-18.08
15560.70,-18.81
15716.30,-19.52
15873.47,-20.21
16032.20,-20.88
16192.52,-21.54
16354.45,-22.17
16517.99,-22.79
16683.17,-23.42
16850.01,-24.09
17018.51,-24.82
17188.69,-25.62
17360.58,-26.48
17534.18,-27.43
17709.53,-28.46
17886.62,-29.57
18065.49,-30.74
18246.14,-31.99
18428.60,-33.30
18612.89,-34.68
18799.02,-36.13
18987.01,-37.65
19176.88,-39.23
19368.65,-40.89
19562.33,-42.61
19757.96,-44.41
19955.54,-46.27
