frequency,raw,error,smoothed,error_smoothed,equalization,parametric_eq,fixed_band_eq,equalized_raw,equalized_smoothed,target
20.00,-23.23,-26.18,-23.23,-26.18,6.00,6.38,2.74,-17.23,-17.23,2.95
20.20,-23.19,-26.19,-23.19,-26.19,6.00,6.38,2.82,-17.19,-17.19,3.00
20.40,-23.16,-26.21,-23.16,-26.20,6.00,6.37,2.89,-17.16,-17.16,3.05
20.61,-23.12,-26.20,-23.12,-26.21,6.00,6.37,2.98,-17.12,-17.12,3.08
20.81,-23.08,-26.21,-23.08,-26.21,6.00,6.37,3.06,-17.08,-17.08,3.13
21.02,-23.04,-26.21,-23.04,-26.20,6.00,6.37,3.15,-17.04,-17.04,3.17
21.23,-22.99,-26.18,-22.99,-26.18,6.00,6.37,3.24,-16.99,-16.99,3.19
21.44,-22.93,-26.14,-22.94,-26.15,6.00,6.37,3.33,-16.93,-16.94,3.21
21.66,-22.88,-26.11,-22.89,-26.11,6.00,6.36,3.43,-16.88,-16.89,3.23
21.87,-22.82,-26.05,-22.81,-26.05,6.00,6.36,3.52,-16.82,-16.81,3.24
22.09,-22.71,-25.96,-22.68,-25.94,6.00,6.36,3.62,-16.71,-16.68,3.26
22.31,-22.51,-25.77,-22.52,-25.78,6.00,6.36,3.73,-16.51,-16.52,3.27
22.54,-22.31,-25.58,-22.32,-25.59,6.00,6.36,3.83,-16.31,-16.32,3.27
22.76,-22.12,-25.38,-22.12,-25.38,6.00,6.36,3.94,-16.12,-16.12,3.27
22.99,-21.92,-25.17,-21.92,-25.18,6.00,6.35,4.05,-15.92,-15.92,3.25
23.22,-21.72,-24.97,-21.72,-24.98,6.00,6.35,4.17,-15.72,-15.72,3.25
23.45,-21.53,-24.78,-21.53,-24.78,6.00,6.35,4.28,-15.53,-15.53,3.25
23.69,-21.34,-24.61,-21.34,-24.60,6.00,6.35,4.40,-15.34,-15.34,3.26
23.92,-21.14,-24.40,-21.14,-24.41,6.00,6.35,4.52,-15.14,-15.14,3.26
24.16,-20.96,-24.23,-20.96,-24.23,6.00,6.34,4.65,-14.96,-14.96,3.27
24.40,-20.77,-24.05,-20.77,-24.04,6.00,6.34,4.77,-14.77,-14.77,3.28
24.65,-20.59,-23.86,-20.59,-23.86,6.00,6.34,4.90,-14.59,-14.59,3.27
24.89,-20.41,-23.68,-20.41,-23.68,6.00,6.34,5.03,-14.41,-14.41,3.27
25.14,-20.23,-23.50,-20.23,-23.51,6.00,6.33,5.16,-14.23,-14.23,3.27
25.39,-20.06,-23.34,-20.06,-23.33,6.00,6.33,5.29,-14.06,-14.06,3.28
25.65,-19.89,-23.17,-19.88,-23.16,6.00,6.33,5.42,-13.89,-13.88,3.28
25.91,-19.71,-22.98,-19.72,-22.99,6.00,6.33,5.56,-13.71,-13.72,3.27
26.16,-19.56,-22.83,-19.56,-22.83,6.00,6.32,5.69,-13.56,-13.56,3.27
26.43,-19.41,-22.68,-19.41,-22.68,6.00,6.32,5.82,-13.41,-13.41,3.27
26.69,-19.26,-22.53,-19.26,-22.53,6.00,6.32,5.96,-13.26,-13.26,3.27
26.96,-19.11,-22.39,-19.11,-22.38,6.00,6.31,6.09,-13.11,-13.11,3.28
27.23,-18.94,-22.22,-18.94,-22.22,6.00,6.31,6.21,-12.94,-12.94,3.28
27.50,-18.77,-22.05,-18.77,-22.04,6.00,6.31,6.34,-12.77,-12.77,3.28
27.77,-18.59,-21.85,-18.59,-21.86,6.00,6.30,6.46,-12.59,-12.59,3.26
28.05,-18.41,-21.67,-18.41,-21.67,6.00,6.30,6.58,-12.41,-12.41,3.26
28.33,-18.22,-21.47,-18.22,-21.47,6.00,6.30,6.69,-12.22,-12.22,3.25
28.62,-18.03,-21.28,-18.03,-21.28,6.00,6.29,6.80,-12.03,-12.03,3.25
28.90,-17.84,-21.10,-17.84,-21.10,6.00,6.29,6.90,-11.84,-11.84,3.26
29.19,-17.67,-20.92,-17.67,-20.93,6.00,6.29,6.99,-11.67,-11.67,3.25
29.48,-17.51,-20.78,-17.51,-20.77,6.00,6.28,7.07,-11.51,-11.51,3.27
29.78,-17.35,-20.61,-17.35,-20.61,6.00,6.28,7.15,-11.35,-11.35,3.26
30.08,-17.19,-20.46,-17.19,-20.45,6.00,6.27,7.22,-11.19,-11.19,3.27
30.38,-17.01,-20.27,-17.01,-20.27,6.00,6.27,7.28,-11.01,-11.01,3.26
30.68,-16.83,-20.09,-16.83,-20.09,6.00,6.26,7.32,-10.83,-10.83,3.26
30.99,-16.65,-19.91,-16.65,-19.90,6.00,6.26,7.36,-10.65,-10.65,3.25
31.30,-16.46,-19.71,-16.46,-19.72,6.00,6.26,7.38,-10.46,-10.46,3.25
31.61,-16.28,-19.53,-16.28,-19.53,6.00,6.25,7.40,-10.28,-10.28,3.25
31.93,-16.09,-19.34,-16.09,-19.34,6.00,6.25,7.40,-10.09,-10.09,3.25
32.24,-15.91,-19.15,-15.91,-19.15,6.00,6.24,7.39,-9.91,-9.91,3.24
32.57,-15.72,-18.97,-15.72,-18.96,6.00,6.23,7.37,-9.72,-9.72,3.25
32.89,-15.53,-18.77,-15.53,-18.77,6.00,6.23,7.35,-9.53,-9.53,3.25
33.22,-15.35,-18.58,-15.35,-18.59,6.00,6.22,7.31,-9.35,-9.35,3.24
33.55,-15.18,-18.41,-15.18,-18.41,6.00,6.22,7.27,-9.18,-9.18,3.23
33.89,-15.01,-18.23,-15.01,-18.23,6.00,6.21,7.21,-9.01,-9.01,3.22
34.23,-14.83,-18.06,-14.83,-18.05,6.00,6.21,7.16,-8.83,-8.83,3.23
34.57,-14.65,-17.87,-14.65,-17.87,6.00,6.20,7.09,-8.65,-8.65,3.22
34.92,-14.46,-17.68,-14.46,-17.68,6.00,6.19,7.02,-8.46,-8.46,3.22
35.27,-14.28,-17.50,-14.27,-17.49,6.00,6.19,6.95,-8.28,-8.27,3.21
35.62,-14.09,-17.30,-14.09,-17.30,6.00,6.18,6.87,-8.09,-8.09,3.21
35.97,-13.90,-17.11,-13.92,-17.13,6.00,6.17,6.79,-7.90,-7.92,3.21
36.33,-13.76,-16.98,-13.76,-16.97,6.00,6.16,6.71,-7.76,-7.76,3.22
36.70,-13.61,-16.82,-13.60,-16.81,6.00,6.16,6.62,-7.61,-7.60,3.21
37.06,-13.45,-16.65,-13.43,-16.65,6.00,6.15,6.54,-7.45,-7.43,3.20
37.43,-13.24,-16.46,-13.24,-16.45,6.00,6.14,6.46,-7.24,-7.24,3.22
37.81,-13.04,-16.26,-13.04,-16.26,6.00,6.13,6.37,-7.04,-7.04,3.22
38.19,-12.85,-16.07,-12.86,-16.08,6.00,6.13,6.29,-6.85,-6.86,3.22
38.57,-12.69,-15.91,-12.69,-15.91,6.00,6.12,6.21,-6.69,-6.69,3.22
38.95,-12.53,-15.76,-12.53,-15.75,6.00,6.11,6.13,-6.53,-6.53,3.23
39.34,-12.37,-15.59,-12.38,-15.61,6.00,6.10,6.05,-6.37,-6.38,3.23
39.74,-12.22,-15.44,-12.21,-15.44,6.00,6.09,5.98,-6.22,-6.21,3.22
40.14,-12.05,-15.28,-12.03,-15.26,6.00,6.08,5.91,-6.05,-6.03,3.23
40.54,-11.83,-15.06,-11.83,-15.06,6.00,6.07,5.84,-5.83,-5.83,3.23
40.94,-11.62,-14.84,-11.64,-14.87,6.00,6.06,5.78,-5.62,-5.64,3.22
41.35,-11.47,-14.69,-11.48,-14.70,6.00,6.05,5.72,-5.47,-5.48,3.22
41.76,-11.34,-14.55,-11.32,-14.54,6.00,6.04,5.66,-5.34,-5.32,3.22
42.18,-11.18,-14.40,-11.17,-14.38,6.00,6.03,5.61,-5.18,-5.17,3.22
42.60,-10.98,-14.19,-10.98,-14.20,6.00,6.02,5.56,-4.98,-4.98,3.21
43.03,-10.78,-13.98,-10.78,-13.98,6.00,6.01,5.51,-4.78,-4.78,3.20
43.46,-10.57,-13.77,-10.56,-13.76,6.00,6.00,5.47,-4.57,-4.56,3.20
43.90,-10.35,-13.53,-10.37,-13.54,6.00,5.99,5.43,-4.35,-4.37,3.18
44.33,-10.18,-13.34,-10.19,-13.35,6.00,5.98,5.40,-4.18,-4.19,3.16
44.78,-10.03,-13.18,-10.02,-13.17,6.00,5.96,5.37,-4.03,-4.02,3.15
45.23,-9.86,-13.00,-9.86,-13.00,6.00,5.95,5.35,-3.86,-3.86,3.14
45.68,-9.68,-12.81,-9.68,-12.81,6.00,5.94,5.33,-3.68,-3.68,3.13
46.13,-9.50,-12.61,-9.49,-12.60,6.00,5.93,5.31,-3.50,-3.49,3.11
46.60,-9.28,-12.40,-9.28,-12.39,6.00,5.92,5.30,-3.28,-3.28,3.11
47.06,-9.07,-12.17,-9.08,-12.18,6.00,5.91,5.29,-3.07,-3.08,3.10
47.53,-8.89,-11.98,-8.89,-11.99,6.00,5.90,5.28,-2.89,-2.89,3.09
48.01,-8.72,-11.82,-8.73,-11.82,6.00,5.89,5.28,-2.72,-2.73,3.10
48.49,-8.56,-11.64,-8.56,-11.64,6.00,5.88,5.28,-2.56,-2.56,3.08
48.97,-8.40,-11.46,-8.37,-11.43,6.00,5.87,5.29,-2.40,-2.37,3.06
49.46,-8.16,-11.20,-8.16,-11.21,6.00,5.86,5.30,-2.16,-2.16,3.05
49.96,-7.92,-10.95,-7.94,-10.98,6.00,5.86,5.31,-1.92,-1.94,3.03
50.46,-7.74,-10.77,-7.74,-10.76,6.00,5.85,5.32,-1.74,-1.74,3.03
50.96,-7.56,-10.58,-7.55,-10.57,6.00,5.85,5.34,-1.56,-1.55,3.02
51.47,-7.39,-10.39,-7.39,-10.39,6.00,5.84,5.35,-1.39,-1.39,3.00
51.99,-7.21,-10.21,-7.22,-10.22,6.00,5.84,5.37,-1.21,-1.22,3.00
52.51,-7.06,-10.06,-7.06,-10.06,6.00,5.84,5.39,-1.06,-1.06,3.00
53.03,-6.91,-9.91,-6.89,-9.89,6.00,5.85,5.41,-0.91,-0.89,3.00
53.56,-6.71,-9.70,-6.72,-9.70,6.00,5.86,5.43,-0.71,-0.72,2.99
54.10,-6.52,-9.50,-6.53,-9.51,6.00,5.87,5.45,-0.52,-0.53,2.98
54.64,-6.34,-9.31,-6.33,-9.30,6.00,5.88,5.47,-0.34,-0.33,2.97
55.18,-6.15,-9.12,-6.14,-9.11,6.00,5.90,5.49,-0.15,-0.14,2.97
55.74,-5.95,-8.91,-5.96,-8.92,6.00,5.92,5.51,0.05,0.04,2.96
56.29,-5.78,-8.74,-5.79,-8.74,6.00,5.94,5.52,0.22,0.21,2.96
56.86,-5.64,-8.59,-5.62,-8.56,6.00,5.96,5.53,0.36,0.38,2.94
57.42,-5.45,-8.37,-5.44,-8.37,6.00,5.99,5.54,0.55,0.56,2.92
58.00,-5.24,-8.16,-5.25,-8.17,6.00,6.00,5.55,0.76,0.75,2.92
58.58,-5.04,-7.96,-5.04,-7.95,6.00,6.01,5.55,0.96,0.96,2.92
59.16,-4.83,-7.73,-4.83,-7.74,6.00,6.01,5.54,1.17,1.17,2.90
59.76,-4.63,-7.52,-4.63,-7.51,6.00,5.99,5.53,1.37,1.37,2.89
60.35,-4.43,-7.28,-4.42,-7.29,6.01,5.95,5.52,1.59,1.59,2.86
60.96,-4.22,-7.05,-4.23,-7.06,6.03,5.89,5.50,1.81,1.80,2.83
61.57,-4.05,-6.85,-4.04,-6.84,6.04,5.81,5.47,1.99,2.00,2.80
62.18,-3.87,-6.63,-3.87,-6.63,6.03,5.72,5.43,2.17,2.17,2.76
62.80,-3.69,-6.41,-3.69,-6.42,6.01,5.61,5.39,2.32,2.32,2.73
63.43,-3.52,-6.21,-3.52,-6.20,5.95,5.49,5.35,2.43,2.44,2.69
64.07,-3.34,-5.99,-3.35,-6.00,5.87,5.36,5.29,2.53,2.52,2.65
64.71,-3.19,-5.81,-3.19,-5.80,5.75,5.24,5.23,2.56,2.56,2.62
65.35,-3.02,-5.61,-3.02,-5.60,5.59,5.11,5.16,2.57,2.57,2.59
66.01,-2.85,-5.40,-2.84,-5.39,5.41,4.98,5.09,2.56,2.57,2.55
66.67,-2.66,-5.17,-2.66,-5.17,5.20,4.85,5.01,2.54,2.54,2.51
67.33,-2.48,-4.95,-2.48,-4.95,4.98,4.73,4.93,2.51,2.50,2.47
68.01,-2.30,-4.74,-2.30,-4.73,4.76,4.60,4.84,2.46,2.46,2.44
68.69,-2.12,-4.52,-2.12,-4.52,4.53,4.48,4.75,2.42,2.42,2.40
69.37,-1.95,-4.31,-1.95,-4.31,4.33,4.36,4.65,2.38,2.38,2.36
70.07,-1.79,-4.11,-1.80,-4.12,4.12,4.24,4.55,2.33,2.32,2.32
70.77,-1.67,-3.95,-1.66,-3.94,3.93,4.13,4.44,2.26,2.27,2.28
71.48,-1.52,-3.76,-1.51,-3.75,3.73,4.01,4.34,2.21,2.22,2.24
72.19,-1.35,-3.54,-1.36,-3.55,3.54,3.89,4.23,2.19,2.18,2.19
72.91,-1.21,-3.35,-1.21,-3.35,3.36,3.78,4.11,2.15,2.15,2.14
73.64,-1.07,-3.17,-1.06,-3.16,3.17,3.66,4.00,2.10,2.11,2.10
74.38,-0.93,-2.98,-0.93,-2.98,2.99,3.54,3.89,2.06,2.06,2.05
75.12,-0.79,-2.80,-0.80,-2.81,2.81,3.42,3.77,2.02,2.00,2.01
75.87,-0.69,-2.65,-0.68,-2.64,2.63,3.30,3.65,1.94,1.95,1.96
76.63,-0.56,-2.48,-0.54,-2.46,2.45,3.17,3.54,1.89,1.91,1.92
77.40,-0.40,-2.28,-0.40,-2.29,2.28,3.05,3.42,1.88,1.88,1.88
78.17,-0.25,-2.09,-0.26,-2.11,2.12,2.92,3.31,1.87,1.86,1.84
78.95,-0.14,-1.96,-0.13,-1.95,1.96,2.79,3.19,1.82,1.83,1.82
79.74,-0.03,-1.81,-0.02,-1.80,1.81,2.66,3.07,1.78,1.79,1.78
80.54,0.09,-1.66,0.09,-1.66,1.66,2.52,2.96,1.76,1.75,1.75
81.35,0.19,-1.52,0.18,-1.53,1.53,2.39,2.85,1.72,1.71,1.71
82.16,0.27,-1.41,0.27,-1.41,1.40,2.25,2.73,1.67,1.67,1.68
82.98,0.34,-1.31,0.36,-1.29,1.28,2.11,2.62,1.62,1.64,1.65
83.81,0.44,-1.17,0.46,-1.16,1.17,1.97,2.51,1.61,1.62,1.61
84.65,0.57,-1.01,0.54,-1.04,1.05,1.83,2.40,1.62,1.59,1.58
85.50,0.63,-0.93,0.61,-0.94,0.94,1.69,2.30,1.57,1.55,1.56
86.35,0.65,-0.87,0.68,-0.84,0.83,1.55,2.19,1.48,1.51,1.52
87.22,0.73,-0.76,0.74,-0.75,0.72,1.41,2.09,1.45,1.46,1.49
88.09,0.84,-0.61,0.83,-0.62,0.62,1.27,1.98,1.46,1.45,1.45
88.97,0.91,-0.51,0.92,-0.50,0.52,1.13,1.88,1.43,1.44,1.42
89.86,1.00,-0.38,0.98,-0.40,0.42,0.99,1.78,1.42,1.40,1.38
90.76,1.02,-0.32,1.02,-0.33,0.33,0.86,1.68,1.35,1.35,1.35
91.66,1.03,-0.29,1.05,-0.26,0.25,0.72,1.58,1.28,1.30,1.32
92.58,1.09,-0.18,1.10,-0.18,0.17,0.60,1.49,1.26,1.27,1.27
93.51,1.16,-0.08,1.15,-0.10,0.10,0.47,1.39,1.26,1.25,1.24
94.44,1.20,-0.02,1.19,-0.02,0.04,0.36,1.30,1.24,1.23,1.22
95.39,1.21,0.02,1.21,0.03,-0.01,0.24,1.20,1.20,1.20,1.19
96.34,1.21,0.06,1.21,0.05,-0.07,0.14,1.11,1.14,1.14,1.15
97.30,1.21,0.09,1.22,0.10,-0.11,0.04,1.02,1.10,1.11,1.12
98.28,1.22,0.13,1.24,0.15,-0.15,-0.05,0.94,1.07,1.09,1.09
99.26,1.28,0.22,1.25,0.19,-0.19,-0.13,0.85,1.09,1.06,1.06
100.25,1.26,0.22,1.26,0.22,-0.22,-0.20,0.76,1.04,1.04,1.04
101.25,1.24,0.23,1.25,0.25,-0.24,-0.26,0.68,1.00,1.01,1.01
102.27,1.23,0.25,1.23,0.26,-0.26,-0.31,0.60,0.97,0.97,0.98
103.29,1.22,0.28,1.22,0.27,-0.27,-0.35,0.52,0.95,0.95,0.94
104.32,1.20,0.28,1.20,0.29,-0.27,-0.38,0.44,0.93,0.93,0.92
105.37,1.17,0.28,1.17,0.28,-0.26,-0.41,0.36,0.91,0.91,0.89
106.42,1.13,0.27,1.12,0.26,-0.26,-0.42,0.29,0.87,0.86,0.86
107.48,1.05,0.23,1.06,0.24,-0.25,-0.43,0.22,0.80,0.81,0.82
108.56,1.00,0.22,1.01,0.23,-0.25,-0.43,0.15,0.75,0.76,0.78
109.64,0.98,0.23,0.98,0.23,-0.25,-0.43,0.08,0.73,0.73,0.75
110.74,0.96,0.25,0.96,0.24,-0.26,-0.41,0.02,0.70,0.70,0.71
111.85,0.95,0.26,0.95,0.27,-0.27,-0.40,-0.05,0.68,0.68,0.69
112.97,0.94,0.30,0.94,0.29,-0.29,-0.37,-0.10,0.65,0.65,0.65
114.10,0.93,0.31,0.94,0.32,-0.31,-0.35,-0.16,0.62,0.63,0.62
115.24,0.93,0.34,0.93,0.35,-0.32,-0.32,-0.21,0.61,0.61,0.59
116.39,0.93,0.38,0.92,0.36,-0.34,-0.28,-0.26,0.59,0.58,0.55
117.55,0.90,0.37,0.89,0.36,-0.36,-0.25,-0.30,0.54,0.53,0.53
118.73,0.85,0.35,0.87,0.36,-0.38,-0.21,-0.34,0.47,0.49,0.51
119.92,0.85,0.35,0.85,0.36,-0.40,-0.17,-0.38,0.45,0.46,0.50
121.12,0.86,0.39,0.85,0.38,-0.41,-0.14,-0.41,0.45,0.45,0.47
122.33,0.87,0.42,0.87,0.41,-0.42,-0.10,-0.44,0.45,0.45,0.46
123.55,0.87,0.42,0.88,0.44,-0.42,-0.06,-0.47,0.45,0.46,0.45
124.79,0.88,0.45,0.87,0.44,-0.42,-0.02,-0.49,0.46,0.46,0.43
126.03,0.86,0.44,0.83,0.41,-0.40,0.02,-0.50,0.47,0.44,0.42
127.29,0.76,0.35,0.78,0.37,-0.35,0.05,-0.51,0.41,0.42,0.41
128.57,0.68,0.29,0.70,0.31,-0.29,0.09,-0.52,0.39,0.41,0.39
129.85,0.63,0.25,0.61,0.23,-0.20,0.12,-0.53,0.43,0.41,0.38
131.15,0.51,0.15,0.50,0.13,-0.10,0.15,-0.53,0.41,0.40,0.36
132.46,0.35,-0.00,0.35,0.01,0.01,0.19,-0.52,0.36,0.37,0.35
133.79,0.20,-0.14,0.21,-0.13,0.11,0.22,-0.52,0.31,0.32,0.34
135.12,0.06,-0.26,0.07,-0.25,0.20,0.25,-0.50,0.26,0.27,0.32
136.48,-0.01,-0.33,-0.03,-0.34,0.28,0.27,-0.49,0.27,0.25,0.32
137.84,-0.12,-0.42,-0.10,-0.39,0.33,0.30,-0.47,0.22,0.24,0.30
139.22,-0.13,-0.41,-0.12,-0.40,0.38,0.33,-0.45,0.25,0.26,0.28
140.61,-0.12,-0.38,-0.12,-0.39,0.41,0.35,-0.43,0.29,0.29,0.26
142.02,-0.10,-0.36,-0.12,-0.37,0.42,0.38,-0.40,0.32,0.30,0.26
143.44,-0.13,-0.37,-0.14,-0.38,0.43,0.40,-0.38,0.30,0.28,0.24
144.87,-0.21,-0.42,-0.19,-0.41,0.43,0.42,-0.35,0.22,0.24,0.21
146.32,-0.25,-0.44,-0.25,-0.44,0.43,0.44,-0.31,0.18,0.19,0.19
147.78,-0.30,-0.47,-0.30,-0.46,0.44,0.46,-0.28,0.14,0.14,0.17
149.26,-0.32,-0.45,-0.33,-0.46,0.45,0.48,-0.25,0.13,0.11,0.14
150.75,-0.39,-0.47,-0.37,-0.46,0.45,0.49,-0.21,0.06,0.08,0.08
152.26,-0.41,-0.44,-0.41,-0.44,0.44,0.51,-0.17,0.03,0.03,0.03
153.78,-0.45,-0.42,-0.46,-0.43,0.42,0.53,-0.13,-0.03,-0.04,-0.03
155.32,-0.50,-0.41,-0.51,-0.42,0.39,0.54,-0.09,-0.11,-0.11,-0.09
156.88,-0.57,-0.42,-0.55,-0.39,0.37,0.56,-0.05,-0.20,-0.18,-0.15
158.44,-0.59,-0.36,-0.58,-0.35,0.36,0.57,-0.01,-0.23,-0.22,-0.23
160.03,-0.59,-0.29,-0.61,-0.31,0.36,0.59,0.03,-0.23,-0.25,-0.30
161.63,-0.65,-0.29,-0.66,-0.30,0.36,0.60,0.07,-0.29,-0.29,-0.36
163.24,-0.74,-0.33,-0.74,-0.34,0.37,0.61,0.12,-0.37,-0.37,-0.41
164.88,-0.85,-0.40,-0.85,-0.40,0.38,0.63,0.16,-0.46,-0.47,-0.45
166.53,-0.96,-0.47,-0.94,-0.45,0.40,0.64,0.21,-0.56,-0.54,-0.49
168.19,-1.00,-0.48,-0.99,-0.48,0.43,0.65,0.25,-0.57,-0.57,-0.52
169.87,-1.01,-0.47,-1.01,-0.47,0.46,0.67,0.30,-0.55,-0.56,-0.54
171.57,-1.01,-0.46,-1.01,-0.46,0.48,0.68,0.34,-0.53,-0.53,-0.55
173.29,-1.02,-0.46,-1.03,-0.47,0.50,0.69,0.39,-0.52,-0.53,-0.56
175.02,-1.05,-0.49,-1.06,-0.50,0.52,0.70,0.43,-0.53,-0.54,-0.56
176.77,-1.11,-0.55,-1.09,-0.53,0.53,0.72,0.48,-0.58,-0.57,-0.56
178.54,-1.12,-0.56,-1.12,-0.56,0.54,0.73,0.53,-0.57,-0.57,-0.56
180.32,-1.12,-0.58,-1.11,-0.57,0.57,0.74,0.57,-0.55,-0.55,-0.54
182.13,-1.11,-0.58,-1.12,-0.59,0.59,0.75,0.62,-0.51,-0.52,-0.53
183.95,-1.11,-0.58,-1.13,-0.60,0.62,0.77,0.67,-0.49,-0.51,-0.53
185.79,-1.18,-0.65,-1.15,-0.62,0.64,0.78,0.71,-0.54,-0.52,-0.52
187.65,-1.17,-0.63,-1.19,-0.66,0.65,0.79,0.76,-0.52,-0.55,-0.54
189.52,-1.23,-0.69,-1.22,-0.68,0.65,0.81,0.81,-0.58,-0.58,-0.54
191.42,-1.24,-0.69,-1.23,-0.67,0.64,0.82,0.86,-0.60,-0.59,-0.55
193.33,-1.23,-0.66,-1.23,-0.67,0.64,0.83,0.90,-0.59,-0.59,-0.57
195.27,-1.21,-0.63,-1.21,-0.63,0.64,0.85,0.95,-0.57,-0.57,-0.58
197.22,-1.20,-0.61,-1.20,-0.60,0.64,0.86,1.00,-0.56,-0.55,-0.59
199.19,-1.19,-0.58,-1.21,-0.60,0.64,0.88,1.05,-0.54,-0.56,-0.61
201.18,-1.24,-0.62,-1.24,-0.62,0.64,0.89,1.10,-0.59,-0.59,-0.62
203.19,-1.29,-0.66,-1.29,-0.65,0.65,0.91,1.14,-0.64,-0.64,-0.63
205.23,-1.34,-0.69,-1.33,-0.69,0.65,0.92,1.19,-0.69,-0.68,-0.65
207.28,-1.37,-0.72,-1.36,-0.70,0.66,0.94,1.24,-0.71,-0.70,-0.65
209.35,-1.37,-0.70,-1.37,-0.70,0.68,0.95,1.29,-0.69,-0.69,-0.67
211.44,-1.37,-0.67,-1.37,-0.68,0.70,0.97,1.33,-0.67,-0.67,-0.70
213.56,-1.37,-0.67,-1.37,-0.67,0.71,0.98,1.38,-0.65,-0.66,-0.70
215.69,-1.38,-0.67,-1.40,-0.70,0.73,1.00,1.42,-0.65,-0.67,-0.70
217.85,-1.46,-0.75,-1.45,-0.74,0.75,1.02,1.47,-0.71,-0.70,-0.71
220.03,-1.52,-0.80,-1.51,-0.79,0.77,1.04,1.51,-0.75,-0.74,-0.72
222.23,-1.56,-0.82,-1.56,-0.83,0.79,1.05,1.55,-0.77,-0.77,-0.74
224.45,-1.58,-0.85,-1.58,-0.85,0.81,1.07,1.59,-0.77,-0.76,-0.72
226.70,-1.58,-0.86,-1.58,-0.86,0.84,1.09,1.63,-0.74,-0.74,-0.72
228.96,-1.57,-0.86,-1.58,-0.87,0.86,1.11,1.67,-0.71,-0.71,-0.71
231.25,-1.57,-0.87,-1.56,-0.86,0.89,1.13,1.70,-0.68,-0.67,-0.69
233.57,-1.56,-0.88,-1.55,-0.87,0.91,1.15,1.74,-0.65,-0.64,-0.68
235.90,-1.54,-0.87,-1.58,-0.91,0.94,1.17,1.77,-0.60,-0.64,-0.67
238.26,-1.62,-0.97,-1.62,-0.97,0.97,1.19,1.80,-0.65,-0.64,-0.65
240.64,-1.69,-1.06,-1.66,-1.04,1.01,1.21,1.83,-0.68,-0.65,-0.63
243.05,-1.69,-1.10,-1.68,-1.09,1.05,1.23,1.85,-0.64,-0.63,-0.59
245.48,-1.67,-1.10,-1.67,-1.11,1.09,1.25,1.88,-0.58,-0.58,-0.57
247.93,-1.64,-1.11,-1.67,-1.13,1.13,1.27,1.90,-0.51,-0.54,-0.53
250.41,-1.68,-1.16,-1.67,-1.16,1.16,1.29,1.92,-0.52,-0.51,-0.52
252.92,-1.70,-1.22,-1.68,-1.20,1.20,1.32,1.93,-0.50,-0.49,-0.48
255.45,-1.69,-1.23,-1.69,-1.23,1.23,1.34,1.95,-0.46,-0.46,-0.46
258.00,-1.68,-1.25,-1.69,-1.25,1.26,1.36,1.96,-0.42,-0.42,-0.43
260.58,-1.68,-1.26,-1.70,-1.29,1.31,1.38,1.97,-0.37,-0.40,-0.42
263.19,-1.75,-1.37,-1.73,-1.34,1.35,1.41,1.98,-0.40,-0.37,-0.38
265.82,-1.77,-1.41,-1.76,-1.40,1.41,1.43,1.98,-0.36,-0.36,-0.36
268.48,-1.78,-1.44,-1.80,-1.47,1.46,1.45,1.99,-0.32,-0.34,-0.34
271.16,-1.83,-1.53,-1.83,-1.52,1.52,1.48,1.99,-0.31,-0.31,-0.30
273.87,-1.88,-1.60,-1.86,-1.58,1.58,1.50,1.99,-0.30,-0.28,-0.28
276.61,-1.88,-1.63,-1.88,-1.63,1.63,1.52,1.99,-0.25,-0.25,-0.25
279.38,-1.88,-1.66,-1.90,-1.68,1.69,1.55,1.99,-0.19,-0.22,-0.22
282.17,-1.93,-1.74,-1.92,-1.73,1.73,1.57,1.99,-0.20,-0.19,-0.19
284.99,-1.96,-1.80,-1.95,-1.78,1.77,1.60,1.99,-0.18,-0.17,-0.16
287.84,-1.96,-1.82,-1.96,-1.83,1.81,1.62,1.99,-0.15,-0.15,-0.14
290.72,-1.95,-1.85,-1.95,-1.85,1.84,1.65,1.98,-0.11,-0.12,-0.10
293.63,-1.94,-1.86,-1.94,-1.87,1.86,1.67,1.98,-0.08,-0.08,-0.07
296.57,-1.92,-1.88,-1.92,-1.88,1.88,1.70,1.98,-0.04,-0.04,-0.04
299.53,-1.91,-1.90,-1.91,-1.90,1.91,1.72,1.98,-0.00,-0.00,-0.01
302.53,-1.90,-1.91,-1.89,-1.91,1.93,1.75,1.97,0.03,0.04,0.01
305.55,-1.89,-1.95,-1.89,-1.93,1.96,1.77,1.97,0.07,0.07,0.06
308.61,-1.88,-1.95,-1.90,-1.98,1.99,1.80,1.97,0.11,0.09,0.07
311.69,-1.93,-2.03,-1.92,-2.03,2.02,1.82,1.97,0.09,0.10,0.10
314.81,-1.96,-2.09,-1.95,-2.07,2.05,1.85,1.97,0.09,0.11,0.13
317.96,-1.96,-2.11,-1.96,-2.11,2.08,1.88,1.97,0.12,0.12,0.15
321.14,-1.96,-2.12,-1.96,-2.12,2.11,1.90,1.98,0.15,0.15,0.16
324.35,-1.96,-2.13,-1.96,-2.13,2.13,1.93,1.98,0.17,0.17,0.17
327.59,-1.96,-2.15,-1.96,-2.15,2.16,1.95,1.98,0.20,0.19,0.19
330.87,-1.97,-2.17,-1.97,-2.17,2.18,1.97,1.99,0.21,0.21,0.20
334.18,-1.97,-2.19,-1.96,-2.18,2.20,2.00,2.00,0.23,0.23,0.22
337.52,-1.97,-2.20,-1.97,-2.20,2.22,2.02,2.01,0.25,0.25,0.23
340.90,-1.97,-2.22,-1.99,-2.23,2.24,2.05,2.02,0.27,0.26,0.25
344.30,-2.02,-2.27,-2.02,-2.27,2.27,2.07,2.03,0.25,0.25,0.26
347.75,-2.06,-2.31,-2.05,-2.30,2.29,2.10,2.05,0.23,0.24,0.25
351.23,-2.07,-2.33,-2.07,-2.33,2.31,2.12,2.06,0.24,0.24,0.26
354.74,-2.06,-2.32,-2.07,-2.33,2.32,2.14,2.08,0.26,0.25,0.26
358.28,-2.06,-2.33,-2.06,-2.33,2.33,2.16,2.10,0.27,0.27,0.27
361.87,-2.06,-2.33,-2.06,-2.33,2.33,2.19,2.12,0.27,0.27,0.27
365.49,-2.05,-2.33,-2.05,-2.32,2.32,2.21,2.14,0.28,0.28,0.28
369.14,-2.04,-2.31,-2.04,-2.31,2.32,2.23,2.17,0.28,0.28,0.27
372.83,-2.03,-2.30,-2.03,-2.30,2.31,2.25,2.19,0.28,0.27,0.27
376.56,-2.03,-2.29,-2.03,-2.29,2.29,2.27,2.22,0.27,0.27,0.27
380.33,-2.02,-2.29,-2.02,-2.29,2.28,2.29,2.25,0.26,0.26,0.27
384.13,-2.01,-2.28,-2.01,-2.28,2.27,2.31,2.28,0.26,0.26,0.27
387.97,-2.01,-2.27,-2.01,-2.27,2.26,2.33,2.31,0.25,0.26,0.26
391.85,-2.00,-2.25,-2.00,-2.26,2.26,2.35,2.34,0.26,0.26,0.25
395.77,-2.00,-2.26,-2.00,-2.25,2.27,2.36,2.37,0.27,0.27,0.26
399.73,-2.00,-2.25,-2.00,-2.25,2.27,2.38,2.41,0.27,0.28,0.25
403.72,-2.00,-2.25,-2.02,-2.27,2.28,2.40,2.44,0.28,0.27,0.25
407.76,-2.05,-2.29,-2.05,-2.29,2.29,2.41,2.48,0.25,0.25,0.24
411.84,-2.10,-2.34,-2.08,-2.32,2.31,2.42,2.51,0.21,0.22,0.24
415.96,-2.11,-2.35,-2.11,-2.34,2.32,2.44,2.55,0.21,0.21,0.24
420.12,-2.11,-2.35,-2.11,-2.35,2.33,2.45,2.59,0.22,0.22,0.24
424.32,-2.10,-2.34,-2.10,-2.34,2.33,2.46,2.62,0.23,0.23,0.24
428.56,-2.09,-2.34,-2.09,-2.33,2.33,2.47,2.66,0.25,0.24,0.25
432.85,-2.08,-2.33,-2.08,-2.33,2.33,2.48,2.69,0.25,0.26,0.26
437.18,-2.05,-2.31,-2.05,-2.32,2.33,2.49,2.73,0.28,0.29,0.26
441.55,-2.02,-2.32,-2.02,-2.31,2.33,2.50,2.76,0.31,0.32,0.30
445.96,-1.97,-2.30,-1.99,-2.32,2.33,2.51,2.79,0.36,0.34,0.33
450.42,-1.97,-2.33,-1.97,-2.34,2.33,2.51,2.82,0.37,0.37,0.36
454.93,-1.95,-2.36,-1.94,-2.35,2.34,2.52,2.85,0.39,0.40,0.41
