frequency,raw,error,smoothed,error_smoothed,equalization,parametric_eq,fixed_band_eq,equalized_raw,equalized_smoothed,target
20.00,-5.48,-6.69,-5.58,-6.82,6.00,4.90,1.07,0.52,0.42,1.21
20.20,-5.39,-6.65,-5.45,-6.73,6.00,5.04,1.10,0.61,0.55,1.26
20.40,-5.30,-6.61,-5.32,-6.63,6.00,5.16,1.14,0.70,0.68,1.31
20.61,-5.21,-6.55,-5.19,-6.54,6.00,5.28,1.17,0.79,0.81,1.34
20.81,-5.12,-6.51,-5.06,-6.44,6.00,5.38,1.21,0.88,0.94,1.39
21.02,-5.03,-6.46,-4.93,-6.34,6.00,5.48,1.25,0.97,1.07,1.43
21.23,-4.88,-6.33,-4.80,-6.23,5.98,5.56,1.28,1.10,1.18,1.45
21.44,-4.73,-6.20,-4.68,-6.13,5.95,5.62,1.32,1.22,1.28,1.47
21.66,-4.58,-6.07,-4.55,-6.02,5.90,5.67,1.37,1.32,1.35,1.49
21.87,-4.44,-5.94,-4.42,-5.91,5.83,5.70,1.41,1.39,1.41,1.50
22.09,-4.29,-5.81,-4.29,-5.80,5.75,5.71,1.45,1.46,1.46,1.52
22.31,-4.14,-5.67,-4.16,-5.68,5.65,5.71,1.50,1.51,1.49,1.53
22.54,-3.99,-5.52,-4.03,-5.55,5.54,5.68,1.54,1.55,1.52,1.53
22.76,-3.84,-5.37,-3.89,-5.42,5.42,5.64,1.59,1.58,1.53,1.53
22.99,-3.69,-5.21,-3.76,-5.29,5.29,5.59,1.64,1.60,1.53,1.52
23.22,-3.58,-5.10,-3.63,-5.16,5.16,5.51,1.69,1.58,1.53,1.52
23.45,-3.48,-5.00,-3.50,-5.03,5.03,5.43,1.74,1.55,1.53,1.52
23.69,-3.38,-4.91,-3.37,-4.91,4.91,5.32,1.79,1.52,1.54,1.53
23.92,-3.28,-4.81,-3.24,-4.78,4.78,5.21,1.84,1.50,1.54,1.53
24.16,-3.16,-4.70,-3.11,-4.65,4.65,5.08,1.89,1.49,1.54,1.54
24.40,-3.03,-4.58,-2.99,-4.52,4.52,4.94,1.94,1.49,1.53,1.55
24.65,-2.90,-4.44,-2.87,-4.40,4.40,4.80,1.99,1.50,1.53,1.54
24.89,-2.78,-4.31,-2.74,-4.28,4.28,4.65,2.05,1.50,1.54,1.54
25.14,-2.63,-4.17,-2.62,-4.16,4.16,4.49,2.10,1.53,1.54,1.54
25.39,-2.48,-4.02,-2.50,-4.04,4.04,4.33,2.15,1.56,1.54,1.54
25.65,-2.33,-3.88,-2.38,-3.92,3.92,4.16,2.21,1.58,1.54,1.54
25.91,-2.18,-3.72,-2.25,-3.79,3.79,3.99,2.26,1.60,1.54,1.53
26.16,-2.06,-3.59,-2.12,-3.66,3.66,3.82,2.31,1.60,1.54,1.53
26.43,-1.97,-3.51,-1.99,-3.53,3.53,3.65,2.36,1.55,1.54,1.53
26.69,-1.87,-3.40,-1.86,-3.39,3.39,3.48,2.41,1.52,1.54,1.53
26.96,-1.78,-3.32,-1.73,-3.26,3.26,3.31,2.45,1.48,1.53,1.54
27.23,-1.65,-3.19,-1.60,-3.13,3.13,3.14,2.50,1.48,1.53,1.54
27.50,-1.51,-3.05,-1.48,-3.01,3.01,2.98,2.54,1.50,1.53,1.54
27.77,-1.38,-2.91,-1.35,-2.88,2.88,2.81,2.58,1.51,1.53,1.53
28.05,-1.24,-2.77,-1.24,-2.77,2.77,2.65,2.61,1.52,1.53,1.53
28.33,-1.10,-2.62,-1.12,-2.65,2.65,2.49,2.65,1.55,1.53,1.52
28.62,-0.95,-2.47,-1.00,-2.53,2.53,2.33,2.67,1.58,1.53,1.52
28.90,-0.81,-2.34,-0.88,-2.40,2.40,2.18,2.70,1.59,1.53,1.53
29.19,-0.70,-2.22,-0.74,-2.27,2.27,2.03,2.72,1.57,1.53,1.52
29.48,-0.60,-2.13,-0.60,-2.13,2.13,1.88,2.73,1.53,1.52,1.53
29.78,-0.50,-2.03,-0.47,-1.99,1.99,1.74,2.74,1.49,1.52,1.52
30.08,-0.40,-1.94,-0.34,-1.86,1.86,1.60,2.74,1.45,1.52,1.53
30.38,-0.27,-1.79,-0.21,-1.73,1.73,1.47,2.74,1.46,1.52,1.52
30.68,-0.14,-1.66,-0.08,-1.61,1.61,1.34,2.73,1.46,1.52,1.52
30.99,-0.01,-1.53,0.04,-1.48,1.48,1.21,2.71,1.47,1.52,1.52
31.30,0.17,-1.35,0.16,-1.36,1.36,1.08,2.69,1.53,1.52,1.52
31.61,0.35,-1.17,0.28,-1.24,1.24,0.96,2.66,1.59,1.52,1.52
31.93,0.53,-0.99,0.39,-1.12,1.12,0.85,2.63,1.65,1.51,1.52
32.24,0.60,-0.90,0.51,-1.00,1.00,0.73,2.59,1.60,1.51,1.50
32.57,0.64,-0.87,0.62,-0.89,0.89,0.62,2.54,1.52,1.51,1.51
32.89,0.69,-0.82,0.73,-0.77,0.77,0.51,2.49,1.46,1.50,1.51
33.22,0.78,-0.72,0.83,-0.67,0.67,0.41,2.43,1.45,1.50,1.50
33.55,0.91,-0.59,0.93,-0.56,0.56,0.31,2.37,1.47,1.50,1.50
33.89,1.03,-0.46,1.03,-0.46,0.46,0.21,2.30,1.49,1.49,1.49
34.23,1.13,-0.37,1.13,-0.36,0.36,0.12,2.22,1.49,1.49,1.49
34.57,1.22,-0.26,1.23,-0.26,0.26,0.02,2.15,1.48,1.49,1.48
34.92,1.31,-0.17,1.32,-0.16,0.16,-0.07,2.06,1.47,1.48,1.48
35.27,1.40,-0.08,1.41,-0.07,0.07,-0.15,1.98,1.46,1.48,1.48
35.62,1.50,0.02,1.52,0.04,-0.04,-0.24,1.89,1.46,1.48,1.48
35.97,1.59,0.12,1.62,0.14,-0.14,-0.32,1.79,1.45,1.48,1.47
36.33,1.72,0.24,1.72,0.24,-0.24,-0.40,1.69,1.48,1.48,1.48
36.70,1.85,0.38,1.82,0.34,-0.34,-0.47,1.60,1.51,1.48,1.47
37.06,1.97,0.50,1.92,0.44,-0.44,-0.55,1.49,1.53,1.48,1.47
37.43,2.05,0.56,2.03,0.55,-0.55,-0.62,1.39,1.50,1.48,1.49
37.81,2.13,0.65,2.14,0.66,-0.66,-0.69,1.28,1.47,1.48,1.48
38.19,2.22,0.74,2.24,0.76,-0.76,-0.75,1.18,1.46,1.48,1.48
38.57,2.31,0.82,2.33,0.85,-0.85,-0.82,1.07,1.46,1.49,1.49
38.95,2.40,0.90,2.42,0.93,-0.93,-0.88,0.96,1.46,1.49,1.49
39.34,2.48,0.99,2.51,1.02,-1.02,-0.94,0.85,1.46,1.49,1.49
39.74,2.56,1.07,2.59,1.09,-1.09,-1.00,0.73,1.46,1.49,1.49
40.14,2.67,1.17,2.66,1.17,-1.17,-1.06,0.62,1.50,1.49,1.50
40.54,2.85,1.36,2.74,1.25,-1.25,-1.12,0.51,1.60,1.49,1.49
40.94,3.03,1.54,2.81,1.32,-1.32,-1.17,0.39,1.71,1.49,1.49
41.35,2.96,1.47,2.89,1.40,-1.40,-1.22,0.28,1.56,1.49,1.48
41.76,2.85,1.37,2.97,1.49,-1.49,-1.27,0.16,1.36,1.48,1.48
42.18,2.85,1.36,3.05,1.57,-1.57,-1.32,0.04,1.28,1.48,1.49
42.60,3.00,1.53,3.11,1.64,-1.64,-1.37,-0.07,1.36,1.47,1.47
43.03,3.16,1.69,3.17,1.71,-1.71,-1.42,-0.19,1.45,1.46,1.47
43.46,3.24,1.77,3.23,1.78,-1.78,-1.46,-0.31,1.46,1.45,1.46
43.90,3.32,1.88,3.28,1.84,-1.84,-1.51,-0.43,1.47,1.44,1.44
44.33,3.39,1.96,3.34,1.91,-1.91,-1.55,-0.55,1.48,1.43,1.43
44.78,3.46,2.05,3.39,1.96,-1.96,-1.59,-0.66,1.49,1.42,1.41
45.23,3.51,2.10,3.44,2.03,-2.03,-1.63,-0.78,1.48,1.41,1.41
45.68,3.56,2.17,3.49,2.10,-2.10,-1.67,-0.90,1.46,1.40,1.39
46.13,3.58,2.20,3.57,2.18,-2.18,-1.71,-1.02,1.40,1.39,1.37
46.60,3.54,2.16,3.64,2.26,-2.26,-1.74,-1.14,1.28,1.38,1.38
47.06,3.53,2.17,3.69,2.32,-2.32,-1.78,-1.27,1.21,1.36,1.36
47.53,3.66,2.30,3.72,2.37,-2.37,-1.81,-1.39,1.29,1.35,1.36
48.01,3.79,2.43,3.75,2.41,-2.41,-1.85,-1.51,1.38,1.34,1.36
48.49,3.80,2.45,3.78,2.44,-2.44,-1.88,-1.63,1.35,1.33,1.34
48.97,3.82,2.49,3.81,2.48,-2.48,-1.91,-1.75,1.34,1.32,1.33
49.46,3.89,2.58,3.84,2.52,-2.52,-1.94,-1.87,1.37,1.31,1.31
49.96,3.95,2.66,3.87,2.56,-2.56,-1.97,-1.99,1.39,1.31,1.29
50.46,3.97,2.67,3.90,2.60,-2.60,-2.00,-2.11,1.37,1.30,1.29
50.96,3.99,2.70,3.93,2.64,-2.64,-2.03,-2.23,1.35,1.29,1.29
51.47,3.92,2.65,3.96,2.68,-2.68,-2.06,-2.35,1.24,1.28,1.27
51.99,3.85,2.59,3.98,2.71,-2.71,-2.09,-2.47,1.14,1.27,1.26
52.51,3.91,2.65,4.00,2.74,-2.74,-2.11,-2.58,1.17,1.26,1.26
53.03,3.97,2.71,4.01,2.76,-2.76,-2.14,-2.70,1.21,1.25,1.26
53.56,4.04,2.79,4.02,2.78,-2.78,-2.16,-2.81,1.26,1.25,1.25
54.10,4.09,2.84,4.03,2.79,-2.79,-2.19,-2.92,1.30,1.24,1.24
54.64,4.09,2.86,4.04,2.80,-2.80,-2.21,-3.03,1.29,1.24,1.23
55.18,4.09,2.86,4.05,2.82,-2.82,-2.23,-3.13,1.27,1.23,1.23
55.74,4.09,2.87,4.07,2.84,-2.84,-2.25,-3.23,1.24,1.23,1.22
56.29,4.09,2.87,4.09,2.87,-2.87,-2.27,-3.33,1.22,1.22,1.22
56.86,4.09,2.88,4.10,2.89,-2.89,-2.30,-3.42,1.20,1.21,1.21
57.42,4.09,2.90,4.12,2.91,-2.91,-2.32,-3.51,1.17,1.20,1.19
58.00,4.09,2.90,4.12,2.93,-2.93,-2.34,-3.59,1.16,1.19,1.18
58.58,4.09,2.91,4.11,2.94,-2.94,-2.36,-3.67,1.15,1.17,1.18
59.16,4.09,2.92,4.10,2.94,-2.94,-2.37,-3.74,1.15,1.15,1.17
59.76,4.09,2.93,4.09,2.95,-2.95,-2.39,-3.80,1.14,1.13,1.16
60.35,4.14,3.02,4.09,2.97,-2.97,-2.41,-3.86,1.17,1.11,1.12
60.96,4.22,3.12,4.09,3.00,-3.00,-2.43,-3.91,1.21,1.09,1.10
61.57,4.09,3.03,4.09,3.03,-3.03,-2.44,-3.95,1.06,1.06,1.06
62.18,3.99,2.96,4.08,3.05,-3.05,-2.46,-3.99,0.94,1.03,1.03
62.80,3.99,3.00,4.06,3.06,-3.06,-2.48,-4.02,0.93,1.00,0.99
63.43,3.99,3.03,4.04,3.08,-3.08,-2.49,-4.04,0.91,0.96,0.95
64.07,3.99,3.07,4.01,3.08,-3.08,-2.51,-4.05,0.90,0.93,0.92
64.71,3.99,3.11,3.99,3.10,-3.10,-2.52,-4.06,0.89,0.89,0.88
65.35,4.03,3.18,3.97,3.12,-3.12,-2.54,-4.06,0.91,0.85,0.85
66.01,4.09,3.28,3.95,3.14,-3.14,-2.55,-4.06,0.95,0.81,0.81
66.67,4.00,3.22,3.92,3.15,-3.15,-2.57,-4.04,0.85,0.78,0.77
67.33,3.89,3.15,3.89,3.15,-3.15,-2.58,-4.03,0.74,0.74,0.73
68.01,3.75,3.04,3.86,3.16,-3.16,-2.59,-4.01,0.59,0.70,0.70
68.69,3.73,3.07,3.84,3.18,-3.18,-2.60,-3.98,0.55,0.66,0.66
69.37,3.75,3.13,3.81,3.19,-3.19,-2.62,-3.95,0.56,0.62,0.62
70.07,3.79,3.21,3.78,3.20,-3.20,-2.63,-3.91,0.59,0.58,0.58
70.77,3.79,3.24,3.75,3.21,-3.21,-2.64,-3.87,0.58,0.54,0.55
71.48,3.83,3.32,3.72,3.22,-3.22,-2.65,-3.83,0.60,0.49,0.50
72.19,3.80,3.35,3.69,3.24,-3.24,-2.66,-3.79,0.56,0.45,0.45
72.91,3.51,3.10,3.66,3.25,-3.25,-2.67,-3.74,0.26,0.41,0.41
73.64,3.55,3.19,3.62,3.26,-3.26,-2.69,-3.70,0.29,0.36,0.36
74.38,3.59,3.27,3.59,3.27,-3.27,-2.70,-3.65,0.32,0.32,0.32
75.12,3.59,3.32,3.57,3.29,-3.29,-2.71,-3.60,0.30,0.28,0.27
75.87,3.59,3.36,3.55,3.32,-3.32,-2.72,-3.55,0.27,0.23,0.22
76.63,3.55,3.36,3.52,3.33,-3.33,-2.73,-3.50,0.22,0.19,0.19
77.40,3.50,3.35,3.48,3.33,-3.33,-2.73,-3.46,0.17,0.15,0.15
78.17,3.45,3.35,3.43,3.32,-3.32,-2.74,-3.41,0.13,0.11,0.10
78.95,3.39,3.31,3.39,3.31,-3.31,-2.75,-3.36,0.08,0.08,0.08
79.74,3.35,3.31,3.37,3.33,-3.33,-2.76,-3.32,0.02,0.04,0.04
80.54,3.23,3.22,3.35,3.34,-3.34,-2.77,-3.27,-0.11,0.01,0.01
81.35,3.23,3.26,3.32,3.35,-3.35,-2.78,-3.23,-0.12,-0.02,-0.03
82.16,3.38,3.44,3.27,3.33,-3.33,-2.79,-3.19,0.05,-0.06,-0.06
82.98,3.38,3.46,3.23,3.32,-3.32,-2.79,-3.15,0.06,-0.09,-0.08
83.81,3.23,3.35,3.19,3.31,-3.31,-2.80,-3.11,-0.08,-0.12,-0.12
84.65,3.03,3.19,3.14,3.30,-3.30,-2.81,-3.08,-0.27,-0.15,-0.16
85.50,2.99,3.17,3.11,3.30,-3.30,-2.82,-3.05,-0.31,-0.19,-0.18
86.35,3.07,3.28,3.06,3.28,-3.28,-2.82,-3.02,-0.22,-0.22,-0.21
87.22,3.15,3.40,3.01,3.26,-3.26,-2.83,-2.99,-0.11,-0.25,-0.25
88.09,3.19,3.47,2.96,3.24,-3.24,-2.84,-2.96,-0.06,-0.29,-0.28
88.97,2.78,3.10,2.92,3.24,-3.24,-2.84,-2.94,-0.46,-0.32,-0.32
89.86,2.75,3.10,2.88,3.23,-3.23,-2.85,-2.92,-0.49,-0.35,-0.35
90.76,2.82,3.21,2.83,3.22,-3.22,-2.86,-2.90,-0.40,-0.39,-0.39
91.66,2.80,3.22,2.78,3.20,-3.20,-2.86,-2.88,-0.40,-0.42,-0.42
92.58,2.73,3.19,2.72,3.18,-3.18,-2.87,-2.87,-0.45,-0.45,-0.46
93.51,2.69,3.18,2.68,3.17,-3.17,-2.88,-2.85,-0.48,-0.49,-0.49
94.44,2.61,3.13,2.65,3.16,-3.16,-2.88,-2.84,-0.56,-0.52,-0.52
95.39,2.49,3.04,2.61,3.16,-3.16,-2.89,-2.84,-0.67,-0.55,-0.55
96.34,2.54,3.12,2.57,3.15,-3.15,-2.89,-2.83,-0.61,-0.58,-0.59
97.30,2.70,3.31,2.52,3.13,-3.13,-2.90,-2.83,-0.43,-0.61,-0.61
98.28,2.63,3.27,2.47,3.11,-3.11,-2.90,-2.82,-0.48,-0.64,-0.64
99.26,2.42,3.09,2.45,3.12,-3.12,-2.91,-2.82,-0.71,-0.67,-0.67
100.25,2.26,2.96,2.42,3.12,-3.12,-2.91,-2.82,-0.86,-0.70,-0.70
101.25,2.20,2.93,2.36,3.09,-3.09,-2.92,-2.83,-0.89,-0.73,-0.73
102.27,2.32,3.08,2.31,3.07,-3.07,-2.92,-2.83,-0.75,-0.76,-0.76
103.29,2.40,3.20,2.26,3.05,-3.05,-2.93,-2.84,-0.65,-0.79,-0.80
104.32,2.38,3.20,2.20,3.02,-3.02,-2.93,-2.84,-0.64,-0.82,-0.82
105.37,2.18,3.03,2.14,3.00,-3.00,-2.93,-2.85,-0.82,-0.85,-0.85
106.42,1.99,2.86,2.08,2.96,-2.96,-2.94,-2.86,-0.97,-0.89,-0.88
107.48,1.87,2.78,2.00,2.92,-2.92,-2.94,-2.87,-1.06,-0.92,-0.92
108.56,2.01,2.96,1.94,2.89,-2.89,-2.95,-2.88,-0.88,-0.95,-0.95
109.64,2.08,3.06,1.88,2.87,-2.87,-2.95,-2.89,-0.79,-0.99,-0.98
110.74,1.77,2.79,1.84,2.86,-2.86,-2.95,-2.90,-1.09,-1.02,-1.02
111.85,1.58,2.62,1.78,2.83,-2.83,-2.96,-2.91,-1.25,-1.05,-1.04
112.97,1.67,2.76,1.72,2.80,-2.80,-2.96,-2.92,-1.13,-1.09,-1.09
114.10,1.68,2.80,1.64,2.76,-2.76,-2.96,-2.93,-1.08,-1.12,-1.12
115.24,1.59,2.74,1.58,2.72,-2.72,-2.97,-2.93,-1.13,-1.14,-1.15
116.39,1.53,2.71,1.53,2.70,-2.70,-2.97,-2.94,-1.17,-1.17,-1.19
117.55,1.51,2.71,1.49,2.68,-2.68,-2.97,-2.94,-1.17,-1.20,-1.20
118.73,1.50,2.73,1.44,2.66,-2.66,-2.98,-2.95,-1.16,-1.22,-1.23
119.92,1.43,2.67,1.40,2.64,-2.64,-2.98,-2.95,-1.21,-1.24,-1.24
121.12,1.38,2.64,1.35,2.61,-2.61,-2.98,-2.95,-1.23,-1.26,-1.26
122.33,1.32,2.60,1.32,2.59,-2.59,-2.98,-2.95,-1.28,-1.28,-1.28
123.55,1.26,2.54,1.30,2.59,-2.59,-2.99,-2.95,-1.33,-1.29,-1.29
124.79,1.21,2.51,1.26,2.57,-2.57,-2.99,-2.94,-1.36,-1.31,-1.30
126.03,1.15,2.47,1.21,2.53,-2.53,-2.99,-2.93,-1.38,-1.32,-1.32
127.29,1.16,2.48,1.18,2.51,-2.51,-2.99,-2.92,-1.35,-1.33,-1.32
128.57,1.17,2.51,1.15,2.49,-2.49,-3.00,-2.91,-1.32,-1.35,-1.35
129.85,1.17,2.53,1.12,2.48,-2.48,-3.00,-2.90,-1.31,-1.36,-1.36
131.15,1.17,2.54,1.09,2.46,-2.46,-3.00,-2.89,-1.29,-1.37,-1.37
132.46,1.12,2.50,1.07,2.45,-2.45,-3.00,-2.87,-1.33,-1.38,-1.38
133.79,1.05,2.45,1.06,2.45,-2.45,-3.01,-2.85,-1.40,-1.40,-1.40
135.12,0.96,2.38,1.05,2.45,-2.45,-3.01,-2.83,-1.50,-1.41,-1.42
136.48,0.98,2.40,1.03,2.45,-2.45,-3.01,-2.81,-1.47,-1.42,-1.42
137.84,0.99,2.43,1.01,2.44,-2.44,-3.01,-2.79,-1.45,-1.43,-1.44
139.22,1.00,2.46,0.99,2.44,-2.44,-3.01,-2.77,-1.44,-1.45,-1.46
140.61,1.00,2.48,0.99,2.45,-2.45,-3.01,-2.74,-1.45,-1.46,-1.48
142.02,1.00,2.48,0.98,2.46,-2.46,-3.02,-2.72,-1.47,-1.48,-1.48
143.44,1.00,2.49,0.97,2.47,-2.47,-3.02,-2.70,-1.48,-1.50,-1.49
144.87,1.00,2.52,0.96,2.49,-2.49,-3.02,-2.67,-1.49,-1.53,-1.52
146.32,1.00,2.55,0.96,2.52,-2.52,-3.02,-2.65,-1.52,-1.56,-1.55
147.78,1.00,2.56,0.99,2.58,-2.58,-3.02,-2.62,-1.58,-1.59,-1.56
149.26,0.90,2.50,1.00,2.64,-2.64,-3.02,-2.60,-1.74,-1.63,-1.60
150.75,0.84,2.49,1.01,2.69,-2.69,-3.02,-2.58,-1.85,-1.68,-1.66
152.26,1.00,2.71,1.02,2.75,-2.75,-3.02,-2.56,-1.75,-1.73,-1.71
153.78,1.10,2.86,1.01,2.79,-2.79,-3.02,-2.53,-1.69,-1.78,-1.76
155.32,1.07,2.89,0.98,2.82,-2.82,-3.03,-2.51,-1.75,-1.84,-1.83
156.88,0.91,2.80,0.96,2.86,-2.86,-3.03,-2.49,-1.95,-1.90,-1.89
158.44,0.90,2.86,0.92,2.88,-2.88,-3.03,-2.48,-1.98,-1.96,-1.96
160.03,1.00,3.03,0.89,2.90,-2.90,-3.03,-2.46,-1.90,-2.01,-2.03
161.63,1.11,3.20,0.84,2.91,-2.91,-3.03,-2.44,-1.80,-2.07,-2.09
163.24,0.99,3.13,0.79,2.91,-2.91,-3.03,-2.43,-1.92,-2.12,-2.14
164.88,0.66,2.84,0.74,2.91,-2.91,-3.03,-2.42,-2.25,-2.17,-2.18
166.53,0.65,2.87,0.69,2.90,-2.90,-3.03,-2.41,-2.25,-2.20,-2.22
168.19,0.57,2.82,0.64,2.88,-2.88,-3.03,-2.40,-2.31,-2.23,-2.25
169.87,0.35,2.63,0.59,2.84,-2.84,-3.03,-2.39,-2.50,-2.26,-2.28
171.57,0.44,2.73,0.55,2.82,-2.82,-3.03,-2.39,-2.38,-2.27,-2.29
173.29,0.55,2.84,0.52,2.80,-2.80,-3.03,-2.38,-2.25,-2.28,-2.29
175.02,0.45,2.74,0.50,2.79,-2.79,-3.03,-2.38,-2.34,-2.29,-2.29
176.77,0.45,2.75,0.48,2.77,-2.77,-3.03,-2.38,-2.32,-2.29,-2.30
178.54,0.45,2.74,0.47,2.76,-2.76,-3.03,-2.38,-2.31,-2.29,-2.29
180.32,0.52,2.80,0.47,2.76,-2.76,-3.03,-2.39,-2.24,-2.29,-2.28
182.13,0.56,2.82,0.49,2.78,-2.78,-3.03,-2.39,-2.22,-2.29,-2.26
183.95,0.57,2.84,0.54,2.82,-2.82,-3.03,-2.40,-2.25,-2.28,-2.27
185.79,0.58,2.84,0.57,2.86,-2.86,-3.03,-2.41,-2.28,-2.28,-2.26
187.65,0.60,2.87,0.60,2.89,-2.89,-3.03,-2.42,-2.29,-2.28,-2.27
189.52,0.61,2.89,0.63,2.92,-2.92,-3.03,-2.43,-2.31,-2.29,-2.28
191.42,0.62,2.91,0.64,2.93,-2.93,-3.03,-2.44,-2.31,-2.29,-2.29
193.33,0.64,2.94,0.64,2.94,-2.94,-3.03,-2.46,-2.30,-2.30,-2.30
195.27,0.65,2.96,0.65,2.96,-2.96,-3.03,-2.48,-2.31,-2.31,-2.31
197.22,0.67,2.99,0.65,2.97,-2.97,-3.03,-2.49,-2.31,-2.32,-2.32
199.19,0.68,3.02,0.65,2.98,-2.98,-3.03,-2.51,-2.30,-2.34,-2.35
201.18,0.77,3.12,0.64,2.99,-2.99,-3.03,-2.53,-2.22,-2.35,-2.36
203.19,0.79,3.15,0.64,3.01,-3.01,-3.02,-2.56,-2.22,-2.37,-2.37
205.23,0.58,2.96,0.63,3.02,-3.02,-3.02,-2.58,-2.44,-2.38,-2.39
207.28,0.50,2.88,0.61,3.01,-3.01,-3.02,-2.60,-2.51,-2.40,-2.39
209.35,0.52,2.92,0.61,3.02,-3.02,-3.02,-2.63,-2.50,-2.41,-2.40
211.44,0.48,2.91,0.60,3.03,-3.03,-3.02,-2.65,-2.55,-2.42,-2.43
213.56,0.55,2.98,0.59,3.03,-3.03,-3.02,-2.67,-2.48,-2.43,-2.43
215.69,0.58,3.02,0.58,3.02,-3.02,-3.02,-2.70,-2.44,-2.44,-2.44
217.85,0.58,3.03,0.55,3.00,-3.00,-3.02,-2.72,-2.42,-2.45,-2.45
220.03,0.57,3.02,0.51,2.96,-2.96,-3.02,-2.75,-2.40,-2.45,-2.46
222.23,0.57,3.04,0.47,2.93,-2.93,-3.01,-2.77,-2.36,-2.46,-2.47
224.45,0.52,2.98,0.41,2.87,-2.87,-3.01,-2.79,-2.35,-2.45,-2.46
226.70,0.34,2.80,0.35,2.80,-2.80,-3.01,-2.81,-2.46,-2.45,-2.46
228.96,0.38,2.82,0.31,2.76,-2.76,-3.01,-2.83,-2.38,-2.44,-2.44
231.25,0.54,2.97,0.28,2.71,-2.71,-3.01,-2.85,-2.17,-2.43,-2.43
233.57,0.32,2.74,0.24,2.65,-2.65,-3.01,-2.87,-2.33,-2.42,-2.42
235.90,0.08,2.48,0.21,2.60,-2.60,-3.00,-2.88,-2.53,-2.40,-2.40
238.26,0.04,2.43,0.18,2.56,-2.56,-3.00,-2.89,-2.52,-2.38,-2.39
240.64,-0.07,2.29,0.17,2.53,-2.53,-3.00,-2.91,-2.60,-2.36,-2.36
243.05,0.01,2.34,0.18,2.51,-2.51,-3.00,-2.91,-2.50,-2.33,-2.33
245.48,0.05,2.35,0.21,2.52,-2.52,-3.00,-2.92,-2.47,-2.31,-2.30
247.93,-0.00,2.27,0.25,2.53,-2.53,-2.99,-2.92,-2.53,-2.28,-2.27
250.41,0.31,2.56,0.28,2.53,-2.53,-2.99,-2.92,-2.22,-2.26,-2.25
252.92,0.62,2.84,0.32,2.54,-2.54,-2.99,-2.92,-1.93,-2.23,-2.22
255.45,0.48,2.67,0.35,2.56,-2.56,-2.99,-2.92,-2.08,-2.20,-2.19
258.00,0.50,2.67,0.40,2.58,-2.58,-2.98,-2.91,-2.08,-2.17,-2.17
260.58,0.55,2.70,0.47,2.62,-2.62,-2.98,-2.90,-2.07,-2.15,-2.15
263.19,0.63,2.74,0.53,2.65,-2.65,-2.98,-2.89,-2.02,-2.12,-2.12
265.82,0.66,2.76,0.58,2.67,-2.67,-2.98,-2.88,-2.01,-2.09,-2.10
268.48,0.66,2.73,0.62,2.69,-2.69,-2.97,-2.86,-2.03,-2.07,-2.07
271.16,0.65,2.68,0.65,2.69,-2.69,-2.97,-2.84,-2.04,-2.04,-2.04
273.87,0.46,2.48,0.67,2.68,-2.68,-2.97,-2.82,-2.22,-2.01,-2.02
276.61,0.45,2.43,0.68,2.67,-2.67,-2.96,-2.80,-2.22,-1.98,-1.98
279.38,0.69,2.64,0.68,2.64,-2.64,-2.96,-2.78,-1.95,-1.96,-1.96
282.17,0.75,2.68,0.69,2.62,-2.62,-2.96,-2.76,-1.87,-1.93,-1.93
284.99,0.76,2.65,0.71,2.61,-2.61,-2.96,-2.74,-1.85,-1.90,-1.89
287.84,0.77,2.64,0.73,2.60,-2.60,-2.95,-2.71,-1.83,-1.87,-1.88
290.72,0.78,2.62,0.75,2.58,-2.58,-2.95,-2.69,-1.80,-1.84,-1.84
293.63,0.79,2.60,0.76,2.57,-2.57,-2.95,-2.67,-1.78,-1.81,-1.81
296.57,0.80,2.57,0.78,2.56,-2.56,-2.94,-2.64,-1.76,-1.77,-1.77
299.53,0.81,2.55,0.81,2.55,-2.55,-2.94,-2.62,-1.74,-1.75,-1.75
302.53,0.83,2.56,0.83,2.55,-2.55,-2.93,-2.59,-1.72,-1.72,-1.73
305.55,0.84,2.52,0.85,2.55,-2.55,-2.93,-2.57,-1.71,-1.69,-1.68
308.61,0.80,2.46,0.85,2.52,-2.52,-2.93,-2.55,-1.72,-1.67,-1.66
311.69,0.79,2.42,0.84,2.48,-2.48,-2.92,-2.53,-1.69,-1.64,-1.63
314.81,0.90,2.50,0.84,2.45,-2.45,-2.92,-2.51,-1.55,-1.62,-1.61
317.96,0.89,2.48,0.84,2.43,-2.43,-2.91,-2.49,-1.54,-1.60,-1.59
321.14,0.86,2.44,0.84,2.41,-2.41,-2.91,-2.47,-1.55,-1.58,-1.58
324.35,0.86,2.42,0.84,2.40,-2.40,-2.90,-2.46,-1.54,-1.56,-1.56
327.59,0.86,2.40,0.84,2.39,-2.39,-2.90,-2.44,-1.53,-1.54,-1.54
330.87,0.85,2.38,0.85,2.38,-2.38,-2.90,-2.43,-1.53,-1.53,-1.53
334.18,0.85,2.36,0.86,2.37,-2.37,-2.89,-2.42,-1.53,-1.51,-1.52
337.52,0.82,2.33,0.87,2.37,-2.37,-2.89,-2.41,-1.55,-1.50,-1.51
340.90,0.74,2.23,0.87,2.36,-2.36,-2.88,-2.40,-1.62,-1.50,-1.49
344.30,0.84,2.32,0.88,2.36,-2.36,-2.88,-2.40,-1.53,-1.49,-1.48
347.75,0.93,2.41,0.89,2.37,-2.37,-2.87,-2.39,-1.44,-1.48,-1.48
351.23,0.95,2.42,0.90,2.37,-2.37,-2.87,-2.39,-1.42,-1.48,-1.47
354.74,0.95,2.42,0.91,2.38,-2.38,-2.86,-2.39,-1.43,-1.47,-1.47
358.28,0.96,2.42,0.93,2.40,-2.40,-2.86,-2.39,-1.44,-1.47,-1.47
361.87,0.96,2.42,0.95,2.42,-2.42,-2.85,-2.40,-1.46,-1.46,-1.47
365.49,0.97,2.43,0.97,2.44,-2.44,-2.84,-2.40,-1.47,-1.46,-1.46
369.14,0.98,2.45,0.99,2.46,-2.46,-2.84,-2.41,-1.48,-1.46,-1.47
372.83,0.90,2.37,1.01,2.47,-2.47,-2.83,-2.42,-1.57,-1.46,-1.47
376.56,0.99,2.46,1.02,2.48,-2.48,-2.83,-2.43,-1.49,-1.47,-1.47
380.33,1.13,2.59,1.02,2.49,-2.49,-2.82,-2.44,-1.36,-1.47,-1.46
384.13,1.04,2.50,1.02,2.49,-2.49,-2.81,-2.45,-1.45,-1.47,-1.46
387.97,1.01,2.48,1.02,2.49,-2.49,-2.81,-2.47,-1.48,-1.48,-1.47
391.85,1.01,2.49,1.01,2.49,-2.49,-2.80,-2.49,-1.48,-1.48,-1.48
395.77,1.06,2.53,1.00,2.48,-2.48,-2.79,-2.50,-1.42,-1.48,-1.47
399.73,1.07,2.55,0.99,2.48,-2.48,-2.79,-2.52,-1.41,-1.49,-1.49
403.72,0.96,2.44,0.97,2.47,-2.47,-2.78,-2.54,-1.51,-1.49,-1.49
407.76,0.91,2.41,0.95,2.45,-2.45,-2.77,-2.56,-1.54,-1.50,-1.50
411.84,0.91,2.41,0.92,2.42,-2.42,-2.77,-2.59,-1.52,-1.50,-1.50
415.96,0.92,2.42,0.90,2.41,-2.41,-2.76,-2.61,-1.49,-1.50,-1.50
420.12,0.96,2.46,0.88,2.38,-2.38,-2.75,-2.63,-1.42,-1.50,-1.50
424.32,0.88,2.38,0.87,2.37,-2.37,-2.74,-2.65,-1.49,-1.49,-1.50
428.56,0.83,2.32,0.88,2.36,-2.36,-2.74,-2.68,-1.54,-1.48,-1.49
432.85,0.83,2.31,0.89,2.36,-2.36,-2.73,-2.70,-1.53,-1.47,-1.48
437.18,0.86,2.33,0.92,2.36,-2.36,-2.72,-2.72,-1.50,-1.45,-1.47
441.55,0.90,2.33,0.95,2.37,-2.37,-2.71,-2.74,-1.47,-1.42,-1.43
445.96,0.91,2.31,0.99,2.38,-2.38,-2.70,-2.77,-1.47,-1.39,-1.40
450.42,0.95,2.32,1.04,2.39,-2.39,-2.70,-2.79,-1.45,-1.35,-1.37
454.93,1.11,2.43,1.10,2.41,-2.41,-2.69,-2.80,-1.30,-1.31,-1.32
459.48,1.21,2.48,1.16,2.42,-2.42,-2.68,-2.82,-1.21,-1.27,-1.27
464.07,1.28,2.50,1.22,2.44,-2.44,-2.67,-2.83,-1.16,-1.22,-1.22
468.71,1.33,2.49,1.28,2.45,-2.45,-2.66,-2.85,-1.12,-1.17,-1.16
473.40,1.38,2.50,1.34,2.47,-2.47,-2.65,-2.86,-1.09,-1.12,-1.12
478.13,1.44,2.50,1.41,2.48,-2.48,-2.64,-2.87,-1.04,-1.07,-1.06
482.91,1.50,2.52,1.47,2.49,-2.49,-2.63,-2.87,-1.00,-1.03,-1.03
487.74,1.52,2.50,1.52,2.51,-2.51,-2.62,-2.87,-0.99,-0.99,-0.99
492.62,1.56,2.49,1.57,2.52,-2.52,-2.61,-2.87,-0.96,-0.95,-0.94
497.55,1.60,2.51,1.61,2.53,-2.53,-2.60,-2.87,-0.93,-0.92,-0.92
