frequency,raw,error,smoothed,error_smoothed,equalization,parametric_eq,equalized_raw,equalized_smoothed,target
20,-12.07,-12.00,-12.04,-11.97,6.00,1.53,-6.07,-6.04,-0.08
21,-11.17,-11.10,-11.17,-11.09,6.00,1.77,-5.17,-5.17,-0.07
22,-10.24,-10.17,-10.32,-10.25,6.00,2.04,-4.24,-4.32,-0.07
23,-9.53,-9.46,-9.50,-9.43,6.00,2.33,-3.53,-3.50,-0.07
24,-8.66,-8.59,-8.71,-8.65,6.00,2.63,-2.66,-2.71,-0.07
25,-8.01,-7.95,-7.96,-7.89,6.00,2.93,-2.01,-1.96,-0.07
26,-7.21,-7.15,-7.23,-7.17,5.89,3.23,-1.32,-1.34,-0.06
27,-6.44,-6.38,-6.53,-6.47,5.67,3.50,-0.78,-0.86,-0.06
28,-5.94,-5.88,-5.86,-5.79,5.34,3.72,-0.60,-0.52,-0.06
29,-5.24,-5.18,-5.21,-5.14,4.93,3.87,-0.31,-0.28,-0.06
30,-4.58,-4.52,-4.58,-4.51,4.45,3.95,-0.13,-0.13,-0.06
31,-3.95,-3.89,-3.97,-3.91,3.91,3.93,-0.05,-0.06,-0.06
32,-3.42,-3.36,-3.38,-3.32,3.32,3.83,-0.10,-0.06,-0.06
33,-2.76,-2.70,-2.82,-2.75,2.75,3.64,-0.01,-0.07,-0.07
34,-2.28,-2.21,-2.28,-2.21,2.21,3.40,-0.07,-0.07,-0.07
35,-1.89,-1.82,-1.77,-1.70,1.70,3.11,-0.19,-0.07,-0.07
36,-1.15,-1.08,-1.29,-1.21,1.21,2.79,0.06,-0.08,-0.08
37,-0.88,-0.80,-0.84,-0.76,0.76,2.44,-0.12,-0.08,-0.08
38,-0.41,-0.33,-0.43,-0.34,0.34,2.09,-0.07,-0.09,-0.09
39,-0.00,0.09,-0.05,0.04,-0.04,1.74,-0.04,-0.09,-0.09
40,0.26,0.36,0.29,0.40,-0.40,1.39,-0.14,-0.10,-0.10
41,0.68,0.79,0.61,0.72,-0.72,1.05,-0.04,-0.11,-0.11
42,0.86,0.98,0.89,1.01,-1.01,0.71,-0.16,-0.12,-0.12
43,1.14,1.27,1.15,1.29,-1.29,0.38,-0.15,-0.13,-0.13
44,1.37,1.51,1.39,1.54,-1.54,0.06,-0.17,-0.15,-0.15
45,1.59,1.75,1.61,1.77,-1.77,-0.26,-0.18,-0.16,-0.16
46,1.82,1.99,1.81,1.99,-1.99,-0.56,-0.17,-0.18,-0.18
47,2.05,2.24,1.99,2.19,-2.19,-0.86,-0.14,-0.19,-0.19
48,2.09,2.30,2.16,2.37,-2.37,-1.16,-0.28,-0.21,-0.21
49,2.28,2.51,2.31,2.54,-2.54,-1.45,-0.26,-0.23,-0.23
50,2.51,2.76,2.44,2.69,-2.69,-1.73,-0.18,-0.25,-0.25
51,2.55,2.82,2.55,2.82,-2.82,-2.00,-0.27,-0.27,-0.27
52,2.73,3.02,2.65,2.94,-2.94,-2.26,-0.21,-0.29,-0.29
53,2.73,3.04,2.73,3.04,-3.04,-2.51,-0.31,-0.32,-0.32
54,2.73,3.07,2.79,3.13,-3.13,-2.74,-0.40,-0.34,-0.34
55,2.73,3.09,2.84,3.21,-3.21,-2.97,-0.48,-0.36,-0.36
56,2.96,3.35,2.89,3.28,-3.28,-3.17,-0.32,-0.39,-0.39
57,2.96,3.37,2.92,3.34,-3.34,-3.36,-0.38,-0.42,-0.42
58,2.96,3.40,2.95,3.39,-3.39,-3.53,-0.43,-0.44,-0.44
59,2.96,3.43,2.97,3.44,-3.44,-3.68,-0.48,-0.47,-0.47
60,2.96,3.46,2.98,3.47,-3.47,-3.81,-0.52,-0.50,-0.50
61,2.96,3.49,2.98,3.50,-3.50,-3.92,-0.55,-0.53,-0.53
62,2.96,3.51,2.97,3.53,-3.53,-4.01,-0.57,-0.56,-0.56
63,2.96,3.54,2.96,3.54,-3.54,-4.08,-0.58,-0.58,-0.58
64,2.96,3.57,2.94,3.55,-3.55,-4.13,-0.59,-0.61,-0.61
65,2.96,3.60,2.91,3.55,-3.55,-4.16,-0.59,-0.64,-0.64
66,2.96,3.63,2.88,3.55,-3.55,-4.18,-0.59,-0.67,-0.67
67,2.73,3.43,2.84,3.55,-3.55,-4.18,-0.82,-0.70,-0.70
68,2.73,3.46,2.80,3.54,-3.54,-4.17,-0.81,-0.73,-0.73
69,2.73,3.49,2.76,3.52,-3.52,-4.15,-0.79,-0.76,-0.76
70,2.73,3.52,2.71,3.50,-3.50,-4.13,-0.78,-0.79,-0.79
71,2.73,3.55,2.66,3.48,-3.48,-4.10,-0.75,-0.82,-0.82
72,2.73,3.58,2.60,3.45,-3.45,-4.06,-0.72,-0.85,-0.85
73,2.51,3.39,2.53,3.41,-3.41,-4.02,-0.91,-0.88,-0.88
74,2.51,3.42,2.47,3.38,-3.38,-3.98,-0.87,-0.91,-0.91
75,2.33,3.27,2.41,3.35,-3.35,-3.94,-1.02,-0.94,-0.94
76,2.28,3.25,2.36,3.32,-3.32,-3.90,-1.05,-0.97,-0.97
77,2.28,3.28,2.31,3.31,-3.31,-3.86,-1.03,-1.00,-1.00
78,2.28,3.31,2.28,3.31,-3.31,-3.82,-1.03,-1.03,-1.03
79,2.28,3.33,2.27,3.32,-3.32,-3.78,-1.05,-1.06,-1.06
80,2.28,3.36,2.26,3.35,-3.35,-3.75,-1.07,-1.09,-1.09
81,2.28,3.39,2.26,3.38,-3.38,-3.72,-1.10,-1.11,-1.11
82,2.28,3.42,2.27,3.41,-3.41,-3.70,-1.13,-1.14,-1.14
83,2.28,3.45,2.27,3.44,-3.44,-3.68,-1.16,-1.17,-1.17
84,2.28,3.48,2.28,3.48,-3.48,-3.66,-1.20,-1.20,-1.20
85,2.28,3.51,2.28,3.51,-3.51,-3.65,-1.23,-1.23,-1.23
86,2.28,3.53,2.28,3.54,-3.54,-3.64,-1.26,-1.26,-1.26
87,2.28,3.56,2.28,3.56,-3.56,-3.63,-1.28,-1.28,-1.28
88,2.28,3.59,2.28,3.59,-3.59,-3.63,-1.31,-1.31,-1.31
89,2.28,3.61,2.28,3.61,-3.61,-3.63,-1.34,-1.34,-1.34
90,2.28,3.64,2.28,3.64,-3.64,-3.63,-1.36,-1.36,-1.36
91,2.28,3.67,2.28,3.66,-3.66,-3.64,-1.39,-1.39,-1.39
92,2.28,3.69,2.28,3.69,-3.69,-3.65,-1.41,-1.41,-1.41
93,2.28,3.71,2.28,3.71,-3.71,-3.67,-1.43,-1.44,-1.44
94,2.28,3.74,2.28,3.74,-3.74,-3.68,-1.46,-1.46,-1.46
95,2.28,3.76,2.28,3.76,-3.76,-3.70,-1.48,-1.48,-1.48
96,2.28,3.78,2.28,3.78,-3.78,-3.73,-1.51,-1.50,-1.50
97,2.28,3.80,2.29,3.81,-3.81,-3.75,-1.53,-1.52,-1.52
98,2.28,3.82,2.29,3.83,-3.83,-3.78,-1.55,-1.54,-1.54
99,2.28,3.84,2.29,3.85,-3.85,-3.81,-1.57,-1.56,-1.56
100,2.28,3.86,2.28,3.87,-3.87,-3.84,-1.59,-1.59,-1.58
101,2.28,3.88,2.27,3.88,-3.88,-3.87,-1.60,-1.61,-1.60
102,2.28,3.89,2.25,3.88,-3.88,-3.91,-1.61,-1.63,-1.62
104,2.28,3.95,2.22,3.88,-3.88,-3.98,-1.60,-1.65,-1.67
105,2.28,3.96,2.19,3.87,-3.87,-4.01,-1.59,-1.68,-1.69
106,2.12,3.82,2.16,3.85,-3.85,-4.05,-1.73,-1.70,-1.70
107,2.05,3.77,2.12,3.84,-3.84,-4.09,-1.79,-1.72,-1.72
108,2.05,3.78,2.09,3.82,-3.82,-4.13,-1.78,-1.73,-1.73
109,2.05,3.80,2.07,3.82,-3.82,-4.16,-1.77,-1.75,-1.75
110,2.05,3.81,2.05,3.82,-3.82,-4.20,-1.77,-1.77,-1.77
111,2.05,3.83,2.04,3.82,-3.82,-4.23,-1.77,-1.78,-1.78
112,2.05,3.85,2.03,3.84,-3.84,-4.27,-1.79,-1.80,-1.80
113,2.05,3.86,2.03,3.85,-3.85,-4.30,-1.81,-1.82,-1.82
114,2.05,3.88,2.03,3.88,-3.88,-4.33,-1.83,-1.84,-1.83
115,2.05,3.90,2.04,3.90,-3.90,-4.36,-1.85,-1.86,-1.85
117,2.05,3.95,2.04,3.93,-3.93,-4.42,-1.88,-1.89,-1.90
118,2.05,3.97,2.05,3.96,-3.96,-4.44,-1.91,-1.91,-1.92
119,2.05,3.99,2.06,3.99,-3.99,-4.47,-1.95,-1.94,-1.94
120,2.05,4.00,2.07,4.03,-4.03,-4.49,-1.99,-1.96,-1.96
121,2.05,4.02,2.09,4.08,-4.08,-4.50,-2.03,-1.99,-1.98
123,2.05,4.07,2.12,4.13,-4.13,-4.53,-2.08,-2.01,-2.02
124,2.24,4.28,2.14,4.18,-4.18,-4.54,-1.94,-2.04,-2.04
125,2.28,4.34,2.17,4.23,-4.23,-4.55,-1.96,-2.06,-2.06
126,2.12,4.20,2.20,4.29,-4.29,-4.56,-2.17,-2.09,-2.08
128,2.16,4.28,2.22,4.33,-4.33,-4.56,-2.18,-2.11,-2.12
129,2.28,4.42,2.24,4.38,-4.38,-4.56,-2.10,-2.14,-2.14
130,2.28,4.44,2.26,4.42,-4.42,-4.56,-2.14,-2.16,-2.16
131,2.28,4.46,2.27,4.46,-4.46,-4.56,-2.18,-2.19,-2.18
133,2.28,4.50,2.28,4.49,-4.49,-4.54,-2.21,-2.21,-2.22
134,2.28,4.51,2.28,4.52,-4.52,-4.54,-2.24,-2.24,-2.24
135,2.28,4.53,2.28,4.54,-4.54,-4.53,-2.26,-2.26,-2.25
137,2.28,4.57,2.28,4.57,-4.57,-4.50,-2.29,-2.28,-2.29
138,2.28,4.58,2.28,4.59,-4.59,-4.49,-2.31,-2.31,-2.30
140,2.28,4.61,2.28,4.61,-4.61,-4.47,-2.33,-2.33,-2.34
141,2.28,4.63,2.28,4.63,-4.63,-4.45,-2.35,-2.35,-2.35
142,2.28,4.64,2.28,4.65,-4.65,-4.44,-2.37,-2.37,-2.36
144,2.28,4.67,2.28,4.67,-4.67,-4.41,-2.39,-2.39,-2.39
145,2.28,4.68,2.28,4.69,-4.69,-4.39,-2.41,-2.41,-2.40
147,2.28,4.71,2.28,4.70,-4.70,-4.37,-2.43,-2.43,-2.43
148,2.28,4.72,2.28,4.72,-4.72,-4.35,-2.44,-2.45,-2.44
150,2.28,4.74,2.28,4.74,-4.74,-4.33,-2.46,-2.46,-2.47
151,2.28,4.75,2.28,4.76,-4.76,-4.32,-2.48,-2.48,-2.48
153,2.28,4.78,2.28,4.77,-4.77,-4.30,-2.49,-2.49,-2.50
154,2.28,4.79,2.28,4.79,-4.79,-4.29,-2.51,-2.51,-2.51
156,2.28,4.81,2.28,4.80,-4.80,-4.27,-2.53,-2.52,-2.53
157,2.28,4.81,2.28,4.82,-4.82,-4.27,-2.54,-2.54,-2.54
159,2.28,4.83,2.28,4.83,-4.83,-4.26,-2.55,-2.55,-2.55
160,2.28,4.84,2.28,4.84,-4.84,-4.25,-2.57,-2.57,-2.56
162,2.28,4.86,2.28,4.85,-4.85,-4.25,-2.58,-2.58,-2.58
164,2.28,4.87,2.27,4.86,-4.86,-4.25,-2.59,-2.59,-2.59
165,2.28,4.88,2.27,4.87,-4.87,-4.25,-2.59,-2.60,-2.60
167,2.28,4.89,2.27,4.88,-4.88,-4.26,-2.60,-2.61,-2.62
169,2.28,4.91,2.27,4.89,-4.89,-4.27,-2.62,-2.63,-2.63
170,2.28,4.91,2.27,4.91,-4.91,-4.28,-2.63,-2.64,-2.63
172,2.28,4.92,2.29,4.93,-4.93,-4.29,-2.66,-2.65,-2.65
174,2.28,4.93,2.31,4.96,-4.96,-4.31,-2.69,-2.65,-2.66
175,2.28,4.94,2.34,5.00,-5.00,-4.33,-2.72,-2.66,-2.66
177,2.28,4.95,2.37,5.05,-5.05,-4.36,-2.77,-2.67,-2.67
179,2.51,5.19,2.41,5.09,-5.09,-4.39,-2.58,-2.68,-2.68
181,2.51,5.19,2.45,5.13,-5.13,-4.42,-2.62,-2.68,-2.69
183,2.51,5.20,2.48,5.17,-5.17,-4.46,-2.66,-2.69,-2.69
184,2.51,5.20,2.50,5.19,-5.19,-4.48,-2.68,-2.70,-2.69
186,2.51,5.21,2.51,5.21,-5.21,-4.53,-2.70,-2.70,-2.70
188,2.51,5.21,2.52,5.22,-5.22,-4.58,-2.72,-2.71,-2.70
190,2.51,5.22,2.52,5.23,-5.23,-4.63,-2.72,-2.71,-2.71
192,2.51,5.22,2.52,5.23,-5.23,-4.68,-2.72,-2.71,-2.71
194,2.51,5.22,2.51,5.23,-5.23,-4.74,-2.72,-2.72,-2.72
196,2.51,5.23,2.51,5.23,-5.23,-4.79,-2.72,-2.72,-2.72
198,2.51,5.23,2.51,5.23,-5.23,-4.85,-2.72,-2.72,-2.72
200,2.51,5.23,2.51,5.23,-5.23,-4.92,-2.72,-2.72,-2.72
202,2.51,5.23,2.50,5.23,-5.23,-4.98,-2.72,-2.72,-2.72
204,2.51,5.23,2.50,5.22,-5.22,-5.04,-2.71,-2.72,-2.72
206,2.51,5.23,2.50,5.22,-5.22,-5.11,-2.71,-2.72,-2.72
208,2.51,5.23,2.50,5.22,-5.22,-5.17,-2.71,-2.72,-2.72
210,2.51,5.23,2.50,5.22,-5.22,-5.24,-2.72,-2.72,-2.72
212,2.51,5.23,2.51,5.23,-5.23,-5.30,-2.73,-2.72,-2.72
214,2.51,5.23,2.53,5.25,-5.25,-5.37,-2.74,-2.72,-2.72
216,2.51,5.23,2.56,5.28,-5.28,-5.43,-2.77,-2.72,-2.72
218,2.51,5.23,2.59,5.31,-5.31,-5.49,-2.80,-2.72,-2.72
221,2.64,5.36,2.63,5.35,-5.35,-5.58,-2.71,-2.72,-2.72
223,2.73,5.45,2.67,5.38,-5.38,-5.64,-2.65,-2.72,-2.72
225,2.73,5.44,2.69,5.41,-5.41,-5.69,-2.68,-2.72,-2.72
227,2.73,5.44,2.71,5.43,-5.43,-5.74,-2.70,-2.71,-2.71
229,2.73,5.44,2.72,5.43,-5.43,-5.79,-2.70,-2.71,-2.71
232,2.73,5.44,2.71,5.42,-5.42,-5.86,-2.69,-2.71,-2.71
234,2.73,5.44,2.69,5.40,-5.40,-5.90,-2.67,-2.71,-2.71
236,2.73,5.43,2.66,5.37,-5.37,-5.93,-2.64,-2.71,-2.71
239,2.59,5.29,2.63,5.33,-5.33,-5.97,-2.74,-2.70,-2.70
241,2.51,5.21,2.59,5.29,-5.29,-6.00,-2.79,-2.70,-2.70
244,2.51,5.21,2.56,5.26,-5.26,-6.03,-2.75,-2.70,-2.70
246,2.51,5.20,2.54,5.23,-5.23,-6.04,-2.72,-2.70,-2.70
248,2.51,5.20,2.51,5.21,-5.21,-6.05,-2.70,-2.69,-2.69
251,2.51,5.20,2.49,5.18,-5.18,-6.05,-2.67,-2.69,-2.69
253,2.51,5.19,2.47,5.15,-5.15,-6.05,-2.64,-2.69,-2.68
256,2.51,5.19,2.44,5.12,-5.12,-6.04,-2.61,-2.68,-2.68
259,2.51,5.19,2.40,5.08,-5.08,-6.02,-2.57,-2.68,-2.68
261,2.32,4.99,2.37,5.04,-5.04,-6.00,-2.72,-2.67,-2.67
264,2.28,4.95,2.33,5.00,-5.00,-5.97,-2.72,-2.67,-2.67
266,2.28,4.94,2.31,4.97,-4.97,-5.94,-2.69,-2.66,-2.66
269,2.28,4.93,2.29,4.95,-4.95,-5.90,-2.67,-2.66,-2.66
272,2.28,4.93,2.29,4.93,-4.93,-5.85,-2.66,-2.65,-2.65
274,2.28,4.92,2.30,4.94,-4.94,-5.81,-2.66,-2.64,-2.64
277,2.28,4.91,2.32,4.95,-4.95,-5.76,-2.67,-2.63,-2.63
280,2.28,4.90,2.35,4.98,-4.98,-5.70,-2.70,-2.62,-2.62
283,2.51,5.12,2.39,5.01,-5.01,-5.63,-2.50,-2.61,-2.61
286,2.51,5.11,2.44,5.04,-5.04,-5.57,-2.53,-2.60,-2.60
288,2.51,5.10,2.48,5.07,-5.07,-5.53,-2.57,-2.59,-2.59
291,2.51,5.09,2.53,5.11,-5.11,-5.46,-2.60,-2.58,-2.58
294,2.51,5.07,2.57,5.13,-5.13,-5.40,-2.63,-2.56,-2.56
297,2.51,5.06,2.61,5.16,-5.16,-5.34,-2.65,-2.55,-2.55
300,2.71,5.24,2.64,5.18,-5.18,-5.27,-2.47,-2.53,-2.53
303,2.73,5.25,2.67,5.19,-5.19,-5.21,-2.46,-2.52,-2.52
306,2.73,5.23,2.69,5.19,-5.19,-5.15,-2.46,-2.50,-2.50
309,2.73,5.21,2.70,5.19,-5.19,-5.09,-2.46,-2.48,-2.48
312,2.73,5.19,2.72,5.18,-5.18,-5.04,-2.45,-2.47,-2.47
316,2.73,5.17,2.73,5.17,-5.17,-4.97,-2.45,-2.45,-2.45
319,2.73,5.16,2.74,5.17,-5.17,-4.92,-2.44,-2.43,-2.43
322,2.73,5.14,2.77,5.18,-5.18,-4.87,-2.45,-2.41,-2.41
325,2.73,5.12,2.80,5.19,-5.19,-4.83,-2.46,-2.39,-2.39
328,2.78,5.14,2.85,5.21,-5.21,-4.79,-2.44,-2.37,-2.37
332,2.96,5.30,2.90,5.25,-5.25,-4.74,-2.29,-2.35,-2.35
335,2.96,5.28,2.96,5.29,-5.29,-4.70,-2.33,-2.33,-2.33
338,3.11,5.41,3.03,5.33,-5.33,-4.67,-2.22,-2.31,-2.31
342,3.19,5.47,3.09,5.38,-5.38,-4.63,-2.19,-2.29,-2.29
345,3.19,5.45,3.17,5.43,-5.43,-4.61,-2.24,-2.27,-2.27
349,3.19,5.43,3.24,5.49,-5.49,-4.58,-2.30,-2.25,-2.25
352,3.19,5.41,3.33,5.56,-5.56,-4.57,-2.37,-2.23,-2.23
356,3.34,5.55,3.42,5.63,-5.63,-4.55,-2.29,-2.21,-2.21
359,3.56,5.75,3.52,5.71,-5.71,-4.53,-2.16,-2.19,-2.19
363,3.64,5.81,3.63,5.80,-5.80,-4.52,-2.16,-2.17,-2.17
366,3.84,5.99,3.73,5.89,-5.89,-4.52,-2.05,-2.16,-2.16
370,3.87,6.01,3.83,5.97,-5.97,-4.51,-2.10,-2.14,-2.14
374,3.87,5.99,3.92,6.04,-6.04,-4.51,-2.17,-2.12,-2.12
377,3.93,6.04,3.99,6.10,-6.10,-4.52,-2.17,-2.11,-2.11
381,4.10,6.19,4.04,6.14,-6.14,-4.52,-2.04,-2.10,-2.10
385,4.10,6.18,4.08,6.16,-6.16,-4.53,-2.07,-2.08,-2.08
389,4.10,6.17,4.10,6.17,-6.17,-4.54,-2.07,-2.07,-2.07
393,4.10,6.16,4.10,6.16,-6.16,-4.56,-2.06,-2.06,-2.06
397,4.10,6.15,4.08,6.13,-6.13,-4.58,-2.03,-2.05,-2.05
401,4.10,6.14,4.05,6.08,-6.08,-4.60,-1.99,-2.04,-2.04
405,3.98,6.01,3.99,6.02,-6.02,-4.62,-2.04,-2.03,-2.03
409,3.87,5.89,3.93,5.95,-5.95,-4.64,-2.08,-2.02,-2.02
413,3.87,5.88,3.85,5.86,-5.86,-4.67,-1.99,-2.01,-2.01
417,3.87,5.87,3.77,5.77,-5.77,-4.69,-1.90,-2.00,-2.00
421,3.64,5.63,3.68,5.67,-5.67,-4.72,-2.03,-1.99,-1.99
425,3.62,5.60,3.59,5.58,-5.58,-4.74,-1.96,-1.98,-1.98
430,3.42,5.39,3.52,5.49,-5.49,-4.77,-2.07,-1.97,-1.97
434,3.42,5.38,3.45,5.41,-5.41,-4.80,-2.00,-1.97,-1.97
438,3.42,5.38,3.40,5.35,-5.35,-4.82,-1.93,-1.96,-1.96
443,3.42,5.37,3.36,5.30,-5.30,-4.85,-1.89,-1.95,-1.95
447,3.20,5.14,3.33,5.27,-5.27,-4.87,-2.07,-1.94,-1.94
451,3.19,5.12,3.31,5.24,-5.24,-4.89,-2.05,-1.93,-1.93
456,3.42,5.34,3.30,5.22,-5.22,-4.91,-1.80,-1.92,-1.92
460,3.42,5.33,3.29,5.20,-5.20,-4.93,-1.78,-1.91,-1.91
465,3.30,5.20,3.28,5.18,-5.18,-4.94,-1.88,-1.90,-1.90
470,3.19,5.08,3.26,5.15,-5.15,-4.95,-1.96,-1.89,-1.89
474,3.19,5.06,3.24,5.11,-5.11,-4.95,-1.93,-1.88,-1.88
479,3.19,5.05,3.20,5.07,-5.07,-4.95,-1.88,-1.86,-1.86
484,3.19,5.04,3.16,5.01,-5.01,-4.94,-1.82,-1.85,-1.85
489,3.19,5.02,3.10,4.94,-4.94,-4.93,-1.75,-1.83,-1.83
494,3.08,4.90,3.03,4.85,-4.85,-4.91,-1.77,-1.82,-1.82
499,2.96,4.76,2.96,4.76,-4.76,-4.89,-1.80,-1.80,-1.80
504,2.78,4.56,2.87,4.66,-4.66,-4.86,-1.88,-1.79,-1.79
509,2.73,4.50,2.78,4.55,-4.55,-4.82,-1.82,-1.77,-1.77
514,2.73,4.48,2.68,4.43,-4.43,-4.78,-1.70,-1.75,-1.75
519,2.69,4.42,2.58,4.31,-4.31,-4.74,-1.63,-1.73,-1.73
524,2.44,4.15,2.48,4.19,-4.19,-4.69,-1.75,-1.71,-1.71
529,2.28,3.97,2.38,4.07,-4.07,-4.64,-1.79,-1.69,-1.69
535,2.28,3.94,2.28,3.95,-3.95,-4.57,-1.67,-1.67,-1.67
540,2.28,3.92,2.18,3.82,-3.82,-4.51,-1.55,-1.64,-1.64
545,2.09,3.71,2.08,3.70,-3.70,-4.44,-1.61,-1.62,-1.62
551,2.02,3.61,1.99,3.58,-3.58,-4.36,-1.56,-1.60,-1.60
556,1.82,3.39,1.89,3.46,-3.46,-4.29,-1.65,-1.57,-1.57
562,1.82,3.37,1.80,3.35,-3.35,-4.20,-1.53,-1.55,-1.55
568,1.68,3.20,1.72,3.24,-3.24,-4.12,-1.56,-1.52,-1.52
573,1.59,3.09,1.64,3.14,-3.14,-4.04,-1.55,-1.50,-1.50
579,1.59,3.06,1.56,3.04,-3.04,-3.95,-1.45,-1.47,-1.47
585,1.59,3.04,1.49,2.94,-2.94,-3.86,-1.35,-1.45,-1.45
591,1.37,2.79,1.41,2.84,-2.84,-3.77,-1.47,-1.42,-1.42
596,1.37,2.77,1.34,2.74,-2.74,-3.69,-1.37,-1.40,-1.40
602,1.29,2.66,1.27,2.64,-2.64,-3.60,-1.35,-1.38,-1.38
608,1.14,2.49,1.19,2.55,-2.55,-3.51,-1.41,-1.35,-1.35
615,1.14,2.47,1.13,2.46,-2.46,-3.41,-1.32,-1.33,-1.33
621,1.14,2.45,1.07,2.37,-2.37,-3.32,-1.24,-1.31,-1.31
627,0.91,2.20,1.01,2.30,-2.30,-3.24,-1.39,-1.29,-1.29
633,0.91,2.17,0.96,2.23,-2.23,-3.15,-1.32,-1.27,-1.27
639,0.91,2.15,0.92,2.16,-2.16,-3.07,-1.25,-1.25,-1.25
646,0.91,2.13,0.88,2.10,-2.10,-2.98,-1.19,-1.23,-1.23
652,0.91,2.11,0.84,2.04,-2.04,-2.90,-1.14,-1.21,-1.21
659,0.91,2.09,0.80,1.99,-1.99,-2.81,-1.08,-1.19,-1.19
665,0.72,1.88,0.77,1.93,-1.93,-2.74,-1.22,-1.17,-1.17
672,0.68,1.82,0.74,1.88,-1.88,-2.65,-1.21,-1.15,-1.15
679,0.68,1.81,0.71,1.84,-1.84,-2.57,-1.16,-1.13,-1.13
686,0.68,1.79,0.69,1.80,-1.80,-2.49,-1.12,-1.11,-1.11
692,0.68,1.77,0.68,1.77,-1.77,-2.43,-1.09,-1.09,-1.09
699,0.68,1.75,0.67,1.74,-1.74,-2.36,-1.06,-1.07,-1.07
706,0.68,1.73,0.67,1.72,-1.72,-2.29,-1.04,-1.05,-1.05
713,0.68,1.71,0.67,1.70,-1.70,-2.22,-1.02,-1.03,-1.03
721,0.68,1.69,0.67,1.68,-1.68,-2.14,-1.00,-1.01,-1.01
728,0.68,1.67,0.67,1.66,-1.66,-2.08,-0.98,-0.99,-0.99
735,0.68,1.65,0.68,1.64,-1.64,-2.02,-0.97,-0.97,-0.97
742,0.68,1.63,0.68,1.63,-1.63,-1.96,-0.95,-0.95,-0.95
750,0.68,1.61,0.68,1.61,-1.61,-1.90,-0.93,-0.93,-0.93
757,0.68,1.59,0.68,1.59,-1.59,-1.84,-0.91,-0.91,-0.91
765,0.68,1.57,0.68,1.57,-1.57,-1.78,-0.89,-0.89,-0.89
773,0.68,1.55,0.69,1.56,-1.56,-1.72,-0.88,-0.87,-0.87
780,0.68,1.53,0.69,1.54,-1.54,-1.68,-0.87,-0.85,-0.85
788,0.68,1.51,0.69,1.53,-1.53,-1.62,-0.85,-0.83,-0.83
796,0.68,1.50,0.69,1.51,-1.51,-1.57,-0.83,-0.82,-0.82
804,0.68,1.48,0.68,1.48,-1.48,-1.52,-0.80,-0.80,-0.80
812,0.68,1.47,0.65,1.44,-1.44,-1.47,-0.76,-0.79,-0.79
820,0.68,1.45,0.61,1.39,-1.39,-1.42,-0.71,-0.77,-0.77
828,0.65,1.41,0.57,1.33,-1.33,-1.38,-0.68,-0.76,-0.76
837,0.45,1.20,0.51,1.26,-1.26,-1.33,-0.81,-0.75,-0.75
845,0.45,1.19,0.44,1.19,-1.19,-1.28,-0.74,-0.74,-0.74
853,0.45,1.18,0.38,1.12,-1.12,-1.24,-0.67,-0.73,-0.73
862,0.27,0.99,0.33,1.05,-1.05,-1.19,-0.79,-0.72,-0.72
871,0.23,0.94,0.29,1.01,-1.01,-1.15,-0.78,-0.72,-0.72
879,0.23,0.94,0.27,0.98,-0.98,-1.11,-0.75,-0.71,-0.71
888,0.23,0.93,0.26,0.97,-0.97,-1.06,-0.74,-0.70,-0.70
897,0.23,0.93,0.27,0.97,-0.97,-1.02,-0.74,-0.70,-0.70
906,0.23,0.92,0.29,0.98,-0.98,-0.97,-0.75,-0.69,-0.69
915,0.38,1.06,0.31,1.00,-1.00,-0.93,-0.62,-0.69,-0.69
924,0.45,1.13,0.32,1.00,-1.00,-0.88,-0.55,-0.68,-0.68
933,0.45,1.12,0.33,1.00,-1.00,-0.84,-0.55,-0.67,-0.67
943,0.23,0.90,0.31,0.98,-0.98,-0.79,-0.75,-0.67,-0.67
952,0.23,0.89,0.29,0.95,-0.95,-0.75,-0.72,-0.66,-0.66
962,0.23,0.88,0.25,0.90,-0.90,-0.70,-0.67,-0.65,-0.65
971,0.23,0.87,0.20,0.84,-0.84,-0.65,-0.61,-0.64,-0.64
981,0.23,0.86,0.13,0.77,-0.77,-0.60,-0.54,-0.63,-0.63
991,0.02,0.64,0.07,0.69,-0.69,-0.55,-0.67,-0.62,-0.62
1001,-0.00,0.61,-0.00,0.61,-0.61,-0.50,-0.61,-0.61,-0.61
1011,-0.05,0.54,-0.07,0.53,-0.53,-0.45,-0.58,-0.60,-0.60
1021,-0.23,0.35,-0.14,0.45,-0.45,-0.39,-0.68,-0.58,-0.58
1031,-0.23,0.33,-0.20,0.36,-0.36,-0.34,-0.60,-0.57,-0.57
1041,-0.23,0.32,-0.26,0.28,-0.28,-0.29,-0.52,-0.55,-0.55
1052,-0.23,0.30,-0.33,0.20,-0.20,-0.23,-0.44,-0.53,-0.53
1062,-0.44,0.07,-0.38,0.13,-0.13,-0.17,-0.57,-0.51,-0.51
1073,-0.46,0.03,-0.44,0.05,-0.05,-0.11,-0.51,-0.49,-0.49
1084,-0.46,0.01,-0.50,-0.03,0.03,-0.04,-0.43,-0.47,-0.47
1094,-0.53,-0.08,-0.56,-0.11,0.11,0.01,-0.42,-0.45,-0.45
1105,-0.69,-0.27,-0.61,-0.19,0.19,0.08,-0.50,-0.42,-0.42
1116,-0.69,-0.29,-0.67,-0.27,0.27,0.14,-0.42,-0.40,-0.40
1128,-0.69,-0.31,-0.73,-0.35,0.35,0.21,-0.34,-0.38,-0.38
1139,-0.69,-0.34,-0.79,-0.43,0.43,0.28,-0.26,-0.36,-0.36
1150,-0.91,-0.58,-0.85,-0.52,0.52,0.35,-0.40,-0.33,-0.33
1162,-0.91,-0.60,-0.91,-0.60,0.60,0.42,-0.31,-0.31,-0.31
1173,-0.91,-0.62,-0.97,-0.68,0.68,0.49,-0.23,-0.29,-0.29
1185,-1.04,-0.77,-1.03,-0.76,0.76,0.56,-0.28,-0.27,-0.27
1197,-1.14,-0.89,-1.08,-0.83,0.83,0.64,-0.31,-0.25,-0.25
1209,-1.14,-0.91,-1.13,-0.89,0.89,0.71,-0.25,-0.24,-0.24
1221,-1.14,-0.92,-1.17,-0.94,0.94,0.79,-0.20,-0.22,-0.22
1233,-1.18,-0.97,-1.19,-0.98,0.98,0.87,-0.20,-0.21,-0.21
1246,-1.37,-1.17,-1.21,-1.02,1.02,0.95,-0.36,-0.20,-0.20
1258,-1.26,-1.07,-1.23,-1.04,1.04,1.03,-0.22,-0.19,-0.19
1271,-1.14,-0.95,-1.25,-1.07,1.07,1.11,-0.08,-0.19,-0.19
1283,-1.14,-0.96,-1.28,-1.09,1.09,1.19,-0.05,-0.19,-0.19
1296,-1.35,-1.17,-1.31,-1.12,1.12,1.27,-0.23,-0.19,-0.19
1309,-1.37,-1.18,-1.35,-1.16,1.16,1.36,-0.21,-0.19,-0.19
1322,-1.37,-1.18,-1.40,-1.20,1.20,1.45,-0.17,-0.19,-0.19
1335,-1.44,-1.24,-1.45,-1.25,1.25,1.54,-0.19,-0.20,-0.20
1349,-1.60,-1.39,-1.51,-1.30,1.30,1.63,-0.30,-0.21,-0.21
1362,-1.60,-1.38,-1.57,-1.35,1.35,1.72,-0.25,-0.22,-0.22
1376,-1.60,-1.37,-1.63,-1.40,1.40,1.82,-0.21,-0.24,-0.23
1390,-1.60,-1.35,-1.69,-1.44,1.44,1.91,-0.16,-0.25,-0.25
1404,-1.83,-1.57,-1.75,-1.49,1.49,2.01,-0.34,-0.26,-0.26
1418,-1.83,-1.56,-1.82,-1.54,1.54,2.11,-0.29,-0.28,-0.28
1432,-1.83,-1.54,-1.89,-1.60,1.60,2.21,-0.23,-0.29,-0.29
1446,-1.95,-1.65,-1.96,-1.66,1.66,2.31,-0.30,-0.30,-0.30
1461,-2.05,-1.74,-2.03,-1.72,1.72,2.41,-0.33,-0.31,-0.31
1475,-2.05,-1.73,-2.11,-1.79,1.79,2.52,-0.27,-0.32,-0.32
1490,-2.28,-1.95,-2.19,-1.86,1.86,2.62,-0.42,-0.33,-0.33
1505,-2.28,-1.95,-2.27,-1.93,1.93,2.73,-0.35,-0.33,-0.33
1520,-2.28,-1.95,-2.35,-2.02,2.02,2.84,-0.27,-0.33,-0.33
1535,-2.39,-2.06,-2.43,-2.10,2.10,2.95,-0.29,-0.33,-0.33
1550,-2.51,-2.19,-2.51,-2.18,2.18,3.06,-0.33,-0.32,-0.33
1566,-2.51,-2.20,-2.58,-2.26,2.26,3.18,-0.25,-0.31,-0.31
1582,-2.72,-2.42,-2.64,-2.34,2.34,3.30,-0.38,-0.30,-0.30
1597,-2.74,-2.46,-2.68,-2.41,2.41,3.41,-0.34,-0.28,-0.28
1613,-2.74,-2.49,-2.72,-2.47,2.47,3.53,-0.28,-0.25,-0.25
1629,-2.74,-2.52,-2.73,-2.52,2.52,3.64,-0.23,-0.22,-0.22
1646,-2.74,-2.56,-2.74,-2.56,2.56,3.77,-0.18,-0.18,-0.18
1662,-2.74,-2.60,-2.74,-2.61,2.61,3.88,-0.14,-0.14,-0.14
1679,-2.74,-2.65,-2.74,-2.65,2.65,4.00,-0.09,-0.09,-0.09
1696,-2.74,-2.71,-2.75,-2.71,2.71,4.12,-0.03,-0.03,-0.03
