frequency,raw,smoothed,error,error_smoothed,equalization,parametric_eq,fixed_band_eq,equalized_raw,equalized_smoothed,target
20.00,-13.42,-13.42,-16.26,-16.26,6.00,6.15,2.71,-7.42,-7.42,2.85
20.20,-13.34,-13.34,-16.21,-16.22,6.00,6.15,2.78,-7.34,-7.34,2.88
20.40,-13.26,-13.26,-16.16,-16.16,6.00,6.15,2.86,-7.26,-7.26,2.91
20.61,-13.17,-13.17,-16.09,-16.10,6.00,6.15,2.94,-7.17,-7.17,2.92
20.81,-13.08,-13.07,-16.03,-16.03,6.00,6.15,3.03,-7.08,-7.07,2.95
21.02,-12.98,-12.98,-15.96,-15.95,6.00,6.15,3.11,-6.98,-6.98,2.98
21.23,-12.88,-12.88,-15.87,-15.88,6.00,6.15,3.20,-6.88,-6.88,2.99
21.44,-12.79,-12.79,-15.79,-15.79,6.00,6.14,3.29,-6.79,-6.79,3.00
21.66,-12.70,-12.69,-15.71,-15.70,6.00,6.14,3.39,-6.70,-6.69,3.01
21.87,-12.60,-12.60,-15.61,-15.62,6.00,6.14,3.48,-6.60,-6.60,3.01
22.09,-12.50,-12.50,-15.52,-15.52,6.00,6.14,3.58,-6.50,-6.50,3.02
22.31,-12.39,-12.38,-15.41,-15.40,6.00,6.14,3.69,-6.39,-6.38,3.02
22.54,-12.26,-12.26,-15.28,-15.28,6.00,6.13,3.79,-6.26,-6.26,3.02
22.76,-12.12,-12.12,-15.14,-15.13,6.00,6.13,3.90,-6.12,-6.12,3.02
22.99,-11.97,-11.97,-14.98,-14.98,6.00,6.13,4.01,-5.97,-5.97,3.01
23.22,-11.82,-11.82,-14.83,-14.83,6.00,6.13,4.12,-5.82,-5.82,3.01
23.45,-11.69,-11.69,-14.69,-14.69,6.00,6.13,4.23,-5.69,-5.69,3.01
23.69,-11.57,-11.57,-14.58,-14.58,6.00,6.13,4.35,-5.57,-5.57,3.01
23.92,-11.47,-11.47,-14.47,-14.48,6.00,6.12,4.47,-5.47,-5.47,3.01
24.16,-11.39,-11.39,-14.40,-14.40,6.00,6.12,4.59,-5.39,-5.39,3.01
24.40,-11.33,-11.33,-14.34,-14.34,6.00,6.12,4.72,-5.33,-5.33,3.01
24.65,-11.27,-11.26,-14.27,-14.27,6.00,6.12,4.84,-5.27,-5.26,3.00
24.89,-11.20,-11.19,-14.20,-14.20,6.00,6.11,4.97,-5.20,-5.19,3.00
25.14,-11.11,-11.11,-14.11,-14.11,6.00,6.11,5.10,-5.11,-5.11,3.00
25.39,-11.01,-11.00,-14.01,-14.00,6.00,6.11,5.23,-5.01,-5.00,3.00
25.65,-10.88,-10.88,-13.88,-13.87,6.00,6.11,5.36,-4.88,-4.88,3.00
25.91,-10.75,-10.75,-13.74,-13.74,6.00,6.10,5.49,-4.75,-4.75,2.99
26.16,-10.62,-10.63,-13.60,-13.61,6.00,6.10,5.63,-4.62,-4.63,2.99
26.43,-10.52,-10.52,-13.51,-13.50,6.00,6.10,5.76,-4.52,-4.52,2.99
26.69,-10.43,-10.43,-13.41,-13.41,6.00,6.10,5.89,-4.43,-4.43,2.98
26.96,-10.35,-10.35,-13.33,-13.33,6.00,6.09,6.02,-4.35,-4.35,2.98
27.23,-10.27,-10.27,-13.25,-13.25,6.00,6.09,6.14,-4.27,-4.27,2.98
27.50,-10.19,-10.18,-13.17,-13.16,6.00,6.09,6.27,-4.19,-4.18,2.98
27.77,-10.09,-10.08,-13.06,-13.06,6.00,6.08,6.39,-4.09,-4.08,2.97
28.05,-9.98,-9.98,-12.94,-12.94,6.00,6.08,6.51,-3.98,-3.98,2.97
28.33,-9.86,-9.86,-12.81,-12.82,6.00,6.08,6.62,-3.86,-3.86,2.96
28.62,-9.75,-9.75,-12.70,-12.70,6.00,6.07,6.72,-3.75,-3.75,2.95
28.90,-9.64,-9.64,-12.59,-12.59,6.00,6.07,6.82,-3.64,-3.64,2.95
29.19,-9.55,-9.55,-12.49,-12.50,6.00,6.07,6.91,-3.55,-3.55,2.94
29.48,-9.47,-9.47,-12.42,-12.41,6.00,6.06,7.00,-3.47,-3.47,2.95
29.78,-9.39,-9.39,-12.33,-12.33,6.00,6.06,7.07,-3.39,-3.39,2.94
30.08,-9.31,-9.30,-12.25,-12.24,6.00,6.05,7.14,-3.31,-3.30,2.94
30.38,-9.21,-9.21,-12.13,-12.14,6.00,6.05,7.20,-3.21,-3.21,2.92
30.68,-9.11,-9.11,-12.03,-12.03,6.00,6.05,7.24,-3.11,-3.11,2.92
30.99,-9.00,-9.00,-11.91,-11.92,6.00,6.04,7.28,-3.00,-3.00,2.91
31.30,-8.90,-8.90,-11.81,-11.81,6.00,6.04,7.30,-2.90,-2.90,2.91
31.61,-8.81,-8.80,-11.71,-11.71,6.00,6.03,7.32,-2.81,-2.80,2.91
31.93,-8.71,-8.71,-11.60,-11.61,6.00,6.03,7.33,-2.71,-2.71,2.89
32.24,-8.62,-8.62,-11.50,-11.50,6.00,6.02,7.32,-2.62,-2.62,2.88
32.57,-8.52,-8.51,-11.40,-11.39,6.00,6.02,7.31,-2.52,-2.51,2.88
32.89,-8.41,-8.41,-11.28,-11.28,6.00,6.01,7.28,-2.41,-2.41,2.88
33.22,-8.30,-8.30,-11.16,-11.16,6.00,6.01,7.25,-2.30,-2.30,2.86
33.55,-8.19,-8.19,-11.05,-11.05,6.00,6.00,7.21,-2.19,-2.19,2.86
33.89,-8.09,-8.09,-10.94,-10.94,6.00,5.99,7.16,-2.09,-2.09,2.85
34.23,-8.00,-8.00,-10.84,-10.84,6.00,5.99,7.11,-2.00,-2.00,2.84
34.57,-7.91,-7.91,-10.74,-10.74,6.00,5.98,7.05,-1.91,-1.91,2.83
34.92,-7.83,-7.82,-10.65,-10.65,6.00,5.98,6.98,-1.83,-1.82,2.82
35.27,-7.74,-7.73,-10.55,-10.55,6.00,5.97,6.91,-1.74,-1.73,2.81
35.62,-7.64,-7.64,-10.44,-10.44,6.00,5.96,6.84,-1.64,-1.64,2.80
35.97,-7.55,-7.55,-10.33,-10.34,6.00,5.96,6.76,-1.55,-1.55,2.79
36.33,-7.46,-7.46,-10.24,-10.24,6.00,5.95,6.69,-1.46,-1.46,2.78
36.70,-7.37,-7.37,-10.14,-10.14,6.00,5.94,6.61,-1.37,-1.37,2.77
37.06,-7.28,-7.28,-10.03,-10.04,6.00,5.93,6.53,-1.28,-1.28,2.76
37.43,-7.19,-7.18,-9.94,-9.93,6.00,5.93,6.45,-1.19,-1.18,2.75
37.81,-7.09,-7.09,-9.83,-9.83,6.00,5.92,6.37,-1.09,-1.09,2.74
38.19,-7.00,-6.99,-9.72,-9.72,6.00,5.91,6.29,-1.00,-0.99,2.72
38.57,-6.90,-6.90,-9.62,-9.62,6.00,5.90,6.22,-0.90,-0.90,2.72
38.95,-6.82,-6.82,-9.52,-9.52,6.00,5.89,6.15,-0.82,-0.82,2.70
39.34,-6.74,-6.74,-9.43,-9.43,6.00,5.88,6.07,-0.74,-0.74,2.69
39.74,-6.66,-6.66,-9.33,-9.33,6.00,5.87,6.01,-0.66,-0.66,2.67
40.14,-6.58,-6.57,-9.25,-9.24,6.00,5.86,5.94,-0.58,-0.57,2.67
40.54,-6.49,-6.49,-9.14,-9.14,6.00,5.85,5.88,-0.49,-0.49,2.65
40.94,-6.40,-6.40,-9.04,-9.04,6.00,5.84,5.82,-0.40,-0.40,2.65
41.35,-6.32,-6.31,-8.95,-8.95,6.00,5.83,5.77,-0.32,-0.31,2.63
41.76,-6.23,-6.23,-8.85,-8.85,6.00,5.82,5.71,-0.23,-0.23,2.62
42.18,-6.15,-6.15,-8.76,-8.76,6.00,5.81,5.67,-0.15,-0.15,2.62
42.60,-6.06,-6.06,-8.66,-8.66,6.00,5.80,5.62,-0.06,-0.06,2.60
43.03,-5.97,-5.96,-8.56,-8.56,6.00,5.79,5.58,0.03,0.04,2.59
43.46,-5.87,-5.87,-8.44,-8.44,6.00,5.77,5.55,0.13,0.13,2.58
43.90,-5.77,-5.77,-8.32,-8.32,6.00,5.76,5.52,0.23,0.23,2.55
44.33,-5.68,-5.68,-8.21,-8.21,6.00,5.75,5.49,0.32,0.32,2.53
44.78,-5.60,-5.60,-8.11,-8.11,6.00,5.74,5.47,0.40,0.40,2.51
45.23,-5.52,-5.52,-8.01,-8.01,6.00,5.72,5.45,0.48,0.48,2.49
45.68,-5.45,-5.45,-7.92,-7.92,6.00,5.71,5.44,0.55,0.55,2.48
46.13,-5.37,-5.37,-7.82,-7.83,6.00,5.69,5.43,0.63,0.63,2.46
46.60,-5.30,-5.29,-7.75,-7.74,6.00,5.68,5.42,0.70,0.71,2.45
47.06,-5.22,-5.22,-7.65,-7.65,6.00,5.66,5.42,0.78,0.78,2.43
47.53,-5.14,-5.14,-7.55,-7.56,6.00,5.64,5.42,0.86,0.86,2.41
48.01,-5.08,-5.08,-7.48,-7.47,6.00,5.63,5.42,0.92,0.92,2.40
48.49,-5.02,-5.02,-7.39,-7.39,6.00,5.61,5.43,0.98,0.98,2.37
48.97,-4.97,-4.96,-7.30,-7.30,6.00,5.59,5.45,1.03,1.04,2.34
49.46,-4.90,-4.89,-7.20,-7.20,6.00,5.57,5.46,1.10,1.11,2.30
49.96,-4.81,-4.81,-7.08,-7.09,6.00,5.55,5.48,1.19,1.19,2.27
50.46,-4.74,-4.74,-7.00,-7.00,6.00,5.53,5.50,1.26,1.26,2.26
50.96,-4.68,-4.69,-6.92,-6.92,6.00,5.51,5.52,1.32,1.31,2.24
51.47,-4.65,-4.64,-6.85,-6.85,6.00,5.49,5.55,1.35,1.36,2.21
51.99,-4.61,-4.60,-6.79,-6.79,6.00,5.47,5.57,1.39,1.40,2.18
52.51,-4.56,-4.56,-6.73,-6.72,6.00,5.45,5.60,1.44,1.44,2.17
53.03,-4.50,-4.50,-6.64,-6.64,6.00,5.42,5.63,1.50,1.50,2.14
53.56,-4.45,-4.45,-6.57,-6.57,6.00,5.40,5.65,1.55,1.55,2.12
54.10,-4.41,-4.41,-6.50,-6.51,6.00,5.37,5.68,1.59,1.59,2.09
54.64,-4.38,-4.37,-6.45,-6.44,6.00,5.35,5.71,1.62,1.63,2.07
55.18,-4.34,-4.32,-6.38,-6.36,6.00,5.32,5.74,1.66,1.68,2.04
55.74,-4.25,-4.26,-6.26,-6.27,6.00,5.29,5.76,1.75,1.74,2.01
56.29,-4.20,-4.21,-6.19,-6.20,6.00,5.27,5.78,1.80,1.79,2.00
56.86,-4.19,-4.20,-6.16,-6.17,6.01,5.24,5.80,1.82,1.81,1.97
57.42,-4.21,-4.21,-6.15,-6.15,6.02,5.21,5.81,1.81,1.82,1.94
58.00,-4.24,-4.20,-6.16,-6.12,6.03,5.18,5.83,1.79,1.83,1.92
58.58,-4.19,-4.21,-6.09,-6.11,6.02,5.14,5.83,1.84,1.82,1.90
59.16,-4.18,-4.24,-6.06,-6.11,5.99,5.11,5.83,1.82,1.76,1.88
59.76,-4.29,-4.26,-6.15,-6.12,5.95,5.08,5.83,1.66,1.69,1.86
60.35,-4.28,-4.23,-6.10,-6.06,5.89,5.04,5.82,1.61,1.67,1.83
60.96,-4.14,-4.10,-5.94,-5.89,5.82,5.01,5.80,1.68,1.73,1.80
61.57,-3.87,-3.93,-5.63,-5.70,5.74,4.97,5.78,1.87,1.81,1.76
62.18,-3.76,-3.82,-5.49,-5.55,5.64,4.93,5.75,1.89,1.83,1.73
62.80,-3.81,-3.77,-5.51,-5.46,5.54,4.89,5.71,1.73,1.77,1.70
63.43,-3.78,-3.76,-5.45,-5.43,5.43,4.85,5.67,1.65,1.67,1.67
64.07,-3.71,-3.71,-5.35,-5.35,5.31,4.81,5.62,1.60,1.60,1.64
64.71,-3.62,-3.62,-5.23,-5.24,5.20,4.76,5.56,1.58,1.58,1.62
65.35,-3.53,-3.53,-5.11,-5.12,5.10,4.72,5.50,1.57,1.57,1.59
66.01,-3.44,-3.44,-5.00,-5.00,5.00,4.67,5.43,1.57,1.56,1.56
66.67,-3.36,-3.36,-4.89,-4.89,4.90,4.63,5.35,1.54,1.54,1.53
67.33,-3.28,-3.28,-4.78,-4.78,4.79,4.58,5.27,1.51,1.51,1.50
68.01,-3.21,-3.20,-4.68,-4.67,4.68,4.53,5.18,1.47,1.48,1.47
68.69,-3.13,-3.13,-4.57,-4.57,4.58,4.47,5.09,1.45,1.45,1.44
69.37,-3.06,-3.06,-4.46,-4.47,4.48,4.42,5.00,1.42,1.42,1.41
70.07,-3.00,-3.00,-4.37,-4.38,4.38,4.36,4.90,1.38,1.38,1.37
70.77,-2.96,-2.95,-4.31,-4.30,4.29,4.31,4.79,1.33,1.33,1.35
71.48,-2.90,-2.89,-4.21,-4.21,4.19,4.25,4.69,1.29,1.30,1.32
72.19,-2.82,-2.82,-4.10,-4.10,4.09,4.19,4.58,1.27,1.27,1.28
72.91,-2.74,-2.75,-3.98,-3.99,3.99,4.12,4.47,1.26,1.25,1.25
73.64,-2.68,-2.68,-3.89,-3.89,3.90,4.06,4.36,1.22,1.22,1.21
74.38,-2.62,-2.61,-3.80,-3.79,3.80,3.99,4.25,1.18,1.19,1.18
75.12,-2.55,-2.55,-3.69,-3.70,3.70,3.92,4.14,1.15,1.15,1.14
75.87,-2.49,-2.49,-3.60,-3.60,3.60,3.85,4.02,1.11,1.11,1.11
76.63,-2.43,-2.43,-3.51,-3.51,3.50,3.78,3.91,1.07,1.07,1.08
77.40,-2.37,-2.37,-3.42,-3.42,3.40,3.71,3.80,1.03,1.03,1.05
78.17,-2.31,-2.30,-3.32,-3.32,3.31,3.63,3.68,1.00,1.01,1.01
78.95,-2.24,-2.24,-3.22,-3.22,3.23,3.56,3.57,0.99,0.99,0.99
79.74,-2.18,-2.18,-3.13,-3.13,3.15,3.48,3.46,0.97,0.97,0.95
80.54,-2.14,-2.14,-3.06,-3.06,3.08,3.40,3.35,0.95,0.94,0.92
81.35,-2.12,-2.12,-3.00,-3.01,3.03,3.32,3.24,0.91,0.90,0.88
82.16,-2.12,-2.12,-2.97,-2.97,2.97,3.24,3.14,0.86,0.86,0.85
82.98,-2.12,-2.12,-2.94,-2.93,2.93,3.15,3.03,0.81,0.81,0.82
83.81,-2.12,-2.12,-2.89,-2.89,2.89,3.07,2.93,0.77,0.77,0.78
84.65,-2.11,-2.11,-2.85,-2.85,2.84,2.99,2.83,0.73,0.73,0.74
85.50,-2.10,-2.10,-2.81,-2.80,2.79,2.91,2.73,0.70,0.70,0.71
86.35,-2.08,-2.08,-2.75,-2.75,2.74,2.83,2.63,0.66,0.66,0.67
87.22,-2.06,-2.05,-2.69,-2.69,2.67,2.75,2.53,0.61,0.62,0.63
88.09,-2.02,-2.01,-2.61,-2.61,2.60,2.67,2.44,0.58,0.58,0.59
88.97,-1.97,-1.97,-2.53,-2.53,2.52,2.60,2.35,0.55,0.55,0.56
89.86,-1.92,-1.92,-2.44,-2.44,2.44,2.52,2.25,0.52,0.52,0.52
90.76,-1.88,-1.87,-2.34,-2.34,2.36,2.45,2.17,0.48,0.48,0.47
91.66,-1.83,-1.83,-2.26,-2.26,2.27,2.38,2.08,0.44,0.44,0.43
92.58,-1.79,-1.79,-2.17,-2.18,2.18,2.31,1.99,0.40,0.39,0.38
93.51,-1.77,-1.76,-2.11,-2.11,2.10,2.25,1.91,0.33,0.34,0.35
94.44,-1.73,-1.72,-2.03,-2.02,2.02,2.18,1.83,0.29,0.30,0.30
95.39,-1.69,-1.69,-1.95,-1.94,1.94,2.11,1.74,0.26,0.26,0.26
96.34,-1.65,-1.66,-1.85,-1.86,1.87,2.05,1.67,0.22,0.21,0.20
97.30,-1.64,-1.63,-1.80,-1.79,1.80,1.98,1.59,0.16,0.16,0.16
98.28,-1.62,-1.62,-1.73,-1.73,1.73,1.92,1.51,0.11,0.11,0.11
99.26,-1.60,-1.60,-1.66,-1.66,1.66,1.85,1.44,0.06,0.06,0.07
100.25,-1.58,-1.57,-1.60,-1.60,1.59,1.79,1.36,0.01,0.02,0.02
101.25,-1.55,-1.55,-1.52,-1.52,1.53,1.72,1.29,-0.02,-0.02,-0.03
102.27,-1.53,-1.53,-1.46,-1.46,1.46,1.65,1.22,-0.06,-0.07,-0.07
103.29,-1.52,-1.52,-1.39,-1.40,1.40,1.59,1.15,-0.11,-0.12,-0.13
104.32,-1.52,-1.51,-1.35,-1.34,1.34,1.52,1.09,-0.18,-0.17,-0.16
105.37,-1.50,-1.50,-1.29,-1.29,1.28,1.44,1.02,-0.22,-0.22,-0.21
106.42,-1.49,-1.49,-1.23,-1.23,1.23,1.37,0.96,-0.26,-0.26,-0.26
107.48,-1.48,-1.47,-1.17,-1.17,1.17,1.30,0.89,-0.31,-0.30,-0.30
108.56,-1.46,-1.46,-1.10,-1.11,1.12,1.23,0.83,-0.34,-0.35,-0.36
109.64,-1.46,-1.46,-1.05,-1.05,1.06,1.15,0.77,-0.40,-0.40,-0.41
110.74,-1.46,-1.46,-1.01,-1.00,1.01,1.08,0.71,-0.45,-0.45,-0.45
111.85,-1.46,-1.46,-0.96,-0.96,0.95,1.00,0.66,-0.51,-0.51,-0.50
112.97,-1.46,-1.45,-0.90,-0.90,0.89,0.92,0.60,-0.57,-0.56,-0.56
114.10,-1.45,-1.45,-0.84,-0.84,0.83,0.84,0.55,-0.62,-0.62,-0.61
115.24,-1.44,-1.44,-0.78,-0.78,0.77,0.77,0.50,-0.67,-0.67,-0.66
116.39,-1.43,-1.43,-0.71,-0.72,0.71,0.69,0.44,-0.72,-0.73,-0.72
117.55,-1.43,-1.42,-0.66,-0.65,0.65,0.61,0.40,-0.78,-0.77,-0.77
118.73,-1.41,-1.39,-0.58,-0.57,0.59,0.53,0.35,-0.81,-0.80,-0.82
119.92,-1.37,-1.39,-0.50,-0.52,0.54,0.45,0.30,-0.83,-0.85,-0.87
121.12,-1.38,-1.39,-0.46,-0.47,0.49,0.37,0.26,-0.89,-0.91,-0.92
122.33,-1.44,-1.41,-0.46,-0.44,0.44,0.29,0.22,-1.00,-0.97,-0.97
123.55,-1.43,-1.43,-0.41,-0.41,0.39,0.21,0.17,-1.04,-1.04,-1.01
124.79,-1.42,-1.43,-0.35,-0.36,0.34,0.13,0.13,-1.08,-1.08,-1.07
126.03,-1.42,-1.42,-0.30,-0.30,0.30,0.05,0.09,-1.12,-1.12,-1.12
127.29,-1.42,-1.42,-0.25,-0.25,0.25,-0.02,0.06,-1.17,-1.17,-1.17
128.57,-1.42,-1.42,-0.19,-0.20,0.20,-0.10,0.02,-1.22,-1.22,-1.23
129.85,-1.42,-1.42,-0.14,-0.14,0.15,-0.18,-0.01,-1.27,-1.27,-1.27
131.15,-1.42,-1.42,-0.10,-0.10,0.10,-0.26,-0.05,-1.32,-1.32,-1.32
132.46,-1.42,-1.42,-0.05,-0.05,0.05,-0.33,-0.08,-1.37,-1.37,-1.37
133.79,-1.41,-1.41,-0.00,0.00,-0.01,-0.41,-0.11,-1.41,-1.42,-1.41
135.12,-1.41,-1.40,0.05,0.05,-0.06,-0.48,-0.14,-1.47,-1.46,-1.46
136.48,-1.40,-1.39,0.10,0.10,-0.11,-0.55,-0.17,-1.51,-1.51,-1.50
137.84,-1.38,-1.38,0.16,0.17,-0.17,-0.62,-0.19,-1.54,-1.55,-1.54
139.22,-1.37,-1.37,0.23,0.22,-0.22,-0.69,-0.22,-1.59,-1.59,-1.60
140.61,-1.35,-1.35,0.29,0.28,-0.27,-0.76,-0.25,-1.62,-1.62,-1.64
142.02,-1.34,-1.33,0.32,0.33,-0.33,-0.83,-0.28,-1.67,-1.66,-1.66
143.44,-1.32,-1.32,0.38,0.39,-0.38,-0.89,-0.30,-1.70,-1.70,-1.70
144.87,-1.30,-1.30,0.44,0.44,-0.44,-0.96,-0.33,-1.74,-1.74,-1.74
146.32,-1.29,-1.28,0.49,0.49,-0.49,-1.02,-0.35,-1.78,-1.78,-1.78
147.78,-1.27,-1.27,0.54,0.55,-0.55,-1.08,-0.38,-1.82,-1.82,-1.81
149.26,-1.25,-1.25,0.60,0.60,-0.61,-1.14,-0.40,-1.86,-1.86,-1.85
150.75,-1.23,-1.22,0.67,0.67,-0.67,-1.19,-0.43,-1.90,-1.89,-1.90
152.26,-1.20,-1.20,0.73,0.73,-0.73,-1.25,-0.45,-1.93,-1.93,-1.93
153.78,-1.18,-1.18,0.79,0.79,-0.79,-1.30,-0.48,-1.97,-1.97,-1.97
155.32,-1.16,-1.15,0.85,0.86,-0.86,-1.35,-0.50,-2.01,-2.01,-2.01
156.88,-1.12,-1.12,0.93,0.92,-0.92,-1.40,-0.53,-2.04,-2.05,-2.05
158.44,-1.10,-1.10,0.99,0.99,-0.98,-1.44,-0.56,-2.08,-2.09,-2.09
160.03,-1.09,-1.08,1.04,1.05,-1.05,-1.49,-0.58,-2.13,-2.13,-2.13
161.63,-1.07,-1.06,1.10,1.11,-1.11,-1.53,-0.61,-2.18,-2.17,-2.17
163.24,-1.04,-1.04,1.18,1.17,-1.17,-1.57,-0.64,-2.21,-2.21,-2.21
164.88,-1.01,-1.01,1.24,1.23,-1.23,-1.60,-0.67,-2.24,-2.25,-2.24
166.53,-0.99,-0.99,1.29,1.29,-1.30,-1.64,-0.69,-2.28,-2.28,-2.28
168.19,-0.97,-0.96,1.35,1.36,-1.36,-1.67,-0.72,-2.33,-2.32,-2.32
169.87,-0.94,-0.94,1.42,1.42,-1.42,-1.70,-0.75,-2.36,-2.36,-2.36
171.57,-0.91,-0.91,1.49,1.48,-1.49,-1.73,-0.79,-2.40,-2.40,-2.40
173.29,-0.88,-0.88,1.55,1.55,-1.55,-1.76,-0.82,-2.43,-2.43,-2.43
175.02,-0.86,-0.85,1.61,1.62,-1.62,-1.78,-0.85,-2.48,-2.47,-2.47
176.77,-0.83,-0.83,1.68,1.68,-1.68,-1.80,-0.88,-2.51,-2.51,-2.51
178.54,-0.81,-0.81,1.75,1.74,-1.74,-1.82,-0.92,-2.55,-2.55,-2.56
180.32,-0.79,-0.79,1.80,1.80,-1.80,-1.84,-0.95,-2.58,-2.58,-2.59
182.13,-0.77,-0.77,1.85,1.85,-1.85,-1.86,-0.99,-2.62,-2.62,-2.62
183.95,-0.76,-0.76,1.91,1.90,-1.90,-1.87,-1.03,-2.66,-2.66,-2.66
185.79,-0.75,-0.75,1.95,1.95,-1.94,-1.89,-1.06,-2.69,-2.69,-2.69
187.65,-0.75,-0.74,1.99,1.99,-1.99,-1.90,-1.10,-2.74,-2.73,-2.74
189.52,-0.74,-0.74,2.03,2.03,-2.03,-1.91,-1.14,-2.77,-2.77,-2.77
191.42,-0.73,-0.73,2.07,2.07,-2.08,-1.92,-1.18,-2.81,-2.81,-2.79
193.33,-0.72,-0.71,2.11,2.11,-2.12,-1.93,-1.22,-2.84,-2.83,-2.82
195.27,-0.69,-0.69,2.16,2.16,-2.17,-1.94,-1.26,-2.86,-2.86,-2.85
197.22,-0.67,-0.67,2.21,2.21,-2.21,-1.94,-1.30,-2.88,-2.88,-2.88
199.19,-0.66,-0.66,2.26,2.25,-2.25,-1.95,-1.34,-2.91,-2.91,-2.92
201.18,-0.65,-0.65,2.29,2.29,-2.29,-1.95,-1.38,-2.93,-2.93,-2.93
203.19,-0.64,-0.64,2.31,2.31,-2.31,-1.96,-1.43,-2.95,-2.95,-2.95
205.23,-0.64,-0.64,2.34,2.33,-2.33,-1.96,-1.47,-2.97,-2.97,-2.98
207.28,-0.65,-0.65,2.33,2.34,-2.33,-1.96,-1.51,-2.98,-2.98,-2.98
209.35,-0.67,-0.67,2.34,2.34,-2.32,-1.96,-1.55,-2.99,-2.99,-3.00
211.44,-0.70,-0.70,2.33,2.32,-2.30,-1.96,-1.59,-3.00,-3.01,-3.03
213.56,-0.75,-0.75,2.28,2.28,-2.28,-1.96,-1.63,-3.03,-3.03,-3.03
215.69,-0.81,-0.80,2.23,2.24,-2.24,-1.96,-1.67,-3.05,-3.04,-3.04
217.85,-0.86,-0.86,2.19,2.19,-2.20,-1.96,-1.71,-3.06,-3.06,-3.05
220.03,-0.92,-0.92,2.14,2.14,-2.16,-1.95,-1.74,-3.08,-3.07,-3.06
222.23,-0.97,-0.96,2.11,2.10,-2.11,-1.95,-1.78,-3.08,-3.07,-3.07
224.45,-1.01,-1.01,2.06,2.06,-2.06,-1.94,-1.81,-3.07,-3.07,-3.06
226.70,-1.05,-1.05,2.02,2.02,-2.01,-1.93,-1.84,-3.06,-3.06,-3.07
228.96,-1.10,-1.10,1.97,1.97,-1.96,-1.92,-1.87,-3.06,-3.05,-3.07
231.25,-1.14,-1.13,1.92,1.93,-1.91,-1.91,-1.89,-3.04,-3.04,-3.06
233.57,-1.19,-1.18,1.87,1.88,-1.86,-1.90,-1.92,-3.05,-3.04,-3.06
235.90,-1.22,-1.25,1.84,1.80,-1.81,-1.88,-1.94,-3.03,-3.07,-3.06
238.26,-1.32,-1.30,1.74,1.75,-1.77,-1.86,-1.95,-3.09,-3.08,-3.06
240.64,-1.38,-1.33,1.67,1.71,-1.74,-1.83,-1.97,-3.12,-3.07,-3.04
243.05,-1.32,-1.35,1.72,1.69,-1.71,-1.80,-1.98,-3.02,-3.05,-3.03
245.48,-1.33,-1.34,1.69,1.68,-1.68,-1.77,-1.98,-3.01,-3.02,-3.02
247.93,-1.35,-1.34,1.66,1.68,-1.66,-1.74,-1.99,-3.01,-3.00,-3.01
250.41,-1.36,-1.35,1.65,1.65,-1.64,-1.70,-1.98,-3.00,-2.99,-3.01
252.92,-1.36,-1.36,1.63,1.62,-1.62,-1.66,-1.98,-2.98,-2.98,-2.99
255.45,-1.37,-1.37,1.60,1.60,-1.59,-1.62,-1.97,-2.96,-2.96,-2.96
258.00,-1.39,-1.39,1.56,1.56,-1.56,-1.57,-1.96,-2.95,-2.95,-2.95
260.58,-1.41,-1.41,1.53,1.53,-1.52,-1.53,-1.94,-2.93,-2.93,-2.94
263.19,-1.43,-1.43,1.49,1.49,-1.48,-1.48,-1.92,-2.91,-2.91,-2.91
265.82,-1.46,-1.46,1.44,1.43,-1.43,-1.43,-1.90,-2.89,-2.90,-2.90
268.48,-1.50,-1.49,1.38,1.38,-1.39,-1.37,-1.87,-2.89,-2.88,-2.88
271.16,-1.53,-1.52,1.32,1.33,-1.34,-1.32,-1.84,-2.87,-2.87,-2.85
273.87,-1.55,-1.55,1.29,1.29,-1.29,-1.27,-1.81,-2.84,-2.84,-2.84
276.61,-1.57,-1.57,1.24,1.25,-1.24,-1.21,-1.78,-2.81,-2.81,-2.81
279.38,-1.59,-1.59,1.21,1.20,-1.19,-1.16,-1.74,-2.78,-2.79,-2.80
282.17,-1.63,-1.62,1.16,1.15,-1.15,-1.10,-1.70,-2.78,-2.78,-2.78
284.99,-1.66,-1.66,1.10,1.10,-1.11,-1.05,-1.66,-2.77,-2.77,-2.76
287.84,-1.69,-1.69,1.05,1.05,-1.07,-1.00,-1.62,-2.76,-2.76,-2.74
290.72,-1.71,-1.71,1.01,1.01,-1.03,-0.94,-1.57,-2.74,-2.74,-2.72
293.63,-1.73,-1.71,0.97,0.98,-0.99,-0.89,-1.53,-2.71,-2.70,-2.70
296.57,-1.73,-1.72,0.95,0.96,-0.94,-0.84,-1.48,-2.67,-2.66,-2.68
299.53,-1.71,-1.74,0.95,0.92,-0.89,-0.79,-1.44,-2.60,-2.63,-2.66
302.53,-1.79,-1.78,0.86,0.86,-0.84,-0.74,-1.39,-2.63,-2.62,-2.64
305.55,-1.85,-1.83,0.76,0.79,-0.79,-0.69,-1.34,-2.63,-2.61,-2.61
308.61,-1.87,-1.88,0.72,0.71,-0.73,-0.65,-1.29,-2.60,-2.61,-2.59
311.69,-1.90,-1.90,0.67,0.66,-0.68,-0.60,-1.24,-2.57,-2.58,-2.56
314.81,-1.93,-1.92,0.60,0.61,-0.62,-0.56,-1.19,-2.55,-2.55,-2.53
317.96,-1.95,-1.95,0.56,0.56,-0.57,-0.52,-1.14,-2.52,-2.52,-2.51
321.14,-1.98,-1.97,0.52,0.52,-0.52,-0.47,-1.09,-2.50,-2.49,-2.49
324.35,-2.00,-2.00,0.48,0.48,-0.47,-0.44,-1.04,-2.47,-2.47,-2.48
327.59,-2.02,-2.02,0.43,0.43,-0.43,-0.40,-0.99,-2.44,-2.45,-2.45
330.87,-2.05,-2.04,0.39,0.39,-0.38,-0.36,-0.95,-2.43,-2.42,-2.43
334.18,-2.07,-2.07,0.35,0.34,-0.33,-0.33,-0.90,-2.40,-2.40,-2.42
337.52,-2.11,-2.11,0.29,0.29,-0.28,-0.29,-0.85,-2.39,-2.39,-2.40
340.90,-2.15,-2.15,0.22,0.23,-0.23,-0.26,-0.80,-2.38,-2.38,-2.37
344.30,-2.19,-2.18,0.17,0.17,-0.18,-0.23,-0.75,-2.37,-2.36,-2.35
347.75,-2.21,-2.21,0.13,0.13,-0.13,-0.20,-0.71,-2.34,-2.34,-2.34
351.23,-2.23,-2.23,0.09,0.09,-0.09,-0.17,-0.66,-2.32,-2.32,-2.32
354.74,-2.25,-2.24,0.05,0.06,-0.05,-0.14,-0.61,-2.30,-2.29,-2.30
358.28,-2.26,-2.26,0.02,0.02,-0.02,-0.12,-0.57,-2.28,-2.28,-2.28
361.87,-2.27,-2.27,-0.00,-0.01,0.00,-0.10,-0.53,-2.27,-2.27,-2.26
365.49,-2.29,-2.28,-0.04,-0.03,0.02,-0.07,-0.48,-2.27,-2.26,-2.25
369.14,-2.28,-2.28,-0.04,-0.04,0.03,-0.05,-0.44,-2.25,-2.25,-2.24
372.83,-2.26,-2.26,-0.04,-0.04,0.03,-0.03,-0.39,-2.22,-2.23,-2.22
376.56,-2.24,-2.24,-0.03,-0.03,0.04,-0.01,-0.35,-2.20,-2.20,-2.21
380.33,-2.22,-2.22,-0.03,-0.03,0.04,0.00,-0.31,-2.18,-2.18,-2.18
384.13,-2.21,-2.20,-0.03,-0.03,0.04,0.02,-0.27,-2.17,-2.16,-2.18
387.97,-2.19,-2.19,-0.02,-0.03,0.04,0.03,-0.23,-2.15,-2.15,-2.17
391.85,-2.19,-2.19,-0.03,-0.04,0.04,0.04,-0.19,-2.15,-2.16,-2.16
395.77,-2.20,-2.19,-0.06,-0.05,0.04,0.06,-0.15,-2.16,-2.15,-2.14
399.73,-2.19,-2.18,-0.06,-0.05,0.03,0.07,-0.11,-2.15,-2.15,-2.13
403.72,-2.16,-2.16,-0.03,-0.04,0.03,0.08,-0.07,-2.13,-2.13,-2.12
407.76,-2.14,-2.14,-0.02,-0.02,0.03,0.09,-0.03,-2.11,-2.11,-2.11
411.84,-2.11,-2.11,-0.01,-0.01,0.02,0.09,0.00,-2.08,-2.09,-2.10
415.96,-2.10,-2.10,-0.01,-0.01,0.02,0.10,0.04,-2.08,-2.08,-2.09
420.12,-2.09,-2.09,-0.01,-0.01,0.01,0.10,0.07,-2.08,-2.07,-2.08
424.32,-2.08,-2.08,-0.01,-0.01,0.01,0.11,0.11,-2.07,-2.07,-2.07
428.56,-2.07,-2.07,-0.01,-0.01,0.01,0.11,0.14,-2.06,-2.06,-2.06
432.85,-2.06,-2.06,-0.01,-0.01,0.00,0.12,0.17,-2.05,-2.05,-2.05
437.18,-2.05,-2.04,-0.01,-0.01,0.01,0.12,0.20,-2.04,-2.04,-2.04
441.55,-2.03,-2.03,-0.00,-0.00,0.01,0.12,0.23,-2.02,-2.03,-2.02
445.96,-2.02,-2.02,-0.00,-0.01,0.00,0.12,0.25,-2.01,-2.01,-2.01
