frequency,raw
20.00,10.31
20.20,10.31
20.40,10.31
20.61,10.31
20.81,10.31
21.02,10.31
21.23,10.32
21.44,10.32
21.66,10.33
21.87,10.33
22.09,10.32
22.31,10.31
22.54,10.29
22.76,10.25
22.99,10.21
23.22,10.17
23.45,10.13
23.69,10.11
23.92,10.10
24.16,10.10
24.40,10.13
24.65,10.16
24.89,10.19
25.14,10.22
25.39,10.23
25.65,10.23
25.91,10.23
26.16,10.22
26.43,10.21
26.69,10.20
26.96,10.20
27.23,10.21
27.50,10.21
27.77,10.21
28.05,10.21
28.33,10.21
28.62,10.21
28.90,10.21
29.19,10.22
29.48,10.22
29.78,10.23
30.08,10.24
30.38,10.25
30.68,10.26
30.99,10.27
31.30,10.28
31.61,10.29
31.93,10.29
32.24,10.30
32.57,10.30
32.89,10.30
33.22,10.31
33.55,10.31
33.89,10.31
34.23,10.31
34.57,10.30
34.92,10.29
35.27,10.27
35.62,10.25
35.97,10.24
36.33,10.23
36.70,10.22
37.06,10.21
37.43,10.20
37.81,10.19
38.19,10.18
38.57,10.17
38.95,10.16
39.34,10.15
39.74,10.13
40.14,10.12
40.54,10.12
40.94,10.11
41.35,10.10
41.76,10.09
42.18,10.08
42.60,10.07
43.03,10.06
43.46,10.05
43.90,10.04
44.33,10.03
44.78,10.02
45.23,10.00
45.68,9.99
46.13,9.97
46.60,9.96
47.06,9.95
47.53,9.93
48.01,9.92
48.49,9.90
48.97,9.89
49.46,9.87
49.96,9.85
50.46,9.83
50.96,9.82
51.47,9.80
51.99,9.79
52.51,9.78
53.03,9.76
53.56,9.74
54.10,9.72
54.64,9.70
55.18,9.68
55.74,9.66
56.29,9.64
56.86,9.62
57.42,9.61
58.00,9.59
58.58,9.56
59.16,9.53
59.76,9.51
60.35,9.48
60.96,9.46
61.57,9.44
62.18,9.42
62.80,9.40
63.43,9.38
64.07,9.35
64.71,9.33
65.35,9.31
66.01,9.29
66.67,9.26
67.33,9.24
68.01,9.21
68.69,9.18
69.37,9.15
70.07,9.12
70.77,9.09
71.48,9.06
72.19,9.03
72.91,9.00
73.64,8.97
74.38,8.95
75.12,8.92
75.87,8.89
76.63,8.86
77.40,8.83
78.17,8.80
78.95,8.76
79.74,8.73
80.54,8.70
81.35,8.67
82.16,8.64
82.98,8.60
83.81,8.57
84.65,8.54
85.50,8.51
86.35,8.48
87.22,8.45
88.09,8.42
88.97,8.38
89.86,8.35
90.76,8.31
91.66,8.27
92.58,8.22
93.51,8.18
94.44,8.13
95.39,8.10
96.34,8.07
97.30,8.04
98.28,8.01
99.26,7.98
100.25,7.93
101.25,7.87
102.27,7.81
103.29,7.76
104.32,7.72
105.37,7.66
106.42,7.61
107.48,7.56
108.56,7.51
109.64,7.46
110.74,7.41
111.85,7.36
112.97,7.32
114.10,7.29
115.24,7.27
116.39,7.25
117.55,7.23
118.73,7.21
119.92,7.19
121.12,7.16
122.33,7.12
123.55,7.08
124.79,7.04
126.03,6.99
127.29,6.94
128.57,6.88
129.85,6.82
131.15,6.76
132.46,6.70
133.79,6.64
135.12,6.58
136.48,6.52
137.84,6.46
139.22,6.41
140.61,6.35
142.02,6.31
143.44,6.27
144.87,6.23
146.32,6.22
147.78,6.21
149.26,6.21
150.75,6.22
152.26,6.23
153.78,6.24
155.32,6.24
156.88,6.22
158.44,6.19
160.03,6.15
161.63,6.10
163.24,6.04
164.88,5.99
166.53,5.93
168.19,5.87
169.87,5.81
171.57,5.75
173.29,5.69
175.02,5.63
176.77,5.57
178.54,5.50
180.32,5.45
182.13,5.39
183.95,5.33
185.79,5.27
187.65,5.21
189.52,5.15
191.42,5.09
193.33,5.04
195.27,4.98
197.22,4.92
199.19,4.86
201.18,4.81
203.19,4.75
205.23,4.69
207.28,4.64
209.35,4.58
211.44,4.52
213.56,4.47
215.69,4.41
217.85,4.36
220.03,4.30
222.23,4.25
224.45,4.19
226.70,4.14
228.96,4.08
231.25,4.02
233.57,3.97
235.90,3.91
238.26,3.86
240.64,3.81
243.05,3.75
245.48,3.70
247.93,3.64
250.41,3.59
252.92,3.54
255.45,3.49
258.00,3.43
260.58,3.38
263.19,3.33
265.82,3.28
268.48,3.22
271.16,3.17
273.87,3.11
276.61,3.06
279.38,3.01
282.17,2.95
284.99,2.90
287.84,2.84
290.72,2.79
293.63,2.73
296.57,2.68
299.53,2.63
302.53,2.58
305.55,2.53
308.61,2.48
311.69,2.43
314.81,2.39
317.96,2.35
321.14,2.32
324.35,2.28
327.59,2.25
330.87,2.22
334.18,2.19
337.52,2.15
340.90,2.11
344.30,2.06
347.75,2.01
351.23,1.97
354.74,1.92
358.28,1.87
361.87,1.82
365.49,1.77
369.14,1.72
372.83,1.68
376.56,1.63
380.33,1.58
384.13,1.54
387.97,1.49
391.85,1.44
395.77,1.40
399.73,1.35
403.72,1.31
407.76,1.27
411.84,1.22
415.96,1.18
420.12,1.14
424.32,1.10
428.56,1.06
432.85,1.02
437.18,0.98
441.55,0.93
445.96,0.89
450.42,0.85
454.93,0.81
459.48,0.77
464.07,0.74
468.71,0.70
473.40,0.66
478.13,0.62
482.91,0.59
487.74,0.55
492.62,0.52
497.55,0.48
502.52,0.45
507.55,0.41
512.62,0.38
517.75,0.34
522.93,0.31
528.16,0.28
533.44,0.25
538.77,0.22
544.16,0.19
549.60,0.16
555.10,0.13
560.65,0.10
566.25,0.07
571.92,0.04
577.64,0.01
583.41,-0.02
589.25,-0.04
595.14,-0.07
601.09,-0.09
607.10,-0.12
613.17,-0.14
619.30,-0.17
625.50,-0.19
631.75,-0.21
638.07,-0.23
644.45,-0.25
650.89,-0.27
657.40,-0.29
663.98,-0.31
670.62,-0.33
677.32,-0.34
684.10,-0.36
690.94,-0.37
697.85,-0.39
704.83,-0.40
711.87,-0.41
718.99,-0.42
726.18,-0.43
733.44,-0.43
740.78,-0.44
748.19,-0.44
755.67,-0.45
763.23,-0.45
770.86,-0.45
778.57,-0.44
786.35,-0.44
794.22,-0.43
802.16,-0.42
810.18,-0.41
818.28,-0.39
826.46,-0.37
834.73,-0.35
843.08,-0.34
851.51,-0.34
860.02,-0.36
868.62,-0.41
877.31,-0.46
886.08,-0.51
894.94,-0.52
903.89,-0.52
912.93,-0.48
922.06,-0.42
931.28,-0.37
940.59,-0.31
950.00,-0.26
959.50,-0.21
969.09,-0.16
978.78,-0.11
988.57,-0.06
998.46,-0.01
1008.44,0.04
1018.53,0.09
1028.71,0.14
1039.00,0.19
1049.39,0.24
1059.88,0.29
1070.48,0.34
1081.19,0.39
1092.00,0.44
1102.92,0.49
1113.95,0.54
1125.09,0.59
1136.34,0.63
1147.70,0.68
1159.18,0.72
1170.77,0.76
1182.48,0.80
1194.30,0.84
1206.25,0.88
1218.31,0.92
1230.49,0.96
1242.80,1.00
1255.22,1.05
1267.78,1.09
1280.45,1.13
1293.26,1.17
1306.19,1.21
1319.25,1.24
1332.45,1.28
1345.77,1.31
1359.23,1.33
1372.82,1.35
1386.55,1.37
1400.41,1.39
1414.42,1.40
1428.56,1.41
1442.85,1.43
1457.28,1.43
1471.85,1.44
1486.57,1.45
1501.43,1.46
1516.45,1.48
1531.61,1.49
1546.93,1.50
1562.40,1.52
1578.02,1.53
1593.80,1.54
1609.74,1.54
1625.84,1.54
1642.10,1.54
1658.52,1.54
1675.10,1.53
1691.85,1.52
1708.77,1.51
1725.86,1.50
1743.12,1.48
1760.55,1.46
1778.15,1.44
1795.94,1.42
1813.90,1.40
1832.03,1.38
1850.36,1.35
1868.86,1.33
1887.55,1.30
1906.42,1.27
1925.49,1.24
1944.74,1.20
1964.19,1.17
1983.83,1.13
2003.67,1.08
2023.71,1.03
2043.94,0.97
2064.38,0.92
2085.03,0.86
2105.88,0.81
2126.94,0.76
2148.20,0.74
2169.69,0.74
2191.38,0.75
2213.30,0.80
2235.43,0.86
2257.78,0.94
2280.36,1.02
2303.17,1.10
2326.20,1.16
2349.46,1.21
2372.95,1.23
2396.68,1.24
2420.65,1.24
2444.86,1.23
2469.31,1.23
2494.00,1.25
2518.94,1.30
2544.13,1.36
2569.57,1.45
2595.27,1.54
2621.22,1.63
2647.43,1.71
2673.90,1.77
2700.64,1.83
2727.65,1.86
2754.93,1.89
2782.48,1.91
2810.30,1.92
2838.40,1.93
2866.79,1.93
2895.46,1.92
2924.41,1.91
2953.65,1.90
2983.19,1.89
3013.02,1.87
3043.15,1.85
3073.58,1.83
3104.32,1.82
3135.36,1.80
3166.72,1.79
3198.38,1.78
3230.37,1.77
3262.67,1.76
3295.30,1.75
3328.25,1.75
3361.53,1.76
3395.15,1.76
3429.10,1.78
3463.39,1.80
3498.03,1.83
3533.01,1.86
3568.34,1.91
3604.02,1.96
3640.06,2.02
3676.46,2.08
3713.22,2.15
3750.36,2.22
3787.86,2.30
3825.74,2.39
3864.00,2.49
3902.64,2.59
3941.66,2.70
3981.08,2.81
4020.89,2.92
4061.10,3.05
4101.71,3.18
4142.73,3.32
4184.15,3.48
4226.00,3.65
4268.26,3.84
4310.94,4.03
4354.05,4.25
4397.59,4.49
4441.56,4.73
4485.98,4.99
4530.84,5.26
4576.15,5.54
4621.91,5.83
4668.13,6.13
4714.81,6.42
4761.96,6.71
4809.58,6.99
4857.67,7.24
4906.25,7.44
4955.31,7.60
5004.87,7.70
5054.91,7.73
5105.46,7.75
5156.52,7.75
5208.08,7.70
5260.16,7.57
5312.77,7.39
5365.89,7.11
5419.55,6.76
5473.75,6.36
5528.49,5.92
5583.77,5.44
5639.61,4.95
5696.00,4.45
5752.96,3.97
5810.49,3.50
5868.60,3.06
5927.28,2.65
5986.56,2.29
6046.42,2.01
6106.89,1.80
6167.96,1.68
6229.64,1.67
6291.93,1.78
6354.85,2.01
6418.40,2.29
6482.58,2.66
6547.41,3.12
6612.88,3.61
6679.01,4.16
6745.80,4.64
6813.26,5.05
6881.39,5.32
6950.21,5.51
7019.71,5.66
7089.91,5.80
7160.81,5.99
7232.41,6.20
7304.74,6.45
7377.79,6.74
7451.56,7.07
7526.08,7.44
7601.34,7.84
7677.35,8.23
7754.13,8.62
7831.67,8.86
7909.98,9.02
7989.08,9.01
8068.98,8.75
8149.67,8.32
8231.16,7.71
8313.47,6.90
8396.61,6.01
8480.57,5.02
8565.38,4.00
8651.03,2.98
8737.54,1.99
8824.92,1.04
8913.17,0.17
9002.30,-0.68
9092.32,-1.44
9183.25,-2.14
9275.08,-2.79
9367.83,-3.38
9461.51,-3.90
9556.12,-4.37
9651.68,-4.78
9748.20,-5.14
9845.68,-5.43
9944.14,-5.67
10043.58,-5.84
10144.02,-5.96
10245.46,-5.99
10347.91,-5.96
10451.39,-5.86
10555.91,-5.65
10661.46,-5.35
10768.08,-4.97
10875.76,-4.45
10984.52,-3.82
11094.36,-3.12
11205.31,-2.34
11317.36,-1.57
11430.53,-0.86
11544.84,-0.36
11660.29,-0.07
11776.89,0.03
11894.66,-0.46
12013.60,-1.04
12133.74,-1.90
12255.08,-3.03
12377.63,-4.29
12501.41,-5.60
12626.42,-6.89
12752.68,-8.11
12880.21,-9.16
13009.01,-10.13
13139.10,-11.10
13270.49,-11.82
13403.20,-12.46
13537.23,-12.93
13672.60,-13.30
13809.33,-13.57
13947.42,-13.66
14086.90,-13.59
14227.77,-13.42
14370.04,-13.11
14513.74,-12.63
14658.88,-11.96
14805.47,-11.26
14953.52,-10.53
15103.06,-9.95
15254.09,-9.45
15406.63,-9.43
15560.70,-9.63
15716.30,-10.20
15873.47,-11.15
16032.20,-12.28
16192.52,-13.64
16354.45,-15.04
16517.99,-16.45
16683.17,-17.73
16850.01,-18.86
17018.51,-19.87
17188.69,-20.72
17360.58,-21.58
17534.18,-22.48
17709.53,-23.57
17886.62,-24.93
18065.49,-26.51
18246.14,-28.33
18428.60,-30.47
18612.89,-32.77
18799.02,-35.21
18987.01,-37.77
19176.88,-40.41
19368.65,-43.03
19562.33,-45.57
19757.96,-47.93
19955.54,-50.29
