frequency,raw
20.00,13.11
20.20,13.10
20.40,13.10
20.61,13.09
20.81,13.08
21.02,13.07
21.23,13.05
21.44,13.04
21.66,13.03
21.87,13.02
22.09,13.00
22.31,12.99
22.54,12.98
22.76,12.96
22.99,12.94
23.22,12.92
23.45,12.90
23.69,12.88
23.92,12.86
24.16,12.84
24.40,12.82
24.65,12.80
24.89,12.78
25.14,12.76
25.39,12.74
25.65,12.73
25.91,12.71
26.16,12.69
26.43,12.68
26.69,12.67
26.96,12.65
27.23,12.64
27.50,12.62
27.77,12.59
28.05,12.57
28.33,12.54
28.62,12.51
28.90,12.49
29.19,12.46
29.48,12.44
29.78,12.42
30.08,12.39
30.38,12.37
30.68,12.34
30.99,12.30
31.30,12.27
31.61,12.24
31.93,12.21
32.24,12.18
32.57,12.15
32.89,12.13
33.22,12.10
33.55,12.07
33.89,12.04
34.23,12.01
34.57,11.98
34.92,11.95
35.27,11.91
35.62,11.88
35.97,11.85
36.33,11.81
36.70,11.78
37.06,11.75
37.43,11.71
37.81,11.68
38.19,11.64
38.57,11.61
38.95,11.57
39.34,11.53
39.74,11.49
40.14,11.45
40.54,11.41
40.94,11.38
41.35,11.34
41.76,11.30
42.18,11.26
42.60,11.22
43.03,11.18
43.46,11.13
43.90,11.09
44.33,11.05
44.78,11.01
45.23,10.97
45.68,10.92
46.13,10.88
46.60,10.83
47.06,10.79
47.53,10.75
48.01,10.71
48.49,10.66
48.97,10.62
49.46,10.58
49.96,10.54
50.46,10.50
50.96,10.46
51.47,10.42
51.99,10.37
52.51,10.33
53.03,10.28
53.56,10.23
54.10,10.19
54.64,10.14
55.18,10.09
55.74,10.04
56.29,9.99
56.86,9.95
57.42,9.90
58.00,9.85
58.58,9.80
59.16,9.76
59.76,9.71
60.35,9.67
60.96,9.62
61.57,9.57
62.18,9.52
62.80,9.47
63.43,9.42
64.07,9.37
64.71,9.32
65.35,9.26
66.01,9.21
66.67,9.16
67.33,9.11
68.01,9.05
68.69,9.00
69.37,8.94
70.07,8.89
70.77,8.83
71.48,8.77
72.19,8.72
72.91,8.66
73.64,8.60
74.38,8.54
75.12,8.48
75.87,8.42
76.63,8.36
77.40,8.30
78.17,8.24
78.95,8.18
79.74,8.12
80.54,8.05
81.35,7.99
82.16,7.93
82.98,7.86
83.81,7.80
84.65,7.73
85.50,7.66
86.35,7.59
87.22,7.53
88.09,7.46
88.97,7.39
89.86,7.33
90.76,7.26
91.66,7.20
92.58,7.14
93.51,7.08
94.44,7.02
95.39,6.96
96.34,6.91
97.30,6.86
98.28,6.80
99.26,6.75
100.25,6.70
101.25,6.65
102.27,6.61
103.29,6.56
104.32,6.50
105.37,6.44
106.42,6.38
107.48,6.32
108.56,6.26
109.64,6.19
110.74,6.13
111.85,6.08
112.97,6.02
114.10,5.96
115.24,5.91
116.39,5.85
117.55,5.79
118.73,5.72
119.92,5.66
121.12,5.60
122.33,5.54
123.55,5.47
124.79,5.41
126.03,5.35
127.29,5.29
128.57,5.23
129.85,5.17
131.15,5.11
132.46,5.06
133.79,5.00
135.12,4.95
136.48,4.89
137.84,4.84
139.22,4.79
140.61,4.75
142.02,4.70
143.44,4.66
144.87,4.62
146.32,4.57
147.78,4.53
149.26,4.49
150.75,4.45
152.26,4.41
153.78,4.37
155.32,4.33
156.88,4.28
158.44,4.24
160.03,4.20
161.63,4.15
163.24,4.10
164.88,4.06
166.53,4.00
168.19,3.95
169.87,3.90
171.57,3.85
173.29,3.79
175.02,3.73
176.77,3.67
178.54,3.62
180.32,3.55
182.13,3.49
183.95,3.43
185.79,3.37
187.65,3.31
189.52,3.25
191.42,3.19
193.33,3.13
195.27,3.07
197.22,3.01
199.19,2.94
201.18,2.88
203.19,2.82
205.23,2.76
207.28,2.70
209.35,2.64
211.44,2.58
213.56,2.52
215.69,2.46
217.85,2.40
220.03,2.35
222.23,2.29
224.45,2.23
226.70,2.17
228.96,2.11
231.25,2.04
233.57,1.98
235.90,1.92
238.26,1.86
240.64,1.80
243.05,1.75
245.48,1.69
247.93,1.65
250.41,1.60
252.92,1.57
255.45,1.55
258.00,1.53
260.58,1.52
263.19,1.50
265.82,1.48
268.48,1.46
271.16,1.42
273.87,1.39
276.61,1.34
279.38,1.30
282.17,1.25
284.99,1.20
287.84,1.15
290.72,1.10
293.63,1.05
296.57,1.01
299.53,0.96
302.53,0.91
305.55,0.86
308.61,0.82
311.69,0.77
314.81,0.73
317.96,0.68
321.14,0.64
324.35,0.60
327.59,0.56
330.87,0.51
334.18,0.47
337.52,0.43
340.90,0.39
344.30,0.35
347.75,0.31
351.23,0.27
354.74,0.23
358.28,0.20
361.87,0.16
365.49,0.12
369.14,0.08
372.83,0.05
376.56,0.01
380.33,-0.02
384.13,-0.06
387.97,-0.09
391.85,-0.13
395.77,-0.16
399.73,-0.19
403.72,-0.23
407.76,-0.26
411.84,-0.29
415.96,-0.32
420.12,-0.35
424.32,-0.38
428.56,-0.41
432.85,-0.44
437.18,-0.47
441.55,-0.50
445.96,-0.53
450.42,-0.56
454.93,-0.59
459.48,-0.61
464.07,-0.64
468.71,-0.67
473.40,-0.69
478.13,-0.72
482.91,-0.74
487.74,-0.77
492.62,-0.79
497.55,-0.81
502.52,-0.84
507.55,-0.86
512.62,-0.88
517.75,-0.90
522.93,-0.92
528.16,-0.94
533.44,-0.96
538.77,-0.98
544.16,-1.00
549.60,-1.02
555.10,-1.04
560.65,-1.06
566.25,-1.07
571.92,-1.09
577.64,-1.11
583.41,-1.12
589.25,-1.14
595.14,-1.15
601.09,-1.17
607.10,-1.18
613.17,-1.19
619.30,-1.20
625.50,-1.22
631.75,-1.23
638.07,-1.24
644.45,-1.25
650.89,-1.26
657.40,-1.26
663.98,-1.27
670.62,-1.28
677.32,-1.28
684.10,-1.29
690.94,-1.30
697.85,-1.30
704.83,-1.30
711.87,-1.31
718.99,-1.31
726.18,-1.31
733.44,-1.31
740.78,-1.31
748.19,-1.30
755.67,-1.30
763.23,-1.30
770.86,-1.30
778.57,-1.30
786.35,-1.30
794.22,-1.29
802.16,-1.28
810.18,-1.25
818.28,-1.21
826.46,-1.16
834.73,-1.09
843.08,-1.02
851.51,-0.94
860.02,-0.87
868.62,-0.81
877.31,-0.75
886.08,-0.69
894.94,-0.64
903.89,-0.60
912.93,-0.55
922.06,-0.50
931.28,-0.44
940.59,-0.39
950.00,-0.33
959.50,-0.27
969.09,-0.21
978.78,-0.15
988.57,-0.08
998.46,-0.01
1008.44,0.06
1018.53,0.13
1028.71,0.21
1039.00,0.29
1049.39,0.36
1059.88,0.44
1070.48,0.52
1081.19,0.60
1092.00,0.68
1102.92,0.76
1113.95,0.84
1125.09,0.93
1136.34,1.01
1147.70,1.09
1159.18,1.17
1170.77,1.24
1182.48,1.32
1194.30,1.40
1206.25,1.47
1218.31,1.55
1230.49,1.62
1242.80,1.69
1255.22,1.76
1267.78,1.83
1280.45,1.90
1293.26,1.97
1306.19,2.03
1319.25,2.10
1332.45,2.16
1345.77,2.23
1359.23,2.29
1372.82,2.35
1386.55,2.41
1400.41,2.47
1414.42,2.53
1428.56,2.59
1442.85,2.65
1457.28,2.71
1471.85,2.77
1486.57,2.83
1501.43,2.89
1516.45,2.94
1531.61,3.00
1546.93,3.06
1562.40,3.12
1578.02,3.18
1593.80,3.24
1609.74,3.30
1625.84,3.36
1642.10,3.42
1658.52,3.48
1675.10,3.54
1691.85,3.60
1708.77,3.66
1725.86,3.72
1743.12,3.78
1760.55,3.84
1778.15,3.90
1795.94,3.96
1813.90,4.03
1832.03,4.09
1850.36,4.15
1868.86,4.21
1887.55,4.26
1906.42,4.32
1925.49,4.38
1944.74,4.44
1964.19,4.49
1983.83,4.55
2003.67,4.60
2023.71,4.66
2043.94,4.71
2064.38,4.76
2085.03,4.81
2105.88,4.85
2126.94,4.90
2148.20,4.94
2169.69,4.98
2191.38,5.01
2213.30,5.05
2235.43,5.08
2257.78,5.11
2280.36,5.13
2303.17,5.15
2326.20,5.17
2349.46,5.19
2372.95,5.20
2396.68,5.22
2420.65,5.24
2444.86,5.26
2469.31,5.29
2494.00,5.33
2518.94,5.37
2544.13,5.42
2569.57,5.48
2595.27,5.53
2621.22,5.58
2647.43,5.61
2673.90,5.64
2700.64,5.66
2727.65,5.68
2754.93,5.68
2782.48,5.68
2810.30,5.68
2838.40,5.68
2866.79,5.68
2895.46,5.67
2924.41,5.67
2953.65,5.66
2983.19,5.66
3013.02,5.66
3043.15,5.66
3073.58,5.66
3104.32,5.66
3135.36,5.67
3166.72,5.69
3198.38,5.71
3230.37,5.75
3262.67,5.80
3295.30,5.86
3328.25,5.93
3361.53,6.00
3395.15,6.07
3429.10,6.15
3463.39,6.22
3498.03,6.29
3533.01,6.36
3568.34,6.43
3604.02,6.50
3640.06,6.57
3676.46,6.64
3713.22,6.72
3750.36,6.80
3787.86,6.88
3825.74,6.97
3864.00,7.06
3902.64,7.14
3941.66,7.23
3981.08,7.31
4020.89,7.39
4061.10,7.46
4101.71,7.53
4142.73,7.60
4184.15,7.68
4226.00,7.76
4268.26,7.85
4310.94,7.95
4354.05,8.07
4397.59,8.20
4441.56,8.33
4485.98,8.46
4530.84,8.58
4576.15,8.70
4621.91,8.81
4668.13,8.90
4714.81,8.97
4761.96,9.02
4809.58,9.05
4857.67,9.06
4906.25,9.03
4955.31,8.99
5004.87,8.92
5054.91,8.81
5105.46,8.69
5156.52,8.55
5208.08,8.37
5260.16,8.18
5312.77,7.98
5365.89,7.76
5419.55,7.52
5473.75,7.28
5528.49,7.04
5583.77,6.79
5639.61,6.54
5696.00,6.30
5752.96,6.06
5810.49,5.84
5868.60,5.64
5927.28,5.46
5986.56,5.30
6046.42,5.17
6106.89,5.04
6167.96,4.94
6229.64,4.86
6291.93,4.80
6354.85,4.78
6418.40,4.77
6482.58,4.79
6547.41,4.84
6612.88,4.92
6679.01,5.04
6745.80,5.19
6813.26,5.37
6881.39,5.61
6950.21,5.89
7019.71,6.22
7089.91,6.60
7160.81,7.06
7232.41,7.57
7304.74,8.14
7377.79,8.78
7451.56,9.44
7526.08,10.12
7601.34,10.77
7677.35,11.31
7754.13,11.80
7831.67,12.00
7909.98,12.05
7989.08,11.87
8068.98,11.40
8149.67,10.77
8231.16,9.96
8313.47,9.03
8396.61,8.06
8480.57,7.05
8565.38,6.07
8651.03,5.14
8737.54,4.25
8824.92,3.44
8913.17,2.72
9002.30,2.02
9092.32,1.42
9183.25,0.88
9275.08,0.39
9367.83,-0.03
9461.51,-0.39
9556.12,-0.69
9651.68,-0.94
9748.20,-1.15
9845.68,-1.29
9944.14,-1.39
10043.58,-1.44
10144.02,-1.44
10245.46,-1.37
10347.91,-1.26
10451.39,-1.08
10555.91,-0.81
10661.46,-0.48
10768.08,-0.07
10875.76,0.43
10984.52,1.02
11094.36,1.66
11205.31,2.35
11317.36,3.05
11430.53,3.71
11544.84,4.24
11660.29,4.65
11776.89,4.92
11894.66,4.77
12013.60,4.56
12133.74,4.11
12255.08,3.42
12377.63,2.60
12501.41,1.71
12626.42,0.77
12752.68,-0.12
12880.21,-0.90
13009.01,-1.62
13139.10,-2.34
13270.49,-2.87
13403.20,-3.33
13537.23,-3.65
13672.60,-3.87
13809.33,-4.01
13947.42,-3.97
14086.90,-3.77
14227.77,-3.47
14370.04,-3.06
14513.74,-2.53
14658.88,-1.97
14805.47,-1.50
14953.52,-1.20
15103.06,-1.19
15254.09,-1.32
15406.63,-1.32
15560.70,-1.15
15716.30,-0.68
15873.47,-0.25
16032.20,0.11
16192.52,0.25
16354.45,0.27
16517.99,0.24
16683.17,0.20
16850.01,0.19
17018.51,0.20
17188.69,0.16
17360.58,-0.04
17534.18,-0.42
17709.53,-1.16
17886.62,-2.27
18065.49,-3.65
18246.14,-5.30
18428.60,-7.23
18612.89,-9.23
18799.02,-11.27
18987.01,-13.28
19176.88,-15.13
19368.65,-16.79
19562.33,-18.24
19757.96,-19.45
19955.54,-20.65
