frequency,raw
20.00,-0.41
20.20,-0.38
20.40,-0.36
20.61,-0.33
20.81,-0.27
21.02,-0.20
21.23,-0.14
21.44,-0.07
21.66,0.02
21.87,0.11
22.09,0.24
22.31,0.40
22.54,0.57
22.76,0.74
22.99,0.90
23.22,1.01
23.45,1.06
23.69,1.06
23.92,0.99
24.16,0.89
24.40,0.75
24.65,0.61
24.89,0.51
25.14,0.47
25.39,0.46
25.65,0.52
25.91,0.59
26.16,0.65
26.43,0.69
26.69,0.69
26.96,0.68
27.23,0.67
27.50,0.67
27.77,0.71
28.05,0.78
28.33,0.87
28.62,0.95
28.90,1.01
29.19,1.05
29.48,1.08
29.78,1.10
30.08,1.14
30.38,1.19
30.68,1.26
30.99,1.30
31.30,1.31
31.61,1.27
31.93,1.18
32.24,1.09
32.57,1.01
32.89,1.00
33.22,1.06
33.55,1.16
33.89,1.27
34.23,1.34
34.57,1.37
34.92,1.35
35.27,1.31
35.62,1.26
35.97,1.23
36.33,1.21
36.70,1.19
37.06,1.16
37.43,1.12
37.81,1.10
38.19,1.08
38.57,1.07
38.95,1.05
39.34,1.02
39.74,1.00
40.14,1.00
40.54,1.04
40.94,1.14
41.35,1.25
41.76,1.36
42.18,1.44
42.60,1.49
43.03,1.51
43.46,1.49
43.90,1.44
44.33,1.36
44.78,1.28
45.23,1.23
45.68,1.27
46.13,1.38
46.60,1.54
47.06,1.67
47.53,1.78
48.01,1.80
48.49,1.77
48.97,1.69
49.46,1.59
49.96,1.49
50.46,1.42
50.96,1.38
51.47,1.39
51.99,1.46
52.51,1.55
53.03,1.66
53.56,1.73
54.10,1.75
54.64,1.71
55.18,1.61
55.74,1.50
56.29,1.40
56.86,1.31
57.42,1.22
58.00,1.13
58.58,1.08
59.16,1.05
59.76,1.04
60.35,1.06
60.96,1.10
61.57,1.17
62.18,1.26
62.80,1.35
63.43,1.44
64.07,1.52
64.71,1.57
65.35,1.58
66.01,1.58
66.67,1.53
67.33,1.48
68.01,1.43
68.69,1.42
69.37,1.44
70.07,1.46
70.77,1.46
71.48,1.43
72.19,1.38
72.91,1.32
73.64,1.28
74.38,1.27
75.12,1.28
75.87,1.32
76.63,1.35
77.40,1.38
78.17,1.40
78.95,1.42
79.74,1.42
80.54,1.41
81.35,1.39
82.16,1.37
82.98,1.35
83.81,1.35
84.65,1.38
85.50,1.41
86.35,1.44
87.22,1.44
88.09,1.43
88.97,1.43
89.86,1.43
90.76,1.45
91.66,1.47
92.58,1.48
93.51,1.45
94.44,1.40
95.39,1.34
96.34,1.30
97.30,1.31
98.28,1.34
99.26,1.38
100.25,1.41
101.25,1.42
102.27,1.43
103.29,1.44
104.32,1.45
105.37,1.46
106.42,1.47
107.48,1.47
108.56,1.48
109.64,1.49
110.74,1.50
111.85,1.49
112.97,1.47
114.10,1.44
115.24,1.41
116.39,1.39
117.55,1.36
118.73,1.33
119.92,1.30
121.12,1.28
122.33,1.25
123.55,1.23
124.79,1.21
126.03,1.20
127.29,1.21
128.57,1.22
129.85,1.25
131.15,1.27
132.46,1.28
133.79,1.29
135.12,1.29
136.48,1.29
137.84,1.29
139.22,1.28
140.61,1.28
142.02,1.28
143.44,1.28
144.87,1.28
146.32,1.27
147.78,1.27
149.26,1.25
150.75,1.24
152.26,1.23
153.78,1.22
155.32,1.20
156.88,1.19
158.44,1.18
160.03,1.17
161.63,1.15
163.24,1.14
164.88,1.12
166.53,1.12
168.19,1.11
169.87,1.11
171.57,1.10
173.29,1.08
175.02,1.07
176.77,1.05
178.54,1.04
180.32,1.03
182.13,1.01
183.95,1.00
185.79,0.99
187.65,0.97
189.52,0.95
191.42,0.94
193.33,0.92
195.27,0.90
197.22,0.88
199.19,0.87
201.18,0.86
203.19,0.84
205.23,0.82
207.28,0.81
209.35,0.79
211.44,0.77
213.56,0.76
215.69,0.74
217.85,0.73
220.03,0.71
222.23,0.69
224.45,0.67
226.70,0.66
228.96,0.64
231.25,0.62
233.57,0.59
235.90,0.57
238.26,0.55
240.64,0.53
243.05,0.51
245.48,0.49
247.93,0.47
250.41,0.45
252.92,0.43
255.45,0.40
258.00,0.38
260.58,0.36
263.19,0.34
265.82,0.32
268.48,0.30
271.16,0.28
273.87,0.25
276.61,0.23
279.38,0.21
282.17,0.18
284.99,0.16
287.84,0.13
290.72,0.11
293.63,0.08
296.57,0.06
299.53,0.03
302.53,0.01
305.55,-0.02
308.61,-0.05
311.69,-0.07
314.81,-0.10
317.96,-0.12
321.14,-0.15
324.35,-0.17
327.59,-0.20
330.87,-0.23
334.18,-0.25
337.52,-0.28
340.90,-0.31
344.30,-0.33
347.75,-0.36
351.23,-0.39
354.74,-0.42
358.28,-0.45
361.87,-0.47
365.49,-0.50
369.14,-0.53
372.83,-0.56
376.56,-0.59
380.33,-0.62
384.13,-0.65
387.97,-0.68
391.85,-0.71
395.77,-0.74
399.73,-0.77
403.72,-0.79
407.76,-0.82
411.84,-0.85
415.96,-0.88
420.12,-0.90
424.32,-0.93
428.56,-0.96
432.85,-0.99
437.18,-1.02
441.55,-1.05
445.96,-1.08
450.42,-1.11
454.93,-1.14
459.48,-1.17
464.07,-1.20
468.71,-1.23
473.40,-1.26
478.13,-1.29
482.91,-1.31
487.74,-1.34
492.62,-1.37
497.55,-1.40
502.52,-1.43
507.55,-1.46
512.62,-1.49
517.75,-1.52
522.93,-1.55
528.16,-1.58
533.44,-1.62
538.77,-1.65
544.16,-1.67
549.60,-1.70
555.10,-1.72
560.65,-1.75
566.25,-1.77
571.92,-1.79
577.64,-1.81
583.41,-1.84
589.25,-1.86
595.14,-1.88
601.09,-1.90
607.10,-1.92
613.17,-1.94
619.30,-1.95
625.50,-1.97
631.75,-1.99
638.07,-2.01
644.45,-2.03
650.89,-2.06
657.40,-2.08
663.98,-2.11
670.62,-2.14
677.32,-2.16
684.10,-2.18
690.94,-2.20
697.85,-2.21
704.83,-2.21
711.87,-2.22
718.99,-2.21
726.18,-2.20
733.44,-2.19
740.78,-2.18
748.19,-2.16
755.67,-2.14
763.23,-2.11
770.86,-2.09
778.57,-2.05
786.35,-2.02
794.22,-1.98
802.16,-1.93
810.18,-1.89
818.28,-1.83
826.46,-1.77
834.73,-1.71
843.08,-1.64
851.51,-1.57
860.02,-1.49
868.62,-1.41
877.31,-1.33
886.08,-1.24
894.94,-1.15
903.89,-1.05
912.93,-0.95
922.06,-0.85
931.28,-0.75
940.59,-0.65
950.00,-0.54
959.50,-0.44
969.09,-0.33
978.78,-0.23
988.57,-0.12
998.46,-0.02
1008.44,0.09
1018.53,0.19
1028.71,0.30
1039.00,0.40
1049.39,0.51
1059.88,0.61
1070.48,0.71
1081.19,0.82
1092.00,0.92
1102.92,1.02
1113.95,1.12
1125.09,1.22
1136.34,1.31
1147.70,1.41
1159.18,1.50
1170.77,1.60
1182.48,1.69
1194.30,1.78
1206.25,1.88
1218.31,1.97
1230.49,2.06
1242.80,2.16
1255.22,2.25
1267.78,2.35
1280.45,2.45
1293.26,2.56
1306.19,2.66
1319.25,2.76
1332.45,2.86
1345.77,2.96
1359.23,3.06
1372.82,3.15
1386.55,3.25
1400.41,3.34
1414.42,3.43
1428.56,3.53
1442.85,3.62
1457.28,3.71
1471.85,3.80
1486.57,3.90
1501.43,3.99
1516.45,4.08
1531.61,4.18
1546.93,4.28
1562.40,4.37
1578.02,4.47
1593.80,4.57
1609.74,4.67
1625.84,4.77
1642.10,4.87
1658.52,4.97
1675.10,5.07
1691.85,5.17
1708.77,5.28
1725.86,5.38
1743.12,5.48
1760.55,5.58
1778.15,5.68
1795.94,5.78
1813.90,5.88
1832.03,5.98
1850.36,6.07
1868.86,6.16
1887.55,6.25
1906.42,6.33
1925.49,6.42
1944.74,6.49
1964.19,6.56
1983.83,6.62
2003.67,6.68
2023.71,6.73
2043.94,6.77
2064.38,6.80
2085.03,6.83
2105.88,6.85
2126.94,6.86
2148.20,6.87
2169.69,6.87
2191.38,6.87
2213.30,6.87
2235.43,6.86
2257.78,6.84
2280.36,6.81
2303.17,6.78
2326.20,6.73
2349.46,6.69
2372.95,6.64
2396.68,6.60
2420.65,6.57
2444.86,6.57
2469.31,6.57
2494.00,6.61
2518.94,6.65
2544.13,6.69
2569.57,6.72
2595.27,6.73
2621.22,6.73
2647.43,6.71
2673.90,6.66
2700.64,6.61
2727.65,6.55
2754.93,6.49
2782.48,6.43
2810.30,6.36
2838.40,6.29
2866.79,6.22
2895.46,6.14
2924.41,6.06
2953.65,5.98
2983.19,5.91
3013.02,5.83
3043.15,5.76
3073.58,5.69
3104.32,5.63
3135.36,5.57
3166.72,5.52
3198.38,5.47
3230.37,5.44
3262.67,5.41
3295.30,5.38
3328.25,5.37
3361.53,5.36
3395.15,5.35
3429.10,5.35
3463.39,5.35
3498.03,5.35
3533.01,5.36
3568.34,5.37
3604.02,5.39
3640.06,5.42
3676.46,5.46
3713.22,5.50
3750.36,5.55
3787.86,5.61
3825.74,5.67
3864.00,5.73
3902.64,5.80
3941.66,5.87
3981.08,5.95
4020.89,6.04
4061.10,6.14
4101.71,6.24
4142.73,6.36
4184.15,6.48
4226.00,6.62
4268.26,6.76
4310.94,6.91
4354.05,7.06
4397.59,7.22
4441.56,7.37
4485.98,7.52
4530.84,7.65
4576.15,7.75
4621.91,7.84
4668.13,7.89
4714.81,7.90
4761.96,7.87
4809.58,7.80
4857.67,7.70
4906.25,7.54
4955.31,7.36
5004.87,7.14
5054.91,6.88
5105.46,6.61
5156.52,6.31
5208.08,6.00
5260.16,5.68
5312.77,5.35
5365.89,5.02
5419.55,4.69
5473.75,4.38
5528.49,4.07
5583.77,3.79
5639.61,3.52
5696.00,3.25
5752.96,3.01
5810.49,2.77
5868.60,2.55
5927.28,2.34
5986.56,2.15
6046.42,1.99
6106.89,1.84
6167.96,1.71
6229.64,1.61
6291.93,1.54
6354.85,1.49
6418.40,1.46
6482.58,1.46
6547.41,1.50
6612.88,1.55
6679.01,1.65
6745.80,1.78
6813.26,1.94
6881.39,2.15
6950.21,2.41
7019.71,2.70
7089.91,3.05
7160.81,3.47
7232.41,3.94
7304.74,4.47
7377.79,5.07
7451.56,5.72
7526.08,6.40
7601.34,7.10
7677.35,7.76
7754.13,8.39
7831.67,8.85
7909.98,9.20
7989.08,9.37
8068.98,9.26
8149.67,8.99
8231.16,8.53
8313.47,7.88
8396.61,7.14
8480.57,6.32
8565.38,5.48
8651.03,4.65
8737.54,3.86
8824.92,3.13
8913.17,2.50
9002.30,1.91
9092.32,1.43
9183.25,1.04
9275.08,0.71
9367.83,0.47
9461.51,0.33
9556.12,0.28
9651.68,0.32
9748.20,0.45
9845.68,0.74
9944.14,1.13
10043.58,1.64
10144.02,2.25
10245.46,2.97
10347.91,3.69
10451.39,4.38
10555.91,4.91
10661.46,5.22
10768.08,5.29
10875.76,4.98
10984.52,4.30
11094.36,3.40
11205.31,2.25
11317.36,0.90
11430.53,-0.46
11544.84,-1.79
11660.29,-3.02
11776.89,-4.12
11894.66,-4.66
12013.60,-5.10
12133.74,-5.14
12255.08,-4.79
12377.63,-4.25
12501.41,-3.63
12626.42,-2.99
12752.68,-2.39
12880.21,-1.85
13009.01,-1.34
13139.10,-0.83
13270.49,-0.48
13403.20,-0.21
13537.23,-0.28
13672.60,-0.60
13809.33,-1.16
13947.42,-2.16
14086.90,-3.41
14227.77,-4.81
14370.04,-6.28
14513.74,-7.83
14658.88,-9.29
14805.47,-10.64
14953.52,-11.83
15103.06,-12.75
15254.09,-13.55
15406.63,-13.94
15560.70,-14.19
15716.30,-14.24
15873.47,-14.19
16032.20,-14.15
16192.52,-14.30
16354.45,-14.77
16517.99,-15.49
16683.17,-16.76
16850.01,-18.34
17018.51,-20.18
17188.69,-22.32
17360.58,-24.57
17534.18,-26.88
17709.53,-29.20
17886.62,-31.44
18065.49,-33.60
18246.14,-35.65
18428.60,-37.52
18612.89,-39.28
18799.02,-40.90
18987.01,-42.35
19176.88,-43.49
19368.65,-44.34
19562.33,-44.88
19757.96,-45.16
19955.54,-45.44
