frequency,raw
20.00,7.24
20.20,7.28
20.40,7.31
20.61,7.34
20.81,7.38
21.02,7.41
21.23,7.44
21.44,7.48
21.66,7.52
21.87,7.57
22.09,7.63
22.31,7.68
22.54,7.74
22.76,7.79
22.99,7.83
23.22,7.85
23.45,7.85
23.69,7.82
23.92,7.78
24.16,7.72
24.40,7.66
24.65,7.61
24.89,7.58
25.14,7.57
25.39,7.59
25.65,7.63
25.91,7.68
26.16,7.72
26.43,7.74
26.69,7.75
26.96,7.74
27.23,7.73
27.50,7.73
27.77,7.73
28.05,7.75
28.33,7.78
28.62,7.81
28.90,7.84
29.19,7.86
29.48,7.88
29.78,7.90
30.08,7.92
30.38,7.94
30.68,7.97
30.99,7.99
31.30,8.01
31.61,8.03
31.93,8.03
32.24,8.03
32.57,8.03
32.89,8.04
33.22,8.04
33.55,8.04
33.89,8.05
34.23,8.06
34.57,8.07
34.92,8.09
35.27,8.10
35.62,8.10
35.97,8.11
36.33,8.11
36.70,8.11
37.06,8.10
37.43,8.10
37.81,8.09
38.19,8.09
38.57,8.08
38.95,8.08
39.34,8.07
39.74,8.07
40.14,8.07
40.54,8.07
40.94,8.06
41.35,8.06
41.76,8.06
42.18,8.06
42.60,8.05
43.03,8.05
43.46,8.05
43.90,8.05
44.33,8.04
44.78,8.04
45.23,8.04
45.68,8.03
46.13,8.03
46.60,8.03
47.06,8.02
47.53,8.02
48.01,8.02
48.49,8.02
48.97,8.02
49.46,8.01
49.96,8.01
50.46,8.01
50.96,8.00
51.47,7.99
51.99,7.98
52.51,7.97
53.03,7.96
53.56,7.95
54.10,7.94
54.64,7.94
55.18,7.93
55.74,7.92
56.29,7.92
56.86,7.91
57.42,7.90
58.00,7.90
58.58,7.89
59.16,7.89
59.76,7.88
60.35,7.87
60.96,7.85
61.57,7.84
62.18,7.82
62.80,7.81
63.43,7.79
64.07,7.78
64.71,7.77
65.35,7.75
66.01,7.74
66.67,7.73
67.33,7.71
68.01,7.70
68.69,7.69
69.37,7.68
70.07,7.68
70.77,7.66
71.48,7.65
72.19,7.63
72.91,7.60
73.64,7.58
74.38,7.55
75.12,7.53
75.87,7.51
76.63,7.49
77.40,7.48
78.17,7.46
78.95,7.44
79.74,7.42
80.54,7.39
81.35,7.36
82.16,7.33
82.98,7.30
83.81,7.26
84.65,7.24
85.50,7.22
86.35,7.20
87.22,7.17
88.09,7.13
88.97,7.08
89.86,7.02
90.76,6.98
91.66,6.96
92.58,6.97
93.51,7.00
94.44,7.05
95.39,7.12
96.34,7.23
97.30,7.36
98.28,7.49
99.26,7.58
100.25,7.58
101.25,7.47
102.27,7.28
103.29,7.08
104.32,6.89
105.37,6.76
106.42,6.66
107.48,6.60
108.56,6.56
109.64,6.53
110.74,6.51
111.85,6.47
112.97,6.44
114.10,6.40
115.24,6.36
116.39,6.33
117.55,6.29
118.73,6.26
119.92,6.22
121.12,6.18
122.33,6.14
123.55,6.11
124.79,6.07
126.03,6.04
127.29,6.00
128.57,5.96
129.85,5.91
131.15,5.87
132.46,5.82
133.79,5.76
135.12,5.71
136.48,5.67
137.84,5.62
139.22,5.57
140.61,5.53
142.02,5.48
143.44,5.43
144.87,5.38
146.32,5.33
147.78,5.29
149.26,5.25
150.75,5.22
152.26,5.20
153.78,5.18
155.32,5.16
156.88,5.15
158.44,5.14
160.03,5.13
161.63,5.11
163.24,5.09
164.88,5.07
166.53,5.03
168.19,5.00
169.87,4.95
171.57,4.90
173.29,4.85
175.02,4.79
176.77,4.74
178.54,4.68
180.32,4.62
182.13,4.56
183.95,4.50
185.79,4.44
187.65,4.38
189.52,4.32
191.42,4.26
193.33,4.20
195.27,4.13
197.22,4.06
199.19,3.99
201.18,3.92
203.19,3.86
205.23,3.81
207.28,3.75
209.35,3.69
211.44,3.63
213.56,3.57
215.69,3.50
217.85,3.44
220.03,3.37
222.23,3.31
224.45,3.24
226.70,3.17
228.96,3.10
231.25,3.03
233.57,2.96
235.90,2.89
238.26,2.82
240.64,2.75
243.05,2.68
245.48,2.61
247.93,2.54
250.41,2.47
252.92,2.39
255.45,2.32
258.00,2.24
260.58,2.17
263.19,2.09
265.82,2.02
268.48,1.95
271.16,1.87
273.87,1.79
276.61,1.72
279.38,1.64
282.17,1.56
284.99,1.49
287.84,1.41
290.72,1.32
293.63,1.24
296.57,1.16
299.53,1.07
302.53,0.98
305.55,0.90
308.61,0.82
311.69,0.74
314.81,0.66
317.96,0.58
321.14,0.51
324.35,0.44
327.59,0.38
330.87,0.31
334.18,0.25
337.52,0.20
340.90,0.14
344.30,0.08
347.75,0.02
351.23,-0.04
354.74,-0.11
358.28,-0.18
361.87,-0.25
365.49,-0.32
369.14,-0.38
372.83,-0.45
376.56,-0.52
380.33,-0.58
384.13,-0.64
387.97,-0.69
391.85,-0.74
395.77,-0.79
399.73,-0.84
403.72,-0.88
407.76,-0.91
411.84,-0.95
415.96,-0.98
420.12,-1.01
424.32,-1.03
428.56,-1.06
432.85,-1.07
437.18,-1.09
441.55,-1.10
445.96,-1.11
450.42,-1.12
454.93,-1.13
459.48,-1.13
464.07,-1.13
468.71,-1.13
473.40,-1.12
478.13,-1.11
482.91,-1.11
487.74,-1.10
492.62,-1.10
497.55,-1.09
502.52,-1.09
507.55,-1.08
512.62,-1.08
517.75,-1.08
522.93,-1.07
528.16,-1.07
533.44,-1.07
538.77,-1.06
544.16,-1.06
549.60,-1.06
555.10,-1.05
560.65,-1.05
566.25,-1.05
571.92,-1.05
577.64,-1.05
583.41,-1.05
589.25,-1.05
595.14,-1.05
601.09,-1.05
607.10,-1.04
613.17,-1.04
619.30,-1.05
625.50,-1.05
631.75,-1.05
638.07,-1.06
644.45,-1.06
650.89,-1.07
657.40,-1.07
663.98,-1.07
670.62,-1.07
677.32,-1.07
684.10,-1.07
690.94,-1.07
697.85,-1.07
704.83,-1.07
711.87,-1.07
718.99,-1.06
726.18,-1.05
733.44,-1.04
740.78,-1.04
748.19,-1.03
755.67,-1.04
763.23,-1.04
770.86,-1.05
778.57,-1.06
786.35,-1.06
794.22,-1.06
802.16,-1.05
810.18,-1.03
818.28,-1.01
826.46,-0.99
834.73,-0.96
843.08,-0.93
851.51,-0.90
860.02,-0.87
868.62,-0.83
877.31,-0.79
886.08,-0.75
894.94,-0.70
903.89,-0.66
912.93,-0.61
922.06,-0.55
931.28,-0.50
940.59,-0.44
950.00,-0.37
959.50,-0.31
969.09,-0.24
978.78,-0.17
988.57,-0.09
998.46,-0.01
1008.44,0.07
1018.53,0.15
1028.71,0.24
1039.00,0.32
1049.39,0.41
1059.88,0.50
1070.48,0.60
1081.19,0.69
1092.00,0.78
1102.92,0.88
1113.95,0.97
1125.09,1.07
1136.34,1.17
1147.70,1.27
1159.18,1.38
1170.77,1.48
1182.48,1.59
1194.30,1.69
1206.25,1.79
1218.31,1.90
1230.49,2.00
1242.80,2.10
1255.22,2.21
1267.78,2.31
1280.45,2.41
1293.26,2.52
1306.19,2.62
1319.25,2.72
1332.45,2.82
1345.77,2.92
1359.23,3.02
1372.82,3.12
1386.55,3.21
1400.41,3.31
1414.42,3.41
1428.56,3.50
1442.85,3.60
1457.28,3.70
1471.85,3.79
1486.57,3.89
1501.43,3.99
1516.45,4.08
1531.61,4.18
1546.93,4.28
1562.40,4.38
1578.02,4.48
1593.80,4.58
1609.74,4.68
1625.84,4.79
1642.10,4.90
1658.52,5.01
1675.10,5.12
1691.85,5.24
1708.77,5.37
1725.86,5.50
1743.12,5.63
1760.55,5.78
1778.15,5.92
1795.94,6.07
1813.90,6.22
1832.03,6.36
1850.36,6.50
1868.86,6.64
1887.55,6.78
1906.42,6.91
1925.49,7.04
1944.74,7.17
1964.19,7.30
1983.83,7.42
2003.67,7.54
2023.71,7.65
2043.94,7.76
2064.38,7.87
2085.03,7.96
2105.88,8.06
2126.94,8.14
2148.20,8.22
2169.69,8.29
2191.38,8.36
2213.30,8.41
2235.43,8.46
2257.78,8.50
2280.36,8.53
2303.17,8.55
2326.20,8.57
2349.46,8.57
2372.95,8.57
2396.68,8.56
2420.65,8.55
2444.86,8.52
2469.31,8.50
2494.00,8.46
2518.94,8.42
2544.13,8.38
2569.57,8.33
2595.27,8.29
2621.22,8.24
2647.43,8.19
2673.90,8.14
2700.64,8.09
2727.65,8.05
2754.93,8.00
2782.48,7.94
2810.30,7.89
2838.40,7.84
2866.79,7.79
2895.46,7.75
2924.41,7.71
2953.65,7.68
2983.19,7.65
3013.02,7.63
3043.15,7.61
3073.58,7.59
3104.32,7.57
3135.36,7.55
3166.72,7.54
3198.38,7.54
3230.37,7.55
3262.67,7.56
3295.30,7.58
3328.25,7.60
3361.53,7.63
3395.15,7.65
3429.10,7.66
3463.39,7.67
3498.03,7.66
3533.01,7.64
3568.34,7.59
3604.02,7.53
3640.06,7.45
3676.46,7.33
3713.22,7.18
3750.36,7.01
3787.86,6.77
3825.74,6.52
3864.00,6.20
3902.64,5.81
3941.66,5.40
3981.08,4.92
4020.89,4.39
4061.10,3.82
4101.71,3.19
4142.73,2.55
4184.15,1.91
4226.00,1.32
4268.26,0.79
4310.94,0.37
4354.05,0.20
4397.59,0.25
4441.56,0.43
4485.98,0.89
4530.84,1.46
4576.15,2.12
4621.91,2.81
4668.13,3.49
4714.81,4.14
4761.96,4.74
4809.58,5.27
4857.67,5.71
4906.25,6.04
4955.31,6.29
5004.87,6.44
5054.91,6.46
5105.46,6.42
5156.52,6.30
5208.08,6.10
5260.16,5.84
5312.77,5.54
5365.89,5.22
5419.55,4.87
5473.75,4.51
5528.49,4.16
5583.77,3.81
5639.61,3.47
5696.00,3.14
5752.96,2.84
5810.49,2.56
5868.60,2.31
5927.28,2.08
5986.56,1.87
6046.42,1.70
6106.89,1.56
6167.96,1.45
6229.64,1.37
6291.93,1.33
6354.85,1.33
6418.40,1.36
6482.58,1.43
6547.41,1.55
6612.88,1.70
6679.01,1.90
6745.80,2.16
6813.26,2.46
6881.39,2.83
6950.21,3.28
7019.71,3.78
7089.91,4.36
7160.81,5.04
7232.41,5.79
7304.74,6.60
7377.79,7.49
7451.56,8.41
7526.08,9.32
7601.34,10.20
7677.35,10.94
7754.13,11.62
7831.67,12.01
7909.98,12.27
7989.08,12.32
8068.98,12.13
8149.67,11.82
8231.16,11.38
8313.47,10.85
8396.61,10.27
8480.57,9.64
8565.38,8.96
8651.03,8.24
8737.54,7.48
8824.92,6.67
8913.17,5.80
9002.30,4.92
9092.32,4.02
9183.25,3.12
9275.08,2.26
9367.83,1.44
9461.51,0.70
9556.12,0.05
9651.68,-0.51
9748.20,-0.99
9845.68,-1.30
9944.14,-1.52
10043.58,-1.62
10144.02,-1.62
10245.46,-1.49
10347.91,-1.33
10451.39,-1.15
10555.91,-1.06
10661.46,-1.13
10768.08,-1.41
10875.76,-2.06
10984.52,-3.08
11094.36,-4.28
11205.31,-5.62
11317.36,-6.63
11430.53,-7.30
11544.84,-7.35
11660.29,-7.06
11776.89,-6.72
11894.66,-6.41
12013.60,-6.12
12133.74,-5.96
12255.08,-5.92
12377.63,-5.96
12501.41,-6.04
12626.42,-6.16
12752.68,-6.24
12880.21,-6.20
13009.01,-6.09
13139.10,-5.99
13270.49,-5.67
13403.20,-5.29
13537.23,-4.87
13672.60,-4.52
13809.33,-4.23
13947.42,-4.09
14086.90,-3.99
14227.77,-3.92
14370.04,-3.76
14513.74,-3.48
14658.88,-2.95
14805.47,-2.36
14953.52,-1.65
15103.06,-1.00
15254.09,-0.39
15406.63,-0.09
15560.70,0.03
15716.30,-0.11
15873.47,-0.57
16032.20,-1.18
16192.52,-2.00
16354.45,-2.90
16517.99,-3.84
16683.17,-4.76
16850.01,-5.59
17018.51,-6.33
17188.69,-6.85
17360.58,-7.16
17534.18,-7.30
17709.53,-7.24
17886.62,-7.07
18065.49,-6.88
18246.14,-6.69
18428.60,-6.59
18612.89,-6.54
18799.02,-6.52
18987.01,-6.52
19176.88,-6.49
19368.65,-6.46
19562.33,-6.47
19757.96,-6.54
19955.54,-6.61
