frequency,raw
20.00,2.89
20.20,2.95
20.40,3.00
20.61,3.05
20.81,3.11
21.02,3.16
21.23,3.21
21.44,3.25
21.66,3.30
21.87,3.35
22.09,3.39
22.31,3.44
22.54,3.48
22.76,3.52
22.99,3.57
23.22,3.61
23.45,3.65
23.69,3.69
23.92,3.73
24.16,3.77
24.40,3.81
24.65,3.85
24.89,3.89
25.14,3.94
25.39,3.98
25.65,4.02
25.91,4.06
26.16,4.10
26.43,4.14
26.69,4.18
26.96,4.21
27.23,4.24
27.50,4.27
27.77,4.30
28.05,4.33
28.33,4.36
28.62,4.38
28.90,4.41
29.19,4.44
29.48,4.47
29.78,4.50
30.08,4.52
30.38,4.55
30.68,4.58
30.99,4.60
31.30,4.63
31.61,4.66
31.93,4.68
32.24,4.70
32.57,4.73
32.89,4.75
33.22,4.77
33.55,4.79
33.89,4.81
34.23,4.83
34.57,4.85
34.92,4.87
35.27,4.89
35.62,4.91
35.97,4.93
36.33,4.94
36.70,4.96
37.06,4.98
37.43,4.99
37.81,5.01
38.19,5.02
38.57,5.03
38.95,5.05
39.34,5.06
39.74,5.07
40.14,5.08
40.54,5.09
40.94,5.10
41.35,5.11
41.76,5.12
42.18,5.13
42.60,5.14
43.03,5.15
43.46,5.16
43.90,5.16
44.33,5.16
44.78,5.16
45.23,5.16
45.68,5.16
46.13,5.17
46.60,5.17
47.06,5.17
47.53,5.17
48.01,5.17
48.49,5.17
48.97,5.16
49.46,5.16
49.96,5.16
50.46,5.16
50.96,5.16
51.47,5.16
51.99,5.16
52.51,5.16
53.03,5.16
53.56,5.16
54.10,5.16
54.64,5.15
55.18,5.14
55.74,5.13
56.29,5.12
56.86,5.12
57.42,5.11
58.00,5.11
58.58,5.10
59.16,5.09
59.76,5.09
60.35,5.08
60.96,5.07
61.57,5.05
62.18,5.04
62.80,5.02
63.43,5.01
64.07,5.00
64.71,4.99
65.35,4.97
66.01,4.96
66.67,4.94
67.33,4.93
68.01,4.91
68.69,4.90
69.37,4.88
70.07,4.86
70.77,4.85
71.48,4.83
72.19,4.81
72.91,4.79
73.64,4.77
74.38,4.75
75.12,4.73
75.87,4.70
76.63,4.68
77.40,4.66
78.17,4.63
78.95,4.61
79.74,4.58
80.54,4.55
81.35,4.53
82.16,4.50
82.98,4.48
83.81,4.45
84.65,4.43
85.50,4.40
86.35,4.37
87.22,4.34
88.09,4.32
88.97,4.29
89.86,4.26
90.76,4.23
91.66,4.20
92.58,4.17
93.51,4.14
94.44,4.11
95.39,4.08
96.34,4.04
97.30,4.01
98.28,3.97
99.26,3.94
100.25,3.90
101.25,3.88
102.27,3.85
103.29,3.82
104.32,3.79
105.37,3.76
106.42,3.73
107.48,3.70
108.56,3.66
109.64,3.62
110.74,3.59
111.85,3.55
112.97,3.51
114.10,3.48
115.24,3.45
116.39,3.41
117.55,3.38
118.73,3.34
119.92,3.31
121.12,3.27
122.33,3.23
123.55,3.19
124.79,3.16
126.03,3.12
127.29,3.08
128.57,3.04
129.85,3.01
131.15,2.97
132.46,2.93
133.79,2.90
135.12,2.86
136.48,2.82
137.84,2.79
139.22,2.75
140.61,2.71
142.02,2.67
143.44,2.63
144.87,2.60
146.32,2.56
147.78,2.52
149.26,2.48
150.75,2.44
152.26,2.40
153.78,2.36
155.32,2.32
156.88,2.28
158.44,2.24
160.03,2.20
161.63,2.17
163.24,2.13
164.88,2.09
166.53,2.05
168.19,2.01
169.87,1.97
171.57,1.93
173.29,1.89
175.02,1.85
176.77,1.81
178.54,1.78
180.32,1.74
182.13,1.70
183.95,1.66
185.79,1.62
187.65,1.58
189.52,1.54
191.42,1.50
193.33,1.46
195.27,1.42
197.22,1.38
199.19,1.34
201.18,1.31
203.19,1.27
205.23,1.23
207.28,1.19
209.35,1.15
211.44,1.11
213.56,1.07
215.69,1.03
217.85,0.99
220.03,0.95
222.23,0.91
224.45,0.87
226.70,0.83
228.96,0.78
231.25,0.74
233.57,0.70
235.90,0.66
238.26,0.62
240.64,0.58
243.05,0.54
245.48,0.51
247.93,0.47
250.41,0.45
252.92,0.43
255.45,0.41
258.00,0.41
260.58,0.41
263.19,0.41
265.82,0.42
268.48,0.42
271.16,0.42
273.87,0.41
276.61,0.40
279.38,0.39
282.17,0.36
284.99,0.34
287.84,0.31
290.72,0.28
293.63,0.25
296.57,0.22
299.53,0.19
302.53,0.16
305.55,0.13
308.61,0.10
311.69,0.07
314.81,0.04
317.96,0.01
321.14,-0.02
324.35,-0.05
327.59,-0.07
330.87,-0.10
334.18,-0.13
337.52,-0.16
340.90,-0.18
344.30,-0.21
347.75,-0.24
351.23,-0.26
354.74,-0.29
358.28,-0.31
361.87,-0.33
365.49,-0.36
369.14,-0.38
372.83,-0.41
376.56,-0.43
380.33,-0.45
384.13,-0.47
387.97,-0.49
391.85,-0.52
395.77,-0.54
399.73,-0.56
403.72,-0.58
407.76,-0.60
411.84,-0.62
415.96,-0.64
420.12,-0.65
424.32,-0.67
428.56,-0.69
432.85,-0.71
437.18,-0.73
441.55,-0.74
445.96,-0.76
450.42,-0.77
454.93,-0.79
459.48,-0.80
464.07,-0.82
468.71,-0.84
473.40,-0.85
478.13,-0.87
482.91,-0.88
487.74,-0.89
492.62,-0.91
497.55,-0.92
502.52,-0.93
507.55,-0.94
512.62,-0.95
517.75,-0.96
522.93,-0.97
528.16,-0.98
533.44,-0.99
538.77,-0.99
544.16,-1.00
549.60,-1.01
555.10,-1.02
560.65,-1.02
566.25,-1.03
571.92,-1.03
577.64,-1.04
583.41,-1.04
589.25,-1.05
595.14,-1.05
601.09,-1.06
607.10,-1.06
613.17,-1.06
619.30,-1.06
625.50,-1.06
631.75,-1.05
638.07,-1.05
644.45,-1.04
650.89,-1.04
657.40,-1.03
663.98,-1.02
670.62,-1.01
677.32,-0.99
684.10,-0.98
690.94,-0.96
697.85,-0.95
704.83,-0.93
711.87,-0.92
718.99,-0.90
726.18,-0.90
733.44,-0.91
740.78,-0.92
748.19,-0.95
755.67,-0.98
763.23,-1.02
770.86,-1.07
778.57,-1.11
786.35,-1.15
794.22,-1.18
802.16,-1.19
810.18,-1.20
818.28,-1.19
826.46,-1.17
834.73,-1.14
843.08,-1.11
851.51,-1.07
860.02,-1.03
868.62,-0.99
877.31,-0.94
886.08,-0.89
894.94,-0.84
903.89,-0.78
912.93,-0.72
922.06,-0.66
931.28,-0.60
940.59,-0.53
950.00,-0.45
959.50,-0.38
969.09,-0.29
978.78,-0.21
988.57,-0.11
998.46,-0.02
1008.44,0.09
1018.53,0.20
1028.71,0.31
1039.00,0.42
1049.39,0.54
1059.88,0.65
1070.48,0.77
1081.19,0.89
1092.00,1.00
1102.92,1.10
1113.95,1.21
1125.09,1.31
1136.34,1.41
1147.70,1.50
1159.18,1.59
1170.77,1.68
1182.48,1.77
1194.30,1.85
1206.25,1.93
1218.31,2.01
1230.49,2.09
1242.80,2.17
1255.22,2.25
1267.78,2.32
1280.45,2.40
1293.26,2.47
1306.19,2.54
1319.25,2.61
1332.45,2.68
1345.77,2.76
1359.23,2.83
1372.82,2.89
1386.55,2.96
1400.41,3.03
1414.42,3.10
1428.56,3.17
1442.85,3.24
1457.28,3.31
1471.85,3.38
1486.57,3.44
1501.43,3.51
1516.45,3.58
1531.61,3.65
1546.93,3.73
1562.40,3.80
1578.02,3.87
1593.80,3.94
1609.74,4.02
1625.84,4.09
1642.10,4.17
1658.52,4.24
1675.10,4.32
1691.85,4.40
1708.77,4.48
1725.86,4.56
1743.12,4.64
1760.55,4.73
1778.15,4.81
1795.94,4.90
1813.90,4.98
1832.03,5.07
1850.36,5.16
1868.86,5.25
1887.55,5.35
1906.42,5.44
1925.49,5.53
1944.74,5.63
1964.19,5.73
1983.83,5.83
2003.67,5.93
2023.71,6.03
2043.94,6.13
2064.38,6.23
2085.03,6.33
2105.88,6.44
2126.94,6.54
2148.20,6.65
2169.69,6.75
2191.38,6.86
2213.30,6.96
2235.43,7.07
2257.78,7.18
2280.36,7.28
2303.17,7.39
2326.20,7.49
2349.46,7.60
2372.95,7.70
2396.68,7.80
2420.65,7.90
2444.86,8.00
2469.31,8.10
2494.00,8.19
2518.94,8.28
2544.13,8.37
2569.57,8.46
2595.27,8.54
2621.22,8.62
2647.43,8.69
2673.90,8.76
2700.64,8.83
2727.65,8.89
2754.93,8.94
2782.48,8.99
2810.30,9.04
2838.40,9.08
2866.79,9.11
2895.46,9.14
2924.41,9.16
2953.65,9.18
2983.19,9.18
3013.02,9.19
3043.15,9.19
3073.58,9.18
3104.32,9.16
3135.36,9.14
3166.72,9.11
3198.38,9.08
3230.37,9.04
3262.67,9.00
3295.30,8.95
3328.25,8.90
3361.53,8.85
3395.15,8.78
3429.10,8.72
3463.39,8.65
3498.03,8.58
3533.01,8.51
3568.34,8.43
3604.02,8.35
3640.06,8.26
3676.46,8.18
3713.22,8.09
3750.36,8.00
3787.86,7.91
3825.74,7.81
3864.00,7.71
3902.64,7.61
3941.66,7.51
3981.08,7.41
4020.89,7.30
4061.10,7.19
4101.71,7.08
4142.73,6.97
4184.15,6.85
4226.00,6.73
4268.26,6.61
4310.94,6.48
4354.05,6.35
4397.59,6.22
4441.56,6.08
4485.98,5.94
4530.84,5.79
4576.15,5.64
4621.91,5.49
4668.13,5.33
4714.81,5.16
4761.96,4.99
4809.58,4.82
4857.67,4.64
4906.25,4.45
4955.31,4.27
5004.87,4.07
5054.91,3.87
5105.46,3.67
5156.52,3.46
5208.08,3.24
5260.16,3.01
5312.77,2.79
5365.89,2.56
5419.55,2.34
5473.75,2.14
5528.49,1.97
5583.77,1.83
5639.61,1.71
5696.00,1.58
5752.96,1.44
5810.49,1.28
5868.60,1.11
5927.28,0.93
5986.56,0.75
6046.42,0.57
6106.89,0.39
6167.96,0.23
6229.64,0.07
6291.93,-0.09
6354.85,-0.23
6418.40,-0.37
6482.58,-0.49
6547.41,-0.61
6612.88,-0.71
6679.01,-0.80
6745.80,-0.88
6813.26,-0.94
6881.39,-0.99
6950.21,-1.02
7019.71,-1.03
7089.91,-1.03
7160.81,-1.00
7232.41,-0.96
7304.74,-0.90
7377.79,-0.81
7451.56,-0.69
7526.08,-0.55
7601.34,-0.39
7677.35,-0.19
7754.13,0.03
7831.67,0.31
7909.98,0.60
7989.08,0.94
8068.98,1.32
8149.67,1.73
8231.16,2.17
8313.47,2.63
8396.61,3.09
8480.57,3.55
8565.38,3.95
8651.03,4.30
8737.54,4.58
8824.92,4.74
8913.17,4.77
9002.30,4.74
9092.32,4.56
9183.25,4.30
9275.08,3.99
9367.83,3.64
9461.51,3.27
9556.12,2.89
9651.68,2.50
9748.20,2.10
9845.68,1.68
9944.14,1.24
10043.58,0.78
10144.02,0.32
10245.46,-0.14
10347.91,-0.59
10451.39,-1.02
10555.91,-1.41
10661.46,-1.77
10768.08,-2.08
10875.76,-2.33
10984.52,-2.52
11094.36,-2.66
11205.31,-2.73
11317.36,-2.71
11430.53,-2.65
11544.84,-2.51
11660.29,-2.32
11776.89,-2.10
11894.66,-1.83
12013.60,-1.57
12133.74,-1.33
12255.08,-1.18
12377.63,-1.09
12501.41,-1.12
12626.42,-1.35
12752.68,-1.75
12880.21,-2.36
13009.01,-3.08
13139.10,-3.80
13270.49,-4.70
13403.20,-5.65
13537.23,-6.63
13672.60,-7.59
13809.33,-8.54
13947.42,-9.42
14086.90,-10.25
14227.77,-11.04
14370.04,-11.78
14513.74,-12.46
14658.88,-13.06
14805.47,-13.61
14953.52,-14.10
15103.06,-14.54
15254.09,-14.94
15406.63,-15.27
15560.70,-15.57
15716.30,-15.83
15873.47,-16.05
16032.20,-16.26
16192.52,-16.45
16354.45,-16.65
16517.99,-16.86
16683.17,-17.12
16850.01,-17.44
17018.51,-17.82
17188.69,-18.30
17360.58,-18.85
17534.18,-19.46
17709.53,-20.11
17886.62,-20.70
18065.49,-21.16
18246.14,-21.46
18428.60,-21.39
18612.89,-21.20
18799.02,-20.94
18987.01,-20.72
19176.88,-20.71
19368.65,-20.86
19562.33,-21.13
19757.96,-21.49
19955.54,-21.84
