frequency,raw
20.00,13.80
20.20,13.81
20.40,13.83
20.61,13.84
20.81,13.88
21.02,13.92
21.23,13.96
21.44,14.00
21.66,14.05
21.87,14.11
22.09,14.16
22.31,14.22
22.54,14.28
22.76,14.33
22.99,14.39
23.22,14.43
23.45,14.48
23.69,14.51
23.92,14.55
24.16,14.58
24.40,14.61
24.65,14.65
24.89,14.68
25.14,14.71
25.39,14.74
25.65,14.76
25.91,14.79
26.16,14.81
26.43,14.83
26.69,14.85
26.96,14.87
27.23,14.89
27.50,14.91
27.77,14.94
28.05,14.97
28.33,15.00
28.62,15.03
28.90,15.06
29.19,15.08
29.48,15.10
29.78,15.12
30.08,15.14
30.38,15.16
30.68,15.18
30.99,15.20
31.30,15.21
31.61,15.23
31.93,15.25
32.24,15.27
32.57,15.29
32.89,15.30
33.22,15.32
33.55,15.33
33.89,15.35
34.23,15.36
34.57,15.37
34.92,15.39
35.27,15.40
35.62,15.42
35.97,15.43
36.33,15.43
36.70,15.44
37.06,15.45
37.43,15.46
37.81,15.47
38.19,15.47
38.57,15.48
38.95,15.48
39.34,15.48
39.74,15.48
40.14,15.47
40.54,15.47
40.94,15.48
41.35,15.48
41.76,15.48
42.18,15.48
42.60,15.48
43.03,15.48
43.46,15.47
43.90,15.47
44.33,15.46
44.78,15.45
45.23,15.45
45.68,15.44
46.13,15.43
46.60,15.42
47.06,15.42
47.53,15.40
48.01,15.39
48.49,15.38
48.97,15.36
49.46,15.34
49.96,15.33
50.46,15.31
50.96,15.30
51.47,15.29
51.99,15.27
52.51,15.26
53.03,15.24
53.56,15.22
54.10,15.20
54.64,15.18
55.18,15.16
55.74,15.13
56.29,15.11
56.86,15.08
57.42,15.05
58.00,15.03
58.58,15.00
59.16,14.97
59.76,14.94
60.35,14.91
60.96,14.88
61.57,14.85
62.18,14.81
62.80,14.78
63.43,14.74
64.07,14.71
64.71,14.67
65.35,14.63
66.01,14.60
66.67,14.56
67.33,14.52
68.01,14.48
68.69,14.43
69.37,14.39
70.07,14.34
70.77,14.29
71.48,14.25
72.19,14.20
72.91,14.15
73.64,14.10
74.38,14.05
75.12,14.00
75.87,13.95
76.63,13.90
77.40,13.85
78.17,13.79
78.95,13.74
79.74,13.68
80.54,13.62
81.35,13.56
82.16,13.50
82.98,13.44
83.81,13.38
84.65,13.32
85.50,13.25
86.35,13.18
87.22,13.11
88.09,13.05
88.97,12.98
89.86,12.91
90.76,12.84
91.66,12.77
92.58,12.70
93.51,12.62
94.44,12.55
95.39,12.48
96.34,12.40
97.30,12.33
98.28,12.25
99.26,12.17
100.25,12.09
101.25,12.01
102.27,11.92
103.29,11.84
104.32,11.75
105.37,11.66
106.42,11.57
107.48,11.48
108.56,11.40
109.64,11.30
110.74,11.21
111.85,11.12
112.97,11.02
114.10,10.93
115.24,10.83
116.39,10.74
117.55,10.64
118.73,10.54
119.92,10.44
121.12,10.33
122.33,10.23
123.55,10.12
124.79,10.02
126.03,9.91
127.29,9.80
128.57,9.69
129.85,9.58
131.15,9.47
132.46,9.36
133.79,9.25
135.12,9.13
136.48,9.02
137.84,8.90
139.22,8.78
140.61,8.66
142.02,8.54
143.44,8.42
144.87,8.29
146.32,8.17
147.78,8.04
149.26,7.92
150.75,7.79
152.26,7.67
153.78,7.54
155.32,7.41
156.88,7.28
158.44,7.15
160.03,7.02
161.63,6.89
163.24,6.75
164.88,6.62
166.53,6.48
168.19,6.35
169.87,6.21
171.57,6.07
173.29,5.93
175.02,5.79
176.77,5.65
178.54,5.52
180.32,5.38
182.13,5.24
183.95,5.10
185.79,4.96
187.65,4.82
189.52,4.68
191.42,4.54
193.33,4.39
195.27,4.25
197.22,4.11
199.19,3.97
201.18,3.83
203.19,3.69
205.23,3.54
207.28,3.40
209.35,3.26
211.44,3.13
213.56,2.99
215.69,2.85
217.85,2.71
220.03,2.58
222.23,2.45
224.45,2.32
226.70,2.19
228.96,2.06
231.25,1.94
233.57,1.81
235.90,1.68
238.26,1.56
240.64,1.44
243.05,1.32
245.48,1.21
247.93,1.10
250.41,0.99
252.92,0.89
255.45,0.79
258.00,0.69
260.58,0.59
263.19,0.49
265.82,0.40
268.48,0.31
271.16,0.22
273.87,0.14
276.61,0.06
279.38,-0.02
282.17,-0.10
284.99,-0.17
287.84,-0.23
290.72,-0.29
293.63,-0.35
296.57,-0.41
299.53,-0.46
302.53,-0.52
305.55,-0.56
308.61,-0.61
311.69,-0.65
314.81,-0.69
317.96,-0.73
321.14,-0.77
324.35,-0.81
327.59,-0.84
330.87,-0.87
334.18,-0.89
337.52,-0.91
340.90,-0.93
344.30,-0.95
347.75,-0.97
351.23,-0.98
354.74,-1.00
358.28,-1.01
361.87,-1.02
365.49,-1.03
369.14,-1.04
372.83,-1.05
376.56,-1.05
380.33,-1.06
384.13,-1.06
387.97,-1.07
391.85,-1.07
395.77,-1.08
399.73,-1.08
403.72,-1.08
407.76,-1.08
411.84,-1.08
415.96,-1.08
420.12,-1.08
424.32,-1.08
428.56,-1.08
432.85,-1.08
437.18,-1.07
441.55,-1.07
445.96,-1.07
450.42,-1.06
454.93,-1.06
459.48,-1.06
464.07,-1.06
468.71,-1.06
473.40,-1.06
478.13,-1.06
482.91,-1.06
487.74,-1.05
492.62,-1.05
497.55,-1.05
502.52,-1.05
507.55,-1.05
512.62,-1.05
517.75,-1.05
522.93,-1.05
528.16,-1.05
533.44,-1.05
538.77,-1.05
544.16,-1.05
549.60,-1.05
555.10,-1.05
560.65,-1.05
566.25,-1.05
571.92,-1.05
577.64,-1.05
583.41,-1.05
589.25,-1.05
595.14,-1.05
601.09,-1.06
607.10,-1.06
613.17,-1.06
619.30,-1.06
625.50,-1.06
631.75,-1.06
638.07,-1.06
644.45,-1.06
650.89,-1.05
657.40,-1.05
663.98,-1.05
670.62,-1.05
677.32,-1.05
684.10,-1.04
690.94,-1.04
697.85,-1.03
704.83,-1.03
711.87,-1.02
718.99,-1.01
726.18,-1.00
733.44,-1.00
740.78,-0.99
748.19,-0.99
755.67,-0.98
763.23,-0.97
770.86,-0.96
778.57,-0.95
786.35,-0.95
794.22,-0.95
802.16,-0.95
810.18,-0.95
818.28,-0.95
826.46,-0.94
834.73,-0.92
843.08,-0.89
851.51,-0.85
860.02,-0.82
868.62,-0.77
877.31,-0.73
886.08,-0.69
894.94,-0.64
903.89,-0.60
912.93,-0.55
922.06,-0.51
931.28,-0.46
940.59,-0.41
950.00,-0.36
959.50,-0.30
969.09,-0.23
978.78,-0.16
988.57,-0.09
998.46,-0.01
1008.44,0.07
1018.53,0.15
1028.71,0.23
1039.00,0.32
1049.39,0.41
1059.88,0.50
1070.48,0.59
1081.19,0.68
1092.00,0.77
1102.92,0.87
1113.95,0.96
1125.09,1.06
1136.34,1.16
1147.70,1.25
1159.18,1.35
1170.77,1.44
1182.48,1.54
1194.30,1.63
1206.25,1.73
1218.31,1.82
1230.49,1.91
1242.80,2.00
1255.22,2.08
1267.78,2.17
1280.45,2.25
1293.26,2.34
1306.19,2.42
1319.25,2.50
1332.45,2.58
1345.77,2.66
1359.23,2.74
1372.82,2.81
1386.55,2.89
1400.41,2.97
1414.42,3.04
1428.56,3.12
1442.85,3.19
1457.28,3.27
1471.85,3.34
1486.57,3.42
1501.43,3.49
1516.45,3.57
1531.61,3.64
1546.93,3.72
1562.40,3.80
1578.02,3.88
1593.80,3.96
1609.74,4.04
1625.84,4.12
1642.10,4.21
1658.52,4.30
1675.10,4.38
1691.85,4.47
1708.77,4.57
1725.86,4.66
1743.12,4.76
1760.55,4.86
1778.15,4.96
1795.94,5.06
1813.90,5.17
1832.03,5.28
1850.36,5.39
1868.86,5.51
1887.55,5.62
1906.42,5.74
1925.49,5.86
1944.74,5.99
1964.19,6.12
1983.83,6.25
2003.67,6.38
2023.71,6.52
2043.94,6.65
2064.38,6.79
2085.03,6.94
2105.88,7.08
2126.94,7.23
2148.20,7.38
2169.69,7.53
2191.38,7.69
2213.30,7.84
2235.43,7.99
2257.78,8.15
2280.36,8.30
2303.17,8.46
2326.20,8.61
2349.46,8.76
2372.95,8.91
2396.68,9.06
2420.65,9.20
2444.86,9.34
2469.31,9.47
2494.00,9.60
2518.94,9.72
2544.13,9.83
2569.57,9.94
2595.27,10.03
2621.22,10.11
2647.43,10.19
2673.90,10.25
2700.64,10.30
2727.65,10.33
2754.93,10.35
2782.48,10.36
2810.30,10.36
2838.40,10.34
2866.79,10.30
2895.46,10.26
2924.41,10.20
2953.65,10.13
2983.19,10.05
3013.02,9.96
3043.15,9.87
3073.58,9.76
3104.32,9.64
3135.36,9.52
3166.72,9.40
3198.38,9.27
3230.37,9.14
3262.67,9.00
3295.30,8.87
3328.25,8.73
3361.53,8.60
3395.15,8.46
3429.10,8.33
3463.39,8.19
3498.03,8.06
3533.01,7.94
3568.34,7.81
3604.02,7.69
3640.06,7.57
3676.46,7.46
3713.22,7.35
3750.36,7.25
3787.86,7.15
3825.74,7.06
3864.00,6.97
3902.64,6.88
3941.66,6.80
3981.08,6.73
4020.89,6.66
4061.10,6.60
4101.71,6.55
4142.73,6.50
4184.15,6.46
4226.00,6.42
4268.26,6.39
4310.94,6.36
4354.05,6.35
4397.59,6.34
4441.56,6.33
4485.98,6.34
4530.84,6.34
4576.15,6.36
4621.91,6.38
4668.13,6.41
4714.81,6.44
4761.96,6.48
4809.58,6.53
4857.67,6.57
4906.25,6.62
4955.31,6.68
5004.87,6.73
5054.91,6.79
5105.46,6.84
5156.52,6.89
5208.08,6.93
5260.16,6.97
5312.77,7.00
5365.89,7.01
5419.55,7.02
5473.75,7.01
5528.49,6.99
5583.77,6.94
5639.61,6.88
5696.00,6.81
5752.96,6.72
5810.49,6.61
5868.60,6.48
5927.28,6.34
5986.56,6.19
6046.42,6.02
6106.89,5.84
6167.96,5.65
6229.64,5.46
6291.93,5.26
6354.85,5.05
6418.40,4.84
6482.58,4.64
6547.41,4.43
6612.88,4.23
6679.01,4.03
6745.80,3.85
6813.26,3.66
6881.39,3.49
6950.21,3.34
7019.71,3.19
7089.91,3.06
7160.81,2.95
7232.41,2.86
7304.74,2.78
7377.79,2.73
7451.56,2.70
7526.08,2.68
7601.34,2.69
7677.35,2.73
7754.13,2.78
7831.67,2.87
7909.98,2.99
7989.08,3.13
8068.98,3.32
8149.67,3.53
8231.16,3.78
8313.47,4.07
8396.61,4.39
8480.57,4.75
8565.38,5.16
8651.03,5.58
8737.54,6.04
8824.92,6.50
8913.17,6.93
9002.30,7.36
9092.32,7.70
9183.25,7.94
9275.08,8.09
9367.83,8.10
9461.51,7.95
9556.12,7.66
9651.68,7.25
9748.20,6.73
9845.68,6.10
9944.14,5.43
10043.58,4.72
10144.02,4.01
10245.46,3.31
10347.91,2.65
10451.39,2.01
10555.91,1.44
10661.46,0.92
10768.08,0.44
10875.76,0.02
10984.52,-0.34
11094.36,-0.66
11205.31,-0.94
11317.36,-1.16
11430.53,-1.37
11544.84,-1.54
11660.29,-1.68
11776.89,-1.81
11894.66,-1.91
12013.60,-2.01
12133.74,-2.08
12255.08,-2.14
12377.63,-2.17
12501.41,-2.17
12626.42,-2.11
12752.68,-2.00
12880.21,-1.80
13009.01,-1.56
13139.10,-1.32
13270.49,-1.01
13403.20,-0.71
13537.23,-0.47
13672.60,-0.30
13809.33,-0.22
13947.42,-0.32
14086.90,-0.58
14227.77,-0.94
14370.04,-1.40
14513.74,-1.98
14658.88,-2.64
14805.47,-3.32
14953.52,-4.02
15103.06,-4.68
15254.09,-5.32
15406.63,-5.86
15560.70,-6.36
15716.30,-6.78
15873.47,-7.10
16032.20,-7.36
16192.52,-7.52
16354.45,-7.59
16517.99,-7.60
16683.17,-7.50
16850.01,-7.36
17018.51,-7.19
17188.69,-7.02
17360.58,-6.89
17534.18,-6.83
17709.53,-6.90
17886.62,-7.16
18065.49,-7.58
18246.14,-8.15
18428.60,-8.96
18612.89,-9.89
18799.02,-10.90
18987.01,-11.99
19176.88,-13.09
19368.65,-14.15
19562.33,-15.13
19757.96,-16.01
19955.54,-16.88
