frequency,raw
20.00,10.40
20.20,10.42
20.40,10.44
20.61,10.46
20.81,10.48
21.02,10.49
21.23,10.51
21.44,10.52
21.66,10.53
21.87,10.54
22.09,10.55
22.31,10.56
22.54,10.58
22.76,10.59
22.99,10.61
23.22,10.62
23.45,10.64
23.69,10.65
23.92,10.66
24.16,10.67
24.40,10.68
24.65,10.69
24.89,10.70
25.14,10.71
25.39,10.72
25.65,10.73
25.91,10.74
26.16,10.74
26.43,10.75
26.69,10.76
26.96,10.76
27.23,10.76
27.50,10.77
27.77,10.77
28.05,10.78
28.33,10.78
28.62,10.79
28.90,10.79
29.19,10.79
29.48,10.80
29.78,10.80
30.08,10.80
30.38,10.81
30.68,10.81
30.99,10.81
31.30,10.82
31.61,10.82
31.93,10.82
32.24,10.83
32.57,10.83
32.89,10.83
33.22,10.83
33.55,10.83
33.89,10.83
34.23,10.82
34.57,10.82
34.92,10.82
35.27,10.82
35.62,10.81
35.97,10.81
36.33,10.80
36.70,10.80
37.06,10.79
37.43,10.79
37.81,10.78
38.19,10.77
38.57,10.77
38.95,10.76
39.34,10.75
39.74,10.75
40.14,10.74
40.54,10.73
40.94,10.73
41.35,10.72
41.76,10.72
42.18,10.72
42.60,10.72
43.03,10.71
43.46,10.70
43.90,10.69
44.33,10.68
44.78,10.67
45.23,10.66
45.68,10.65
46.13,10.63
46.60,10.62
47.06,10.61
47.53,10.59
48.01,10.58
48.49,10.57
48.97,10.56
49.46,10.55
49.96,10.54
50.46,10.52
50.96,10.51
51.47,10.50
51.99,10.49
52.51,10.47
53.03,10.47
53.56,10.46
54.10,10.46
54.64,10.45
55.18,10.44
55.74,10.41
56.29,10.38
56.86,10.35
57.42,10.32
58.00,10.29
58.58,10.27
59.16,10.24
59.76,10.22
60.35,10.19
60.96,10.17
61.57,10.15
62.18,10.13
62.80,10.10
63.43,10.08
64.07,10.06
64.71,10.04
65.35,10.02
66.01,9.99
66.67,9.97
67.33,9.94
68.01,9.91
68.69,9.88
69.37,9.85
70.07,9.82
70.77,9.79
71.48,9.76
72.19,9.73
72.91,9.71
73.64,9.68
74.38,9.65
75.12,9.62
75.87,9.59
76.63,9.57
77.40,9.54
78.17,9.51
78.95,9.48
79.74,9.45
80.54,9.42
81.35,9.38
82.16,9.34
82.98,9.30
83.81,9.26
84.65,9.21
85.50,9.17
86.35,9.12
87.22,9.07
88.09,9.03
88.97,8.98
89.86,8.94
90.76,8.90
91.66,8.85
92.58,8.80
93.51,8.75
94.44,8.69
95.39,8.63
96.34,8.57
97.30,8.51
98.28,8.46
99.26,8.42
100.25,8.40
101.25,8.39
102.27,8.38
103.29,8.36
104.32,8.34
105.37,8.33
106.42,8.32
107.48,8.30
108.56,8.28
109.64,8.25
110.74,8.22
111.85,8.18
112.97,8.15
114.10,8.13
115.24,8.12
116.39,8.10
117.55,8.09
118.73,8.06
119.92,8.02
121.12,7.98
122.33,7.93
123.55,7.88
124.79,7.83
126.03,7.78
127.29,7.72
128.57,7.67
129.85,7.62
131.15,7.56
132.46,7.51
133.79,7.46
135.12,7.41
136.48,7.36
137.84,7.30
139.22,7.25
140.61,7.20
142.02,7.15
143.44,7.09
144.87,7.04
146.32,6.98
147.78,6.92
149.26,6.86
150.75,6.79
152.26,6.73
153.78,6.68
155.32,6.62
156.88,6.56
158.44,6.51
160.03,6.45
161.63,6.40
163.24,6.34
164.88,6.28
166.53,6.21
168.19,6.15
169.87,6.09
171.57,6.03
173.29,5.97
175.02,5.91
176.77,5.86
178.54,5.81
180.32,5.76
182.13,5.72
183.95,5.68
185.79,5.65
187.65,5.61
189.52,5.58
191.42,5.54
193.33,5.51
195.27,5.48
197.22,5.44
199.19,5.40
201.18,5.34
203.19,5.28
205.23,5.22
207.28,5.15
209.35,5.09
211.44,5.02
213.56,4.96
215.69,4.90
217.85,4.84
220.03,4.78
222.23,4.72
224.45,4.66
226.70,4.61
228.96,4.55
231.25,4.49
233.57,4.43
235.90,4.37
238.26,4.31
240.64,4.25
243.05,4.19
245.48,4.12
247.93,4.06
250.41,4.00
252.92,3.94
255.45,3.88
258.00,3.81
260.58,3.75
263.19,3.69
265.82,3.63
268.48,3.57
271.16,3.51
273.87,3.45
276.61,3.39
279.38,3.33
282.17,3.27
284.99,3.21
287.84,3.15
290.72,3.09
293.63,3.03
296.57,2.97
299.53,2.91
302.53,2.85
305.55,2.80
308.61,2.74
311.69,2.68
314.81,2.62
317.96,2.57
321.14,2.51
324.35,2.45
327.59,2.40
330.87,2.34
334.18,2.28
337.52,2.22
340.90,2.17
344.30,2.11
347.75,2.05
351.23,1.99
354.74,1.94
358.28,1.88
361.87,1.82
365.49,1.77
369.14,1.71
372.83,1.66
376.56,1.60
380.33,1.55
384.13,1.50
387.97,1.44
391.85,1.39
395.77,1.33
399.73,1.28
403.72,1.23
407.76,1.17
411.84,1.12
415.96,1.07
420.12,1.02
424.32,0.97
428.56,0.92
432.85,0.87
437.18,0.82
441.55,0.77
445.96,0.72
450.42,0.67
454.93,0.62
459.48,0.57
464.07,0.53
468.71,0.48
473.40,0.43
478.13,0.39
482.91,0.34
487.74,0.30
492.62,0.25
497.55,0.21
502.52,0.16
507.55,0.12
512.62,0.08
517.75,0.04
522.93,-0.00
528.16,-0.05
533.44,-0.09
538.77,-0.12
544.16,-0.16
549.60,-0.20
555.10,-0.24
560.65,-0.28
566.25,-0.31
571.92,-0.35
577.64,-0.39
583.41,-0.42
589.25,-0.45
595.14,-0.49
601.09,-0.52
607.10,-0.55
613.17,-0.58
619.30,-0.61
625.50,-0.64
631.75,-0.67
638.07,-0.70
644.45,-0.72
650.89,-0.75
657.40,-0.77
663.98,-0.80
670.62,-0.82
677.32,-0.84
684.10,-0.87
690.94,-0.89
697.85,-0.91
704.83,-0.94
711.87,-0.96
718.99,-1.00
726.18,-1.03
733.44,-1.08
740.78,-1.15
748.19,-1.23
755.67,-1.31
763.23,-1.40
770.86,-1.44
778.57,-1.44
786.35,-1.40
794.22,-1.33
802.16,-1.25
810.18,-1.17
818.28,-1.11
826.46,-1.05
834.73,-1.00
843.08,-0.94
851.51,-0.87
860.02,-0.81
868.62,-0.76
877.31,-0.71
886.08,-0.66
894.94,-0.61
903.89,-0.56
912.93,-0.52
922.06,-0.47
931.28,-0.42
940.59,-0.37
950.00,-0.32
959.50,-0.26
969.09,-0.20
978.78,-0.14
988.57,-0.08
998.46,-0.01
1008.44,0.06
1018.53,0.13
1028.71,0.20
1039.00,0.28
1049.39,0.36
1059.88,0.44
1070.48,0.52
1081.19,0.60
1092.00,0.69
1102.92,0.77
1113.95,0.86
1125.09,0.95
1136.34,1.04
1147.70,1.13
1159.18,1.22
1170.77,1.32
1182.48,1.41
1194.30,1.50
1206.25,1.60
1218.31,1.70
1230.49,1.79
1242.80,1.89
1255.22,1.99
1267.78,2.09
1280.45,2.19
1293.26,2.29
1306.19,2.39
1319.25,2.49
1332.45,2.60
1345.77,2.71
1359.23,2.81
1372.82,2.92
1386.55,3.04
1400.41,3.15
1414.42,3.27
1428.56,3.39
1442.85,3.51
1457.28,3.63
1471.85,3.76
1486.57,3.89
1501.43,4.02
1516.45,4.15
1531.61,4.29
1546.93,4.44
1562.40,4.58
1578.02,4.73
1593.80,4.89
1609.74,5.05
1625.84,5.21
1642.10,5.38
1658.52,5.55
1675.10,5.73
1691.85,5.91
1708.77,6.10
1725.86,6.30
1743.12,6.50
1760.55,6.70
1778.15,6.91
1795.94,7.12
1813.90,7.34
1832.03,7.56
1850.36,7.79
1868.86,8.02
1887.55,8.26
1906.42,8.50
1925.49,8.74
1944.74,8.98
1964.19,9.22
1983.83,9.46
2003.67,9.70
2023.71,9.93
2043.94,10.15
2064.38,10.37
2085.03,10.57
2105.88,10.75
2126.94,10.92
2148.20,11.05
2169.69,11.17
2191.38,11.27
2213.30,11.32
2235.43,11.36
2257.78,11.37
2280.36,11.34
2303.17,11.29
2326.20,11.21
2349.46,11.10
2372.95,10.96
2396.68,10.82
2420.65,10.65
2444.86,10.47
2469.31,10.28
2494.00,10.08
2518.94,9.88
2544.13,9.67
2569.57,9.46
2595.27,9.25
2621.22,9.05
2647.43,8.84
2673.90,8.63
2700.64,8.43
2727.65,8.23
2754.93,8.04
2782.48,7.85
2810.30,7.66
2838.40,7.48
2866.79,7.30
2895.46,7.13
2924.41,6.96
2953.65,6.80
2983.19,6.65
3013.02,6.51
3043.15,6.39
3073.58,6.28
3104.32,6.20
3135.36,6.13
3166.72,6.09
3198.38,6.06
3230.37,6.04
3262.67,6.02
3295.30,5.99
3328.25,5.95
3361.53,5.90
3395.15,5.83
3429.10,5.76
3463.39,5.70
3498.03,5.65
3533.01,5.66
3568.34,5.71
3604.02,5.79
3640.06,5.90
3676.46,6.04
3713.22,6.19
3750.36,6.35
3787.86,6.52
3825.74,6.69
3864.00,6.87
3902.64,7.06
3941.66,7.26
3981.08,7.48
4020.89,7.70
4061.10,7.94
4101.71,8.19
4142.73,8.46
4184.15,8.73
4226.00,9.01
4268.26,9.29
4310.94,9.57
4354.05,9.82
4397.59,10.06
4441.56,10.27
4485.98,10.43
4530.84,10.54
4576.15,10.59
4621.91,10.60
4668.13,10.54
4714.81,10.45
4761.96,10.33
4809.58,10.19
4857.67,10.04
4906.25,9.87
4955.31,9.70
5004.87,9.50
5054.91,9.26
5105.46,8.97
5156.52,8.63
5208.08,8.21
5260.16,7.70
5312.77,7.15
5365.89,6.56
5419.55,6.07
5473.75,5.75
5528.49,5.64
5583.77,5.70
5639.61,5.65
5696.00,5.57
5752.96,5.28
5810.49,4.97
5868.60,4.60
5927.28,4.25
5986.56,3.92
6046.42,3.63
6106.89,3.37
6167.96,3.16
6229.64,2.98
6291.93,2.85
6354.85,2.75
6418.40,2.68
6482.58,2.65
6547.41,2.66
6612.88,2.70
6679.01,2.78
6745.80,2.91
6813.26,3.07
6881.39,3.29
6950.21,3.57
7019.71,3.89
7089.91,4.27
7160.81,4.75
7232.41,5.28
7304.74,5.89
7377.79,6.60
7451.56,7.39
7526.08,8.24
7601.34,9.13
7677.35,10.01
7754.13,10.86
7831.67,11.52
7909.98,12.04
7989.08,12.34
8068.98,12.27
8149.67,12.00
8231.16,11.46
8313.47,10.68
8396.61,9.81
8480.57,8.84
8565.38,7.86
8651.03,6.92
8737.54,6.05
8824.92,5.28
8913.17,4.63
9002.30,4.03
9092.32,3.58
9183.25,3.23
9275.08,2.95
9367.83,2.76
9461.51,2.66
9556.12,2.63
9651.68,2.67
9748.20,2.78
9845.68,2.98
9944.14,3.24
10043.58,3.57
10144.02,3.95
10245.46,4.39
10347.91,4.84
10451.39,5.30
10555.91,5.71
10661.46,6.05
10768.08,6.31
10875.76,6.42
10984.52,6.38
11094.36,6.22
11205.31,5.93
11317.36,5.47
11430.53,4.96
11544.84,4.35
11660.29,3.68
11776.89,2.97
11894.66,2.21
12013.60,1.43
12133.74,0.63
12255.08,-0.18
12377.63,-0.98
12501.41,-1.75
12626.42,-2.45
12752.68,-3.05
12880.21,-3.47
13009.01,-3.78
13139.10,-4.10
13270.49,-4.12
13403.20,-4.05
13537.23,-3.75
13672.60,-3.36
13809.33,-2.86
13947.42,-2.27
14086.90,-1.72
14227.77,-1.18
14370.04,-0.77
14513.74,-0.53
14658.88,-0.58
14805.47,-0.76
14953.52,-1.13
15103.06,-1.71
15254.09,-2.39
15406.63,-3.33
15560.70,-4.29
15716.30,-5.30
15873.47,-6.20
16032.20,-7.01
16192.52,-7.61
16354.45,-8.05
16517.99,-8.38
16683.17,-8.53
16850.01,-8.68
17018.51,-8.84
17188.69,-9.22
17360.58,-9.89
17534.18,-10.84
17709.53,-12.19
17886.62,-13.88
18065.49,-15.76
18246.14,-17.82
18428.60,-19.99
18612.89,-22.17
18799.02,-24.37
18987.01,-26.62
19176.88,-29.00
19368.65,-31.50
19562.33,-34.08
19757.96,-36.73
19955.54,-39.38
