frequency,raw
20.00,7.37
20.20,7.37
20.40,7.37
20.61,7.38
20.81,7.40
21.02,7.41
21.23,7.42
21.44,7.43
21.66,7.45
21.87,7.47
22.09,7.51
22.31,7.56
22.54,7.62
22.76,7.70
22.99,7.78
23.22,7.86
23.45,7.94
23.69,8.01
23.92,8.08
24.16,8.15
24.40,8.21
24.65,8.28
24.89,8.34
25.14,8.41
25.39,8.48
25.65,8.55
25.91,8.62
26.16,8.69
26.43,8.76
26.69,8.82
26.96,8.88
27.23,8.94
27.50,9.00
27.77,9.06
28.05,9.13
28.33,9.19
28.62,9.25
28.90,9.31
29.19,9.37
29.48,9.44
29.78,9.51
30.08,9.58
30.38,9.66
30.68,9.73
30.99,9.79
31.30,9.84
31.61,9.89
31.93,9.94
32.24,9.98
32.57,10.02
32.89,10.06
33.22,10.09
33.55,10.12
33.89,10.15
34.23,10.17
34.57,10.20
34.92,10.23
35.27,10.25
35.62,10.27
35.97,10.29
36.33,10.30
36.70,10.31
37.06,10.33
37.43,10.34
37.81,10.36
38.19,10.37
38.57,10.36
38.95,10.36
39.34,10.36
39.74,10.36
40.14,10.36
40.54,10.36
40.94,10.36
41.35,10.35
41.76,10.33
42.18,10.33
42.60,10.32
43.03,10.33
43.46,10.33
43.90,10.33
44.33,10.31
44.78,10.29
45.23,10.27
45.68,10.25
46.13,10.23
46.60,10.21
47.06,10.18
47.53,10.16
48.01,10.12
48.49,10.08
48.97,10.05
49.46,10.01
49.96,9.97
50.46,9.93
50.96,9.89
51.47,9.85
51.99,9.80
52.51,9.76
53.03,9.71
53.56,9.67
54.10,9.63
54.64,9.60
55.18,9.56
55.74,9.52
56.29,9.47
56.86,9.42
57.42,9.36
58.00,9.30
58.58,9.24
59.16,9.19
59.76,9.14
60.35,9.09
60.96,9.03
61.57,8.98
62.18,8.91
62.80,8.85
63.43,8.79
64.07,8.72
64.71,8.64
65.35,8.56
66.01,8.47
66.67,8.39
67.33,8.31
68.01,8.25
68.69,8.19
69.37,8.14
70.07,8.08
70.77,8.03
71.48,7.97
72.19,7.90
72.91,7.84
73.64,7.78
74.38,7.70
75.12,7.63
75.87,7.54
76.63,7.46
77.40,7.37
78.17,7.26
78.95,7.16
79.74,7.06
80.54,6.97
81.35,6.87
82.16,6.78
82.98,6.69
83.81,6.61
84.65,6.54
85.50,6.47
86.35,6.39
87.22,6.31
88.09,6.24
88.97,6.18
89.86,6.12
90.76,6.03
91.66,5.91
92.58,5.79
93.51,5.68
94.44,5.60
95.39,5.53
96.34,5.49
97.30,5.44
98.28,5.37
99.26,5.29
100.25,5.18
101.25,5.06
102.27,4.95
103.29,4.84
104.32,4.72
105.37,4.60
106.42,4.48
107.48,4.36
108.56,4.25
109.64,4.15
110.74,4.06
111.85,3.98
112.97,3.90
114.10,3.82
115.24,3.74
116.39,3.65
117.55,3.56
118.73,3.45
119.92,3.34
121.12,3.23
122.33,3.12
123.55,3.01
124.79,2.90
126.03,2.79
127.29,2.69
128.57,2.60
129.85,2.50
131.15,2.41
132.46,2.32
133.79,2.22
135.12,2.11
136.48,2.01
137.84,1.91
139.22,1.80
140.61,1.70
142.02,1.59
143.44,1.50
144.87,1.41
146.32,1.36
147.78,1.31
149.26,1.27
150.75,1.22
152.26,1.16
153.78,1.07
155.32,0.97
156.88,0.87
158.44,0.78
160.03,0.69
161.63,0.61
163.24,0.53
164.88,0.44
166.53,0.34
168.19,0.25
169.87,0.16
171.57,0.11
173.29,0.07
175.02,0.05
176.77,0.05
178.54,0.05
180.32,0.07
182.13,0.10
183.95,0.11
185.79,0.10
187.65,0.08
189.52,0.03
191.42,-0.02
193.33,-0.07
195.27,-0.12
197.22,-0.17
199.19,-0.21
201.18,-0.25
203.19,-0.28
205.23,-0.30
207.28,-0.34
209.35,-0.37
211.44,-0.41
213.56,-0.45
215.69,-0.49
217.85,-0.53
220.03,-0.56
222.23,-0.59
224.45,-0.62
226.70,-0.64
228.96,-0.66
231.25,-0.68
233.57,-0.70
235.90,-0.72
238.26,-0.74
240.64,-0.76
243.05,-0.78
245.48,-0.80
247.93,-0.81
250.41,-0.83
252.92,-0.84
255.45,-0.85
258.00,-0.86
260.58,-0.87
263.19,-0.87
265.82,-0.88
268.48,-0.87
271.16,-0.87
273.87,-0.87
276.61,-0.88
279.38,-0.88
282.17,-0.88
284.99,-0.88
287.84,-0.88
290.72,-0.89
293.63,-0.89
296.57,-0.88
299.53,-0.87
302.53,-0.86
305.55,-0.85
308.61,-0.84
311.69,-0.84
314.81,-0.84
317.96,-0.83
321.14,-0.83
324.35,-0.83
327.59,-0.82
330.87,-0.82
334.18,-0.82
337.52,-0.81
340.90,-0.81
344.30,-0.80
347.75,-0.79
351.23,-0.78
354.74,-0.77
358.28,-0.76
361.87,-0.75
365.49,-0.74
369.14,-0.73
372.83,-0.71
376.56,-0.70
380.33,-0.69
384.13,-0.67
387.97,-0.65
391.85,-0.63
395.77,-0.61
399.73,-0.60
403.72,-0.60
407.76,-0.59
411.84,-0.58
415.96,-0.57
420.12,-0.55
424.32,-0.53
428.56,-0.51
432.85,-0.49
437.18,-0.47
441.55,-0.44
445.96,-0.42
450.42,-0.40
454.93,-0.38
459.48,-0.37
464.07,-0.35
468.71,-0.33
473.40,-0.31
478.13,-0.28
482.91,-0.25
487.74,-0.23
492.62,-0.21
497.55,-0.19
502.52,-0.17
507.55,-0.15
512.62,-0.14
517.75,-0.13
522.93,-0.12
528.16,-0.12
533.44,-0.11
538.77,-0.11
544.16,-0.11
549.60,-0.11
555.10,-0.12
560.65,-0.12
566.25,-0.13
571.92,-0.14
577.64,-0.15
583.41,-0.16
589.25,-0.17
595.14,-0.19
601.09,-0.21
607.10,-0.22
613.17,-0.24
619.30,-0.26
625.50,-0.28
631.75,-0.30
638.07,-0.33
644.45,-0.36
650.89,-0.38
657.40,-0.41
663.98,-0.44
670.62,-0.47
677.32,-0.49
684.10,-0.51
690.94,-0.52
697.85,-0.54
704.83,-0.55
711.87,-0.57
718.99,-0.59
726.18,-0.61
733.44,-0.63
740.78,-0.64
748.19,-0.65
755.67,-0.66
763.23,-0.67
770.86,-0.68
778.57,-0.69
786.35,-0.70
794.22,-0.70
802.16,-0.70
810.18,-0.69
818.28,-0.69
826.46,-0.68
834.73,-0.67
843.08,-0.66
851.51,-0.64
860.02,-0.63
868.62,-0.61
877.31,-0.58
886.08,-0.55
894.94,-0.52
903.89,-0.49
912.93,-0.45
922.06,-0.41
931.28,-0.37
940.59,-0.33
950.00,-0.28
959.50,-0.23
969.09,-0.18
978.78,-0.13
988.57,-0.07
998.46,-0.01
1008.44,0.05
1018.53,0.12
1028.71,0.18
1039.00,0.24
1049.39,0.31
1059.88,0.38
1070.48,0.46
1081.19,0.53
1092.00,0.60
1102.92,0.68
1113.95,0.76
1125.09,0.84
1136.34,0.92
1147.70,1.00
1159.18,1.08
1170.77,1.16
1182.48,1.24
1194.30,1.33
1206.25,1.41
1218.31,1.49
1230.49,1.57
1242.80,1.66
1255.22,1.74
1267.78,1.83
1280.45,1.91
1293.26,1.99
1306.19,2.07
1319.25,2.15
1332.45,2.23
1345.77,2.32
1359.23,2.40
1372.82,2.48
1386.55,2.57
1400.41,2.65
1414.42,2.73
1428.56,2.82
1442.85,2.90
1457.28,2.99
1471.85,3.07
1486.57,3.16
1501.43,3.25
1516.45,3.34
1531.61,3.43
1546.93,3.52
1562.40,3.62
1578.02,3.71
1593.80,3.80
1609.74,3.89
1625.84,3.98
1642.10,4.07
1658.52,4.16
1675.10,4.25
1691.85,4.35
1708.77,4.44
1725.86,4.54
1743.12,4.63
1760.55,4.72
1778.15,4.81
1795.94,4.90
1813.90,4.99
1832.03,5.08
1850.36,5.18
1868.86,5.27
1887.55,5.35
1906.42,5.44
1925.49,5.53
1944.74,5.61
1964.19,5.69
1983.83,5.78
2003.67,5.86
2023.71,5.94
2043.94,6.02
2064.38,6.09
2085.03,6.17
2105.88,6.24
2126.94,6.32
2148.20,6.39
2169.69,6.45
2191.38,6.51
2213.30,6.57
2235.43,6.63
2257.78,6.68
2280.36,6.73
2303.17,6.77
2326.20,6.81
2349.46,6.84
2372.95,6.87
2396.68,6.89
2420.65,6.91
2444.86,6.92
2469.31,6.94
2494.00,6.95
2518.94,6.96
2544.13,6.97
2569.57,6.97
2595.27,6.97
2621.22,6.97
2647.43,6.97
2673.90,6.97
2700.64,6.96
2727.65,6.96
2754.93,6.95
2782.48,6.95
2810.30,6.94
2838.40,6.93
2866.79,6.92
2895.46,6.92
2924.41,6.91
2953.65,6.90
2983.19,6.89
3013.02,6.88
3043.15,6.86
3073.58,6.85
3104.32,6.83
3135.36,6.81
3166.72,6.78
3198.38,6.76
3230.37,6.73
3262.67,6.69
3295.30,6.65
3328.25,6.60
3361.53,6.54
3395.15,6.47
3429.10,6.38
3463.39,6.28
3498.03,6.17
3533.01,6.03
3568.34,5.88
3604.02,5.71
3640.06,5.52
3676.46,5.31
3713.22,5.08
3750.36,4.83
3787.86,4.56
3825.74,4.29
3864.00,4.00
3902.64,3.71
3941.66,3.41
3981.08,3.12
4020.89,2.83
4061.10,2.54
4101.71,2.27
4142.73,1.99
4184.15,1.73
4226.00,1.48
4268.26,1.23
4310.94,1.00
4354.05,0.78
4397.59,0.57
4441.56,0.37
4485.98,0.18
4530.84,0.00
4576.15,-0.17
4621.91,-0.33
4668.13,-0.48
4714.81,-0.62
4761.96,-0.75
4809.58,-0.87
4857.67,-0.98
4906.25,-1.08
4955.31,-1.18
5004.87,-1.26
5054.91,-1.32
5105.46,-1.38
5156.52,-1.43
5208.08,-1.47
5260.16,-1.50
5312.77,-1.53
5365.89,-1.54
5419.55,-1.55
5473.75,-1.54
5528.49,-1.53
5583.77,-1.49
5639.61,-1.44
5696.00,-1.38
5752.96,-1.29
5810.49,-1.19
5868.60,-1.07
5927.28,-0.93
5986.56,-0.79
6046.42,-0.62
6106.89,-0.44
6167.96,-0.24
6229.64,-0.02
6291.93,0.21
6354.85,0.47
6418.40,0.74
6482.58,1.03
6547.41,1.36
6612.88,1.71
6679.01,2.10
6745.80,2.53
6813.26,2.98
6881.39,3.48
6950.21,4.01
7019.71,4.56
7089.91,5.13
7160.81,5.70
7232.41,6.26
7304.74,6.81
7377.79,7.30
7451.56,7.72
7526.08,8.08
7601.34,8.36
7677.35,8.53
7754.13,8.66
7831.67,8.67
7909.98,8.64
7989.08,8.55
8068.98,8.43
8149.67,8.29
8231.16,8.14
8313.47,7.96
8396.61,7.77
8480.57,7.55
8565.38,7.28
8651.03,6.96
8737.54,6.58
8824.92,6.12
8913.17,5.58
9002.30,5.01
9092.32,4.35
9183.25,3.66
9275.08,2.94
9367.83,2.20
9461.51,1.46
9556.12,0.73
9651.68,0.01
9748.20,-0.68
9845.68,-1.35
9944.14,-1.98
10043.58,-2.58
10144.02,-3.15
10245.46,-3.68
10347.91,-4.19
10451.39,-4.66
10555.91,-5.10
10661.46,-5.52
10768.08,-5.91
10875.76,-6.27
10984.52,-6.60
11094.36,-6.91
11205.31,-7.18
11317.36,-7.42
11430.53,-7.63
11544.84,-7.82
11660.29,-7.97
11776.89,-8.11
11894.66,-8.19
12013.60,-8.26
12133.74,-8.30
12255.08,-8.30
12377.63,-8.28
12501.41,-8.22
12626.42,-8.11
12752.68,-7.96
12880.21,-7.74
13009.01,-7.49
13139.10,-7.23
13270.49,-6.86
13403.20,-6.46
13537.23,-5.95
13672.60,-5.40
13809.33,-4.80
13947.42,-4.13
14086.90,-3.47
14227.77,-2.81
14370.04,-2.21
14513.74,-1.69
14658.88,-1.39
14805.47,-1.22
14953.52,-1.24
15103.06,-1.45
15254.09,-1.74
15406.63,-2.12
15560.70,-2.48
15716.30,-2.78
15873.47,-2.98
16032.20,-3.15
16192.52,-3.31
16354.45,-3.53
16517.99,-3.80
16683.17,-4.20
16850.01,-4.65
17018.51,-5.12
17188.69,-5.56
17360.58,-5.90
17534.18,-6.14
17709.53,-6.21
17886.62,-6.13
18065.49,-5.96
18246.14,-5.72
18428.60,-5.56
18612.89,-5.55
18799.02,-5.73
18987.01,-6.19
19176.88,-6.99
19368.65,-7.97
19562.33,-9.05
19757.96,-10.15
19955.54,-11.24
