frequency,raw
20.00,6.31
20.20,6.36
20.40,6.41
20.61,6.47
20.81,6.52
21.02,6.57
21.23,6.62
21.44,6.67
21.66,6.72
21.87,6.77
22.09,6.82
22.31,6.87
22.54,6.92
22.76,6.97
22.99,7.02
23.22,7.07
23.45,7.12
23.69,7.17
23.92,7.22
24.16,7.26
24.40,7.31
24.65,7.36
24.89,7.41
25.14,7.45
25.39,7.50
25.65,7.54
25.91,7.59
26.16,7.63
26.43,7.67
26.69,7.72
26.96,7.76
27.23,7.80
27.50,7.84
27.77,7.88
28.05,7.92
28.33,7.96
28.62,8.00
28.90,8.04
29.19,8.08
29.48,8.11
29.78,8.15
30.08,8.19
30.38,8.22
30.68,8.26
30.99,8.29
31.30,8.33
31.61,8.36
31.93,8.40
32.24,8.43
32.57,8.46
32.89,8.49
33.22,8.53
33.55,8.56
33.89,8.59
34.23,8.62
34.57,8.65
34.92,8.68
35.27,8.71
35.62,8.73
35.97,8.76
36.33,8.79
36.70,8.81
37.06,8.84
37.43,8.87
37.81,8.89
38.19,8.91
38.57,8.94
38.95,8.96
39.34,8.98
39.74,9.01
40.14,9.03
40.54,9.05
40.94,9.07
41.35,9.09
41.76,9.11
42.18,9.13
42.60,9.14
43.03,9.16
43.46,9.18
43.90,9.19
44.33,9.21
44.78,9.23
45.23,9.24
45.68,9.26
46.13,9.27
46.60,9.28
47.06,9.29
47.53,9.31
48.01,9.32
48.49,9.33
48.97,9.34
49.46,9.35
49.96,9.36
50.46,9.37
50.96,9.38
51.47,9.38
51.99,9.39
52.51,9.40
53.03,9.40
53.56,9.41
54.10,9.41
54.64,9.42
55.18,9.42
55.74,9.43
56.29,9.43
56.86,9.43
57.42,9.43
58.00,9.43
58.58,9.43
59.16,9.43
59.76,9.43
60.35,9.43
60.96,9.43
61.57,9.43
62.18,9.42
62.80,9.42
63.43,9.41
64.07,9.41
64.71,9.40
65.35,9.40
66.01,9.39
66.67,9.38
67.33,9.37
68.01,9.37
68.69,9.36
69.37,9.35
70.07,9.34
70.77,9.33
71.48,9.32
72.19,9.30
72.91,9.29
73.64,9.28
74.38,9.26
75.12,9.25
75.87,9.24
76.63,9.22
77.40,9.21
78.17,9.19
78.95,9.17
79.74,9.16
80.54,9.14
81.35,9.12
82.16,9.10
82.98,9.08
83.81,9.06
84.65,9.04
85.50,9.02
86.35,9.00
87.22,8.97
88.09,8.95
88.97,8.92
89.86,8.90
90.76,8.88
91.66,8.85
92.58,8.82
93.51,8.80
94.44,8.77
95.39,8.74
96.34,8.72
97.30,8.69
98.28,8.66
99.26,8.63
100.25,8.60
101.25,8.57
102.27,8.54
103.29,8.51
104.32,8.48
105.37,8.45
106.42,8.42
107.48,8.39
108.56,8.36
109.64,8.32
110.74,8.29
111.85,8.26
112.97,8.22
114.10,8.19
115.24,8.15
116.39,8.12
117.55,8.08
118.73,8.04
119.92,8.01
121.12,7.97
122.33,7.93
123.55,7.89
124.79,7.85
126.03,7.81
127.29,7.77
128.57,7.73
129.85,7.69
131.15,7.65
132.46,7.60
133.79,7.56
135.12,7.52
136.48,7.47
137.84,7.42
139.22,7.38
140.61,7.33
142.02,7.29
143.44,7.24
144.87,7.19
146.32,7.14
147.78,7.09
149.26,7.04
150.75,6.99
152.26,6.94
153.78,6.89
155.32,6.84
156.88,6.79
158.44,6.73
160.03,6.68
161.63,6.63
163.24,6.57
164.88,6.52
166.53,6.46
168.19,6.40
169.87,6.35
171.57,6.29
173.29,6.23
175.02,6.17
176.77,6.11
178.54,6.05
180.32,5.99
182.13,5.92
183.95,5.86
185.79,5.80
187.65,5.73
189.52,5.67
191.42,5.61
193.33,5.55
195.27,5.49
197.22,5.43
199.19,5.37
201.18,5.32
203.19,5.27
205.23,5.23
207.28,5.19
209.35,5.16
211.44,5.13
213.56,5.11
215.69,5.09
217.85,5.07
220.03,5.06
222.23,5.06
224.45,5.05
226.70,5.05
228.96,5.04
231.25,5.03
233.57,5.02
235.90,5.01
238.26,4.99
240.64,4.97
243.05,4.94
245.48,4.91
247.93,4.87
250.41,4.83
252.92,4.79
255.45,4.74
258.00,4.69
260.58,4.64
263.19,4.58
265.82,4.52
268.48,4.46
271.16,4.40
273.87,4.34
276.61,4.27
279.38,4.21
282.17,4.15
284.99,4.08
287.84,4.02
290.72,3.95
293.63,3.89
296.57,3.82
299.53,3.76
302.53,3.69
305.55,3.63
308.61,3.57
311.69,3.50
314.81,3.44
317.96,3.38
321.14,3.31
324.35,3.25
327.59,3.19
330.87,3.13
334.18,3.06
337.52,3.00
340.90,2.94
344.30,2.88
347.75,2.82
351.23,2.76
354.74,2.70
358.28,2.64
361.87,2.58
365.49,2.52
369.14,2.46
372.83,2.40
376.56,2.34
380.33,2.29
384.13,2.23
387.97,2.17
391.85,2.11
395.77,2.06
399.73,2.00
403.72,1.94
407.76,1.89
411.84,1.83
415.96,1.78
420.12,1.72
424.32,1.67
428.56,1.61
432.85,1.56
437.18,1.51
441.55,1.45
445.96,1.40
450.42,1.35
454.93,1.29
459.48,1.24
464.07,1.19
468.71,1.14
473.40,1.09
478.13,1.04
482.91,0.99
487.74,0.94
492.62,0.89
497.55,0.84
502.52,0.79
507.55,0.74
512.62,0.69
517.75,0.64
522.93,0.60
528.16,0.55
533.44,0.50
538.77,0.46
544.16,0.41
549.60,0.37
555.10,0.33
560.65,0.28
566.25,0.24
571.92,0.20
577.64,0.16
583.41,0.12
589.25,0.08
595.14,0.04
601.09,-0.00
607.10,-0.04
613.17,-0.08
619.30,-0.11
625.50,-0.15
631.75,-0.18
638.07,-0.22
644.45,-0.25
650.89,-0.28
657.40,-0.31
663.98,-0.34
670.62,-0.37
677.32,-0.40
684.10,-0.43
690.94,-0.46
697.85,-0.48
704.83,-0.50
711.87,-0.53
718.99,-0.55
726.18,-0.57
733.44,-0.58
740.78,-0.60
748.19,-0.61
755.67,-0.63
763.23,-0.64
770.86,-0.64
778.57,-0.65
786.35,-0.66
794.22,-0.66
802.16,-0.66
810.18,-0.66
818.28,-0.65
826.46,-0.65
834.73,-0.64
843.08,-0.63
851.51,-0.61
860.02,-0.60
868.62,-0.58
877.31,-0.56
886.08,-0.53
894.94,-0.50
903.89,-0.47
912.93,-0.44
922.06,-0.40
931.28,-0.36
940.59,-0.32
950.00,-0.28
959.50,-0.23
969.09,-0.18
978.78,-0.12
988.57,-0.07
998.46,-0.01
1008.44,0.05
1018.53,0.11
1028.71,0.18
1039.00,0.25
1049.39,0.31
1059.88,0.38
1070.48,0.45
1081.19,0.53
1092.00,0.60
1102.92,0.68
1113.95,0.75
1125.09,0.83
1136.34,0.91
1147.70,0.98
1159.18,1.06
1170.77,1.14
1182.48,1.22
1194.30,1.30
1206.25,1.38
1218.31,1.47
1230.49,1.55
1242.80,1.63
1255.22,1.71
1267.78,1.79
1280.45,1.87
1293.26,1.95
1306.19,2.03
1319.25,2.11
1332.45,2.19
1345.77,2.26
1359.23,2.33
1372.82,2.40
1386.55,2.45
1400.41,2.51
1414.42,2.55
1428.56,2.58
1442.85,2.61
1457.28,2.62
1471.85,2.62
1486.57,2.61
1501.43,2.59
1516.45,2.56
1531.61,2.53
1546.93,2.49
1562.40,2.45
1578.02,2.42
1593.80,2.39
1609.74,2.38
1625.84,2.37
1642.10,2.38
1658.52,2.40
1675.10,2.44
1691.85,2.49
1708.77,2.56
1725.86,2.63
1743.12,2.72
1760.55,2.82
1778.15,2.93
1795.94,3.04
1813.90,3.16
1832.03,3.28
1850.36,3.41
1868.86,3.54
1887.55,3.68
1906.42,3.82
1925.49,3.96
1944.74,4.11
1964.19,4.25
1983.83,4.41
2003.67,4.56
2023.71,4.72
2043.94,4.88
2064.38,5.05
2085.03,5.22
2105.88,5.39
2126.94,5.57
2148.20,5.75
2169.69,5.93
2191.38,6.12
2213.30,6.31
2235.43,6.51
2257.78,6.71
2280.36,6.92
2303.17,7.12
2326.20,7.34
2349.46,7.55
2372.95,7.77
2396.68,7.99
2420.65,8.22
2444.86,8.44
2469.31,8.67
2494.00,8.90
2518.94,9.14
2544.13,9.37
2569.57,9.60
2595.27,9.84
2621.22,10.07
2647.43,10.30
2673.90,10.53
2700.64,10.76
2727.65,10.98
2754.93,11.20
2782.48,11.41
2810.30,11.61
2838.40,11.80
2866.79,11.97
2895.46,12.14
2924.41,12.29
2953.65,12.42
2983.19,12.53
3013.02,12.62
3043.15,12.70
3073.58,12.75
3104.32,12.78
3135.36,12.79
3166.72,12.78
3198.38,12.76
3230.37,12.71
3262.67,12.65
3295.30,12.57
3328.25,12.48
3361.53,12.37
3395.15,12.26
3429.10,12.12
3463.39,11.99
3498.03,11.84
3533.01,11.69
3568.34,11.53
3604.02,11.36
3640.06,11.20
3676.46,11.03
3713.22,10.86
3750.36,10.69
3787.86,10.52
3825.74,10.36
3864.00,10.19
3902.64,10.04
3941.66,9.88
3981.08,9.73
4020.89,9.58
4061.10,9.44
4101.71,9.30
4142.73,9.17
4184.15,9.05
4226.00,8.93
4268.26,8.82
4310.94,8.71
4354.05,8.62
4397.59,8.53
4441.56,8.45
4485.98,8.37
4530.84,8.31
4576.15,8.25
4621.91,8.20
4668.13,8.17
4714.81,8.14
4761.96,8.12
4809.58,8.11
4857.67,8.10
4906.25,8.11
4955.31,8.12
5004.87,8.13
5054.91,8.15
5105.46,8.17
5156.52,8.20
5208.08,8.22
5260.16,8.24
5312.77,8.27
5365.89,8.29
5419.55,8.31
5473.75,8.32
5528.49,8.33
5583.77,8.33
5639.61,8.32
5696.00,8.32
5752.96,8.29
5810.49,8.27
5868.60,8.23
5927.28,8.18
5986.56,8.13
6046.42,8.06
6106.89,7.99
6167.96,7.91
6229.64,7.82
6291.93,7.72
6354.85,7.61
6418.40,7.50
6482.58,7.38
6547.41,7.25
6612.88,7.13
6679.01,7.00
6745.80,6.87
6813.26,6.74
6881.39,6.62
6950.21,6.50
7019.71,6.39
7089.91,6.29
7160.81,6.21
7232.41,6.14
7304.74,6.09
7377.79,6.06
7451.56,6.05
7526.08,6.05
7601.34,6.07
7677.35,6.11
7754.13,6.15
7831.67,6.20
7909.98,6.25
7989.08,6.30
8068.98,6.34
8149.67,6.36
8231.16,6.37
8313.47,6.35
8396.61,6.31
8480.57,6.23
8565.38,6.12
8651.03,5.97
8737.54,5.79
8824.92,5.57
8913.17,5.30
9002.30,5.01
9092.32,4.67
9183.25,4.30
9275.08,3.89
9367.83,3.45
9461.51,2.98
9556.12,2.48
9651.68,1.96
9748.20,1.43
9845.68,0.87
9944.14,0.30
10043.58,-0.28
10144.02,-0.87
10245.46,-1.45
10347.91,-2.04
10451.39,-2.61
10555.91,-3.18
10661.46,-3.73
10768.08,-4.27
10875.76,-4.78
10984.52,-5.27
11094.36,-5.73
11205.31,-6.17
11317.36,-6.55
11430.53,-6.91
11544.84,-7.22
11660.29,-7.49
11776.89,-7.73
11894.66,-7.87
12013.60,-7.99
12133.74,-8.05
12255.08,-8.03
12377.63,-7.95
12501.41,-7.81
12626.42,-7.58
12752.68,-7.28
12880.21,-6.90
13009.01,-6.48
13139.10,-6.06
13270.49,-5.57
13403.20,-5.06
13537.23,-4.52
13672.60,-3.99
13809.33,-3.45
13947.42,-2.94
14086.90,-2.45
14227.77,-1.98
14370.04,-1.55
14513.74,-1.15
14658.88,-0.83
14805.47,-0.54
14953.52,-0.31
15103.06,-0.15
15254.09,-0.02
15406.63,0.01
15560.70,0.00
15716.30,-0.06
15873.47,-0.17
16032.20,-0.31
16192.52,-0.48
16354.45,-0.66
16517.99,-0.84
16683.17,-1.02
16850.01,-1.19
17018.51,-1.34
17188.69,-1.47
17360.58,-1.60
17534.18,-1.73
17709.53,-1.85
17886.62,-1.99
18065.49,-2.13
18246.14,-2.27
18428.60,-2.40
18612.89,-2.52
18799.02,-2.60
18987.01,-2.66
19176.88,-2.69
19368.65,-2.70
19562.33,-2.71
19757.96,-2.71
19955.54,-2.71
