frequency,raw
20.00,11.89
20.20,11.87
20.40,11.86
20.61,11.85
20.81,11.84
21.02,11.82
21.23,11.81
21.44,11.80
21.66,11.79
21.87,11.78
22.09,11.77
22.31,11.76
22.54,11.74
22.76,11.73
22.99,11.71
23.22,11.69
23.45,11.67
23.69,11.66
23.92,11.64
24.16,11.63
24.40,11.62
24.65,11.62
24.89,11.62
25.14,11.62
25.39,11.61
25.65,11.60
25.91,11.58
26.16,11.55
26.43,11.52
26.69,11.48
26.96,11.44
27.23,11.41
27.50,11.38
27.77,11.36
28.05,11.35
28.33,11.34
28.62,11.32
28.90,11.31
29.19,11.29
29.48,11.27
29.78,11.25
30.08,11.22
30.38,11.20
30.68,11.18
30.99,11.16
31.30,11.14
31.61,11.12
31.93,11.11
32.24,11.09
32.57,11.08
32.89,11.06
33.22,11.04
33.55,11.01
33.89,10.98
34.23,10.95
34.57,10.91
34.92,10.88
35.27,10.85
35.62,10.82
35.97,10.79
36.33,10.76
36.70,10.74
37.06,10.71
37.43,10.68
37.81,10.65
38.19,10.62
38.57,10.59
38.95,10.57
39.34,10.54
39.74,10.51
40.14,10.48
40.54,10.45
40.94,10.42
41.35,10.39
41.76,10.35
42.18,10.32
42.60,10.29
43.03,10.25
43.46,10.22
43.90,10.18
44.33,10.15
44.78,10.11
45.23,10.08
45.68,10.04
46.13,10.00
46.60,9.97
47.06,9.93
47.53,9.89
48.01,9.85
48.49,9.81
48.97,9.78
49.46,9.74
49.96,9.70
50.46,9.66
50.96,9.62
51.47,9.58
51.99,9.54
52.51,9.50
53.03,9.46
53.56,9.42
54.10,9.38
54.64,9.34
55.18,9.30
55.74,9.26
56.29,9.21
56.86,9.17
57.42,9.13
58.00,9.09
58.58,9.04
59.16,9.00
59.76,8.95
60.35,8.91
60.96,8.86
61.57,8.82
62.18,8.77
62.80,8.73
63.43,8.68
64.07,8.64
64.71,8.59
65.35,8.55
66.01,8.50
66.67,8.45
67.33,8.41
68.01,8.36
68.69,8.31
69.37,8.26
70.07,8.22
70.77,8.17
71.48,8.12
72.19,8.07
72.91,8.02
73.64,7.97
74.38,7.92
75.12,7.87
75.87,7.82
76.63,7.77
77.40,7.72
78.17,7.67
78.95,7.62
79.74,7.57
80.54,7.52
81.35,7.47
82.16,7.42
82.98,7.37
83.81,7.31
84.65,7.26
85.50,7.20
86.35,7.15
87.22,7.09
88.09,7.04
88.97,6.99
89.86,6.94
90.76,6.89
91.66,6.84
92.58,6.78
93.51,6.73
94.44,6.66
95.39,6.59
96.34,6.51
97.30,6.41
98.28,6.32
99.26,6.23
100.25,6.16
101.25,6.12
102.27,6.10
103.29,6.09
104.32,6.08
105.37,6.06
106.42,6.04
107.48,6.02
108.56,5.99
109.64,5.97
110.74,5.94
111.85,5.91
112.97,5.88
114.10,5.85
115.24,5.80
116.39,5.75
117.55,5.70
118.73,5.65
119.92,5.60
121.12,5.54
122.33,5.49
123.55,5.43
124.79,5.38
126.03,5.32
127.29,5.26
128.57,5.21
129.85,5.15
131.15,5.10
132.46,5.04
133.79,4.99
135.12,4.94
136.48,4.88
137.84,4.83
139.22,4.77
140.61,4.72
142.02,4.67
143.44,4.61
144.87,4.56
146.32,4.51
147.78,4.45
149.26,4.40
150.75,4.35
152.26,4.29
153.78,4.24
155.32,4.19
156.88,4.14
158.44,4.10
160.03,4.05
161.63,4.01
163.24,3.97
164.88,3.92
166.53,3.88
168.19,3.84
169.87,3.80
171.57,3.75
173.29,3.71
175.02,3.66
176.77,3.61
178.54,3.56
180.32,3.51
182.13,3.47
183.95,3.42
185.79,3.37
187.65,3.32
189.52,3.27
191.42,3.22
193.33,3.17
195.27,3.11
197.22,3.06
199.19,3.01
201.18,2.96
203.19,2.91
205.23,2.86
207.28,2.81
209.35,2.77
211.44,2.71
213.56,2.67
215.69,2.62
217.85,2.58
220.03,2.55
222.23,2.53
224.45,2.51
226.70,2.50
228.96,2.50
231.25,2.50
233.57,2.49
235.90,2.49
238.26,2.47
240.64,2.45
243.05,2.42
245.48,2.39
247.93,2.35
250.41,2.32
252.92,2.28
255.45,2.23
258.00,2.19
260.58,2.15
263.19,2.11
265.82,2.07
268.48,2.03
271.16,1.99
273.87,1.95
276.61,1.91
279.38,1.87
282.17,1.83
284.99,1.80
287.84,1.76
290.72,1.73
293.63,1.69
296.57,1.66
299.53,1.62
302.53,1.59
305.55,1.55
308.61,1.52
311.69,1.49
314.81,1.46
317.96,1.42
321.14,1.39
324.35,1.36
327.59,1.33
330.87,1.30
334.18,1.27
337.52,1.24
340.90,1.21
344.30,1.18
347.75,1.15
351.23,1.12
354.74,1.09
358.28,1.06
361.87,1.03
365.49,1.01
369.14,0.98
372.83,0.95
376.56,0.93
380.33,0.90
384.13,0.88
387.97,0.85
391.85,0.83
395.77,0.80
399.73,0.78
403.72,0.75
407.76,0.73
411.84,0.71
415.96,0.68
420.12,0.66
424.32,0.64
428.56,0.61
432.85,0.59
437.18,0.57
441.55,0.55
445.96,0.53
450.42,0.50
454.93,0.48
459.48,0.46
464.07,0.44
468.71,0.42
473.40,0.40
478.13,0.38
482.91,0.36
487.74,0.34
492.62,0.32
497.55,0.30
502.52,0.28
507.55,0.26
512.62,0.24
517.75,0.22
522.93,0.20
528.16,0.18
533.44,0.16
538.77,0.15
544.16,0.13
549.60,0.11
555.10,0.09
560.65,0.07
566.25,0.05
571.92,0.04
577.64,0.02
583.41,0.00
589.25,-0.02
595.14,-0.04
601.09,-0.05
607.10,-0.07
613.17,-0.09
619.30,-0.11
625.50,-0.12
631.75,-0.14
638.07,-0.15
644.45,-0.17
650.89,-0.18
657.40,-0.20
663.98,-0.21
670.62,-0.22
677.32,-0.23
684.10,-0.25
690.94,-0.26
697.85,-0.27
704.83,-0.28
711.87,-0.29
718.99,-0.30
726.18,-0.30
733.44,-0.31
740.78,-0.32
748.19,-0.32
755.67,-0.32
763.23,-0.33
770.86,-0.33
778.57,-0.33
786.35,-0.33
794.22,-0.33
802.16,-0.33
810.18,-0.33
818.28,-0.33
826.46,-0.33
834.73,-0.33
843.08,-0.32
851.51,-0.31
860.02,-0.31
868.62,-0.30
877.31,-0.29
886.08,-0.27
894.94,-0.26
903.89,-0.24
912.93,-0.23
922.06,-0.21
931.28,-0.19
940.59,-0.17
950.00,-0.15
959.50,-0.12
969.09,-0.09
978.78,-0.07
988.57,-0.04
998.46,-0.01
1008.44,0.03
1018.53,0.06
1028.71,0.10
1039.00,0.13
1049.39,0.17
1059.88,0.21
1070.48,0.24
1081.19,0.28
1092.00,0.32
1102.92,0.36
1113.95,0.40
1125.09,0.43
1136.34,0.47
1147.70,0.51
1159.18,0.54
1170.77,0.58
1182.48,0.61
1194.30,0.65
1206.25,0.68
1218.31,0.71
1230.49,0.74
1242.80,0.77
1255.22,0.80
1267.78,0.83
1280.45,0.85
1293.26,0.88
1306.19,0.90
1319.25,0.92
1332.45,0.94
1345.77,0.96
1359.23,0.98
1372.82,1.00
1386.55,1.01
1400.41,1.03
1414.42,1.04
1428.56,1.06
1442.85,1.07
1457.28,1.09
1471.85,1.11
1486.57,1.12
1501.43,1.14
1516.45,1.16
1531.61,1.19
1546.93,1.21
1562.40,1.25
1578.02,1.29
1593.80,1.33
1609.74,1.39
1625.84,1.45
1642.10,1.52
1658.52,1.60
1675.10,1.69
1691.85,1.80
1708.77,1.92
1725.86,2.06
1743.12,2.21
1760.55,2.38
1778.15,2.56
1795.94,2.76
1813.90,2.98
1832.03,3.21
1850.36,3.44
1868.86,3.67
1887.55,3.91
1906.42,4.14
1925.49,4.37
1944.74,4.58
1964.19,4.78
1983.83,4.96
2003.67,5.13
2023.71,5.28
2043.94,5.42
2064.38,5.54
2085.03,5.65
2105.88,5.74
2126.94,5.82
2148.20,5.89
2169.69,5.94
2191.38,5.99
2213.30,6.02
2235.43,6.05
2257.78,6.08
2280.36,6.10
2303.17,6.11
2326.20,6.13
2349.46,6.14
2372.95,6.15
2396.68,6.17
2420.65,6.19
2444.86,6.21
2469.31,6.23
2494.00,6.27
2518.94,6.31
2544.13,6.36
2569.57,6.43
2595.27,6.52
2621.22,6.61
2647.43,6.74
2673.90,6.90
2700.64,7.07
2727.65,7.26
2754.93,7.48
2782.48,7.70
2810.30,7.93
2838.40,8.16
2866.79,8.37
2895.46,8.56
2924.41,8.70
2953.65,8.81
2983.19,8.84
3013.02,8.84
3043.15,8.78
3073.58,8.65
3104.32,8.47
3135.36,8.24
3166.72,7.98
3198.38,7.70
3230.37,7.39
3262.67,7.07
3295.30,6.75
3328.25,6.43
3361.53,6.12
3395.15,5.80
3429.10,5.49
3463.39,5.18
3498.03,4.87
3533.01,4.56
3568.34,4.25
3604.02,3.95
3640.06,3.66
3676.46,3.37
3713.22,3.09
3750.36,2.82
3787.86,2.56
3825.74,2.30
3864.00,2.06
3902.64,1.81
3941.66,1.57
3981.08,1.34
4020.89,1.11
4061.10,0.88
4101.71,0.65
4142.73,0.42
4184.15,0.19
4226.00,-0.04
4268.26,-0.27
4310.94,-0.49
4354.05,-0.68
4397.59,-0.86
4441.56,-1.01
4485.98,-1.14
4530.84,-1.25
4576.15,-1.34
4621.91,-1.43
4668.13,-1.50
4714.81,-1.55
4761.96,-1.59
4809.58,-1.61
4857.67,-1.62
4906.25,-1.63
4955.31,-1.64
5004.87,-1.66
5054.91,-1.69
5105.46,-1.72
5156.52,-1.75
5208.08,-1.78
5260.16,-1.79
5312.77,-1.80
5365.89,-1.80
5419.55,-1.80
5473.75,-1.79
5528.49,-1.77
5583.77,-1.75
5639.61,-1.72
5696.00,-1.69
5752.96,-1.65
5810.49,-1.60
5868.60,-1.54
5927.28,-1.47
5986.56,-1.38
6046.42,-1.28
6106.89,-1.16
6167.96,-1.02
6229.64,-0.86
6291.93,-0.69
6354.85,-0.50
6418.40,-0.30
6482.58,-0.06
6547.41,0.21
6612.88,0.52
6679.01,0.88
6745.80,1.29
6813.26,1.73
6881.39,2.23
6950.21,2.78
7019.71,3.36
7089.91,4.00
7160.81,4.68
7232.41,5.38
7304.74,6.08
7377.79,6.71
7451.56,7.22
7526.08,7.56
7601.34,7.71
7677.35,7.55
7754.13,7.29
7831.67,6.70
7909.98,6.05
7989.08,5.30
8068.98,4.53
8149.67,3.79
8231.16,3.11
8313.47,2.57
8396.61,2.13
8480.57,1.91
8565.38,1.96
8651.03,2.20
8737.54,2.61
8824.92,3.07
8913.17,3.45
9002.30,3.77
9092.32,3.87
9183.25,3.79
9275.08,3.59
9367.83,3.26
9461.51,2.88
9556.12,2.52
9651.68,2.21
9748.20,1.96
9845.68,1.84
9944.14,1.79
10043.58,1.80
10144.02,1.86
10245.46,1.94
10347.91,2.02
10451.39,2.08
10555.91,2.08
10661.46,2.03
10768.08,1.91
10875.76,1.73
10984.52,1.51
11094.36,1.29
11205.31,1.07
11317.36,0.92
11430.53,0.81
11544.84,0.77
11660.29,0.79
11776.89,0.85
11894.66,1.02
12013.60,1.20
12133.74,1.40
12255.08,1.57
12377.63,1.69
12501.41,1.70
12626.42,1.50
12752.68,1.08
12880.21,0.32
13009.01,-0.59
13139.10,-1.51
13270.49,-2.73
13403.20,-4.02
13537.23,-5.42
13672.60,-6.80
13809.33,-8.15
13947.42,-9.31
14086.90,-10.37
14227.77,-11.37
14370.04,-12.34
14513.74,-13.27
14658.88,-14.03
14805.47,-14.67
14953.52,-15.13
15103.06,-15.40
15254.09,-15.57
15406.63,-15.39
15560.70,-15.07
15716.30,-14.55
15873.47,-13.92
16032.20,-13.26
16192.52,-12.62
16354.45,-11.99
16517.99,-11.37
16683.17,-10.74
16850.01,-10.19
17018.51,-9.72
17188.69,-9.41
17360.58,-9.02
17534.18,-8.55
17709.53,-7.88
17886.62,-7.20
18065.49,-6.57
18246.14,-6.04
18428.60,-5.78
18612.89,-5.77
18799.02,-6.03
18987.01,-6.63
19176.88,-7.64
19368.65,-8.89
19562.33,-10.31
19757.96,-11.79
19955.54,-13.28
