frequency,raw,smoothed,error,error_smoothed,equalization,parametric_eq,fixed_band_eq,equalized_raw,equalized_smoothed,target
20.00,-1.41,-1.41,-4.54,-4.53,4.53,3.96,1.36,3.12,3.12,3.13
20.20,-1.36,-1.36,-4.48,-4.49,4.49,3.95,1.41,3.13,3.13,3.12
20.40,-1.32,-1.32,-4.44,-4.45,4.45,3.94,1.45,3.13,3.13,3.12
20.61,-1.28,-1.28,-4.40,-4.40,4.41,3.92,1.49,3.13,3.13,3.12
20.81,-1.24,-1.24,-4.36,-4.36,4.36,3.91,1.54,3.12,3.12,3.12
21.02,-1.20,-1.20,-4.32,-4.32,4.31,3.89,1.58,3.11,3.11,3.12
21.23,-1.16,-1.16,-4.26,-4.27,4.26,3.88,1.63,3.10,3.10,3.10
21.44,-1.12,-1.12,-4.21,-4.21,4.21,3.86,1.68,3.09,3.09,3.09
21.66,-1.08,-1.08,-4.15,-4.15,4.15,3.85,1.73,3.07,3.07,3.07
21.87,-1.04,-1.04,-4.09,-4.09,4.09,3.83,1.78,3.05,3.05,3.05
22.09,-1.00,-1.00,-4.04,-4.03,4.03,3.81,1.84,3.03,3.03,3.04
22.31,-0.96,-0.96,-3.97,-3.97,3.96,3.80,1.89,3.00,3.01,3.01
22.54,-0.91,-0.91,-3.90,-3.90,3.90,3.78,1.95,2.99,2.99,2.99
22.76,-0.87,-0.87,-3.84,-3.83,3.83,3.77,2.01,2.97,2.97,2.97
22.99,-0.83,-0.83,-3.77,-3.77,3.77,3.75,2.07,2.94,2.94,2.94
23.22,-0.79,-0.79,-3.70,-3.70,3.71,3.73,2.13,2.92,2.92,2.91
23.45,-0.76,-0.76,-3.65,-3.65,3.66,3.71,2.19,2.90,2.90,2.89
23.69,-0.73,-0.73,-3.61,-3.60,3.60,3.70,2.25,2.87,2.87,2.88
23.92,-0.70,-0.70,-3.55,-3.56,3.55,3.68,2.32,2.85,2.85,2.85
24.16,-0.67,-0.67,-3.51,-3.51,3.51,3.66,2.38,2.84,2.83,2.84
24.40,-0.64,-0.64,-3.46,-3.46,3.46,3.64,2.45,2.82,2.82,2.82
24.65,-0.62,-0.62,-3.42,-3.42,3.42,3.62,2.52,2.80,2.80,2.80
24.89,-0.59,-0.59,-3.37,-3.38,3.38,3.60,2.59,2.79,2.79,2.78
25.14,-0.57,-0.57,-3.34,-3.34,3.34,3.58,2.66,2.77,2.77,2.77
25.39,-0.55,-0.55,-3.30,-3.30,3.30,3.56,2.72,2.75,2.75,2.75
25.65,-0.53,-0.53,-3.27,-3.26,3.26,3.54,2.79,2.73,2.73,2.74
25.91,-0.51,-0.51,-3.22,-3.23,3.23,3.52,2.86,2.72,2.71,2.71
26.16,-0.50,-0.50,-3.20,-3.20,3.20,3.50,2.93,2.70,2.70,2.70
26.43,-0.49,-0.49,-3.18,-3.17,3.17,3.48,3.00,2.68,2.68,2.68
26.69,-0.47,-0.47,-3.13,-3.14,3.14,3.46,3.07,2.67,2.67,2.66
26.96,-0.46,-0.46,-3.11,-3.11,3.11,3.44,3.13,2.65,2.65,2.65
27.23,-0.45,-0.45,-3.09,-3.09,3.09,3.42,3.19,2.64,2.64,2.64
27.50,-0.44,-0.44,-3.07,-3.07,3.06,3.40,3.26,2.62,2.62,2.63
27.77,-0.43,-0.43,-3.04,-3.04,3.04,3.37,3.31,2.61,2.61,2.61
28.05,-0.42,-0.42,-3.02,-3.01,3.02,3.35,3.37,2.60,2.60,2.60
28.33,-0.41,-0.41,-2.99,-2.99,2.99,3.33,3.42,2.58,2.58,2.58
28.62,-0.41,-0.41,-2.97,-2.97,2.97,3.30,3.47,2.56,2.57,2.56
28.90,-0.40,-0.40,-2.95,-2.95,2.96,3.28,3.52,2.56,2.55,2.55
29.19,-0.40,-0.40,-2.93,-2.94,2.94,3.26,3.56,2.54,2.54,2.53
29.48,-0.39,-0.39,-2.92,-2.92,2.92,3.23,3.60,2.53,2.53,2.53
29.78,-0.39,-0.39,-2.91,-2.90,2.90,3.21,3.63,2.51,2.51,2.52
30.08,-0.38,-0.38,-2.89,-2.89,2.88,3.18,3.65,2.50,2.50,2.51
30.38,-0.38,-0.38,-2.86,-2.86,2.86,3.16,3.67,2.48,2.48,2.48
30.68,-0.37,-0.37,-2.84,-2.84,2.84,3.13,3.69,2.47,2.47,2.47
30.99,-0.36,-0.36,-2.81,-2.81,2.82,3.11,3.70,2.46,2.45,2.45
31.30,-0.35,-0.35,-2.79,-2.79,2.79,3.08,3.70,2.44,2.44,2.44
31.61,-0.35,-0.35,-2.77,-2.77,2.76,3.05,3.69,2.41,2.42,2.42
31.93,-0.34,-0.34,-2.74,-2.74,2.74,3.03,3.68,2.40,2.40,2.40
32.24,-0.33,-0.33,-2.70,-2.71,2.71,3.00,3.67,2.38,2.38,2.37
32.57,-0.32,-0.32,-2.68,-2.68,2.68,2.97,3.65,2.36,2.36,2.36
32.89,-0.32,-0.32,-2.66,-2.65,2.66,2.94,3.62,2.34,2.34,2.34
33.22,-0.31,-0.31,-2.62,-2.63,2.63,2.91,3.59,2.32,2.32,2.31
33.55,-0.31,-0.31,-2.61,-2.61,2.61,2.89,3.55,2.30,2.30,2.30
33.89,-0.31,-0.31,-2.59,-2.58,2.58,2.86,3.51,2.27,2.28,2.28
34.23,-0.31,-0.31,-2.56,-2.56,2.56,2.83,3.46,2.25,2.26,2.25
34.57,-0.31,-0.31,-2.54,-2.54,2.55,2.80,3.41,2.24,2.23,2.23
34.92,-0.32,-0.32,-2.53,-2.53,2.53,2.77,3.36,2.21,2.21,2.21
35.27,-0.33,-0.33,-2.52,-2.52,2.52,2.74,3.30,2.19,2.19,2.19
35.62,-0.34,-0.34,-2.51,-2.51,2.51,2.70,3.24,2.17,2.17,2.17
35.97,-0.35,-0.35,-2.50,-2.50,2.50,2.67,3.18,2.15,2.15,2.15
36.33,-0.36,-0.36,-2.49,-2.49,2.49,2.64,3.12,2.13,2.13,2.13
36.70,-0.37,-0.37,-2.48,-2.48,2.48,2.61,3.05,2.11,2.11,2.11
37.06,-0.39,-0.39,-2.47,-2.48,2.47,2.58,2.99,2.08,2.09,2.08
37.43,-0.40,-0.40,-2.47,-2.47,2.46,2.54,2.92,2.06,2.07,2.07
37.81,-0.41,-0.41,-2.46,-2.46,2.46,2.51,2.85,2.05,2.04,2.05
38.19,-0.42,-0.42,-2.44,-2.45,2.44,2.48,2.79,2.02,2.02,2.02
38.57,-0.43,-0.43,-2.44,-2.43,2.43,2.44,2.72,2.00,2.00,2.01
38.95,-0.44,-0.44,-2.42,-2.42,2.42,2.41,2.65,1.98,1.98,1.98
39.34,-0.45,-0.45,-2.41,-2.41,2.41,2.37,2.58,1.96,1.96,1.96
39.74,-0.46,-0.46,-2.39,-2.40,2.40,2.34,2.52,1.94,1.94,1.93
40.14,-0.46,-0.46,-2.39,-2.38,2.38,2.30,2.45,1.92,1.92,1.93
40.54,-0.47,-0.47,-2.37,-2.37,2.37,2.26,2.39,1.90,1.90,1.90
40.94,-0.47,-0.47,-2.36,-2.36,2.36,2.23,2.33,1.89,1.89,1.89
41.35,-0.48,-0.48,-2.34,-2.34,2.34,2.19,2.26,1.86,1.87,1.86
41.76,-0.48,-0.48,-2.33,-2.33,2.33,2.15,2.20,1.85,1.85,1.85
42.18,-0.48,-0.48,-2.32,-2.31,2.31,2.11,2.14,1.83,1.83,1.84
42.60,-0.48,-0.48,-2.29,-2.30,2.29,2.08,2.09,1.81,1.81,1.81
43.03,-0.48,-0.48,-2.28,-2.27,2.27,2.04,2.03,1.79,1.79,1.80
43.46,-0.47,-0.47,-2.25,-2.25,2.25,2.00,1.98,1.78,1.77,1.78
43.90,-0.47,-0.47,-2.22,-2.22,2.22,1.96,1.92,1.75,1.75,1.75
44.33,-0.46,-0.46,-2.19,-2.19,2.19,1.92,1.87,1.73,1.73,1.73
44.78,-0.45,-0.45,-2.16,-2.16,2.16,1.88,1.82,1.71,1.71,1.71
45.23,-0.44,-0.44,-2.12,-2.13,2.13,1.84,1.77,1.69,1.69,1.68
45.68,-0.43,-0.43,-2.10,-2.10,2.10,1.79,1.73,1.67,1.67,1.67
46.13,-0.42,-0.42,-2.07,-2.07,2.07,1.75,1.68,1.65,1.65,1.65
46.60,-0.40,-0.40,-2.04,-2.03,2.03,1.71,1.64,1.63,1.63,1.64
47.06,-0.38,-0.38,-2.00,-2.00,1.99,1.67,1.59,1.61,1.61,1.62
47.53,-0.36,-0.36,-1.96,-1.96,1.95,1.62,1.55,1.59,1.59,1.60
48.01,-0.33,-0.33,-1.92,-1.91,1.90,1.58,1.51,1.57,1.57,1.59
48.49,-0.30,-0.30,-1.86,-1.86,1.85,1.54,1.47,1.55,1.55,1.56
48.97,-0.27,-0.27,-1.80,-1.80,1.80,1.49,1.44,1.53,1.53,1.53
49.46,-0.24,-0.24,-1.73,-1.73,1.74,1.44,1.40,1.50,1.50,1.49
49.96,-0.21,-0.21,-1.67,-1.68,1.68,1.40,1.37,1.47,1.48,1.46
50.46,-0.17,-0.17,-1.63,-1.62,1.62,1.35,1.33,1.45,1.45,1.46
50.96,-0.13,-0.13,-1.57,-1.57,1.57,1.31,1.30,1.44,1.43,1.44
51.47,-0.10,-0.10,-1.50,-1.51,1.51,1.26,1.26,1.41,1.41,1.40
51.99,-0.06,-0.06,-1.44,-1.44,1.44,1.21,1.23,1.38,1.39,1.38
52.51,-0.02,-0.02,-1.39,-1.38,1.38,1.16,1.20,1.36,1.36,1.37
53.03,0.02,0.02,-1.32,-1.32,1.32,1.11,1.17,1.34,1.34,1.34
53.56,0.06,0.06,-1.26,-1.26,1.26,1.06,1.14,1.32,1.32,1.32
54.10,0.10,0.10,-1.19,-1.19,1.19,1.01,1.11,1.29,1.29,1.29
54.64,0.14,0.14,-1.13,-1.12,1.12,0.96,1.07,1.26,1.27,1.27
55.18,0.18,0.18,-1.06,-1.06,1.06,0.91,1.04,1.24,1.24,1.24
55.74,0.23,0.23,-0.98,-0.99,0.99,0.86,1.01,1.22,1.22,1.21
56.29,0.27,0.27,-0.92,-0.92,0.92,0.81,0.98,1.19,1.19,1.20
56.86,0.31,0.31,-0.86,-0.86,0.86,0.75,0.94,1.17,1.17,1.17
57.42,0.35,0.35,-0.79,-0.79,0.79,0.70,0.91,1.14,1.14,1.14
58.00,0.39,0.39,-0.73,-0.72,0.73,0.65,0.87,1.12,1.12,1.12
58.58,0.43,0.43,-0.66,-0.66,0.66,0.59,0.83,1.09,1.09,1.09
59.16,0.48,0.48,-0.59,-0.59,0.59,0.54,0.80,1.07,1.07,1.07
59.76,0.52,0.52,-0.53,-0.53,0.52,0.48,0.76,1.04,1.04,1.05
60.35,0.56,0.56,-0.46,-0.46,0.45,0.43,0.72,1.02,1.02,1.02
60.96,0.60,0.60,-0.40,-0.39,0.38,0.37,0.67,0.98,0.99,1.00
61.57,0.65,0.65,-0.31,-0.32,0.31,0.31,0.63,0.96,0.96,0.96
62.18,0.69,0.69,-0.24,-0.24,0.24,0.25,0.58,0.93,0.93,0.93
62.80,0.73,0.73,-0.17,-0.17,0.17,0.19,0.53,0.90,0.90,0.90
63.43,0.77,0.77,-0.10,-0.10,0.10,0.14,0.48,0.87,0.87,0.87
64.07,0.81,0.81,-0.03,-0.03,0.04,0.08,0.43,0.85,0.85,0.84
64.71,0.85,0.85,0.03,0.03,-0.03,0.01,0.38,0.82,0.82,0.82
65.35,0.89,0.89,0.09,0.09,-0.09,-0.05,0.32,0.80,0.80,0.80
66.01,0.93,0.93,0.15,0.15,-0.16,-0.11,0.26,0.77,0.77,0.78
66.67,0.97,0.97,0.22,0.22,-0.22,-0.17,0.20,0.75,0.75,0.75
67.33,1.00,1.00,0.27,0.28,-0.28,-0.23,0.14,0.72,0.73,0.73
68.01,1.04,1.04,0.34,0.34,-0.34,-0.30,0.07,0.70,0.70,0.70
68.69,1.08,1.08,0.40,0.40,-0.40,-0.36,0.01,0.68,0.68,0.68
69.37,1.11,1.11,0.46,0.46,-0.46,-0.43,-0.06,0.65,0.65,0.65
70.07,1.15,1.15,0.53,0.52,-0.52,-0.49,-0.13,0.63,0.62,0.62
70.77,1.18,1.18,0.58,0.58,-0.58,-0.56,-0.20,0.60,0.60,0.60
71.48,1.21,1.21,0.64,0.65,-0.65,-0.62,-0.28,0.56,0.57,0.57
72.19,1.25,1.25,0.71,0.71,-0.71,-0.69,-0.35,0.54,0.54,0.54
72.91,1.28,1.28,0.78,0.77,-0.78,-0.76,-0.43,0.50,0.50,0.50
73.64,1.31,1.31,0.84,0.84,-0.84,-0.83,-0.51,0.47,0.47,0.47
74.38,1.34,1.34,0.90,0.91,-0.91,-0.90,-0.59,0.43,0.43,0.44
75.12,1.37,1.37,0.98,0.98,-0.97,-0.97,-0.67,0.40,0.40,0.39
75.87,1.41,1.41,1.05,1.04,-1.04,-1.04,-0.75,0.37,0.36,0.36
76.63,1.44,1.44,1.11,1.12,-1.11,-1.11,-0.84,0.33,0.33,0.33
77.40,1.47,1.47,1.18,1.18,-1.18,-1.18,-0.92,0.29,0.29,0.29
78.17,1.50,1.50,1.26,1.25,-1.25,-1.25,-1.01,0.25,0.25,0.24
78.95,1.53,1.53,1.31,1.32,-1.32,-1.32,-1.10,0.21,0.21,0.22
79.74,1.56,1.56,1.39,1.39,-1.39,-1.40,-1.19,0.17,0.17,0.17
80.54,1.60,1.60,1.47,1.47,-1.47,-1.47,-1.28,0.13,0.13,0.13
81.35,1.63,1.63,1.55,1.54,-1.54,-1.54,-1.37,0.09,0.09,0.08
82.16,1.65,1.65,1.61,1.61,-1.61,-1.62,-1.47,0.04,0.04,0.04
82.98,1.68,1.68,1.68,1.69,-1.69,-1.69,-1.57,-0.01,-0.01,0.00
83.81,1.71,1.71,1.77,1.76,-1.76,-1.77,-1.66,-0.05,-0.05,-0.06
84.65,1.74,1.74,1.84,1.84,-1.84,-1.84,-1.76,-0.10,-0.10,-0.10
85.50,1.77,1.77,1.91,1.92,-1.91,-1.92,-1.87,-0.14,-0.14,-0.14
86.35,1.80,1.80,1.99,1.99,-1.99,-2.00,-1.97,-0.19,-0.19,-0.19
87.22,1.82,1.82,2.06,2.06,-2.06,-2.07,-2.07,-0.24,-0.24,-0.24
88.09,1.85,1.85,2.14,2.14,-2.14,-2.15,-2.18,-0.29,-0.29,-0.29
88.97,1.88,1.88,2.21,2.21,-2.21,-2.23,-2.29,-0.34,-0.34,-0.33
89.86,1.90,1.90,2.28,2.29,-2.29,-2.31,-2.40,-0.39,-0.39,-0.38
90.76,1.93,1.93,2.38,2.37,-2.37,-2.38,-2.51,-0.44,-0.44,-0.45
91.66,1.95,1.95,2.44,2.45,-2.44,-2.46,-2.62,-0.49,-0.49,-0.49
92.58,1.98,1.98,2.53,2.52,-2.52,-2.54,-2.74,-0.54,-0.54,-0.55
93.51,2.01,2.01,2.60,2.60,-2.60,-2.62,-2.85,-0.59,-0.59,-0.59
94.44,2.03,2.03,2.67,2.67,-2.68,-2.70,-2.97,-0.65,-0.64,-0.64
95.39,2.06,2.06,2.75,2.75,-2.76,-2.78,-3.09,-0.70,-0.70,-0.69
96.34,2.08,2.08,2.84,2.84,-2.84,-2.85,-3.21,-0.76,-0.76,-0.76
97.30,2.11,2.11,2.92,2.92,-2.92,-2.93,-3.33,-0.81,-0.81,-0.81
98.28,2.13,2.13,3.00,3.01,-3.00,-3.01,-3.46,-0.87,-0.87,-0.87
99.26,2.16,2.16,3.09,3.09,-3.09,-3.09,-3.58,-0.93,-0.93,-0.93
100.25,2.19,2.19,3.18,3.18,-3.18,-3.17,-3.71,-0.99,-0.99,-0.99
101.25,2.21,2.21,3.26,3.26,-3.26,-3.25,-3.83,-1.05,-1.05,-1.05
102.27,2.24,2.24,3.35,3.35,-3.35,-3.33,-3.96,-1.11,-1.11,-1.11
103.29,2.26,2.26,3.44,3.44,-3.44,-3.41,-4.08,-1.18,-1.17,-1.18
104.32,2.29,2.29,3.53,3.52,-3.52,-3.48,-4.21,-1.23,-1.23,-1.23
105.37,2.32,2.32,3.61,3.61,-3.61,-3.56,-4.33,-1.29,-1.30,-1.29
106.42,2.34,2.34,3.70,3.70,-3.70,-3.64,-4.46,-1.36,-1.36,-1.36
107.48,2.37,2.37,3.79,3.79,-3.79,-3.72,-4.58,-1.42,-1.42,-1.42
108.56,2.39,2.39,3.88,3.88,-3.88,-3.79,-4.70,-1.49,-1.49,-1.49
109.64,2.42,2.42,3.98,3.97,-3.97,-3.87,-4.82,-1.55,-1.55,-1.56
110.74,2.44,2.44,4.05,4.06,-4.06,-3.94,-4.93,-1.62,-1.62,-1.61
111.85,2.46,2.46,4.14,4.15,-4.15,-4.02,-5.04,-1.69,-1.69,-1.68
112.97,2.49,2.49,4.25,4.24,-4.24,-4.10,-5.15,-1.75,-1.75,-1.76
114.10,2.51,2.51,4.33,4.33,-4.33,-4.17,-5.25,-1.82,-1.82,-1.82
115.24,2.53,2.53,4.41,4.42,-4.42,-4.24,-5.35,-1.89,-1.88,-1.88
116.39,2.55,2.55,4.51,4.50,-4.50,-4.32,-5.44,-1.95,-1.95,-1.96
117.55,2.57,2.57,4.59,4.59,-4.59,-4.39,-5.52,-2.02,-2.02,-2.02
118.73,2.58,2.58,4.67,4.67,-4.67,-4.46,-5.60,-2.09,-2.08,-2.09
119.92,2.60,2.60,4.74,4.74,-4.74,-4.53,-5.67,-2.14,-2.14,-2.14
121.12,2.62,2.62,4.82,4.82,-4.82,-4.60,-5.73,-2.20,-2.20,-2.20
122.33,2.64,2.64,4.90,4.90,-4.90,-4.67,-5.78,-2.26,-2.26,-2.26
123.55,2.65,2.65,4.97,4.97,-4.97,-4.74,-5.83,-2.32,-2.32,-2.32
124.79,2.67,2.67,5.05,5.04,-5.05,-4.81,-5.86,-2.38,-2.38,-2.38
126.03,2.68,2.68,5.11,5.11,-5.12,-4.88,-5.90,-2.44,-2.44,-2.43
127.29,2.70,2.70,5.19,5.19,-5.19,-4.94,-5.91,-2.49,-2.49,-2.49
128.57,2.71,2.71,5.27,5.26,-5.26,-5.01,-5.93,-2.55,-2.55,-2.56
129.85,2.73,2.73,5.34,5.33,-5.33,-5.07,-5.93,-2.60,-2.60,-2.61
131.15,2.74,2.74,5.39,5.40,-5.39,-5.14,-5.93,-2.65,-2.65,-2.65
132.46,2.75,2.75,5.46,5.46,-5.45,-5.20,-5.92,-2.70,-2.70,-2.71
133.79,2.76,2.76,5.51,5.51,-5.51,-5.26,-5.90,-2.75,-2.75,-2.75
135.12,2.77,2.77,5.57,5.57,-5.57,-5.32,-5.88,-2.80,-2.80,-2.80
136.48,2.78,2.78,5.62,5.62,-5.62,-5.38,-5.85,-2.84,-2.84,-2.84
137.84,2.79,2.79,5.66,5.67,-5.67,-5.44,-5.81,-2.88,-2.88,-2.87
139.22,2.80,2.80,5.73,5.72,-5.72,-5.50,-5.78,-2.92,-2.92,-2.93
140.61,2.81,2.81,5.78,5.77,-5.76,-5.55,-5.73,-2.95,-2.95,-2.97
142.02,2.82,2.82,5.80,5.81,-5.80,-5.61,-5.69,-2.98,-2.99,-2.98
143.44,2.82,2.82,5.83,5.84,-5.84,-5.66,-5.64,-3.02,-3.02,-3.01
144.87,2.83,2.83,5.88,5.88,-5.88,-5.72,-5.59,-3.05,-3.05,-3.05
146.32,2.83,2.83,5.91,5.91,-5.91,-5.77,-5.54,-3.08,-3.08,-3.08
147.78,2.84,2.84,5.94,5.94,-5.94,-5.82,-5.49,-3.10,-3.11,-3.10
149.26,2.84,2.84,5.97,5.97,-5.98,-5.87,-5.44,-3.14,-3.14,-3.13
150.75,2.84,2.84,6.01,6.01,-6.01,-5.92,-5.39,-3.17,-3.16,-3.17
152.26,2.85,2.85,6.04,6.04,-6.04,-5.97,-5.34,-3.19,-3.19,-3.19
153.78,2.85,2.85,6.07,6.07,-6.07,-6.01,-5.29,-3.22,-3.22,-3.22
155.32,2.85,2.85,6.09,6.09,-6.09,-6.06,-5.24,-3.24,-3.24,-3.24
156.88,2.85,2.85,6.12,6.12,-6.12,-6.10,-5.20,-3.27,-3.27,-3.27
158.44,2.84,2.84,6.14,6.14,-6.14,-6.14,-5.16,-3.30,-3.30,-3.30
160.03,2.84,2.84,6.17,6.17,-6.17,-6.18,-5.12,-3.33,-3.33,-3.33
161.63,2.84,2.84,6.20,6.19,-6.19,-6.22,-5.08,-3.35,-3.36,-3.36
163.24,2.83,2.83,6.21,6.21,-6.21,-6.26,-5.05,-3.38,-3.38,-3.38
164.88,2.82,2.82,6.22,6.23,-6.23,-6.30,-5.02,-3.41,-3.41,-3.40
166.53,2.82,2.82,6.25,6.25,-6.26,-6.33,-4.99,-3.44,-3.44,-3.43
168.19,2.81,2.81,6.28,6.28,-6.28,-6.37,-4.97,-3.47,-3.47,-3.47
169.87,2.80,2.80,6.30,6.30,-6.30,-6.40,-4.95,-3.50,-3.50,-3.50
171.57,2.79,2.79,6.32,6.32,-6.32,-6.43,-4.93,-3.53,-3.53,-3.53
173.29,2.78,2.78,6.33,6.34,-6.34,-6.46,-4.92,-3.56,-3.56,-3.55
175.02,2.77,2.77,6.36,6.36,-6.36,-6.48,-4.91,-3.59,-3.59,-3.59
176.77,2.75,2.75,6.38,6.38,-6.38,-6.51,-4.90,-3.63,-3.63,-3.63
178.54,2.74,2.74,6.41,6.40,-6.40,-6.53,-4.90,-3.66,-3.66,-3.67
180.32,2.72,2.72,6.42,6.42,-6.42,-6.55,-4.91,-3.70,-3.70,-3.70
182.13,2.70,2.70,6.43,6.43,-6.43,-6.57,-4.91,-3.73,-3.74,-3.73
183.95,2.67,2.67,6.44,6.45,-6.45,-6.59,-4.92,-3.78,-3.77,-3.77
185.79,2.65,2.65,6.46,6.46,-6.45,-6.60,-4.94,-3.80,-3.80,-3.81
187.65,2.62,2.62,6.47,6.46,-6.46,-6.62,-4.96,-3.84,-3.84,-3.85
189.52,2.59,2.59,6.47,6.46,-6.46,-6.63,-4.98,-3.87,-3.87,-3.88
191.42,2.55,2.55,6.46,6.45,-6.45,-6.63,-5.00,-3.90,-3.90,-3.91
193.33,2.51,2.51,6.43,6.44,-6.45,-6.64,-5.03,-3.94,-3.93,-3.92
195.27,2.48,2.48,6.43,6.43,-6.44,-6.64,-5.06,-3.96,-3.96,-3.95
197.22,2.44,2.44,6.42,6.43,-6.43,-6.64,-5.09,-3.99,-3.99,-3.98
199.19,2.40,2.40,6.43,6.42,-6.41,-6.64,-5.13,-4.01,-4.01,-4.03
201.18,2.36,2.36,6.40,6.40,-6.40,-6.63,-5.17,-4.04,-4.04,-4.04
203.19,2.32,2.32,6.38,6.39,-6.39,-6.62,-5.21,-4.07,-4.07,-4.06
205.23,2.29,2.29,6.38,6.37,-6.38,-6.60,-5.25,-4.09,-4.09,-4.09
207.28,2.26,2.26,6.35,6.36,-6.37,-6.58,-5.29,-4.11,-4.11,-4.09
209.35,2.23,2.23,6.36,6.35,-6.36,-6.56,-5.33,-4.13,-4.13,-4.13
211.44,2.20,2.20,6.35,6.34,-6.34,-6.54,-5.38,-4.14,-4.14,-4.15
213.56,2.17,2.17,6.33,6.33,-6.33,-6.51,-5.42,-4.16,-4.16,-4.16
215.69,2.14,2.14,6.31,6.31,-6.31,-6.47,-5.46,-4.17,-4.17,-4.17
217.85,2.11,2.11,6.29,6.29,-6.29,-6.43,-5.50,-4.18,-4.18,-4.18
220.03,2.07,2.07,6.27,6.27,-6.27,-6.39,-5.54,-4.20,-4.19,-4.20
222.23,2.03,2.03,6.24,6.24,-6.23,-6.34,-5.57,-4.20,-4.20,-4.21
224.45,1.98,1.98,6.19,6.20,-6.19,-6.29,-5.60,-4.21,-4.21,-4.21
226.70,1.93,1.93,6.15,6.15,-6.14,-6.23,-5.62,-4.21,-4.21,-4.22
228.96,1.88,1.88,6.10,6.09,-6.09,-6.17,-5.64,-4.21,-4.21,-4.22
231.25,1.82,1.82,6.03,6.03,-6.03,-6.10,-5.65,-4.21,-4.21,-4.21
233.57,1.75,1.75,5.95,5.96,-5.96,-6.03,-5.66,-4.21,-4.21,-4.20
235.90,1.69,1.69,5.89,5.88,-5.88,-5.95,-5.66,-4.19,-4.20,-4.20
238.26,1.61,1.61,5.81,5.80,-5.80,-5.86,-5.65,-4.19,-4.19,-4.20
240.64,1.54,1.54,5.72,5.72,-5.71,-5.77,-5.63,-4.17,-4.18,-4.18
243.05,1.46,1.46,5.62,5.62,-5.62,-5.67,-5.60,-4.16,-4.16,-4.16
245.48,1.37,1.37,5.51,5.52,-5.52,-5.57,-5.56,-4.15,-4.15,-4.14
247.93,1.28,1.28,5.41,5.41,-5.41,-5.46,-5.52,-4.13,-4.13,-4.13
250.41,1.19,1.19,5.31,5.30,-5.30,-5.34,-5.46,-4.11,-4.11,-4.12
252.92,1.09,1.09,5.18,5.18,-5.18,-5.22,-5.39,-4.09,-4.09,-4.09
255.45,0.99,0.99,5.05,5.06,-5.06,-5.09,-5.31,-4.07,-4.07,-4.06
258.00,0.89,0.89,4.93,4.93,-4.94,-4.96,-5.22,-4.05,-4.05,-4.04
260.58,0.78,0.78,4.81,4.80,-4.81,-4.82,-5.12,-4.03,-4.03,-4.03
263.19,0.67,0.67,4.67,4.67,-4.67,-4.68,-5.01,-4.00,-4.00,-4.00
265.82,0.55,0.55,4.53,4.53,-4.53,-4.52,-4.89,-3.98,-3.98,-3.98
268.48,0.44,0.44,4.40,4.39,-4.39,-4.36,-4.77,-3.95,-3.95,-3.96
271.16,0.31,0.31,4.23,4.24,-4.24,-4.20,-4.63,-3.93,-3.93,-3.92
273.87,0.19,0.19,4.10,4.09,-4.09,-4.03,-4.49,-3.90,-3.91,-3.91
276.61,0.05,0.05,3.92,3.93,-3.93,-3.85,-4.34,-3.88,-3.88,-3.87
279.38,-0.09,-0.09,3.77,3.77,-3.77,-3.67,-4.18,-3.86,-3.86,-3.86
282.17,-0.23,-0.23,3.60,3.60,-3.60,-3.48,-4.02,-3.83,-3.83,-3.83
284.99,-0.38,-0.38,3.43,3.43,-3.42,-3.29,-3.85,-3.81,-3.81,-3.81
287.84,-0.54,-0.54,3.24,3.24,-3.24,-3.09,-3.67,-3.78,-3.78,-3.78
290.72,-0.70,-0.70,3.05,3.05,-3.05,-2.88,-3.50,-3.75,-3.75,-3.75
293.63,-0.87,-0.87,2.86,2.86,-2.86,-2.67,-3.32,-3.73,-3.73,-3.73
296.57,-1.05,-1.05,2.65,2.65,-2.65,-2.45,-3.13,-3.70,-3.70,-3.70
299.53,-1.23,-1.23,2.44,2.44,-2.44,-2.23,-2.95,-3.67,-3.67,-3.67
302.53,-1.42,-1.42,2.23,2.22,-2.21,-2.01,-2.76,-3.63,-3.64,-3.64
305.55,-1.62,-1.62,1.98,1.99,-1.99,-1.78,-2.57,-3.61,-3.60,-3.60
308.61,-1.82,-1.82,1.75,1.75,-1.75,-1.54,-2.38,-3.57,-3.57,-3.57
311.69,-2.03,-2.03,1.51,1.51,-1.51,-1.30,-2.18,-3.54,-3.54,-3.54
314.81,-2.24,-2.24,1.26,1.26,-1.26,-1.06,-1.99,-3.50,-3.50,-3.50
317.96,-2.46,-2.46,1.01,1.01,-1.01,-0.81,-1.79,-3.47,-3.47,-3.47
321.14,-2.69,-2.69,0.76,0.76,-0.75,-0.56,-1.60,-3.44,-3.44,-3.45
324.35,-2.92,-2.92,0.50,0.49,-0.49,-0.30,-1.40,-3.41,-3.41,-3.42
327.59,-3.16,-3.16,0.22,0.22,-0.22,-0.04,-1.21,-3.38,-3.39,-3.38
330.87,-3.41,-3.40,-0.06,-0.05,0.04,0.22,-1.01,-3.37,-3.36,-3.35
334.18,-3.65,-3.65,-0.31,-0.32,0.31,0.49,-0.81,-3.34,-3.34,-3.34
337.52,-3.90,-3.90,-0.59,-0.59,0.58,0.75,-0.62,-3.32,-3.32,-3.31
340.90,-4.16,-4.16,-0.88,-0.87,0.85,1.02,-0.42,-3.31,-3.30,-3.28
344.30,-4.41,-4.41,-1.15,-1.15,1.14,1.30,-0.22,-3.27,-3.27,-3.26
347.75,-4.67,-4.66,-1.43,-1.42,1.44,1.57,-0.02,-3.23,-3.22,-3.24
351.23,-4.92,-4.93,-1.70,-1.71,1.75,1.84,0.18,-3.17,-3.18,-3.22
354.74,-5.20,-5.22,-2.00,-2.02,2.07,2.12,0.37,-3.13,-3.16,-3.20
358.28,-5.56,-5.55,-2.38,-2.37,2.40,2.39,0.57,-3.16,-3.15,-3.18
361.87,-5.91,-5.90,-2.74,-2.74,2.74,2.67,0.77,-3.17,-3.16,-3.17
365.49,-6.25,-6.25,-3.11,-3.11,3.08,2.94,0.97,-3.17,-3.17,-3.14
369.14,-6.58,-6.58,-3.45,-3.45,3.43,3.21,1.17,-3.15,-3.15,-3.13
372.83,-6.89,-6.89,-3.78,-3.78,3.76,3.47,1.37,-3.13,-3.13,-3.11
376.56,-7.18,-7.18,-4.09,-4.09,4.09,3.73,1.57,-3.09,-3.10,-3.09
380.33,-7.46,-7.46,-4.39,-4.39,4.39,3.98,1.77,-3.07,-3.07,-3.06
384.13,-7.71,-7.71,-4.66,-4.67,4.67,4.23,1.97,-3.04,-3.05,-3.05
387.97,-7.95,-7.95,-4.92,-4.92,4.93,4.47,2.17,-3.03,-3.03,-3.03
391.85,-8.17,-8.16,-5.16,-5.16,5.16,4.69,2.37,-3.01,-3.00,-3.01
395.77,-8.35,-8.36,-5.37,-5.37,5.37,4.91,2.57,-2.98,-2.98,-2.98
399.73,-8.52,-8.52,-5.56,-5.56,5.56,5.11,2.77,-2.96,-2.96,-2.96
403.72,-8.66,-8.66,-5.72,-5.71,5.71,5.30,2.97,-2.95,-2.95,-2.94
407.76,-8.77,-8.77,-5.84,-5.85,5.82,5.47,3.17,-2.95,-2.95,-2.93
411.84,-8.86,-8.86,-5.96,-5.96,5.91,5.62,3.36,-2.95,-2.95,-2.90
415.96,-8.93,-8.93,-6.05,-6.05,5.97,5.75,3.56,-2.96,-2.96,-2.88
420.12,-8.98,-8.98,-6.12,-6.12,6.01,5.87,3.75,-2.97,-2.97,-2.86
424.32,-9.00,-9.00,-6.17,-6.17,6.03,5.96,3.94,-2.97,-2.98,-2.83
428.56,-9.01,-9.01,-6.20,-6.19,6.04,6.04,4.12,-2.97,-2.97,-2.81
432.85,-8.99,-8.99,-6.20,-6.20,6.04,6.09,4.30,-2.95,-2.95,-2.79
437.18,-8.95,-8.96,-6.19,-6.20,6.03,6.12,4.48,-2.92,-2.93,-2.76
441.55,-8.91,-8.91,-6.18,-6.17,6.01,6.13,4.65,-2.90,-2.90,-2.73
445.96,-8.84,-8.83,-6.12,-6.12,5.98,6.12,4.82,-2.86,-2.84,-2.71
450.42,-8.72,-8.72,-6.02,-6.03,5.94,6.10,4.97,-2.78,-2.78,-2.70
454.93,-8.59,-8.59,-5.93,-5.93,5.88,6.06,5.12,-2.71,-2.71,-2.66
459.48,-8.45,-8.45,-5.81,-5.82,5.81,6.00,5.26,-2.64,-2.64,-2.64
464.07,-8.31,-8.31,-5.70,-5.71,5.72,5.92,5.39,-2.59,-2.60,-2.61
468.71,-8.17,-8.17,-5.60,-5.59,5.61,5.84,5.51,-2.56,-2.56,-2.57
473.40,-8.02,-8.02,-5.47,-5.47,5.49,5.74,5.62,-2.53,-2.53,-2.55
478.13,-7.87,-7.87,-5.35,-5.35,5.36,5.63,5.71,-2.51,-2.51,-2.52
482.91,-7.72,-7.72,-5.23,-5.23,5.23,5.51,5.79,-2.49,-2.49,-2.49
487.74,-7.56,-7.56,-5.10,-5.10,5.10,5.39,5.85,-2.46,-2.46,-2.46
