frequency,raw,error,smoothed,error_smoothed,equalization,parametric_eq,equalized_raw,equalized_smoothed,target
20,-0.95,-0.08,-0.83,0.04,-0.04,-1.44,-0.98,-0.87,-0.86
21,-0.43,0.44,-0.44,0.43,-0.43,-1.64,-0.86,-0.87,-0.87
22,0.02,0.89,-0.06,0.81,-0.81,-1.85,-0.79,-0.87,-0.87
23,0.34,1.21,0.31,1.18,-1.18,-2.08,-0.83,-0.87,-0.87
24,0.72,1.60,0.66,1.53,-1.53,-2.33,-0.81,-0.87,-0.87
25,1.04,1.92,1.00,1.87,-1.87,-2.58,-0.83,-0.88,-0.88
26,1.37,2.25,1.32,2.20,-2.20,-2.83,-0.82,-0.88,-0.88
27,1.63,2.52,1.63,2.51,-2.51,-3.08,-0.87,-0.88,-0.88
28,1.93,2.82,1.92,2.81,-2.81,-3.32,-0.87,-0.89,-0.89
29,2.17,3.07,2.20,3.09,-3.09,-3.53,-0.92,-0.89,-0.89
30,2.45,3.35,2.47,3.36,-3.36,-3.72,-0.91,-0.90,-0.90
31,2.66,3.57,2.72,3.62,-3.62,-3.88,-0.96,-0.90,-0.90
32,2.94,3.85,2.96,3.87,-3.87,-4.01,-0.93,-0.91,-0.91
33,3.21,4.13,3.20,4.11,-4.11,-4.12,-0.90,-0.91,-0.91
34,3.44,4.36,3.42,4.34,-4.34,-4.21,-0.90,-0.92,-0.92
35,3.64,4.57,3.64,4.57,-4.57,-4.29,-0.93,-0.93,-0.93
36,3.84,4.78,3.85,4.79,-4.79,-4.37,-0.94,-0.94,-0.94
37,4.01,4.96,4.05,5.00,-5.00,-4.46,-0.98,-0.94,-0.94
38,4.25,5.21,4.25,5.20,-5.20,-4.56,-0.95,-0.95,-0.95
39,4.45,5.42,4.44,5.40,-5.40,-4.66,-0.95,-0.96,-0.96
40,4.61,5.59,4.62,5.59,-5.59,-4.79,-0.98,-0.97,-0.97
41,4.85,5.84,4.79,5.78,-5.78,-4.93,-0.92,-0.99,-0.99
42,4.88,5.88,4.96,5.96,-5.96,-5.08,-1.08,-1.00,-1.00
43,5.10,6.12,5.12,6.13,-6.13,-5.26,-1.03,-1.01,-1.01
44,5.28,6.31,5.28,6.30,-6.30,-5.45,-1.02,-1.03,-1.03
45,5.44,6.48,5.42,6.46,-6.46,-5.66,-1.02,-1.04,-1.04
46,5.55,6.61,5.57,6.62,-6.62,-5.88,-1.07,-1.06,-1.06
47,5.71,6.79,5.70,6.77,-6.77,-6.12,-1.06,-1.07,-1.07
48,5.85,6.94,5.83,6.92,-6.92,-6.37,-1.06,-1.09,-1.09
49,5.95,7.06,5.95,7.06,-7.06,-6.63,-1.11,-1.11,-1.11
50,6.05,7.18,6.07,7.19,-7.19,-6.89,-1.14,-1.13,-1.13
51,6.16,7.31,6.18,7.33,-7.33,-7.17,-1.16,-1.15,-1.15
52,6.28,7.45,6.28,7.45,-7.45,-7.44,-1.17,-1.17,-1.17
53,6.36,7.55,6.38,7.57,-7.57,-7.71,-1.21,-1.19,-1.19
54,6.54,7.75,6.48,7.69,-7.69,-7.98,-1.14,-1.21,-1.21
55,6.56,7.80,6.57,7.80,-7.80,-8.23,-1.24,-1.23,-1.23
56,6.56,7.82,6.65,7.91,-7.91,-8.47,-1.34,-1.26,-1.26
57,6.76,8.05,6.73,8.01,-8.01,-8.70,-1.25,-1.28,-1.28
58,6.76,8.07,6.80,8.11,-8.11,-8.89,-1.35,-1.31,-1.31
59,6.86,8.20,6.87,8.20,-8.20,-9.07,-1.34,-1.34,-1.34
60,6.96,8.33,6.93,8.29,-8.29,-9.21,-1.33,-1.36,-1.36
61,6.96,8.36,6.98,8.37,-8.37,-9.32,-1.41,-1.39,-1.39
62,7.06,8.49,7.03,8.45,-8.45,-9.39,-1.39,-1.42,-1.42
63,7.06,8.52,7.07,8.52,-8.52,-9.44,-1.46,-1.45,-1.45
64,7.06,8.55,7.10,8.59,-8.59,-9.45,-1.52,-1.49,-1.49
65,7.16,8.68,7.13,8.65,-8.65,-9.44,-1.48,-1.52,-1.52
66,7.16,8.71,7.15,8.70,-8.70,-9.40,-1.53,-1.55,-1.55
67,7.16,8.75,7.16,8.75,-8.75,-9.34,-1.58,-1.58,-1.58
68,7.16,8.78,7.17,8.79,-8.79,-9.27,-1.62,-1.62,-1.62
69,7.16,8.82,7.17,8.82,-8.82,-9.18,-1.66,-1.65,-1.65
70,7.16,8.85,7.17,8.86,-8.86,-9.08,-1.69,-1.69,-1.69
71,7.16,8.89,7.16,8.88,-8.88,-8.98,-1.72,-1.73,-1.73
72,7.16,8.93,7.14,8.91,-8.91,-8.87,-1.74,-1.76,-1.76
73,7.06,8.87,7.12,8.93,-8.93,-8.76,-1.86,-1.80,-1.80
74,7.06,8.90,7.10,8.94,-8.94,-8.66,-1.88,-1.84,-1.84
75,7.06,8.94,7.07,8.95,-8.95,-8.55,-1.89,-1.88,-1.88
76,7.06,8.98,7.04,8.96,-8.96,-8.46,-1.89,-1.92,-1.92
77,7.03,8.99,7.00,8.96,-8.96,-8.36,-1.92,-1.96,-1.96
78,6.96,8.96,6.96,8.96,-8.96,-8.28,-1.99,-2.00,-2.00
79,6.94,8.98,6.91,8.95,-8.95,-8.20,-2.01,-2.04,-2.04
80,6.86,8.94,6.86,8.94,-8.94,-8.13,-2.08,-2.08,-2.08
81,6.76,8.88,6.81,8.93,-8.93,-8.07,-2.16,-2.12,-2.12
82,6.76,8.93,6.75,8.91,-8.91,-8.01,-2.15,-2.16,-2.16
83,6.76,8.97,6.69,8.89,-8.89,-7.96,-2.13,-2.20,-2.20
84,6.56,8.81,6.63,8.87,-8.87,-7.93,-2.31,-2.24,-2.24
85,6.56,8.85,6.56,8.85,-8.85,-7.90,-2.28,-2.29,-2.29
86,6.47,8.80,6.50,8.82,-8.82,-7.88,-2.35,-2.33,-2.33
87,6.41,8.78,6.43,8.80,-8.80,-7.86,-2.39,-2.37,-2.37
88,6.35,8.76,6.37,8.78,-8.78,-7.86,-2.42,-2.41,-2.41
89,6.24,8.70,6.30,8.75,-8.75,-7.86,-2.51,-2.45,-2.45
90,6.27,8.77,6.24,8.73,-8.73,-7.87,-2.46,-2.49,-2.49
91,6.19,8.73,6.17,8.71,-8.71,-7.88,-2.51,-2.53,-2.54
92,6.13,8.71,6.11,8.68,-8.68,-7.91,-2.55,-2.57,-2.58
93,6.06,8.68,6.04,8.66,-8.66,-7.94,-2.59,-2.62,-2.62
94,5.97,8.63,5.98,8.63,-8.63,-7.97,-2.66,-2.66,-2.66
95,5.92,8.62,5.91,8.61,-8.61,-8.01,-2.68,-2.70,-2.70
96,5.86,8.60,5.84,8.58,-8.58,-8.06,-2.72,-2.74,-2.74
97,5.76,8.54,5.78,8.56,-8.56,-8.11,-2.80,-2.78,-2.78
98,5.74,8.56,5.72,8.55,-8.55,-8.17,-2.80,-2.82,-2.82
99,5.70,8.56,5.67,8.53,-8.53,-8.23,-2.83,-2.87,-2.86
100,5.62,8.52,5.62,8.52,-8.52,-8.29,-2.90,-2.91,-2.90
101,5.52,8.46,5.57,8.52,-8.52,-8.36,-3.00,-2.95,-2.94
102,5.48,8.46,5.54,8.53,-8.53,-8.43,-3.04,-2.99,-2.98
104,5.46,8.51,5.51,8.54,-8.54,-8.58,-3.08,-3.03,-3.05
105,5.43,8.52,5.49,8.56,-8.56,-8.65,-3.13,-3.07,-3.09
106,5.41,8.54,5.48,8.59,-8.59,-8.73,-3.18,-3.11,-3.12
107,5.44,8.60,5.47,8.62,-8.62,-8.81,-3.18,-3.15,-3.16
108,5.46,8.65,5.47,8.66,-8.66,-8.88,-3.19,-3.19,-3.19
109,5.44,8.67,5.47,8.69,-8.69,-8.96,-3.25,-3.22,-3.22
110,5.42,8.68,5.46,8.72,-8.72,-9.03,-3.29,-3.26,-3.26
111,5.50,8.79,5.45,8.74,-8.74,-9.10,-3.24,-3.29,-3.29
112,5.49,8.81,5.44,8.76,-8.76,-9.17,-3.26,-3.32,-3.32
113,5.48,8.83,5.41,8.76,-8.76,-9.23,-3.27,-3.35,-3.35
114,5.48,8.86,5.37,8.75,-8.75,-9.29,-3.26,-3.38,-3.37
115,5.41,8.81,5.31,8.72,-8.72,-9.34,-3.31,-3.41,-3.40
117,5.26,8.72,5.24,8.69,-8.69,-9.43,-3.42,-3.44,-3.46
118,5.10,8.58,5.16,8.63,-8.63,-9.47,-3.53,-3.47,-3.48
119,5.03,8.54,5.07,8.57,-8.57,-9.50,-3.53,-3.50,-3.50
120,4.99,8.52,4.96,8.49,-8.49,-9.52,-3.50,-3.53,-3.52
121,4.89,8.44,4.85,8.40,-8.40,-9.54,-3.51,-3.55,-3.54
123,4.68,8.28,4.73,8.31,-8.31,-9.54,-3.62,-3.58,-3.59
124,4.61,8.22,4.60,8.21,-8.21,-9.54,-3.59,-3.61,-3.61
125,4.50,8.13,4.48,8.11,-8.11,-9.52,-3.60,-3.63,-3.63
126,4.39,8.04,4.35,8.01,-8.01,-9.50,-3.61,-3.65,-3.65
128,4.23,7.92,4.23,7.91,-7.91,-9.44,-3.67,-3.68,-3.69
129,4.12,7.83,4.12,7.82,-7.82,-9.40,-3.69,-3.70,-3.70
130,4.05,7.77,4.02,7.74,-7.74,-9.35,-3.69,-3.72,-3.72
131,3.98,7.72,3.93,7.68,-7.68,-9.29,-3.69,-3.74,-3.73
133,3.84,7.61,3.87,7.64,-7.64,-9.17,-3.79,-3.76,-3.77
134,3.77,7.56,3.83,7.62,-7.62,-9.10,-3.84,-3.78,-3.78
135,3.76,7.56,3.83,7.63,-7.63,-9.03,-3.87,-3.81,-3.80
137,3.76,7.59,3.85,7.67,-7.67,-8.87,-3.91,-3.83,-3.83
138,3.77,7.62,3.91,7.75,-7.75,-8.79,-3.98,-3.85,-3.84
140,3.86,7.74,3.99,7.86,-7.86,-8.62,-4.00,-3.87,-3.88
141,3.95,7.84,4.11,8.00,-8.00,-8.53,-4.05,-3.89,-3.89
142,4.05,7.96,4.25,8.16,-8.16,-8.44,-4.11,-3.91,-3.90
144,4.26,8.20,4.41,8.34,-8.34,-8.26,-4.08,-3.93,-3.93
145,4.39,8.34,4.57,8.52,-8.52,-8.17,-4.13,-3.95,-3.94
147,4.68,8.66,4.72,8.69,-8.69,-7.99,-4.01,-3.97,-3.97
148,4.81,8.80,4.85,8.84,-8.84,-7.90,-4.03,-3.99,-3.99
150,5.05,9.07,4.94,8.95,-8.95,-7.73,-3.90,-4.01,-4.01
151,5.17,9.20,4.98,9.01,-9.01,-7.64,-3.84,-4.03,-4.03
153,5.32,9.38,4.97,9.01,-9.01,-7.47,-3.69,-4.05,-4.05
154,5.29,9.36,4.88,8.95,-8.95,-7.39,-3.66,-4.07,-4.07
156,5.16,9.25,4.73,8.82,-8.82,-7.23,-3.66,-4.09,-4.09
157,5.03,9.14,4.53,8.63,-8.63,-7.16,-3.60,-4.11,-4.10
159,4.61,8.74,4.27,8.39,-8.39,-7.01,-3.78,-4.12,-4.13
160,4.26,8.40,3.97,8.11,-8.11,-6.93,-3.85,-4.14,-4.14
162,3.55,7.71,3.65,7.81,-7.81,-6.80,-4.26,-4.16,-4.16
164,3.06,7.24,3.34,7.51,-7.51,-6.67,-4.45,-4.17,-4.18
165,2.80,6.99,3.04,7.23,-7.23,-6.60,-4.43,-4.19,-4.19
167,2.29,6.50,2.78,6.98,-6.98,-6.48,-4.69,-4.20,-4.20
169,1.92,6.15,2.57,6.78,-6.78,-6.37,-4.86,-4.22,-4.22
170,1.90,6.13,2.41,6.64,-6.64,-6.32,-4.73,-4.23,-4.23
172,2.07,6.31,2.31,6.55,-6.55,-6.22,-4.48,-4.24,-4.24
174,2.20,6.46,2.27,6.52,-6.52,-6.13,-4.32,-4.25,-4.25
175,2.26,6.52,2.28,6.54,-6.54,-6.08,-4.28,-4.26,-4.26
177,2.41,6.68,2.34,6.61,-6.61,-6.00,-4.19,-4.27,-4.27
179,2.51,6.79,2.43,6.70,-6.70,-5.92,-4.19,-4.27,-4.27
181,2.68,6.97,2.53,6.81,-6.81,-5.85,-4.13,-4.28,-4.28
183,2.85,7.14,2.65,6.93,-6.93,-5.79,-4.07,-4.28,-4.29
184,2.94,7.23,2.75,7.04,-7.04,-5.76,-4.10,-4.29,-4.29
186,3.00,7.29,2.85,7.14,-7.14,-5.71,-4.14,-4.29,-4.29
188,3.06,7.36,2.93,7.22,-7.22,-5.66,-4.16,-4.29,-4.29
190,3.08,7.38,2.99,7.28,-7.28,-5.61,-4.20,-4.30,-4.30
192,2.96,7.26,3.02,7.32,-7.32,-5.57,-4.35,-4.30,-4.30
194,2.94,7.24,3.03,7.33,-7.33,-5.54,-4.39,-4.30,-4.30
196,3.09,7.39,3.03,7.33,-7.33,-5.50,-4.23,-4.30,-4.30
198,3.04,7.35,3.00,7.30,-7.30,-5.48,-4.26,-4.30,-4.30
200,2.82,7.13,2.96,7.26,-7.26,-5.45,-4.44,-4.30,-4.30
202,2.85,7.16,2.91,7.21,-7.21,-5.43,-4.35,-4.30,-4.30
204,2.76,7.07,2.84,7.14,-7.14,-5.41,-4.38,-4.30,-4.30
206,2.71,7.02,2.75,7.06,-7.06,-5.40,-4.34,-4.30,-4.30
208,2.67,6.98,2.66,6.96,-6.96,-5.38,-4.29,-4.30,-4.30
210,2.62,6.93,2.55,6.86,-6.86,-5.37,-4.23,-4.31,-4.30
212,2.56,6.87,2.43,6.74,-6.74,-5.36,-4.18,-4.31,-4.30
214,2.39,6.70,2.30,6.61,-6.61,-5.35,-4.22,-4.31,-4.30
216,2.26,6.57,2.17,6.47,-6.47,-5.34,-4.21,-4.31,-4.30
218,2.11,6.42,2.02,6.33,-6.33,-5.33,-4.21,-4.31,-4.30
221,1.85,6.16,1.87,6.18,-6.18,-5.32,-4.32,-4.30,-4.31
223,1.67,5.98,1.72,6.03,-6.03,-5.31,-4.35,-4.30,-4.30
225,1.50,5.81,1.58,5.88,-5.88,-5.30,-4.37,-4.30,-4.30
227,1.33,5.63,1.44,5.74,-5.74,-5.29,-4.40,-4.30,-4.30
229,1.17,5.47,1.31,5.60,-5.60,-5.27,-4.43,-4.30,-4.30
232,1.00,5.30,1.19,5.48,-5.48,-5.25,-4.48,-4.29,-4.30
234,1.05,5.34,1.08,5.37,-5.37,-5.24,-4.31,-4.29,-4.29
236,1.04,5.33,0.98,5.27,-5.27,-5.22,-4.22,-4.28,-4.29
239,0.86,5.15,0.89,5.17,-5.17,-5.19,-4.31,-4.28,-4.28
241,0.80,5.08,0.81,5.09,-5.09,-5.16,-4.28,-4.27,-4.27
244,0.75,5.02,0.74,5.00,-5.00,-5.12,-4.25,-4.27,-4.27
246,0.69,4.96,0.66,4.92,-4.92,-5.09,-4.23,-4.26,-4.26
248,0.61,4.87,0.58,4.84,-4.84,-5.06,-4.22,-4.25,-4.25
251,0.54,4.79,0.50,4.75,-4.75,-5.01,-4.21,-4.25,-4.25
253,0.52,4.76,0.42,4.66,-4.66,-4.97,-4.13,-4.24,-4.24
256,0.35,4.59,0.33,4.56,-4.56,-4.91,-4.20,-4.23,-4.23
259,0.24,4.47,0.23,4.45,-4.45,-4.84,-4.21,-4.22,-4.22
261,0.14,4.36,0.12,4.34,-4.34,-4.79,-4.19,-4.22,-4.22
264,-0.03,4.18,0.01,4.22,-4.22,-4.72,-4.24,-4.21,-4.21
266,-0.09,4.12,-0.11,4.09,-4.09,-4.66,-4.18,-4.20,-4.20
269,-0.24,3.96,-0.23,3.96,-3.96,-4.58,-4.20,-4.19,-4.19
272,-0.41,3.78,-0.35,3.83,-3.83,-4.50,-4.24,-4.19,-4.19
274,-0.51,3.67,-0.48,3.70,-3.70,-4.44,-4.21,-4.18,-4.18
277,-0.64,3.54,-0.60,3.57,-3.57,-4.35,-4.21,-4.17,-4.17
280,-0.74,3.43,-0.73,3.44,-3.44,-4.26,-4.18,-4.17,-4.17
283,-0.81,3.36,-0.85,3.31,-3.31,-4.17,-4.12,-4.16,-4.16
286,-0.93,3.23,-0.97,3.19,-3.19,-4.08,-4.11,-4.15,-4.16
288,-1.04,3.11,-1.09,3.06,-3.06,-4.02,-4.10,-4.15,-4.15
291,-1.23,2.92,-1.20,2.94,-2.94,-3.93,-4.17,-4.14,-4.14
294,-1.37,2.77,-1.31,2.83,-2.83,-3.83,-4.19,-4.14,-4.14
297,-1.45,2.69,-1.42,2.71,-2.71,-3.74,-4.16,-4.13,-4.13
300,-1.54,2.59,-1.52,2.61,-2.61,-3.65,-4.14,-4.13,-4.13
303,-1.62,2.50,-1.62,2.50,-2.50,-3.56,-4.12,-4.12,-4.12
306,-1.69,2.43,-1.71,2.40,-2.40,-3.47,-4.09,-4.11,-4.11
309,-1.82,2.29,-1.80,2.31,-2.31,-3.38,-4.12,-4.11,-4.11
312,-1.95,2.16,-1.89,2.22,-2.22,-3.30,-4.16,-4.10,-4.10
316,-2.01,2.09,-1.97,2.13,-2.13,-3.18,-4.14,-4.10,-4.10
319,-2.01,2.09,-2.05,2.04,-2.04,-3.10,-4.05,-4.09,-4.09
322,-2.09,2.00,-2.13,1.96,-1.96,-3.02,-4.05,-4.09,-4.09
325,-2.21,1.88,-2.20,1.88,-1.88,-2.94,-4.09,-4.08,-4.08
328,-2.26,1.82,-2.28,1.80,-1.80,-2.86,-4.06,-4.08,-4.08
332,-2.32,1.76,-2.35,1.72,-1.72,-2.76,-4.04,-4.07,-4.07
335,-2.41,1.66,-2.43,1.64,-1.64,-2.69,-4.05,-4.07,-4.07
338,-2.45,1.62,-2.50,1.57,-1.57,-2.62,-4.02,-4.07,-4.07
342,-2.61,1.46,-2.57,1.50,-1.50,-2.53,-4.10,-4.06,-4.06
345,-2.65,1.41,-2.63,1.43,-1.43,-2.46,-4.07,-4.06,-4.06
349,-2.72,1.34,-2.70,1.36,-1.36,-2.38,-4.08,-4.06,-4.06
352,-2.79,1.27,-2.76,1.30,-1.30,-2.31,-4.08,-4.06,-4.05
356,-2.84,1.22,-2.81,1.24,-1.24,-2.23,-4.08,-4.05,-4.05
359,-2.91,1.14,-2.86,1.19,-1.19,-2.17,-4.10,-4.05,-4.05
363,-2.91,1.14,-2.91,1.14,-1.14,-2.10,-4.05,-4.05,-4.05
366,-2.90,1.15,-2.95,1.10,-1.10,-2.04,-4.00,-4.05,-4.05
370,-2.99,1.06,-2.98,1.07,-1.07,-1.97,-4.05,-4.05,-4.05
374,-3.04,1.01,-3.01,1.03,-1.03,-1.90,-4.07,-4.05,-4.04
377,-3.08,0.97,-3.04,1.00,-1.00,-1.85,-4.08,-4.04,-4.04
381,-3.07,0.97,-3.06,0.98,-0.98,-1.79,-4.04,-4.04,-4.04
385,-3.07,0.97,-3.09,0.95,-0.95,-1.73,-4.02,-4.04,-4.04
389,-3.06,0.98,-3.11,0.92,-0.92,-1.67,-3.98,-4.03,-4.03
393,-3.13,0.90,-3.13,0.90,-0.90,-1.61,-4.02,-4.03,-4.03
397,-3.16,0.86,-3.15,0.87,-0.87,-1.56,-4.02,-4.02,-4.02
401,-3.16,0.85,-3.17,0.84,-0.84,-1.51,-4.00,-4.01,-4.01
405,-3.16,0.84,-3.19,0.81,-0.81,-1.46,-3.97,-4.00,-4.00
409,-3.16,0.83,-3.20,0.78,-0.78,-1.41,-3.94,-3.98,-3.98
413,-3.17,0.80,-3.21,0.75,-0.75,-1.36,-3.91,-3.96,-3.97
417,-3.26,0.69,-3.22,0.72,-0.72,-1.32,-3.97,-3.94,-3.95
421,-3.27,0.66,-3.23,0.69,-0.69,-1.27,-3.96,-3.92,-3.92
425,-3.26,0.64,-3.23,0.67,-0.67,-1.23,-3.92,-3.89,-3.90
430,-3.25,0.63,-3.22,0.65,-0.65,-1.18,-3.89,-3.87,-3.87
434,-3.23,0.61,-3.20,0.63,-0.63,-1.15,-3.86,-3.84,-3.84
438,-3.20,0.61,-3.18,0.62,-0.62,-1.11,-3.82,-3.80,-3.81
443,-3.17,0.60,-3.15,0.62,-0.62,-1.07,-3.78,-3.77,-3.77
447,-3.12,0.62,-3.11,0.62,-0.62,-1.04,-3.74,-3.73,-3.73
451,-3.07,0.63,-3.06,0.63,-0.63,-1.01,-3.70,-3.69,-3.69
456,-3.01,0.65,-3.00,0.65,-0.65,-0.97,-3.65,-3.65,-3.65
460,-2.95,0.66,-2.94,0.67,-0.67,-0.95,-3.62,-3.61,-3.61
465,-2.89,0.68,-2.87,0.70,-0.70,-0.92,-3.58,-3.57,-3.57
470,-2.83,0.70,-2.80,0.73,-0.73,-0.89,-3.55,-3.53,-3.53
474,-2.75,0.74,-2.73,0.76,-0.76,-0.87,-3.51,-3.49,-3.49
479,-2.62,0.84,-2.66,0.80,-0.80,-0.85,-3.41,-3.46,-3.45
484,-2.57,0.85,-2.59,0.84,-0.84,-0.83,-3.40,-3.42,-3.42
489,-2.53,0.86,-2.52,0.87,-0.87,-0.81,-3.40,-3.39,-3.39
494,-2.49,0.87,-2.46,0.91,-0.91,-0.79,-3.39,-3.37,-3.36
499,-2.36,0.98,-2.40,0.94,-0.94,-0.78,-3.30,-3.34,-3.34
504,-2.34,0.98,-2.35,0.97,-0.97,-0.77,-3.31,-3.33,-3.32
509,-2.32,0.99,-2.31,1.00,-1.00,-0.76,-3.31,-3.31,-3.30
514,-2.22,1.08,-2.28,1.02,-1.02,-0.75,-3.24,-3.30,-3.29
519,-2.20,1.09,-2.25,1.04,-1.04,-0.75,-3.24,-3.29,-3.29
524,-2.21,1.08,-2.23,1.06,-1.06,-0.75,-3.26,-3.29,-3.29
529,-2.22,1.07,-2.22,1.07,-1.07,-0.75,-3.28,-3.29,-3.29
535,-2.24,1.06,-2.22,1.08,-1.08,-0.75,-3.31,-3.30,-3.29
540,-2.27,1.03,-2.22,1.09,-1.09,-0.75,-3.35,-3.30,-3.30
545,-2.25,1.06,-2.22,1.09,-1.09,-0.75,-3.34,-3.31,-3.31
551,-2.16,1.16,-2.22,1.10,-1.10,-0.76,-3.26,-3.32,-3.32
556,-2.21,1.12,-2.22,1.11,-1.11,-0.77,-3.32,-3.33,-3.33
562,-2.21,1.14,-2.22,1.12,-1.12,-0.78,-3.33,-3.34,-3.34
568,-2.21,1.15,-2.22,1.13,-1.13,-0.79,-3.34,-3.35,-3.35
573,-2.25,1.11,-2.21,1.15,-1.15,-0.80,-3.39,-3.36,-3.36
579,-2.28,1.09,-2.19,1.17,-1.17,-0.82,-3.44,-3.36,-3.37
585,-2.20,1.17,-2.17,1.19,-1.19,-0.83,-3.39,-3.36,-3.37
591,-2.12,1.25,-2.14,1.22,-1.22,-0.85,-3.34,-3.36,-3.37
596,-2.13,1.24,-2.10,1.26,-1.26,-0.87,-3.38,-3.36,-3.37
602,-2.12,1.24,-2.06,1.29,-1.29,-0.89,-3.41,-3.35,-3.36
608,-1.92,1.43,-2.00,1.34,-1.34,-0.91,-3.26,-3.34,-3.35
615,-1.89,1.45,-1.94,1.39,-1.39,-0.94,-3.28,-3.33,-3.33
621,-1.87,1.45,-1.86,1.45,-1.45,-0.96,-3.31,-3.31,-3.31
627,-1.85,1.45,-1.78,1.51,-1.51,-0.98,-3.35,-3.29,-3.29
633,-1.79,1.48,-1.69,1.57,-1.57,-1.01,-3.36,-3.26,-3.27
639,-1.61,1.63,-1.59,1.64,-1.64,-1.03,-3.25,-3.23,-3.24
646,-1.50,1.71,-1.49,1.72,-1.72,-1.07,-3.22,-3.21,-3.21
652,-1.39,1.79,-1.38,1.80,-1.80,-1.09,-3.18,-3.17,-3.17
659,-1.25,1.89,-1.26,1.88,-1.88,-1.13,-3.12,-3.14,-3.14
665,-1.15,1.96,-1.15,1.96,-1.96,-1.16,-3.10,-3.11,-3.11
672,-1.05,2.03,-1.04,2.04,-2.04,-1.19,-3.08,-3.07,-3.07
679,-0.89,2.15,-0.92,2.12,-2.12,-1.23,-3.00,-3.04,-3.04
686,-0.76,2.25,-0.82,2.19,-2.19,-1.27,-2.95,-3.01,-3.00
692,-0.72,2.26,-0.71,2.26,-2.26,-1.30,-2.98,-2.98,-2.97
699,-0.59,2.36,-0.62,2.33,-2.33,-1.34,-2.91,-2.95,-2.94
706,-0.55,2.37,-0.53,2.39,-2.39,-1.38,-2.93,-2.92,-2.91
713,-0.45,2.44,-0.45,2.44,-2.44,-1.41,-2.89,-2.89,-2.89
721,-0.32,2.55,-0.37,2.49,-2.49,-1.46,-2.81,-2.87,-2.86
728,-0.27,2.58,-0.30,2.54,-2.54,-1.50,-2.81,-2.84,-2.84
735,-0.24,2.59,-0.24,2.59,-2.59,-1.54,-2.82,-2.82,-2.82
742,-0.15,2.66,-0.18,2.63,-2.63,-1.59,-2.77,-2.81,-2.80
750,-0.12,2.67,-0.12,2.67,-2.67,-1.63,-2.78,-2.79,-2.79
757,-0.10,2.68,-0.07,2.71,-2.71,-1.68,-2.81,-2.77,-2.77
765,-0.07,2.69,-0.01,2.75,-2.75,-1.73,-2.82,-2.76,-2.76
773,-0.04,2.71,0.05,2.80,-2.80,-1.78,-2.83,-2.75,-2.75
780,0.08,2.82,0.11,2.84,-2.84,-1.82,-2.76,-2.74,-2.74
788,0.17,2.90,0.16,2.89,-2.89,-1.87,-2.72,-2.73,-2.73
796,0.24,2.97,0.23,2.95,-2.95,-1.92,-2.70,-2.72,-2.72
804,0.25,2.97,0.29,3.00,-3.00,-1.97,-2.75,-2.71,-2.71
812,0.35,3.06,0.35,3.06,-3.06,-2.01,-2.70,-2.71,-2.71
820,0.46,3.16,0.41,3.11,-3.11,-2.06,-2.65,-2.70,-2.70
828,0.45,3.15,0.47,3.16,-3.16,-2.11,-2.71,-2.69,-2.69
837,0.47,3.16,0.53,3.21,-3.21,-2.16,-2.74,-2.69,-2.69
845,0.56,3.24,0.58,3.26,-3.26,-2.20,-2.69,-2.68,-2.68
853,0.56,3.24,0.63,3.30,-3.30,-2.24,-2.73,-2.67,-2.67
862,0.74,3.41,0.66,3.33,-3.33,-2.29,-2.59,-2.66,-2.67
871,0.75,3.41,0.69,3.35,-3.35,-2.33,-2.60,-2.66,-2.66
879,0.74,3.39,0.72,3.37,-3.37,-2.36,-2.62,-2.65,-2.65
888,0.73,3.38,0.73,3.37,-3.37,-2.40,-2.63,-2.64,-2.64
897,0.72,3.36,0.73,3.36,-3.36,-2.43,-2.64,-2.63,-2.63
906,0.72,3.35,0.72,3.34,-3.34,-2.46,-2.62,-2.63,-2.62
915,0.71,3.33,0.69,3.31,-3.31,-2.48,-2.59,-2.62,-2.62
924,0.65,3.26,0.66,3.26,-3.26,-2.50,-2.61,-2.61,-2.61
933,0.60,3.20,0.61,3.21,-3.21,-2.51,-2.61,-2.60,-2.59
943,0.51,3.10,0.56,3.14,-3.14,-2.52,-2.63,-2.58,-2.58
952,0.51,3.09,0.50,3.07,-3.07,-2.52,-2.55,-2.57,-2.57
962,0.47,3.03,0.42,2.98,-2.98,-2.52,-2.51,-2.56,-2.56
971,0.42,2.97,0.34,2.89,-2.89,-2.51,-2.46,-2.54,-2.54
981,0.30,2.83,0.26,2.78,-2.78,-2.49,-2.48,-2.53,-2.53
991,0.14,2.65,0.17,2.68,-2.68,-2.47,-2.53,-2.51,-2.51
1001,-0.02,2.48,0.07,2.56,-2.56,-2.44,-2.58,-2.49,-2.49
1011,-0.13,2.34,-0.02,2.45,-2.45,-2.41,-2.57,-2.47,-2.47
1021,-0.16,2.29,-0.12,2.32,-2.32,-2.36,-2.48,-2.45,-2.45
1031,-0.23,2.20,-0.22,2.20,-2.20,-2.32,-2.42,-2.42,-2.43
1041,-0.34,2.06,-0.33,2.07,-2.07,-2.26,-2.41,-2.40,-2.40
1052,-0.40,1.98,-0.43,1.94,-1.94,-2.20,-2.33,-2.37,-2.37
1062,-0.50,1.85,-0.54,1.80,-1.80,-2.13,-2.30,-2.34,-2.34
1073,-0.65,1.67,-0.65,1.66,-1.66,-2.06,-2.30,-2.31,-2.31
1084,-0.80,1.49,-0.77,1.51,-1.51,-1.97,-2.31,-2.28,-2.28
1094,-0.92,1.33,-0.89,1.36,-1.36,-1.90,-2.27,-2.25,-2.25
1105,-1.05,1.17,-1.02,1.19,-1.19,-1.81,-2.24,-2.21,-2.22
1116,-1.13,1.06,-1.15,1.03,-1.03,-1.71,-2.15,-2.18,-2.18
1128,-1.22,0.93,-1.29,0.85,-0.85,-1.61,-2.07,-2.15,-2.15
1139,-1.33,0.79,-1.44,0.68,-0.68,-1.51,-2.00,-2.11,-2.11
1150,-1.58,0.50,-1.59,0.49,-0.49,-1.40,-2.07,-2.08,-2.08
1162,-1.79,0.26,-1.74,0.31,-0.31,-1.29,-2.10,-2.05,-2.05
1173,-1.94,0.08,-1.89,0.13,-0.13,-1.18,-2.06,-2.02,-2.02
1185,-2.03,-0.04,-2.04,-0.05,0.05,-1.06,-1.97,-1.99,-1.98
1197,-2.23,-0.27,-2.19,-0.23,0.23,-0.94,-1.99,-1.96,-1.96
1209,-2.40,-0.47,-2.34,-0.40,0.40,-0.82,-1.99,-1.93,-1.93
1221,-2.47,-0.56,-2.48,-0.57,0.57,-0.70,-1.89,-1.91,-1.91
1233,-2.64,-0.75,-2.62,-0.73,0.73,-0.58,-1.90,-1.89,-1.88
1246,-2.91,-1.04,-2.76,-0.89,0.89,-0.45,-2.01,-1.87,-1.87
1258,-2.95,-1.10,-2.90,-1.05,1.05,-0.32,-1.90,-1.85,-1.85
1271,-3.07,-1.23,-3.05,-1.21,1.21,-0.19,-1.86,-1.84,-1.84
1283,-3.24,-1.41,-3.20,-1.37,1.37,-0.07,-1.87,-1.83,-1.83
1296,-3.30,-1.47,-3.36,-1.54,1.54,0.07,-1.76,-1.83,-1.82
1309,-3.37,-1.55,-3.53,-1.71,1.71,0.20,-1.66,-1.82,-1.82
1322,-3.66,-1.84,-3.70,-1.88,1.88,0.33,-1.77,-1.82,-1.82
1335,-3.72,-1.90,-3.89,-2.06,2.06,0.47,-1.65,-1.82,-1.82
1349,-3.79,-1.96,-4.07,-2.24,2.24,0.61,-1.54,-1.83,-1.82
1362,-4.03,-2.20,-4.25,-2.42,2.42,0.74,-1.60,-1.83,-1.83
1376,-4.29,-2.45,-4.43,-2.59,2.59,0.88,-1.69,-1.84,-1.84
1390,-4.93,-3.08,-4.60,-2.75,2.75,1.02,-2.17,-1.85,-1.84
1404,-5.15,-3.29,-4.75,-2.89,2.89,1.16,-2.25,-1.85,-1.85
1418,-5.21,-3.34,-4.88,-3.02,3.02,1.30,-2.19,-1.86,-1.86
1432,-5.16,-3.28,-4.99,-3.12,3.12,1.44,-2.04,-1.87,-1.87
1446,-5.23,-3.35,-5.08,-3.20,3.20,1.58,-2.03,-1.88,-1.88
1461,-5.15,-3.26,-5.14,-3.26,3.26,1.73,-1.89,-1.88,-1.88
1475,-5.03,-3.14,-5.19,-3.31,3.31,1.87,-1.72,-1.89,-1.89
1490,-5.08,-3.19,-5.23,-3.34,3.34,2.02,-1.74,-1.89,-1.89
1505,-5.16,-3.27,-5.25,-3.36,3.36,2.16,-1.79,-1.88,-1.89
1520,-5.17,-3.29,-5.26,-3.39,3.39,2.31,-1.78,-1.88,-1.88
1535,-5.19,-3.31,-5.27,-3.41,3.41,2.46,-1.78,-1.87,-1.87
1550,-5.26,-3.40,-5.28,-3.43,3.43,2.60,-1.83,-1.85,-1.86
1566,-5.24,-3.40,-5.29,-3.45,3.45,2.76,-1.78,-1.83,-1.84
1582,-5.27,-3.45,-5.29,-3.48,3.48,2.91,-1.78,-1.81,-1.81
1597,-5.36,-3.57,-5.30,-3.52,3.52,3.05,-1.84,-1.78,-1.78
1613,-5.35,-3.60,-5.29,-3.55,3.55,3.20,-1.80,-1.75,-1.75
1629,-5.34,-3.63,-5.29,-3.58,3.58,3.35,-1.75,-1.71,-1.71
1646,-5.35,-3.68,-5.27,-3.61,3.61,3.50,-1.73,-1.66,-1.66
