frequency,raw,error,smoothed,error_smoothed,equalization,parametric_eq,equalized_raw,equalized_smoothed,target
20,-0.95,-2.59,-0.88,-2.52,2.52,-0.28,1.58,1.64,1.64
21,-0.43,-2.06,-0.45,-2.09,2.09,-0.31,1.67,1.64,1.64
22,0.02,-1.61,-0.05,-1.68,1.68,-0.34,1.71,1.64,1.64
23,0.34,-1.29,0.34,-1.30,1.30,-0.37,1.64,1.63,1.63
24,0.72,-0.91,0.70,-0.93,0.93,-0.40,1.66,1.63,1.63
25,1.04,-0.58,1.04,-0.59,0.59,-0.44,1.64,1.63,1.63
26,1.37,-0.25,1.35,-0.27,0.27,-0.48,1.65,1.62,1.62
27,1.63,0.01,1.65,0.03,-0.03,-0.53,1.60,1.62,1.62
28,1.93,0.32,1.93,0.31,-0.31,-0.59,1.62,1.62,1.62
29,2.17,0.56,2.20,0.59,-0.59,-0.66,1.59,1.61,1.61
30,2.45,0.85,2.46,0.85,-0.85,-0.74,1.60,1.61,1.61
31,2.66,1.06,2.71,1.11,-1.11,-0.83,1.56,1.60,1.60
32,2.94,1.35,2.95,1.36,-1.36,-0.94,1.59,1.60,1.60
33,3.21,1.62,3.19,1.60,-1.60,-1.06,1.62,1.59,1.59
34,3.44,1.86,3.42,1.83,-1.83,-1.20,1.61,1.58,1.58
35,3.64,2.07,3.64,2.06,-2.06,-1.34,1.58,1.58,1.58
36,3.84,2.28,3.85,2.28,-2.28,-1.50,1.56,1.57,1.57
37,4.01,2.45,4.05,2.49,-2.49,-1.66,1.52,1.56,1.56
38,4.25,2.70,4.25,2.70,-2.70,-1.84,1.56,1.55,1.55
39,4.45,2.91,4.44,2.90,-2.90,-2.02,1.56,1.54,1.54
40,4.61,3.08,4.62,3.09,-3.09,-2.21,1.53,1.53,1.53
41,4.85,3.34,4.79,3.27,-3.27,-2.41,1.58,1.52,1.52
42,4.88,3.38,4.96,3.45,-3.45,-2.61,1.43,1.51,1.51
43,5.10,3.61,5.12,3.63,-3.63,-2.83,1.48,1.49,1.49
44,5.28,3.81,5.28,3.80,-3.80,-3.05,1.49,1.48,1.48
45,5.44,3.98,5.42,3.96,-3.96,-3.27,1.48,1.46,1.46
46,5.55,4.11,5.57,4.12,-4.12,-3.51,1.44,1.45,1.45
47,5.71,4.28,5.70,4.27,-4.27,-3.75,1.44,1.43,1.43
48,5.85,4.44,5.83,4.42,-4.42,-3.99,1.44,1.42,1.42
49,5.95,4.56,5.95,4.56,-4.56,-4.24,1.40,1.40,1.40
50,6.05,4.68,6.07,4.69,-4.69,-4.49,1.36,1.38,1.38
51,6.16,4.81,6.18,4.82,-4.82,-4.73,1.34,1.36,1.36
52,6.28,4.95,6.28,4.95,-4.95,-4.98,1.34,1.34,1.34
53,6.36,5.05,6.38,5.06,-5.06,-5.22,1.30,1.32,1.32
54,6.54,5.25,6.47,5.18,-5.18,-5.45,1.36,1.29,1.29
55,6.56,5.29,6.56,5.29,-5.29,-5.67,1.27,1.27,1.27
56,6.56,5.32,6.64,5.40,-5.40,-5.88,1.17,1.25,1.25
57,6.76,5.54,6.72,5.50,-5.50,-6.06,1.26,1.22,1.22
58,6.76,5.57,6.80,5.60,-5.60,-6.23,1.16,1.19,1.19
59,6.86,5.70,6.86,5.70,-5.70,-6.38,1.17,1.17,1.17
60,6.96,5.82,6.93,5.79,-5.79,-6.50,1.18,1.14,1.14
61,6.96,5.85,6.98,5.87,-5.87,-6.60,1.09,1.11,1.11
62,7.06,5.98,7.03,5.95,-5.95,-6.67,1.11,1.08,1.08
63,7.06,6.01,7.07,6.02,-6.02,-6.72,1.04,1.05,1.05
64,7.06,6.05,7.11,6.09,-6.09,-6.75,0.98,1.02,1.02
65,7.16,6.18,7.13,6.15,-6.15,-6.75,1.02,0.99,0.99
66,7.16,6.21,7.15,6.20,-6.20,-6.73,0.96,0.95,0.95
67,7.16,6.24,7.16,6.25,-6.25,-6.70,0.92,0.92,0.92
68,7.16,6.28,7.17,6.28,-6.28,-6.66,0.88,0.88,0.88
69,7.16,6.31,7.17,6.32,-6.32,-6.60,0.85,0.85,0.85
70,7.16,6.35,7.16,6.35,-6.35,-6.54,0.82,0.81,0.81
71,7.16,6.39,7.15,6.37,-6.37,-6.47,0.79,0.78,0.78
72,7.16,6.42,7.13,6.40,-6.40,-6.39,0.77,0.74,0.74
73,7.06,6.36,7.12,6.41,-6.41,-6.32,0.65,0.70,0.70
74,7.06,6.40,7.09,6.43,-6.43,-6.24,0.63,0.66,0.66
75,7.06,6.44,7.07,6.44,-6.44,-6.17,0.62,0.62,0.62
76,7.06,6.48,7.04,6.45,-6.45,-6.10,0.61,0.59,0.59
77,7.03,6.49,7.01,6.46,-6.46,-6.03,0.57,0.55,0.55
78,6.96,6.46,6.97,6.46,-6.46,-5.97,0.50,0.51,0.51
79,6.94,6.48,6.92,6.46,-6.46,-5.91,0.49,0.47,0.47
80,6.86,6.44,6.87,6.45,-6.45,-5.86,0.42,0.42,0.42
81,6.76,6.38,6.81,6.43,-6.43,-5.81,0.33,0.38,0.38
82,6.76,6.42,6.75,6.41,-6.41,-5.77,0.36,0.34,0.34
83,6.76,6.46,6.69,6.39,-6.39,-5.73,0.38,0.30,0.30
84,6.56,6.30,6.62,6.36,-6.36,-5.70,0.20,0.26,0.26
85,6.56,6.35,6.55,6.33,-6.33,-5.68,0.23,0.22,0.22
86,6.47,6.30,6.49,6.31,-6.31,-5.66,0.16,0.18,0.18
87,6.41,6.28,6.42,6.29,-6.29,-5.65,0.13,0.14,0.14
88,6.35,6.26,6.36,6.27,-6.27,-5.65,0.09,0.09,0.09
89,6.24,6.19,6.30,6.25,-6.25,-5.65,-0.00,0.05,0.05
90,6.27,6.26,6.24,6.23,-6.23,-5.65,0.05,0.01,0.01
91,6.19,6.23,6.18,6.21,-6.21,-5.67,-0.01,-0.03,-0.03
92,6.13,6.21,6.12,6.19,-6.19,-5.68,-0.05,-0.07,-0.07
93,6.06,6.18,6.05,6.17,-6.17,-5.70,-0.10,-0.11,-0.11
94,5.97,6.13,5.99,6.14,-6.14,-5.73,-0.17,-0.15,-0.15
95,5.92,6.12,5.93,6.12,-6.12,-5.76,-0.19,-0.19,-0.20
96,5.86,6.10,5.86,6.09,-6.09,-5.79,-0.23,-0.23,-0.24
97,5.76,6.04,5.79,6.07,-6.07,-5.83,-0.30,-0.27,-0.28
98,5.74,6.06,5.73,6.04,-6.04,-5.87,-0.30,-0.32,-0.32
99,5.70,6.06,5.66,6.02,-6.02,-5.92,-0.32,-0.36,-0.36
100,5.62,6.02,5.60,6.01,-6.01,-5.96,-0.38,-0.40,-0.39
101,5.52,5.96,5.55,6.00,-6.00,-6.01,-0.47,-0.44,-0.43
102,5.48,5.96,5.51,6.00,-6.00,-6.06,-0.51,-0.49,-0.47
104,5.46,6.01,5.47,6.00,-6.00,-6.16,-0.54,-0.53,-0.55
105,5.43,6.02,5.45,6.02,-6.02,-6.22,-0.59,-0.57,-0.58
106,5.41,6.03,5.44,6.05,-6.05,-6.27,-0.64,-0.61,-0.62
107,5.44,6.10,5.44,6.09,-6.09,-6.32,-0.65,-0.65,-0.65
108,5.46,6.15,5.45,6.14,-6.14,-6.38,-0.67,-0.69,-0.69
109,5.44,6.16,5.46,6.18,-6.18,-6.43,-0.74,-0.72,-0.72
110,5.42,6.18,5.48,6.23,-6.23,-6.48,-0.80,-0.75,-0.75
111,5.50,6.29,5.48,6.26,-6.26,-6.52,-0.76,-0.78,-0.78
112,5.49,6.31,5.47,6.29,-6.29,-6.57,-0.79,-0.81,-0.81
113,5.48,6.33,5.45,6.30,-6.30,-6.61,-0.81,-0.84,-0.84
114,5.48,6.35,5.41,6.29,-6.29,-6.65,-0.80,-0.88,-0.87
115,5.41,6.31,5.35,6.26,-6.26,-6.68,-0.84,-0.91,-0.90
117,5.26,6.22,5.27,6.21,-6.21,-6.74,-0.95,-0.94,-0.95
118,5.10,6.08,5.18,6.15,-6.15,-6.76,-1.04,-0.97,-0.98
119,5.03,6.03,5.08,6.07,-6.07,-6.77,-1.04,-1.00,-1.00
120,4.99,6.01,4.97,5.99,-5.99,-6.78,-1.00,-1.02,-1.02
121,4.89,5.94,4.85,5.90,-5.90,-6.79,-1.01,-1.05,-1.04
123,4.68,5.77,4.73,5.81,-5.81,-6.79,-1.12,-1.08,-1.09
124,4.61,5.72,4.61,5.71,-5.71,-6.78,-1.10,-1.10,-1.11
125,4.50,5.63,4.49,5.62,-5.62,-6.76,-1.11,-1.13,-1.12
126,4.39,5.54,4.37,5.52,-5.52,-6.74,-1.12,-1.15,-1.14
128,4.23,5.42,4.25,5.42,-5.42,-6.68,-1.19,-1.17,-1.18
129,4.12,5.32,4.14,5.33,-5.33,-6.65,-1.21,-1.19,-1.20
130,4.05,5.27,4.03,5.25,-5.25,-6.61,-1.19,-1.22,-1.21
131,3.98,5.21,3.94,5.18,-5.18,-6.56,-1.19,-1.24,-1.23
133,3.84,5.11,3.86,5.12,-5.12,-6.46,-1.28,-1.26,-1.26
134,3.77,5.05,3.80,5.08,-5.08,-6.41,-1.31,-1.28,-1.28
135,3.76,5.06,3.77,5.07,-5.07,-6.35,-1.31,-1.30,-1.29
137,3.76,5.09,3.77,5.09,-5.09,-6.23,-1.33,-1.32,-1.33
138,3.77,5.11,3.80,5.15,-5.15,-6.16,-1.37,-1.34,-1.34
140,3.86,5.24,3.87,5.24,-5.24,-6.02,-1.37,-1.36,-1.37
141,3.95,5.34,3.98,5.36,-5.36,-5.95,-1.41,-1.38,-1.38
142,4.05,5.45,4.12,5.52,-5.52,-5.88,-1.47,-1.40,-1.40
144,4.26,5.69,4.29,5.71,-5.71,-5.74,-1.45,-1.42,-1.43
145,4.39,5.83,4.48,5.93,-5.93,-5.66,-1.53,-1.45,-1.44
147,4.68,6.15,4.69,6.15,-6.15,-5.52,-1.47,-1.47,-1.47
148,4.81,6.30,4.88,6.37,-6.37,-5.45,-1.55,-1.49,-1.48
150,5.05,6.56,5.05,6.56,-6.56,-5.30,-1.50,-1.51,-1.51
151,5.17,6.70,5.17,6.70,-6.70,-5.23,-1.52,-1.53,-1.52
153,5.32,6.87,5.22,6.77,-6.77,-5.09,-1.44,-1.55,-1.55
154,5.29,6.86,5.18,6.75,-6.75,-5.02,-1.45,-1.56,-1.56
156,5.16,6.75,5.04,6.63,-6.63,-4.88,-1.46,-1.58,-1.59
157,5.03,6.63,4.80,6.40,-6.40,-4.81,-1.37,-1.60,-1.60
159,4.61,6.24,4.47,6.09,-6.09,-4.69,-1.48,-1.62,-1.62
160,4.26,5.90,4.08,5.71,-5.71,-4.62,-1.45,-1.64,-1.63
162,3.55,5.21,3.64,5.30,-5.30,-4.50,-1.74,-1.65,-1.65
164,3.06,4.74,3.21,4.88,-4.88,-4.38,-1.82,-1.67,-1.67
165,2.80,4.49,2.82,4.50,-4.50,-4.33,-1.70,-1.69,-1.68
167,2.29,3.99,2.49,4.19,-4.19,-4.22,-1.90,-1.70,-1.70
169,1.92,3.64,2.25,3.97,-3.97,-4.11,-2.04,-1.71,-1.72
170,1.90,3.63,2.12,3.84,-3.84,-4.06,-1.94,-1.73,-1.72
172,2.07,3.81,2.07,3.81,-3.81,-3.97,-1.74,-1.74,-1.74
174,2.20,3.95,2.11,3.86,-3.86,-3.87,-1.66,-1.75,-1.75
175,2.26,4.02,2.21,3.97,-3.97,-3.83,-1.70,-1.76,-1.75
177,2.41,4.18,2.35,4.11,-4.11,-3.75,-1.70,-1.76,-1.76
179,2.51,4.28,2.50,4.27,-4.27,-3.67,-1.76,-1.77,-1.77
181,2.68,4.46,2.65,4.43,-4.43,-3.59,-1.74,-1.78,-1.78
183,2.85,4.64,2.79,4.57,-4.57,-3.52,-1.71,-1.78,-1.78
184,2.94,4.73,2.89,4.68,-4.68,-3.49,-1.73,-1.78,-1.78
186,3.00,4.79,2.97,4.76,-4.76,-3.42,-1.75,-1.79,-1.79
188,3.06,4.85,3.02,4.81,-4.81,-3.36,-1.75,-1.79,-1.79
190,3.08,4.88,3.05,4.84,-4.84,-3.30,-1.75,-1.79,-1.79
192,2.96,4.76,3.05,4.84,-4.84,-3.25,-1.88,-1.79,-1.79
194,2.94,4.74,3.03,4.83,-4.83,-3.20,-1.88,-1.79,-1.79
196,3.09,4.89,3.00,4.80,-4.80,-3.15,-1.70,-1.80,-1.80
198,3.04,4.84,2.96,4.76,-4.76,-3.10,-1.72,-1.80,-1.80
200,2.82,4.62,2.92,4.72,-4.72,-3.06,-1.89,-1.80,-1.80
202,2.85,4.65,2.87,4.67,-4.67,-3.02,-1.81,-1.80,-1.80
204,2.76,4.56,2.81,4.61,-4.61,-2.98,-1.85,-1.80,-1.80
206,2.71,4.51,2.75,4.55,-4.55,-2.94,-1.84,-1.80,-1.80
208,2.67,4.47,2.68,4.48,-4.48,-2.91,-1.81,-1.80,-1.80
210,2.62,4.42,2.59,4.39,-4.39,-2.87,-1.77,-1.80,-1.80
212,2.56,4.36,2.49,4.29,-4.29,-2.84,-1.73,-1.80,-1.80
214,2.39,4.19,2.36,4.16,-4.16,-2.81,-1.77,-1.80,-1.80
216,2.26,4.06,2.21,4.02,-4.02,-2.78,-1.75,-1.80,-1.80
218,2.11,3.91,2.05,3.85,-3.85,-2.75,-1.74,-1.80,-1.80
221,1.85,3.66,1.88,3.68,-3.68,-2.71,-1.82,-1.80,-1.80
223,1.67,3.47,1.70,3.50,-3.50,-2.68,-1.83,-1.80,-1.80
225,1.50,3.30,1.53,3.33,-3.33,-2.65,-1.82,-1.80,-1.80
227,1.33,3.13,1.37,3.17,-3.17,-2.62,-1.84,-1.80,-1.80
229,1.17,2.97,1.24,3.03,-3.03,-2.60,-1.86,-1.79,-1.79
232,1.00,2.80,1.12,2.91,-2.91,-2.55,-1.91,-1.79,-1.79
234,1.05,2.84,1.02,2.81,-2.81,-2.52,-1.76,-1.79,-1.79
236,1.04,2.83,0.94,2.73,-2.73,-2.50,-1.68,-1.78,-1.78
239,0.86,2.64,0.88,2.65,-2.65,-2.45,-1.79,-1.78,-1.78
241,0.80,2.57,0.81,2.59,-2.59,-2.42,-1.78,-1.77,-1.77
244,0.75,2.52,0.75,2.52,-2.52,-2.37,-1.76,-1.76,-1.77
246,0.69,2.45,0.69,2.45,-2.45,-2.34,-1.75,-1.76,-1.76
248,0.61,2.36,0.62,2.37,-2.37,-2.30,-1.76,-1.75,-1.75
251,0.54,2.29,0.54,2.29,-2.29,-2.25,-1.74,-1.74,-1.74
253,0.52,2.26,0.45,2.19,-2.19,-2.21,-1.67,-1.74,-1.73
256,0.35,2.08,0.35,2.08,-2.08,-2.16,-1.73,-1.73,-1.73
259,0.24,1.96,0.25,1.97,-1.97,-2.10,-1.72,-1.72,-1.72
261,0.14,1.86,0.13,1.84,-1.84,-2.06,-1.70,-1.71,-1.71
264,-0.03,1.68,0.01,1.71,-1.71,-2.00,-1.74,-1.71,-1.71
266,-0.09,1.61,-0.12,1.58,-1.58,-1.96,-1.67,-1.70,-1.70
269,-0.24,1.45,-0.24,1.45,-1.45,-1.89,-1.68,-1.69,-1.69
272,-0.41,1.28,-0.37,1.32,-1.32,-1.83,-1.72,-1.68,-1.68
274,-0.51,1.17,-0.49,1.19,-1.19,-1.79,-1.69,-1.68,-1.68
277,-0.64,1.03,-0.61,1.06,-1.06,-1.72,-1.70,-1.67,-1.67
280,-0.74,0.93,-0.73,0.94,-0.94,-1.65,-1.67,-1.66,-1.66
283,-0.81,0.85,-0.85,0.81,-0.81,-1.58,-1.62,-1.66,-1.66
286,-0.93,0.73,-0.96,0.69,-0.69,-1.52,-1.61,-1.65,-1.65
288,-1.04,0.61,-1.08,0.56,-0.56,-1.47,-1.60,-1.64,-1.64
291,-1.23,0.41,-1.20,0.44,-0.44,-1.40,-1.67,-1.64,-1.64
294,-1.37,0.27,-1.31,0.32,-0.32,-1.33,-1.68,-1.63,-1.63
297,-1.45,0.18,-1.43,0.20,-0.20,-1.26,-1.65,-1.63,-1.63
300,-1.54,0.09,-1.53,0.09,-0.09,-1.20,-1.63,-1.62,-1.62
303,-1.62,0.00,-1.63,-0.02,0.02,-1.13,-1.60,-1.62,-1.62
306,-1.69,-0.08,-1.73,-0.11,0.11,-1.06,-1.57,-1.61,-1.61
309,-1.82,-0.21,-1.81,-0.21,0.21,-0.99,-1.61,-1.60,-1.60
312,-1.95,-0.35,-1.89,-0.29,0.29,-0.92,-1.65,-1.60,-1.60
316,-2.01,-0.41,-1.97,-0.38,0.38,-0.84,-1.63,-1.59,-1.59
319,-2.01,-0.42,-2.04,-0.45,0.45,-0.77,-1.55,-1.59,-1.59
322,-2.09,-0.50,-2.12,-0.53,0.53,-0.70,-1.55,-1.58,-1.58
325,-2.21,-0.63,-2.19,-0.61,0.61,-0.64,-1.60,-1.58,-1.58
328,-2.26,-0.68,-2.26,-0.69,0.69,-0.57,-1.57,-1.57,-1.57
332,-2.32,-0.75,-2.34,-0.77,0.77,-0.49,-1.55,-1.57,-1.57
335,-2.41,-0.84,-2.41,-0.85,0.85,-0.42,-1.56,-1.57,-1.57
338,-2.45,-0.88,-2.49,-0.93,0.93,-0.36,-1.52,-1.56,-1.56
342,-2.61,-1.05,-2.57,-1.01,1.01,-0.28,-1.60,-1.56,-1.56
345,-2.65,-1.09,-2.64,-1.08,1.08,-0.22,-1.56,-1.56,-1.56
349,-2.72,-1.16,-2.71,-1.16,1.16,-0.14,-1.56,-1.55,-1.55
352,-2.79,-1.24,-2.77,-1.22,1.22,-0.07,-1.57,-1.55,-1.55
356,-2.84,-1.29,-2.83,-1.28,1.28,0.01,-1.56,-1.55,-1.55
359,-2.91,-1.36,-2.88,-1.33,1.33,0.06,-1.58,-1.55,-1.55
363,-2.91,-1.36,-2.92,-1.37,1.37,0.14,-1.53,-1.55,-1.54
366,-2.90,-1.35,-2.95,-1.41,1.41,0.20,-1.48,-1.54,-1.54
370,-2.99,-1.44,-2.99,-1.44,1.44,0.28,-1.54,-1.54,-1.54
374,-3.04,-1.50,-3.01,-1.47,1.47,0.36,-1.56,-1.54,-1.54
377,-3.08,-1.54,-3.04,-1.50,1.50,0.41,-1.57,-1.54,-1.54
381,-3.07,-1.53,-3.06,-1.53,1.53,0.49,-1.54,-1.54,-1.54
385,-3.07,-1.53,-3.08,-1.55,1.55,0.56,-1.52,-1.53,-1.53
389,-3.06,-1.53,-3.10,-1.57,1.57,0.63,-1.49,-1.53,-1.53
393,-3.13,-1.60,-3.11,-1.59,1.59,0.71,-1.53,-1.52,-1.52
397,-3.16,-1.64,-3.13,-1.62,1.62,0.78,-1.54,-1.51,-1.51
401,-3.16,-1.65,-3.15,-1.65,1.65,0.85,-1.51,-1.50,-1.50
405,-3.16,-1.66,-3.17,-1.68,1.68,0.91,-1.48,-1.49,-1.49
409,-3.16,-1.68,-3.19,-1.71,1.71,0.98,-1.44,-1.48,-1.48
413,-3.17,-1.70,-3.21,-1.75,1.75,1.05,-1.42,-1.46,-1.46
417,-3.26,-1.81,-3.23,-1.78,1.78,1.11,-1.47,-1.44,-1.44
421,-3.27,-1.85,-3.24,-1.82,1.82,1.17,-1.45,-1.42,-1.42
425,-3.26,-1.86,-3.24,-1.85,1.85,1.24,-1.41,-1.39,-1.40
430,-3.25,-1.88,-3.24,-1.87,1.87,1.31,-1.38,-1.37,-1.37
434,-3.23,-1.89,-3.22,-1.89,1.89,1.37,-1.34,-1.34,-1.34
438,-3.20,-1.89,-3.20,-1.90,1.90,1.42,-1.30,-1.30,-1.30
443,-3.17,-1.90,-3.16,-1.90,1.90,1.49,-1.27,-1.27,-1.27
447,-3.12,-1.89,-3.12,-1.89,1.89,1.54,-1.22,-1.23,-1.23
451,-3.07,-1.88,-3.07,-1.88,1.88,1.58,-1.19,-1.19,-1.19
456,-3.01,-1.86,-3.01,-1.86,1.86,1.64,-1.14,-1.15,-1.15
460,-2.95,-1.84,-2.95,-1.84,1.84,1.68,-1.11,-1.11,-1.11
465,-2.89,-1.82,-2.88,-1.81,1.81,1.73,-1.07,-1.07,-1.07
470,-2.83,-1.80,-2.81,-1.78,1.78,1.77,-1.05,-1.03,-1.03
474,-2.75,-1.76,-2.73,-1.74,1.74,1.80,-1.00,-0.99,-0.99
479,-2.62,-1.67,-2.66,-1.71,1.71,1.83,-0.91,-0.95,-0.95
484,-2.57,-1.65,-2.58,-1.67,1.67,1.86,-0.90,-0.92,-0.92
489,-2.53,-1.64,-2.51,-1.63,1.63,1.89,-0.90,-0.89,-0.88
494,-2.49,-1.63,-2.45,-1.59,1.59,1.91,-0.90,-0.86,-0.86
499,-2.36,-1.52,-2.39,-1.55,1.55,1.92,-0.80,-0.84,-0.83
504,-2.34,-1.52,-2.33,-1.52,1.52,1.94,-0.82,-0.82,-0.81
509,-2.32,-1.52,-2.29,-1.49,1.49,1.94,-0.83,-0.80,-0.80
514,-2.22,-1.43,-2.26,-1.47,1.47,1.95,-0.75,-0.79,-0.79
519,-2.20,-1.41,-2.24,-1.45,1.45,1.94,-0.75,-0.78,-0.78
524,-2.21,-1.42,-2.22,-1.44,1.44,1.94,-0.77,-0.78,-0.78
529,-2.22,-1.43,-2.21,-1.43,1.43,1.93,-0.79,-0.78,-0.78
535,-2.24,-1.45,-2.21,-1.42,1.42,1.92,-0.81,-0.79,-0.79
540,-2.27,-1.47,-2.21,-1.42,1.42,1.90,-0.85,-0.80,-0.80
545,-2.25,-1.44,-2.22,-1.41,1.41,1.89,-0.84,-0.81,-0.80
551,-2.16,-1.34,-2.22,-1.41,1.41,1.86,-0.75,-0.82,-0.82
556,-2.21,-1.38,-2.23,-1.40,1.40,1.84,-0.81,-0.83,-0.83
562,-2.21,-1.37,-2.23,-1.39,1.39,1.81,-0.82,-0.84,-0.84
568,-2.21,-1.36,-2.23,-1.38,1.38,1.78,-0.83,-0.85,-0.85
573,-2.25,-1.39,-2.22,-1.36,1.36,1.75,-0.88,-0.86,-0.86
579,-2.28,-1.41,-2.20,-1.34,1.34,1.72,-0.93,-0.86,-0.86
585,-2.20,-1.33,-2.18,-1.32,1.32,1.68,-0.88,-0.86,-0.87
591,-2.12,-1.25,-2.15,-1.29,1.29,1.64,-0.83,-0.86,-0.87
596,-2.13,-1.26,-2.11,-1.25,1.25,1.61,-0.88,-0.86,-0.86
602,-2.12,-1.26,-2.06,-1.21,1.21,1.57,-0.91,-0.85,-0.86
608,-1.92,-1.07,-2.01,-1.16,1.16,1.54,-0.75,-0.84,-0.84
615,-1.89,-1.06,-1.94,-1.12,1.12,1.49,-0.77,-0.83,-0.83
621,-1.87,-1.06,-1.87,-1.06,1.06,1.45,-0.80,-0.81,-0.81
627,-1.85,-1.06,-1.79,-1.01,1.01,1.41,-0.84,-0.79,-0.79
633,-1.79,-1.02,-1.71,-0.95,0.95,1.38,-0.84,-0.76,-0.76
639,-1.61,-0.87,-1.61,-0.88,0.88,1.34,-0.73,-0.73,-0.73
646,-1.50,-0.79,-1.50,-0.80,0.80,1.29,-0.70,-0.70,-0.70
652,-1.39,-0.72,-1.39,-0.72,0.72,1.26,-0.67,-0.67,-0.67
659,-1.25,-0.61,-1.27,-0.63,0.63,1.22,-0.61,-0.64,-0.64
665,-1.15,-0.54,-1.15,-0.54,0.54,1.18,-0.60,-0.60,-0.60
672,-1.05,-0.48,-1.03,-0.46,0.46,1.14,-0.59,-0.57,-0.57
679,-0.89,-0.35,-0.91,-0.38,0.38,1.10,-0.51,-0.53,-0.53
686,-0.76,-0.26,-0.80,-0.30,0.30,1.06,-0.46,-0.50,-0.50
692,-0.72,-0.25,-0.70,-0.23,0.23,1.03,-0.49,-0.47,-0.47
699,-0.59,-0.15,-0.60,-0.16,0.16,1.00,-0.43,-0.44,-0.44
706,-0.55,-0.14,-0.51,-0.10,0.10,0.96,-0.45,-0.41,-0.41
713,-0.45,-0.06,-0.43,-0.04,0.04,0.93,-0.40,-0.38,-0.38
721,-0.32,0.04,-0.35,0.00,-0.00,0.89,-0.32,-0.36,-0.36
728,-0.27,0.07,-0.29,0.05,-0.05,0.86,-0.31,-0.34,-0.34
735,-0.24,0.08,-0.23,0.09,-0.09,0.83,-0.32,-0.32,-0.32
742,-0.15,0.15,-0.18,0.12,-0.12,0.80,-0.27,-0.30,-0.30
750,-0.12,0.17,-0.13,0.15,-0.15,0.76,-0.27,-0.28,-0.28
757,-0.10,0.17,-0.08,0.19,-0.19,0.73,-0.29,-0.27,-0.27
765,-0.07,0.19,-0.03,0.23,-0.23,0.70,-0.30,-0.26,-0.26
773,-0.04,0.21,0.03,0.27,-0.27,0.67,-0.31,-0.25,-0.25
780,0.08,0.32,0.09,0.32,-0.32,0.65,-0.24,-0.24,-0.24
788,0.17,0.40,0.15,0.38,-0.38,0.62,-0.20,-0.23,-0.23
796,0.24,0.46,0.21,0.43,-0.43,0.60,-0.19,-0.22,-0.22
804,0.25,0.46,0.28,0.49,-0.49,0.57,-0.24,-0.21,-0.21
812,0.35,0.56,0.34,0.55,-0.55,0.55,-0.19,-0.20,-0.20
820,0.46,0.66,0.41,0.60,-0.60,0.53,-0.14,-0.20,-0.20
828,0.45,0.64,0.47,0.66,-0.66,0.51,-0.20,-0.19,-0.19
837,0.47,0.66,0.53,0.71,-0.71,0.49,-0.23,-0.18,-0.18
845,0.56,0.74,0.58,0.76,-0.76,0.47,-0.19,-0.18,-0.18
853,0.56,0.73,0.63,0.80,-0.80,0.45,-0.24,-0.17,-0.17
862,0.74,0.91,0.67,0.83,-0.83,0.44,-0.09,-0.16,-0.16
871,0.75,0.91,0.71,0.86,-0.86,0.43,-0.11,-0.15,-0.15
879,0.74,0.89,0.73,0.87,-0.87,0.42,-0.13,-0.15,-0.15
888,0.73,0.87,0.74,0.88,-0.88,0.41,-0.14,-0.14,-0.14
897,0.72,0.85,0.74,0.87,-0.87,0.40,-0.14,-0.13,-0.13
906,0.72,0.84,0.72,0.84,-0.84,0.39,-0.12,-0.12,-0.12
915,0.71,0.83,0.70,0.81,-0.81,0.39,-0.10,-0.11,-0.11
924,0.65,0.76,0.67,0.77,-0.77,0.39,-0.11,-0.10,-0.10
933,0.60,0.69,0.62,0.71,-0.71,0.40,-0.11,-0.09,-0.09
943,0.51,0.59,0.57,0.65,-0.65,0.40,-0.13,-0.08,-0.08
952,0.51,0.58,0.51,0.57,-0.57,0.41,-0.06,-0.07,-0.07
962,0.47,0.53,0.43,0.49,-0.49,0.42,-0.01,-0.05,-0.05
971,0.42,0.46,0.35,0.39,-0.39,0.44,0.04,-0.04,-0.04
981,0.30,0.33,0.26,0.28,-0.28,0.46,0.02,-0.02,-0.02
991,0.14,0.15,0.16,0.16,-0.16,0.48,-0.02,-0.01,-0.01
1001,-0.02,-0.03,0.06,0.04,-0.04,0.50,-0.06,0.01,0.01
1011,-0.13,-0.16,-0.04,-0.08,0.08,0.53,-0.05,0.03,0.03
1021,-0.16,-0.21,-0.14,-0.20,0.20,0.56,0.04,0.06,0.06
1031,-0.23,-0.30,-0.24,-0.32,0.32,0.59,0.10,0.08,0.08
1041,-0.34,-0.44,-0.34,-0.45,0.45,0.63,0.11,0.10,0.10
1052,-0.40,-0.53,-0.44,-0.57,0.57,0.67,0.18,0.13,0.13
1062,-0.50,-0.66,-0.54,-0.70,0.70,0.72,0.21,0.16,0.16
1073,-0.65,-0.84,-0.65,-0.84,0.84,0.77,0.19,0.19,0.19
1084,-0.80,-1.02,-0.76,-0.98,0.98,0.82,0.19,0.22,0.22
1094,-0.92,-1.17,-0.88,-1.13,1.13,0.87,0.22,0.25,0.25
1105,-1.05,-1.33,-1.00,-1.29,1.29,0.92,0.25,0.29,0.29
1116,-1.13,-1.45,-1.13,-1.46,1.46,0.98,0.33,0.32,0.32
1128,-1.22,-1.57,-1.27,-1.63,1.63,1.05,0.41,0.36,0.36
1139,-1.33,-1.72,-1.42,-1.81,1.81,1.11,0.48,0.39,0.39
1150,-1.58,-2.00,-1.57,-2.00,2.00,1.18,0.42,0.42,0.42
1162,-1.79,-2.24,-1.73,-2.19,2.19,1.25,0.40,0.46,0.46
1173,-1.94,-2.42,-1.89,-2.38,2.38,1.32,0.44,0.49,0.49
1185,-2.03,-2.55,-2.05,-2.57,2.57,1.40,0.55,0.52,0.52
1197,-2.23,-2.77,-2.21,-2.76,2.76,1.47,0.54,0.55,0.55
1209,-2.40,-2.97,-2.37,-2.95,2.95,1.55,0.55,0.57,0.57
1221,-2.47,-3.06,-2.53,-3.12,3.12,1.63,0.66,0.60,0.60
1233,-2.64,-3.26,-2.67,-3.29,3.29,1.72,0.65,0.62,0.62
1246,-2.91,-3.54,-2.80,-3.44,3.44,1.81,0.54,0.64,0.64
1258,-2.95,-3.60,-2.93,-3.58,3.58,1.89,0.64,0.65,0.65
1271,-3.07,-3.73,-3.05,-3.72,3.72,1.99,0.65,0.67,0.67
1283,-3.24,-3.91,-3.17,-3.85,3.85,2.07,0.61,0.68,0.68
1296,-3.30,-3.98,-3.29,-3.98,3.98,2.17,0.68,0.68,0.68
1309,-3.37,-4.05,-3.43,-4.12,4.12,2.27,0.75,0.69,0.69
1322,-3.66,-4.34,-3.59,-4.28,4.28,2.37,0.63,0.69,0.69
1335,-3.72,-4.40,-3.78,-4.47,4.47,2.46,0.75,0.68,0.68
1349,-3.79,-4.47,-4.00,-4.68,4.68,2.57,0.89,0.68,0.68
1362,-4.03,-4.70,-4.23,-4.90,4.90,2.68,0.87,0.67,0.67
1376,-4.29,-4.95,-4.46,-5.13,5.13,2.79,0.84,0.67,0.67
1390,-4.93,-5.58,-4.68,-5.34,5.34,2.90,0.41,0.66,0.66
1404,-5.15,-5.80,-4.87,-5.52,5.52,3.01,0.37,0.65,0.65
1418,-5.21,-5.85,-5.01,-5.66,5.66,3.13,0.45,0.64,0.64
1432,-5.16,-5.79,-5.11,-5.75,5.75,3.24,0.59,0.63,0.63
1446,-5.23,-5.85,-5.17,-5.79,5.79,3.36,0.57,0.63,0.63
1461,-5.15,-5.77,-5.19,-5.81,5.81,3.49,0.66,0.62,0.62
1475,-5.03,-5.64,-5.19,-5.80,5.80,3.60,0.78,0.62,0.62
1490,-5.08,-5.69,-5.18,-5.79,5.79,3.73,0.72,0.62,0.62
1505,-5.16,-5.77,-5.17,-5.79,5.79,3.86,0.64,0.62,0.62
1520,-5.17,-5.79,-5.18,-5.80,5.80,3.99,0.64,0.62,0.62
1535,-5.19,-5.82,-5.20,-5.83,5.83,4.12,0.64,0.63,0.63
1550,-5.26,-5.90,-5.23,-5.87,5.87,4.26,0.62,0.65,0.65
1566,-5.24,-5.90,-5.26,-5.92,5.91,4.40,0.68,0.66,0.67
1582,-5.27,-5.96,-5.29,-5.98,5.94,4.54,0.68,0.66,0.69
1597,-5.36,-6.08,-5.31,-6.03,5.97,4.67,0.61,0.65,0.72
1613,-5.35,-6.10,-5.32,-6.08,5.98,4.81,0.64,0.66,0.75
1629,-5.34,-6.13,-5.32,-6.12,5.99,4.95,0.66,0.67,0.79
1646,-5.35,-6.19,-5.31,-6.15,6.00,5.10,0.65,0.69,0.84
1662,-5.31,-6.20,-5.28,-6.17,6.00,5.24,0.69,0.72,0.89
1679,-5.24,-6.18,-5.24,-6.19,6.00,5.39,0.76,0.76,0.95
1696,-5.16,-6.17,-5.19,-6.20,6.00,5.53,0.84,0.81,1.01
1713,-5.09,-6.16,-5.13,-6.21,6.00,5.67,0.91,0.87,1.08
1730,-5.01,-6.15,-5.07,-6.22,6.00,5.81,0.99,0.93,1.15
1747,-5.09,-6.31,-5.01,-6.23,6.00,5.94,0.91,0.99,1.23
1764,-4.98,-6.28,-4.94,-6.24,6.00,6.07,1.02,1.06,1.31
