frequency,raw,error,smoothed,error_smoothed,equalization,parametric_eq,equalized_raw,equalized_smoothed,target
20.00,-2.02,-4.36,-2.00,-4.31,4.31,1.40,2.29,2.32,2.33
20.20,-1.98,-4.32,-1.96,-4.27,4.27,1.45,2.29,2.32,2.33
20.40,-1.94,-4.28,-1.92,-4.23,4.23,1.49,2.29,2.31,2.33
20.61,-1.90,-4.24,-1.88,-4.19,4.19,1.54,2.29,2.31,2.33
20.81,-1.86,-4.19,-1.84,-4.15,4.15,1.59,2.29,2.31,2.33
21.02,-1.81,-4.14,-1.81,-4.11,4.11,1.64,2.30,2.31,2.33
21.23,-1.74,-4.07,-1.77,-4.08,4.08,1.69,2.33,2.30,2.33
21.44,-1.68,-4.01,-1.74,-4.04,4.04,1.74,2.36,2.30,2.33
21.66,-1.61,-3.94,-1.70,-4.01,4.01,1.79,2.39,2.30,2.33
21.87,-1.54,-3.87,-1.67,-3.97,3.97,1.85,2.43,2.30,2.33
22.09,-1.52,-3.85,-1.64,-3.94,3.94,1.91,2.42,2.30,2.32
22.31,-1.55,-3.88,-1.61,-3.91,3.91,1.97,2.35,2.30,2.32
22.54,-1.59,-3.92,-1.59,-3.88,3.88,2.03,2.29,2.29,2.32
22.76,-1.62,-3.95,-1.56,-3.85,3.85,2.09,2.23,2.29,2.32
22.99,-1.66,-3.98,-1.53,-3.83,3.83,2.15,2.17,2.30,2.32
23.22,-1.61,-3.93,-1.51,-3.81,3.81,2.21,2.19,2.30,2.32
23.45,-1.55,-3.87,-1.48,-3.79,3.79,2.28,2.23,2.30,2.32
23.69,-1.49,-3.81,-1.47,-3.76,3.76,2.35,2.27,2.30,2.32
23.92,-1.44,-3.76,-1.45,-3.74,3.74,2.42,2.30,2.29,2.32
24.16,-1.39,-3.71,-1.43,-3.72,3.72,2.49,2.32,2.28,2.31
24.40,-1.35,-3.67,-1.41,-3.69,3.69,2.56,2.34,2.28,2.31
24.65,-1.30,-3.62,-1.39,-3.67,3.67,2.63,2.36,2.28,2.31
24.89,-1.26,-3.57,-1.36,-3.64,3.64,2.70,2.37,2.28,2.31
25.14,-1.25,-3.56,-1.33,-3.61,3.61,2.78,2.35,2.28,2.31
25.39,-1.28,-3.59,-1.29,-3.58,3.58,2.85,2.29,2.28,2.31
25.65,-1.31,-3.62,-1.26,-3.55,3.55,2.93,2.23,2.29,2.31
25.91,-1.33,-3.64,-1.23,-3.52,3.52,3.00,2.18,2.29,2.30
26.16,-1.30,-3.60,-1.20,-3.49,3.49,3.07,2.18,2.29,2.30
26.43,-1.25,-3.55,-1.17,-3.46,3.46,3.15,2.20,2.28,2.30
26.69,-1.19,-3.49,-1.15,-3.43,3.43,3.22,2.23,2.27,2.30
26.96,-1.13,-3.43,-1.13,-3.40,3.40,3.29,2.27,2.27,2.30
27.23,-1.07,-3.37,-1.11,-3.38,3.38,3.36,2.30,2.27,2.29
27.50,-1.01,-3.31,-1.09,-3.35,3.35,3.43,2.33,2.26,2.29
27.77,-0.95,-3.24,-1.06,-3.32,3.32,3.50,2.37,2.26,2.29
28.05,-0.91,-3.20,-1.03,-3.30,3.30,3.56,2.38,2.27,2.29
28.33,-0.95,-3.24,-1.00,-3.28,3.28,3.62,2.32,2.27,2.29
28.62,-1.00,-3.29,-0.97,-3.26,3.26,3.68,2.26,2.28,2.28
28.90,-1.04,-3.33,-0.96,-3.24,3.24,3.73,2.20,2.29,2.28
29.19,-1.03,-3.31,-0.95,-3.23,3.23,3.78,2.19,2.28,2.28
29.48,-0.99,-3.27,-0.95,-3.21,3.21,3.82,2.22,2.27,2.28
29.78,-0.94,-3.22,-0.94,-3.20,3.20,3.86,2.26,2.26,2.28
30.08,-0.91,-3.19,-0.94,-3.19,3.19,3.89,2.28,2.25,2.27
30.38,-0.89,-3.16,-0.93,-3.18,3.18,3.92,2.29,2.25,2.27
30.68,-0.88,-3.15,-0.92,-3.17,3.17,3.94,2.28,2.25,2.27
30.99,-0.86,-3.13,-0.91,-3.15,3.15,3.96,2.29,2.24,2.27
31.30,-0.88,-3.15,-0.88,-3.13,3.13,3.97,2.25,2.24,2.26
31.61,-0.90,-3.16,-0.86,-3.11,3.11,3.98,2.20,2.25,2.26
31.93,-0.92,-3.18,-0.83,-3.09,3.09,3.98,2.16,2.25,2.26
32.24,-0.88,-3.14,-0.81,-3.06,3.06,3.97,2.18,2.25,2.25
32.57,-0.80,-3.06,-0.80,-3.04,3.04,3.96,2.24,2.25,2.25
32.89,-0.73,-2.98,-0.78,-3.02,3.02,3.94,2.29,2.24,2.25
33.22,-0.71,-2.96,-0.77,-3.01,3.01,3.92,2.29,2.24,2.24
33.55,-0.71,-2.96,-0.75,-2.99,2.99,3.89,2.28,2.24,2.24
33.89,-0.71,-2.95,-0.74,-2.98,2.98,3.86,2.26,2.24,2.24
34.23,-0.71,-2.95,-0.73,-2.96,2.96,3.82,2.25,2.23,2.23
34.57,-0.71,-2.94,-0.73,-2.95,2.95,3.78,2.24,2.22,2.23
34.92,-0.71,-2.94,-0.73,-2.94,2.94,3.74,2.23,2.21,2.23
35.27,-0.71,-2.94,-0.72,-2.93,2.93,3.69,2.22,2.21,2.22
35.62,-0.71,-2.93,-0.71,-2.92,2.92,3.65,2.20,2.20,2.22
35.97,-0.71,-2.93,-0.71,-2.90,2.90,3.60,2.19,2.20,2.22
36.33,-0.71,-2.92,-0.70,-2.89,2.89,3.54,2.17,2.19,2.21
36.70,-0.71,-2.92,-0.68,-2.87,2.87,3.49,2.16,2.18,2.21
37.06,-0.71,-2.92,-0.67,-2.85,2.85,3.44,2.14,2.18,2.20
37.43,-0.71,-2.91,-0.65,-2.83,2.83,3.38,2.11,2.18,2.20
37.81,-0.72,-2.92,-0.63,-2.80,2.80,3.33,2.08,2.18,2.19
38.19,-0.66,-2.85,-0.61,-2.78,2.78,3.27,2.11,2.17,2.19
38.57,-0.54,-2.73,-0.59,-2.75,2.75,3.22,2.21,2.17,2.18
38.95,-0.42,-2.60,-0.57,-2.73,2.73,3.17,2.30,2.16,2.18
39.34,-0.44,-2.62,-0.55,-2.70,2.70,3.12,2.26,2.16,2.17
39.74,-0.48,-2.65,-0.53,-2.68,2.68,3.06,2.20,2.15,2.17
40.14,-0.51,-2.68,-0.52,-2.67,2.67,3.01,2.15,2.15,2.16
40.54,-0.51,-2.67,-0.50,-2.65,2.65,2.97,2.14,2.15,2.16
40.94,-0.51,-2.66,-0.49,-2.64,2.64,2.92,2.13,2.15,2.15
41.35,-0.51,-2.66,-0.49,-2.63,2.63,2.87,2.12,2.14,2.14
41.76,-0.51,-2.65,-0.49,-2.62,2.62,2.83,2.11,2.14,2.14
42.18,-0.51,-2.65,-0.49,-2.62,2.62,2.79,2.11,2.13,2.13
42.60,-0.51,-2.64,-0.50,-2.62,2.62,2.75,2.10,2.11,2.12
43.03,-0.51,-2.63,-0.51,-2.62,2.62,2.71,2.10,2.10,2.12
43.46,-0.51,-2.62,-0.52,-2.62,2.62,2.67,2.10,2.09,2.11
43.90,-0.51,-2.62,-0.52,-2.61,2.61,2.64,2.10,2.09,2.10
44.33,-0.51,-2.61,-0.52,-2.61,2.61,2.61,2.09,2.09,2.10
44.78,-0.51,-2.60,-0.51,-2.60,2.60,2.58,2.09,2.09,2.09
45.23,-0.51,-2.59,-0.51,-2.59,2.59,2.55,2.08,2.08,2.08
45.68,-0.51,-2.59,-0.51,-2.59,2.59,2.52,2.07,2.07,2.07
46.13,-0.51,-2.58,-0.51,-2.58,2.58,2.50,2.07,2.07,2.06
46.60,-0.51,-2.57,-0.51,-2.57,2.57,2.48,2.06,2.06,2.06
47.06,-0.51,-2.56,-0.51,-2.56,2.56,2.46,2.05,2.05,2.05
47.53,-0.51,-2.55,-0.51,-2.55,2.55,2.44,2.04,2.04,2.04
48.01,-0.51,-2.54,-0.51,-2.54,2.54,2.42,2.03,2.03,2.03
48.49,-0.51,-2.53,-0.51,-2.53,2.53,2.41,2.02,2.02,2.02
48.97,-0.51,-2.52,-0.51,-2.52,2.52,2.39,2.01,2.01,2.01
49.46,-0.51,-2.51,-0.51,-2.51,2.51,2.38,2.00,2.00,2.00
49.96,-0.51,-2.50,-0.51,-2.50,2.50,2.37,1.99,1.99,1.99
50.46,-0.51,-2.49,-0.51,-2.49,2.49,2.36,1.98,1.98,1.98
50.96,-0.51,-2.48,-0.51,-2.48,2.48,2.36,1.97,1.97,1.97
51.47,-0.51,-2.47,-0.51,-2.47,2.47,2.35,1.96,1.96,1.96
51.99,-0.51,-2.46,-0.51,-2.46,2.46,2.35,1.94,1.94,1.94
52.51,-0.51,-2.45,-0.51,-2.45,2.45,2.34,1.93,1.93,1.93
53.03,-0.51,-2.43,-0.51,-2.43,2.43,2.34,1.92,1.92,1.92
53.56,-0.51,-2.42,-0.51,-2.42,2.42,2.33,1.91,1.91,1.91
54.10,-0.51,-2.41,-0.51,-2.41,2.41,2.33,1.90,1.90,1.90
54.64,-0.51,-2.40,-0.51,-2.40,2.40,2.33,1.88,1.88,1.88
55.18,-0.51,-2.38,-0.51,-2.38,2.38,2.33,1.87,1.87,1.87
55.74,-0.51,-2.37,-0.51,-2.37,2.37,2.32,1.85,1.85,1.85
56.29,-0.51,-2.35,-0.51,-2.35,2.35,2.32,1.84,1.84,1.84
56.86,-0.51,-2.34,-0.51,-2.34,2.34,2.32,1.83,1.83,1.83
57.42,-0.51,-2.32,-0.51,-2.32,2.32,2.31,1.81,1.81,1.81
58.00,-0.51,-2.31,-0.51,-2.31,2.31,2.31,1.80,1.80,1.80
58.58,-0.51,-2.29,-0.51,-2.29,2.29,2.30,1.78,1.78,1.78
59.16,-0.51,-2.28,-0.51,-2.28,2.28,2.29,1.76,1.76,1.76
59.76,-0.51,-2.26,-0.51,-2.26,2.26,2.28,1.75,1.75,1.75
60.35,-0.51,-2.24,-0.51,-2.24,2.24,2.27,1.73,1.73,1.73
60.96,-0.51,-2.23,-0.51,-2.23,2.23,2.26,1.71,1.71,1.71
61.57,-0.51,-2.21,-0.51,-2.21,2.21,2.24,1.70,1.70,1.70
62.18,-0.51,-2.19,-0.51,-2.19,2.19,2.23,1.68,1.68,1.68
62.80,-0.51,-2.17,-0.52,-2.17,2.17,2.21,1.66,1.66,1.66
63.43,-0.51,-2.15,-0.52,-2.15,2.15,2.19,1.64,1.63,1.64
64.07,-0.51,-2.14,-0.52,-2.13,2.13,2.17,1.61,1.61,1.62
64.71,-0.51,-2.12,-0.51,-2.11,2.11,2.15,1.59,1.60,1.60
65.35,-0.51,-2.10,-0.50,-2.09,2.09,2.12,1.57,1.58,1.58
66.01,-0.51,-2.07,-0.50,-2.06,2.06,2.10,1.55,1.56,1.56
66.67,-0.51,-2.05,-0.50,-2.04,2.04,2.07,1.53,1.54,1.54
67.33,-0.51,-2.03,-0.51,-2.02,2.02,2.04,1.51,1.51,1.52
68.01,-0.51,-2.01,-0.52,-2.00,2.00,2.01,1.49,1.48,1.50
68.69,-0.51,-1.99,-0.53,-1.98,1.98,1.98,1.47,1.46,1.47
69.37,-0.50,-1.96,-0.53,-1.96,1.96,1.94,1.46,1.44,1.45
70.07,-0.49,-1.92,-0.53,-1.94,1.94,1.91,1.45,1.42,1.43
70.77,-0.44,-1.85,-0.52,-1.92,1.92,1.87,1.48,1.40,1.40
71.48,-0.51,-1.89,-0.52,-1.90,1.90,1.84,1.39,1.38,1.38
72.19,-0.61,-1.97,-0.53,-1.88,1.88,1.80,1.27,1.35,1.36
72.91,-0.61,-1.95,-0.54,-1.86,1.86,1.76,1.25,1.32,1.33
73.64,-0.61,-1.92,-0.54,-1.84,1.84,1.73,1.22,1.30,1.31
74.38,-0.57,-1.85,-0.54,-1.81,1.81,1.69,1.24,1.27,1.28
75.12,-0.49,-1.75,-0.54,-1.78,1.78,1.65,1.29,1.24,1.25
75.87,-0.42,-1.65,-0.53,-1.75,1.75,1.61,1.33,1.22,1.23
76.63,-0.47,-1.67,-0.53,-1.72,1.72,1.58,1.24,1.19,1.20
77.40,-0.51,-1.69,-0.52,-1.68,1.68,1.54,1.17,1.16,1.17
78.17,-0.52,-1.67,-0.51,-1.64,1.64,1.50,1.12,1.13,1.15
78.95,-0.59,-1.71,-0.50,-1.60,1.60,1.47,1.01,1.11,1.12
79.74,-0.55,-1.64,-0.48,-1.56,1.56,1.43,1.01,1.09,1.09
80.54,-0.46,-1.52,-0.46,-1.52,1.52,1.40,1.06,1.06,1.06
81.35,-0.41,-1.45,-0.45,-1.48,1.48,1.36,1.06,1.03,1.03
82.16,-0.41,-1.42,-0.44,-1.44,1.44,1.33,1.02,0.99,1.00
82.98,-0.41,-1.39,-0.43,-1.40,1.40,1.30,0.98,0.96,0.97
83.81,-0.41,-1.36,-0.42,-1.36,1.36,1.26,0.94,0.93,0.94
84.65,-0.41,-1.32,-0.42,-1.32,1.32,1.23,0.91,0.91,0.91
85.50,-0.41,-1.29,-0.41,-1.29,1.29,1.20,0.88,0.88,0.88
86.35,-0.41,-1.26,-0.40,-1.26,1.26,1.17,0.85,0.86,0.85
87.22,-0.41,-1.23,-0.41,-1.24,1.24,1.14,0.83,0.83,0.82
88.09,-0.41,-1.20,-0.43,-1.22,1.22,1.12,0.80,0.79,0.79
88.97,-0.41,-1.17,-0.46,-1.20,1.20,1.09,0.78,0.74,0.75
89.86,-0.41,-1.14,-0.49,-1.18,1.18,1.06,0.77,0.69,0.72
90.76,-0.43,-1.12,-0.50,-1.16,1.16,1.04,0.73,0.66,0.69
91.66,-0.48,-1.14,-0.51,-1.14,1.14,1.01,0.66,0.63,0.66
92.58,-0.56,-1.19,-0.52,-1.12,1.12,0.99,0.56,0.60,0.63
93.51,-0.60,-1.20,-0.53,-1.09,1.09,0.97,0.49,0.56,0.59
94.44,-0.61,-1.17,-0.53,-1.07,1.07,0.94,0.45,0.53,0.56
95.39,-0.63,-1.16,-0.54,-1.04,1.04,0.92,0.40,0.50,0.53
96.34,-0.67,-1.17,-0.54,-1.00,1.00,0.90,0.33,0.47,0.49
97.30,-0.63,-1.09,-0.54,-0.97,0.97,0.88,0.34,0.43,0.46
98.28,-0.44,-0.87,-0.53,-0.93,0.93,0.86,0.49,0.40,0.43
99.26,-0.37,-0.77,-0.53,-0.90,0.90,0.84,0.53,0.37,0.39
100.25,-0.44,-0.81,-0.53,-0.86,0.86,0.82,0.42,0.34,0.36
101.25,-0.48,-0.81,-0.52,-0.83,0.83,0.80,0.35,0.31,0.33
102.27,-0.49,-0.79,-0.52,-0.80,0.80,0.79,0.30,0.28,0.30
103.29,-0.50,-0.77,-0.52,-0.77,0.77,0.77,0.27,0.25,0.26
104.32,-0.52,-0.75,-0.52,-0.75,0.75,0.75,0.22,0.23,0.23
105.37,-0.54,-0.74,-0.52,-0.73,0.73,0.74,0.18,0.20,0.20
106.42,-0.57,-0.74,-0.54,-0.71,0.71,0.72,0.14,0.17,0.16
107.48,-0.59,-0.72,-0.57,-0.70,0.70,0.71,0.10,0.12,0.13
108.56,-0.62,-0.72,-0.61,-0.69,0.69,0.69,0.06,0.08,0.10
109.64,-0.64,-0.71,-0.64,-0.68,0.68,0.68,0.04,0.04,0.06
110.74,-0.65,-0.68,-0.67,-0.68,0.68,0.66,0.03,0.01,0.03
111.85,-0.67,-0.67,-0.68,-0.68,0.68,0.65,0.00,-0.01,-0.00
112.97,-0.68,-0.65,-0.70,-0.67,0.67,0.63,-0.01,-0.03,-0.03
114.10,-0.69,-0.63,-0.72,-0.67,0.67,0.62,-0.03,-0.06,-0.06
115.24,-0.71,-0.63,-0.74,-0.66,0.66,0.60,-0.06,-0.09,-0.09
116.39,-0.83,-0.72,-0.76,-0.65,0.65,0.59,-0.19,-0.12,-0.11
117.55,-0.89,-0.75,-0.78,-0.64,0.64,0.57,-0.26,-0.15,-0.14
118.73,-0.82,-0.66,-0.80,-0.63,0.63,0.56,-0.20,-0.17,-0.16
119.92,-0.68,-0.50,-0.81,-0.61,0.61,0.54,-0.07,-0.20,-0.19
121.12,-0.78,-0.57,-0.81,-0.59,0.59,0.53,-0.19,-0.21,-0.21
122.33,-0.80,-0.57,-0.80,-0.57,0.57,0.51,-0.23,-0.23,-0.23
123.55,-0.82,-0.57,-0.80,-0.55,0.55,0.50,-0.28,-0.25,-0.25
124.79,-0.84,-0.58,-0.80,-0.53,0.53,0.48,-0.32,-0.27,-0.27
126.03,-0.84,-0.56,-0.79,-0.50,0.50,0.46,-0.34,-0.29,-0.29
127.29,-0.82,-0.52,-0.79,-0.48,0.48,0.45,-0.35,-0.31,-0.30
128.57,-0.81,-0.49,-0.78,-0.45,0.45,0.43,-0.36,-0.33,-0.32
129.85,-0.74,-0.40,-0.78,-0.43,0.43,0.41,-0.31,-0.35,-0.34
131.15,-0.69,-0.33,-0.78,-0.41,0.41,0.39,-0.29,-0.37,-0.36
132.46,-0.64,-0.26,-0.78,-0.38,0.38,0.37,-0.26,-0.39,-0.38
133.79,-0.73,-0.33,-0.78,-0.36,0.36,0.35,-0.37,-0.42,-0.40
135.12,-0.80,-0.38,-0.77,-0.34,0.34,0.33,-0.47,-0.44,-0.42
136.48,-0.80,-0.36,-0.77,-0.31,0.31,0.31,-0.49,-0.46,-0.44
137.84,-0.79,-0.33,-0.76,-0.29,0.29,0.29,-0.50,-0.48,-0.46
139.22,-0.79,-0.31,-0.76,-0.26,0.26,0.27,-0.53,-0.49,-0.48
140.61,-0.79,-0.29,-0.75,-0.24,0.24,0.25,-0.56,-0.51,-0.50
142.02,-0.79,-0.27,-0.74,-0.21,0.21,0.23,-0.59,-0.54,-0.52
143.44,-0.76,-0.22,-0.74,-0.18,0.18,0.21,-0.59,-0.56,-0.54
144.87,-0.64,-0.08,-0.73,-0.14,0.14,0.19,-0.50,-0.58,-0.57
146.32,-0.71,-0.13,-0.71,-0.11,0.11,0.17,-0.60,-0.60,-0.58
147.78,-0.78,-0.18,-0.69,-0.08,0.08,0.14,-0.71,-0.62,-0.60
149.26,-0.66,-0.04,-0.67,-0.04,0.04,0.12,-0.62,-0.63,-0.62
150.75,-0.59,0.05,-0.65,-0.01,0.01,0.10,-0.59,-0.64,-0.64
152.26,-0.59,0.07,-0.63,0.03,-0.03,0.07,-0.62,-0.66,-0.66
153.78,-0.59,0.08,-0.62,0.06,-0.06,0.05,-0.65,-0.67,-0.68
155.32,-0.59,0.10,-0.61,0.08,-0.08,0.03,-0.68,-0.69,-0.69
156.88,-0.59,0.12,-0.60,0.11,-0.11,0.00,-0.70,-0.71,-0.71
158.44,-0.59,0.13,-0.60,0.13,-0.13,-0.02,-0.73,-0.73,-0.73
160.03,-0.59,0.15,-0.60,0.15,-0.15,-0.05,-0.75,-0.75,-0.74
161.63,-0.59,0.17,-0.60,0.17,-0.17,-0.07,-0.76,-0.77,-0.76
163.24,-0.59,0.19,-0.59,0.19,-0.19,-0.10,-0.78,-0.78,-0.78
164.88,-0.59,0.20,-0.60,0.20,-0.20,-0.12,-0.80,-0.80,-0.80
166.53,-0.60,0.21,-0.61,0.22,-0.22,-0.15,-0.82,-0.83,-0.82
168.19,-0.60,0.23,-0.61,0.24,-0.24,-0.18,-0.84,-0.85,-0.84
169.87,-0.61,0.24,-0.61,0.26,-0.26,-0.20,-0.87,-0.87,-0.85
171.57,-0.62,0.25,-0.61,0.28,-0.28,-0.23,-0.90,-0.89,-0.87
173.29,-0.62,0.27,-0.60,0.30,-0.30,-0.26,-0.93,-0.90,-0.89
175.02,-0.63,0.27,-0.58,0.33,-0.33,-0.28,-0.97,-0.92,-0.90
176.77,-0.47,0.44,-0.56,0.37,-0.37,-0.31,-0.84,-0.92,-0.92
178.54,-0.54,0.38,-0.53,0.40,-0.40,-0.34,-0.94,-0.93,-0.93
180.32,-0.61,0.32,-0.49,0.43,-0.43,-0.37,-1.05,-0.93,-0.94
182.13,-0.51,0.43,-0.47,0.47,-0.47,-0.40,-0.98,-0.93,-0.94
183.95,-0.41,0.53,-0.44,0.50,-0.50,-0.43,-0.92,-0.94,-0.94
185.79,-0.40,0.54,-0.41,0.54,-0.54,-0.46,-0.94,-0.95,-0.94
187.65,-0.39,0.54,-0.38,0.57,-0.57,-0.49,-0.96,-0.95,-0.94
189.52,-0.31,0.62,-0.35,0.60,-0.60,-0.51,-0.92,-0.95,-0.93
191.42,-0.19,0.74,-0.31,0.63,-0.63,-0.54,-0.83,-0.95,-0.93
193.33,-0.17,0.75,-0.27,0.67,-0.67,-0.57,-0.84,-0.94,-0.92
195.27,-0.21,0.71,-0.24,0.70,-0.70,-0.61,-0.91,-0.94,-0.92
197.22,-0.23,0.68,-0.21,0.73,-0.73,-0.64,-0.96,-0.93,-0.92
199.19,-0.28,0.63,-0.17,0.76,-0.76,-0.67,-1.04,-0.93,-0.91
201.18,-0.28,0.63,-0.15,0.79,-0.79,-0.70,-1.07,-0.93,-0.91
203.19,-0.16,0.75,-0.12,0.82,-0.82,-0.73,-0.98,-0.94,-0.91
205.23,-0.09,0.82,-0.10,0.85,-0.85,-0.76,-0.94,-0.94,-0.92
207.28,-0.04,0.88,-0.07,0.88,-0.88,-0.79,-0.92,-0.94,-0.92
209.35,0.07,1.00,-0.04,0.90,-0.90,-0.81,-0.84,-0.95,-0.93
211.44,0.07,1.01,-0.02,0.93,-0.93,-0.84,-0.87,-0.95,-0.94
213.56,0.01,0.95,-0.01,0.96,-0.96,-0.87,-0.96,-0.97,-0.95
215.69,-0.00,0.96,0.01,0.99,-0.99,-0.90,-0.99,-0.98,-0.96
217.85,-0.00,0.97,0.04,1.02,-1.02,-0.92,-1.02,-0.98,-0.97
220.03,0.02,1.00,0.06,1.04,-1.04,-0.95,-1.03,-0.98,-0.98
222.23,0.14,1.12,0.09,1.07,-1.07,-0.97,-0.93,-0.98,-0.99
224.45,0.18,1.17,0.11,1.09,-1.09,-1.00,-0.91,-0.98,-0.99
226.70,0.10,1.09,0.12,1.11,-1.11,-1.02,-1.02,-0.99,-1.00
228.96,0.10,1.09,0.13,1.13,-1.13,-1.04,-1.04,-1.00,-1.00
231.25,0.10,1.09,0.15,1.15,-1.15,-1.05,-1.05,-1.00,-0.99
233.57,0.11,1.09,0.17,1.17,-1.17,-1.07,-1.06,-1.00,-0.99
235.90,0.12,1.10,0.20,1.19,-1.19,-1.08,-1.07,-0.99,-0.98
238.26,0.26,1.23,0.23,1.20,-1.20,-1.10,-0.95,-0.97,-0.97
240.64,0.38,1.34,0.25,1.22,-1.22,-1.11,-0.84,-0.96,-0.96
243.05,0.32,1.26,0.28,1.23,-1.23,-1.11,-0.92,-0.95,-0.95
245.48,0.29,1.22,0.30,1.24,-1.24,-1.12,-0.96,-0.95,-0.93
247.93,0.32,1.24,0.31,1.25,-1.25,-1.12,-0.94,-0.94,-0.92
250.41,0.34,1.25,0.34,1.26,-1.26,-1.12,-0.93,-0.92,-0.91
252.92,0.35,1.24,0.36,1.27,-1.27,-1.12,-0.92,-0.90,-0.90
255.45,0.37,1.26,0.38,1.27,-1.27,-1.11,-0.91,-0.89,-0.89
258.00,0.38,1.26,0.38,1.27,-1.27,-1.11,-0.90,-0.89,-0.88
260.58,0.38,1.25,0.37,1.27,-1.27,-1.10,-0.90,-0.90,-0.88
263.19,0.38,1.25,0.37,1.27,-1.27,-1.08,-0.89,-0.89,-0.88
265.82,0.38,1.25,0.37,1.26,-1.26,-1.07,-0.88,-0.89,-0.87
268.48,0.38,1.25,0.35,1.25,-1.25,-1.05,-0.87,-0.90,-0.87
271.16,0.37,1.24,0.35,1.23,-1.23,-1.03,-0.87,-0.89,-0.88
273.87,0.37,1.24,0.34,1.22,-1.22,-1.01,-0.85,-0.88,-0.88
276.61,0.30,1.17,0.33,1.19,-1.19,-0.99,-0.90,-0.87,-0.88
279.38,0.25,1.12,0.30,1.16,-1.16,-0.97,-0.92,-0.87,-0.88
282.17,0.19,1.06,0.26,1.13,-1.13,-0.94,-0.94,-0.87,-0.88
284.99,0.18,1.05,0.22,1.09,-1.09,-0.92,-0.92,-0.87,-0.87
287.84,0.26,1.12,0.18,1.05,-1.05,-0.89,-0.79,-0.86,-0.87
290.72,0.33,1.19,0.14,0.99,-0.99,-0.86,-0.67,-0.86,-0.86
293.63,0.03,0.88,0.09,0.93,-0.93,-0.83,-0.91,-0.85,-0.85
296.57,-0.04,0.80,0.02,0.87,-0.87,-0.80,-0.92,-0.85,-0.84
299.53,0.07,0.90,-0.04,0.80,-0.80,-0.77,-0.74,-0.84,-0.83
302.53,-0.08,0.74,-0.11,0.73,-0.73,-0.74,-0.81,-0.84,-0.83
305.55,-0.22,0.59,-0.17,0.65,-0.65,-0.71,-0.87,-0.82,-0.82
308.61,-0.38,0.43,-0.24,0.57,-0.57,-0.68,-0.95,-0.80,-0.81
311.69,-0.30,0.50,-0.32,0.48,-0.48,-0.64,-0.78,-0.80,-0.80
314.81,-0.32,0.47,-0.41,0.39,-0.39,-0.61,-0.72,-0.80,-0.80
317.96,-0.45,0.34,-0.51,0.30,-0.30,-0.58,-0.76,-0.81,-0.79
321.14,-0.62,0.17,-0.61,0.21,-0.21,-0.55,-0.83,-0.82,-0.79
324.35,-0.72,0.07,-0.69,0.12,-0.12,-0.51,-0.85,-0.81,-0.79
327.59,-0.77,0.02,-0.76,0.04,-0.04,-0.48,-0.81,-0.80,-0.79
330.87,-0.77,0.02,-0.85,-0.05,0.05,-0.45,-0.73,-0.80,-0.79
334.18,-0.89,-0.10,-0.93,-0.12,0.12,-0.41,-0.77,-0.81,-0.79
337.52,-0.93,-0.14,-1.00,-0.20,0.20,-0.38,-0.74,-0.80,-0.79
340.90,-1.14,-0.35,-1.06,-0.26,0.26,-0.35,-0.88,-0.80,-0.79
344.30,-1.31,-0.52,-1.12,-0.32,0.32,-0.32,-0.99,-0.80,-0.79
347.75,-1.27,-0.48,-1.18,-0.38,0.38,-0.29,-0.90,-0.81,-0.79
351.23,-1.17,-0.39,-1.23,-0.42,0.42,-0.26,-0.75,-0.81,-0.79
354.74,-1.17,-0.39,-1.25,-0.46,0.46,-0.23,-0.71,-0.79,-0.78
358.28,-1.29,-0.51,-1.27,-0.50,0.50,-0.19,-0.80,-0.78,-0.78
361.87,-1.33,-0.56,-1.30,-0.53,0.53,-0.16,-0.81,-0.77,-0.77
365.49,-1.32,-0.56,-1.32,-0.55,0.55,-0.13,-0.78,-0.78,-0.77
369.14,-1.31,-0.55,-1.33,-0.56,0.56,-0.10,-0.75,-0.77,-0.76
372.83,-1.31,-0.56,-1.33,-0.57,0.57,-0.07,-0.74,-0.76,-0.75
376.56,-1.30,-0.56,-1.33,-0.58,0.58,-0.04,-0.72,-0.75,-0.74
380.33,-1.29,-0.55,-1.32,-0.58,0.58,-0.01,-0.71,-0.74,-0.74
384.13,-1.29,-0.56,-1.32,-0.58,0.58,0.01,-0.71,-0.74,-0.73
387.97,-1.28,-0.55,-1.33,-0.58,0.58,0.04,-0.71,-0.75,-0.73
391.85,-1.28,-0.56,-1.32,-0.57,0.57,0.07,-0.71,-0.75,-0.73
395.77,-1.35,-0.63,-1.31,-0.56,0.56,0.10,-0.80,-0.75,-0.73
399.73,-1.38,-0.66,-1.28,-0.54,0.54,0.13,-0.84,-0.74,-0.73
403.72,-1.24,-0.52,-1.25,-0.52,0.52,0.16,-0.72,-0.73,-0.73
407.76,-1.19,-0.47,-1.24,-0.50,0.50,0.18,-0.70,-0.74,-0.73
411.84,-1.24,-0.52,-1.21,-0.47,0.47,0.21,-0.78,-0.75,-0.73
415.96,-1.22,-0.50,-1.17,-0.43,0.43,0.24,-0.79,-0.74,-0.72
420.12,-1.11,-0.40,-1.13,-0.40,0.40,0.27,-0.72,-0.73,-0.72
424.32,-1.04,-0.34,-1.07,-0.36,0.36,0.29,-0.69,-0.71,-0.71
428.56,-0.99,-0.30,-1.00,-0.31,0.31,0.32,-0.68,-0.69,-0.69
432.85,-0.92,-0.26,-0.93,-0.27,0.27,0.34,-0.65,-0.66,-0.67
437.18,-0.84,-0.21,-0.85,-0.23,0.23,0.37,-0.62,-0.62,-0.64
441.55,-0.79,-0.20,-0.76,-0.18,0.18,0.39,-0.61,-0.57,-0.60
445.96,-0.78,-0.23,-0.68,-0.14,0.14,0.42,-0.64,-0.54,-0.56
450.42,-0.75,-0.24,-0.61,-0.10,0.10,0.44,-0.65,-0.50,-0.51
454.93,-0.45,0.00,-0.53,-0.07,0.07,0.47,-0.39,-0.46,-0.46
459.48,-0.31,0.09,-0.44,-0.04,0.04,0.49,-0.28,-0.41,-0.40
464.07,-0.30,0.04,-0.36,-0.01,0.01,0.51,-0.29,-0.35,-0.34
468.71,-0.26,0.02,-0.29,0.01,-0.01,0.53,-0.27,-0.30,-0.29
473.40,-0.19,0.04,-0.22,0.03,-0.03,0.55,-0.22,-0.24,-0.23
478.13,-0.14,0.03,-0.15,0.04,-0.04,0.57,-0.19,-0.19,-0.18
482.91,-0.09,0.03,-0.09,0.05,-0.05,0.59,-0.14,-0.14,-0.12
487.74,-0.07,0.00,-0.05,0.05,-0.05,0.61,-0.12,-0.09,-0.08
492.62,-0.14,-0.11,-0.01,0.04,-0.04,0.63,-0.18,-0.05,-0.04
497.55,-0.00,-0.00,0.02,0.03,-0.03,0.65,-0.03,-0.01,-0.00
502.52,0.09,0.06,0.03,0.01,-0.01,0.66,0.08,0.02,0.03
507.55,0.07,0.02,0.00,-0.02,0.02,0.68,0.08,0.02,0.05
512.62,0.07,0.01,-0.03,-0.05,0.05,0.70,0.12,0.02,0.06
517.75,0.01,-0.05,-0.06,-0.09,0.09,0.71,0.09,0.03,0.06
522.93,-0.04,-0.10,-0.10,-0.13,0.13,0.73,0.08,0.03,0.05
528.16,-0.12,-0.16,-0.15,-0.17,0.17,0.74,0.04,0.02,0.04
533.44,-0.15,-0.18,-0.20,-0.21,0.21,0.75,0.06,0.01,0.02
538.77,-0.23,-0.23,-0.26,-0.25,0.25,0.77,0.02,-0.01,-0.00
544.16,-0.32,-0.29,-0.33,-0.29,0.29,0.78,-0.03,-0.04,-0.03
549.60,-0.45,-0.39,-0.40,-0.32,0.32,0.79,-0.13,-0.08,-0.06
555.10,-0.60,-0.51,-0.48,-0.35,0.35,0.80,-0.25,-0.13,-0.09
560.65,-0.67,-0.55,-0.54,-0.37,0.37,0.82,-0.30,-0.17,-0.12
566.25,-0.57,-0.42,-0.58,-0.38,0.38,0.83,-0.19,-0.20,-0.15
571.92,-0.56,-0.39,-0.61,-0.38,0.38,0.84,-0.18,-0.22,-0.18
577.64,-0.59,-0.40,-0.62,-0.38,0.38,0.85,-0.22,-0.24,-0.20
583.41,-0.64,-0.43,-0.61,-0.36,0.36,0.86,-0.28,-0.25,-0.21
589.25,-0.70,-0.49,-0.58,-0.34,0.34,0.88,-0.36,-0.24,-0.22
595.14,-0.72,-0.50,-0.56,-0.32,0.32,0.89,-0.40,-0.24,-0.22
601.09,-0.68,-0.47,-0.53,-0.31,0.31,0.90,-0.38,-0.22,-0.21
607.10,-0.54,-0.34,-0.50,-0.31,0.31,0.92,-0.24,-0.19,-0.20
613.17,-0.44,-0.26,-0.48,-0.32,0.32,0.93,-0.12,-0.16,-0.18
619.30,-0.37,-0.22,-0.49,-0.36,0.36,0.94,-0.01,-0.13,-0.15
625.50,-0.38,-0.27,-0.51,-0.42,0.42,0.96,0.04,-0.09,-0.12
631.75,-0.42,-0.35,-0.56,-0.51,0.51,0.97,0.09,-0.05,-0.08
638.07,-0.46,-0.43,-0.63,-0.63,0.63,0.99,0.17,0.00,-0.03
644.45,-0.53,-0.55,-0.72,-0.78,0.78,1.01,0.24,0.05,0.01
