frequency,raw
20.00,4.20
20.20,4.19
20.40,4.18
20.61,4.17
20.81,4.16
21.02,4.15
21.23,4.14
21.44,4.13
21.66,4.12
21.87,4.11
22.09,4.10
22.31,4.08
22.54,4.07
22.76,4.06
22.99,4.05
23.22,4.04
23.45,4.03
23.69,4.02
23.92,4.01
24.16,4.01
24.40,4.00
24.65,3.99
24.89,3.98
25.14,3.97
25.39,3.96
25.65,3.95
25.91,3.94
26.16,3.93
26.43,3.93
26.69,3.92
26.96,3.91
27.23,3.90
27.50,3.89
27.77,3.89
28.05,3.88
28.33,3.87
28.62,3.87
28.90,3.86
29.19,3.86
29.48,3.85
29.78,3.84
30.08,3.84
30.38,3.84
30.68,3.83
30.99,3.83
31.30,3.83
31.61,3.83
31.93,3.83
32.24,3.83
32.57,3.83
32.89,3.83
33.22,3.83
33.55,3.82
33.89,3.82
34.23,3.82
34.57,3.81
34.92,3.81
35.27,3.80
35.62,3.80
35.97,3.79
36.33,3.78
36.70,3.77
37.06,3.76
37.43,3.75
37.81,3.74
38.19,3.72
38.57,3.71
38.95,3.70
39.34,3.69
39.74,3.68
40.14,3.66
40.54,3.65
40.94,3.63
41.35,3.62
41.76,3.61
42.18,3.60
42.60,3.59
43.03,3.58
43.46,3.57
43.90,3.55
44.33,3.55
44.78,3.54
45.23,3.54
45.68,3.53
46.13,3.52
46.60,3.52
47.06,3.52
47.53,3.51
48.01,3.51
48.49,3.51
48.97,3.50
49.46,3.50
49.96,3.51
50.46,3.51
50.96,3.52
51.47,3.52
51.99,3.52
52.51,3.52
53.03,3.52
53.56,3.52
54.10,3.52
54.64,3.52
55.18,3.52
55.74,3.52
56.29,3.52
56.86,3.52
57.42,3.52
58.00,3.52
58.58,3.52
59.16,3.52
59.76,3.52
60.35,3.52
60.96,3.52
61.57,3.52
62.18,3.52
62.80,3.52
63.43,3.52
64.07,3.52
64.71,3.52
65.35,3.52
66.01,3.52
66.67,3.52
67.33,3.52
68.01,3.52
68.69,3.52
69.37,3.52
70.07,3.52
70.77,3.52
71.48,3.52
72.19,3.52
72.91,3.52
73.64,3.52
74.38,3.52
75.12,3.52
75.87,3.52
76.63,3.51
77.40,3.51
78.17,3.51
78.95,3.51
79.74,3.51
80.54,3.52
81.35,3.54
82.16,3.55
82.98,3.57
83.81,3.59
84.65,3.62
85.50,3.65
86.35,3.68
87.22,3.71
88.09,3.73
88.97,3.77
89.86,3.80
90.76,3.82
91.66,3.83
92.58,3.85
93.51,3.87
94.44,3.87
95.39,3.87
96.34,3.86
97.30,3.86
98.28,3.85
99.26,3.85
100.25,3.85
101.25,3.85
102.27,3.85
103.29,3.85
104.32,3.85
105.37,3.85
106.42,3.85
107.48,3.85
108.56,3.85
109.64,3.85
110.74,3.85
111.85,3.85
112.97,3.85
114.10,3.85
115.24,3.85
116.39,3.85
117.55,3.85
118.73,3.85
119.92,3.85
121.12,3.85
122.33,3.85
123.55,3.85
124.79,3.85
126.03,3.85
127.29,3.85
128.57,3.85
129.85,3.85
131.15,3.85
132.46,3.85
133.79,3.85
135.12,3.86
136.48,3.87
137.84,3.87
139.22,3.86
140.61,3.85
142.02,3.83
143.44,3.82
144.87,3.78
146.32,3.76
147.78,3.72
149.26,3.69
150.75,3.65
152.26,3.62
153.78,3.59
155.32,3.56
156.88,3.53
158.44,3.52
160.03,3.50
161.63,3.50
163.24,3.51
164.88,3.52
166.53,3.52
168.19,3.52
169.87,3.52
171.57,3.52
173.29,3.52
175.02,3.52
176.77,3.52
178.54,3.52
180.32,3.52
182.13,3.52
183.95,3.52
185.79,3.52
187.65,3.52
189.52,3.52
191.42,3.52
193.33,3.52
195.27,3.52
197.22,3.52
199.19,3.52
201.18,3.52
203.19,3.52
205.23,3.52
207.28,3.52
209.35,3.52
211.44,3.52
213.56,3.52
215.69,3.52
217.85,3.52
220.03,3.52
222.23,3.52
224.45,3.52
226.70,3.52
228.96,3.52
231.25,3.52
233.57,3.52
235.90,3.52
238.26,3.52
240.64,3.52
243.05,3.52
245.48,3.52
247.93,3.52
250.41,3.52
252.92,3.52
255.45,3.53
258.00,3.54
260.58,3.54
263.19,3.55
265.82,3.54
268.48,3.53
271.16,3.52
273.87,3.48
276.61,3.45
279.38,3.43
282.17,3.40
284.99,3.36
287.84,3.32
290.72,3.29
293.63,3.26
296.57,3.23
299.53,3.21
302.53,3.19
305.55,3.18
308.61,3.18
311.69,3.18
314.81,3.19
317.96,3.20
321.14,3.20
324.35,3.20
327.59,3.20
330.87,3.20
334.18,3.21
337.52,3.21
340.90,3.22
344.30,3.22
347.75,3.21
351.23,3.20
354.74,3.18
358.28,3.15
361.87,3.13
365.49,3.10
369.14,3.06
372.83,3.03
376.56,2.99
380.33,2.97
384.13,2.94
387.97,2.92
391.85,2.90
395.77,2.89
399.73,2.88
403.72,2.87
407.76,2.86
411.84,2.85
415.96,2.84
420.12,2.81
424.32,2.78
428.56,2.74
432.85,2.71
437.18,2.67
441.55,2.64
445.96,2.62
450.42,2.59
454.93,2.57
459.48,2.56
464.07,2.55
468.71,2.54
473.40,2.52
478.13,2.51
482.91,2.49
487.74,2.47
492.62,2.43
497.55,2.40
502.52,2.37
507.55,2.35
512.62,2.32
517.75,2.29
522.93,2.26
528.16,2.23
533.44,2.20
538.77,2.17
544.16,2.14
549.60,2.11
555.10,2.09
560.65,2.07
566.25,2.05
571.92,2.02
577.64,1.98
583.41,1.94
589.25,1.90
595.14,1.85
601.09,1.81
607.10,1.78
613.17,1.76
619.30,1.74
625.50,1.71
631.75,1.69
638.07,1.65
644.45,1.62
650.89,1.58
657.40,1.54
663.98,1.50
670.62,1.47
677.32,1.44
684.10,1.43
690.94,1.41
697.85,1.37
704.83,1.32
711.87,1.27
718.99,1.22
726.18,1.18
733.44,1.14
740.78,1.11
748.19,1.08
755.67,1.06
763.23,1.02
770.86,0.98
778.57,0.93
786.35,0.88
794.22,0.84
802.16,0.81
810.18,0.78
818.28,0.75
826.46,0.73
834.73,0.69
843.08,0.64
851.51,0.59
860.02,0.54
868.62,0.50
877.31,0.47
886.08,0.44
894.94,0.42
903.89,0.39
912.93,0.35
922.06,0.30
931.28,0.25
940.59,0.20
950.00,0.17
959.50,0.14
969.09,0.11
978.78,0.09
988.57,0.05
998.46,0.01
1008.44,-0.04
1018.53,-0.09
1028.71,-0.14
1039.00,-0.18
1049.39,-0.21
1059.88,-0.24
1070.48,-0.26
1081.19,-0.27
1092.00,-0.30
1102.92,-0.33
1113.95,-0.36
1125.09,-0.39
1136.34,-0.43
1147.70,-0.46
1159.18,-0.48
1170.77,-0.50
1182.48,-0.53
1194.30,-0.56
1206.25,-0.59
1218.31,-0.61
1230.49,-0.64
1242.80,-0.67
1255.22,-0.70
1267.78,-0.73
1280.45,-0.76
1293.26,-0.79
1306.19,-0.82
1319.25,-0.84
1332.45,-0.87
1345.77,-0.90
1359.23,-0.94
1372.82,-0.97
1386.55,-0.99
1400.41,-1.01
1414.42,-1.03
1428.56,-1.04
1442.85,-1.04
1457.28,-1.03
1471.85,-1.02
1486.57,-1.02
1501.43,-1.02
1516.45,-1.02
1531.61,-1.02
1546.93,-1.02
1562.40,-1.02
1578.02,-1.02
1593.80,-1.02
1609.74,-1.02
1625.84,-1.02
1642.10,-1.02
1658.52,-1.03
1675.10,-1.04
1691.85,-1.04
1708.77,-1.04
1725.86,-1.02
1743.12,-1.00
1760.55,-0.98
1778.15,-0.96
1795.94,-0.93
1813.90,-0.91
1832.03,-0.88
1850.36,-0.84
1868.86,-0.79
1887.55,-0.74
1906.42,-0.68
1925.49,-0.63
1944.74,-0.60
1964.19,-0.56
1983.83,-0.53
2003.67,-0.50
2023.71,-0.48
2043.94,-0.44
2064.38,-0.39
2085.03,-0.33
2105.88,-0.27
2126.94,-0.20
2148.20,-0.14
2169.69,-0.07
2191.38,0.03
2213.30,0.13
2235.43,0.23
2257.78,0.34
2280.36,0.45
2303.17,0.57
2326.20,0.71
2349.46,0.86
2372.95,1.02
2396.68,1.20
2420.65,1.40
2444.86,1.64
2469.31,1.91
2494.00,2.22
2518.94,2.54
2544.13,2.91
2569.57,3.30
2595.27,3.68
2621.22,4.08
2647.43,4.48
2673.90,4.86
2700.64,5.19
2727.65,5.48
2754.93,5.72
2782.48,5.89
2810.30,6.01
2838.40,6.05
2866.79,6.03
2895.46,5.92
2924.41,5.74
2953.65,5.50
2983.19,5.19
3013.02,4.84
3043.15,4.42
3073.58,3.96
3104.32,3.48
3135.36,2.95
3166.72,2.41
3198.38,1.87
3230.37,1.31
3262.67,0.74
3295.30,0.18
3328.25,-0.37
3361.53,-0.90
3395.15,-1.40
3429.10,-1.87
3463.39,-2.30
3498.03,-2.66
3533.01,-2.96
3568.34,-3.21
3604.02,-3.38
3640.06,-3.48
3676.46,-3.52
3713.22,-3.50
3750.36,-3.41
3787.86,-3.27
3825.74,-3.09
3864.00,-2.87
3902.64,-2.59
3941.66,-2.29
3981.08,-1.96
4020.89,-1.59
4061.10,-1.21
4101.71,-0.81
4142.73,-0.41
4184.15,-0.01
4226.00,0.38
4268.26,0.72
4310.94,1.04
4354.05,1.31
4397.59,1.53
4441.56,1.69
4485.98,1.77
4530.84,1.78
4576.15,1.72
4621.91,1.59
4668.13,1.41
4714.81,1.17
4761.96,0.88
4809.58,0.57
4857.67,0.23
4906.25,-0.10
4955.31,-0.44
5004.87,-0.77
5054.91,-1.10
5105.46,-1.42
5156.52,-1.73
5208.08,-2.02
5260.16,-2.31
5312.77,-2.56
5365.89,-2.81
5419.55,-3.02
5473.75,-3.22
5528.49,-3.39
5583.77,-3.55
5639.61,-3.69
5696.00,-3.80
5752.96,-3.88
5810.49,-3.94
5868.60,-3.96
5927.28,-3.94
5986.56,-3.88
6046.42,-3.80
6106.89,-3.69
6167.96,-3.55
6229.64,-3.39
6291.93,-3.19
6354.85,-2.96
6418.40,-2.71
6482.58,-2.43
6547.41,-2.16
6612.88,-1.88
6679.01,-1.61
6745.80,-1.35
6813.26,-1.10
6881.39,-0.88
6950.21,-0.68
7019.71,-0.51
7089.91,-0.37
7160.81,-0.27
7232.41,-0.20
7304.74,-0.16
7377.79,-0.15
7451.56,-0.17
7526.08,-0.23
7601.34,-0.31
7677.35,-0.42
7754.13,-0.57
7831.67,-0.73
7909.98,-0.94
7989.08,-1.20
8068.98,-1.49
8149.67,-1.83
8231.16,-2.21
8313.47,-2.64
8396.61,-3.13
8480.57,-3.65
8565.38,-4.21
8651.03,-4.80
8737.54,-5.40
8824.92,-6.01
8913.17,-6.62
9002.30,-7.21
9092.32,-7.78
9183.25,-8.34
9275.08,-8.86
9367.83,-9.34
9461.51,-9.77
9556.12,-10.15
9651.68,-10.47
9748.20,-10.75
9845.68,-10.99
9944.14,-11.17
10043.58,-11.30
10144.02,-11.38
10245.46,-11.42
10347.91,-11.41
10451.39,-11.36
10555.91,-11.28
10661.46,-11.16
10768.08,-11.02
10875.76,-10.86
10984.52,-10.69
11094.36,-10.52
11205.31,-10.35
11317.36,-10.19
11430.53,-10.05
11544.84,-9.93
11660.29,-9.84
11776.89,-9.79
11894.66,-9.77
12013.60,-9.78
12133.74,-9.80
12255.08,-9.84
12377.63,-9.90
12501.41,-9.98
12626.42,-10.08
12752.68,-10.20
12880.21,-10.35
13009.01,-10.52
13139.10,-10.72
13270.49,-10.97
13403.20,-11.25
13537.23,-11.56
13672.60,-11.90
13809.33,-12.28
13947.42,-12.69
14086.90,-13.12
14227.77,-13.58
14370.04,-14.05
14513.74,-14.52
14658.88,-14.98
14805.47,-15.45
14953.52,-15.91
15103.06,-16.37
15254.09,-16.83
15406.63,-17.32
15560.70,-17.81
15716.30,-18.35
15873.47,-18.94
16032.20,-19.61
16192.52,-20.38
16354.45,-21.28
16517.99,-22.31
16683.17,-23.49
16850.01,-24.79
17018.51,-26.22
17188.69,-27.75
17360.58,-29.37
17534.18,-31.04
17709.53,-32.73
17886.62,-34.43
18065.49,-36.11
18246.14,-37.59
18428.60,-38.99
18612.89,-40.38
18799.02,-41.70
18987.01,-43.00
19176.88,-44.25
19368.65,-45.46
19562.33,-46.64
19757.96,-47.78
19955.54,-48.88
