frequency,raw,error,smoothed,error_smoothed,equalization,equalized_raw,equalized_smoothed,target
20,-1.099679641184656,-1.8855658420305241,-1.0612033574981707,-1.8470742111178993,1.847074211117899,0.7473945699332429,0.7858708536197283,0.785886200845868
21,-0.6989898523465855,-1.4848571009548666,-0.7371864408863622,-1.523056043746252,1.5230560437462517,0.8240661913996662,0.7858696028598895,0.7858672486082812
22,-0.40221912547977257,-1.1880615821162057,-0.43299060483873886,-1.2188453758800297,1.2188453758800293,0.8166262504002567,0.7858547710412904,0.7858424566364333
23,-0.12534989453720205,-0.9111603132386605,-0.14861584935530092,-0.9344422075192327,0.9344422075192327,0.8090923129820307,0.7858263581639318,0.7858104187014585
24,0.0327376744331913,-0.7530318012209414,0.11593782556395194,-0.6698465386638595,0.6698465386638592,0.7025842130970505,0.7857843642278112,0.7857694756541327
25,0.4107855990506536,-0.37493208492801255,0.3593747850209307,-0.42635548054671557,0.4263554805467156,0.8371410795973693,0.7857302655676464,0.7857176839786661
26,0.6017887861168714,-0.18386399593223657,0.5831542593778436,-0.202508348239687,0.20250834823968697,0.8042971343565584,0.7856626076175306,0.7856527820491079
27,0.8112398990452594,0.025667745007719178,0.7887133061843675,0.003133484456144359,-0.0031334844561443607,0.808106414589115,0.7855798217282232,0.7855721540375402
28,0.9628716087058296,0.1773988172771186,0.9781397528426571,0.19266042856708987,-0.19266042856708984,0.7702111801387397,0.7854793242755672,0.785472791428711
29,1.1496711974630431,0.3643199453615906,1.1539285683892728,0.36857107275265977,-0.36857107275265977,0.7811001247103834,0.7853574956366131,0.7853512521014525
30,1.325022397184755,0.539818780239743,1.318171949126444,0.5329616922609803,-0.5329616922609804,0.7920607049237746,0.7852102568654636,0.7852036169450121
31,1.4146881749073368,0.6296627309205178,1.4725123853358493,0.6874795228210551,-0.687479522821055,0.7272086520862818,0.7850328625147943,0.785025443986819
32,1.6158376001946917,0.8310258801761057,1.6178767452416591,0.8330566862692239,-0.8330566862692239,0.7827809139254678,0.7848200589724352,0.784811720018586
33,1.7392586344431231,0.9547018247233419,1.7545279661086557,0.9699618829257721,-0.9699618829257721,0.769296751517351,0.7845660831828836,0.7845568097197813
34,1.9175617381257275,1.1333073358339136,1.8823695383488146,1.0981049796274416,-1.0981049796274416,0.8194567584982859,0.784264558721373,0.7842544022918139
35,2.0251731043275965,1.2412756486945162,2.001288599057421,1.2173801527560513,-1.2173801527560515,0.807792951571545,0.7839084463013697,0.7838974556330802
36,2.118711163413081,1.3352330253084483,2.1115116722069094,1.3280217311398148,-1.328021731139815,0.790689432273266,0.7834899410670944,0.7834781381046327
37,2.2192858760567624,1.4362981080976986,2.2137925415085453,1.430792153862414,-1.4307921538624135,0.7884937221943489,0.7830003876461318,0.7829877679590638
38,2.31986058870044,1.5374438381687643,2.3093687307057995,1.5269385204695545,-1.5269385204695547,0.7929220682308855,0.7824302102362448,0.7824167505316759
39,2.3409676954650385,1.5592131821415802,2.3997153073834485,1.6179464654244162,-1.6179464654244162,0.7230212300406222,0.7817688419590323,0.7817545133234582
40,2.5210100139877616,1.7400205748473252,2.4861819670429823,1.7051773041905558,-1.7051773041905556,0.815832709797206,0.7810046628524268,0.7809894391404364
41,2.521010013987579,1.7409012164937097,2.569656448618455,1.789531512817447,-1.7895315128174467,0.7314785011701324,0.7801249358010083,0.7801087974938694
42,2.651763161732017,1.8726644872208236,2.650377854033307,1.8712621148715916,-1.871262114871592,0.780501046860425,0.779115739161715,0.7790986745111934
43,2.7221594392766284,1.9442155376177062,2.7279639099437007,1.9500020127484974,-1.9500020127484974,0.772157426528131,0.7779618971952034,0.7779439016589222
44,2.8227341519239197,2.0461061682875212,2.8016392070097256,2.024992299323884,-2.0249922993238836,0.7977418526000362,0.776646907685842,0.7766279836363985
45,2.913339237573102,2.1382062117092615,2.8705804881843244,2.095427619414736,-2.0954276194147354,0.8179116181583668,0.775152868769589,0.7751330258638407
46,2.923308864552322,2.149869202492479,2.9342586649759617,2.1607982590414845,-2.160798259041484,0.7625106055108382,0.7734604059344776,0.7734396620598432
47,2.9797575732812236,2.208230590798417,2.9926621283242234,2.2211135284720527,-2.221113528472053,0.7586440448091705,0.7715485998521703,0.7715269824828064
48,3.0238835771024903,2.254511113604671,3.0463278908502485,2.2769329750174885,-2.2769329750174885,0.7469506020850019,0.76939491583276,0.7693724634978194
49,3.1244582897786306,2.357506390553119,3.0961718565977954,2.3291967211546796,-2.3291967211546787,0.7952615686239519,0.7669751354431167,0.7669518992255115
50,3.124458290031358,2.3602189538991776,3.143177172204493,2.3789138811360706,-2.37891388113607,0.7455444088952881,0.7642632910684228,0.7642393361321806
51,3.2250330032169146,2.4638259916860066,3.1880514169201053,2.4268198125506606,-2.4268198125506606,0.798213190666254,0.7612316043694447,0.761207011530908
52,3.2250330038288464,2.4672077067479803,3.230982098410487,2.4731316686936786,-2.4731316686936777,0.7519013351351687,0.7578504297168092,0.7578252970808661
53,3.225033003806945,2.470970355311176,3.2715939620574996,2.5175057582087366,-2.517505758208737,0.7075272455982078,0.7540882038487626,0.7540626484957689
54,3.2250330020300746,2.4751474392287918,3.3091431460514724,2.5592317429434663,-2.559231742943467,0.6658012590866078,0.7499114031080056,0.7498855628012828
55,3.4261824228255153,2.68092387821189,3.3428918564262773,2.5976073466884486,-2.597607346688448,0.8285750761370672,0.7452845097378291,0.7452585446136255
56,3.426182415986012,2.686038332940642,3.372526393697328,2.6323564048458357,-2.6323564048458366,0.7938260111401756,0.7401699888514917,0.74014408304537
57,3.4261824099507656,2.69167976897362,3.398447080785787,2.6639188029676046,-2.663918802967604,0.7622636069831614,0.7345282778181828,0.7345026409771456
58,3.4261824116235,2.6978897530613857,3.4217937195029764,2.693475929561956,-2.6934759295619566,0.7327064820615434,0.7283177899410198,0.7282926585621143
59,3.426182430905679,2.704711857955677,3.444169407550629,2.7226744731266317,-2.722674473126632,0.7035079577790468,0.7214949344239967,0.7214705729500022
60,3.426182476831326,2.7121916205069607,3.467151071936695,2.7531369172053335,-2.753136917205334,0.6730455596259919,0.7140141547313612,0.7139908563243651
61,3.4261825497559397,2.720376475320586,3.491770926046242,2.7859429385150243,-2.785942938515024,0.6402396112409159,0.7058279875312183,0.7058060744353538
62,3.5267573430766737,2.829890375202323,3.518172143710572,2.82128499923268,-2.8212849992326796,0.705472343843994,0.6968871444778926,0.6968669678743509
63,3.5267573823230802,2.8396348239534257,3.5455708773694976,2.8584302582527306,-2.8584302582527306,0.6683271240703497,0.687140619116767,0.6871225583696545
64,3.6273320110785,2.9508117287022295,3.572524026808696,2.8959882055889663,-2.8959882055889663,0.7313438054895336,0.6765358212197299,0.6765202823762704
65,3.627331704694415,2.962325550514607,3.5973680685522478,2.932349327913985,-2.9323493279139843,0.6949823767804308,0.6650187406382635,0.665006154179808
66,3.6273311000489157,2.974806139423047,3.6186228274764027,2.966088684505822,-2.9660886845058227,0.6612424155430929,0.65253414297058,0.6525249606258687
67,3.6273302151976363,2.98830972578415,3.6351804856158108,2.996154686389225,-2.996154686389225,0.6311755288084111,0.6390257992265855,0.6390204894134861
68,3.6273292509235766,3.0028934582781117,3.646212014562758,3.021775263931371,-3.0217752639313713,0.6055539869922053,0.6244367506313866,0.6244357926454649
69,3.6273286698388687,3.018615182837068,3.65086661662746,3.0421570076468862,-3.0421570076468867,0.585171662191982,0.6087096089805732,0.6087134870018005
70,3.6273292181868046,3.035533126699365,3.647946636320897,3.0561597422523024,-3.056159742252303,0.5711694759345018,0.5917868940685942,0.5917960914874398
71,3.6273318305740045,3.0537054273771913,3.635762154806442,3.0621507431994406,-3.062150743199441,0.5651810873745635,0.573611411607001,0.5736264031968132
72,3.6273373623944813,3.07318945146353,3.612297777733046,3.058171103643889,-3.058171103643889,0.5691662587505921,0.5541266740891566,0.5541479109309515
73,3.627346125642649,3.0940408798448833,3.5756932614153305,3.0424159017670176,-3.0424159017670176,0.5849302238756313,0.5332773596483129,0.5333052457977656
74,3.5278592167930976,3.0168145496688,3.524908118032541,3.0138983200179266,-3.013898320017927,0.5139608967751705,0.511009798014614,0.5110446671242976
75,3.5267933968369327,3.0394788157189496,3.460361333908965,2.9730888659571217,-2.9730888659571213,0.5537045308798114,0.48727246795184387,0.4873145811179831
76,3.4221259878597032,2.960059899116666,3.3843359675135183,2.9223194703190005,-2.922319470319001,0.49980651754070227,0.4620164971945173,0.46206608874303745
77,3.267026771526776,2.8317732132825735,3.3010048714348983,2.865808681243422,-2.8658086812434225,0.4012180902833533,0.4351961901914758,0.4352535582442023
78,3.172145649888221,2.7653104332134135,3.2160358218466607,2.8092661621629595,-2.8092661621629595,0.36287948772526146,0.40676965968370116,0.4068352166748075
79,3.1244089643414625,2.747635210644633,3.135836816984802,2.7591371719186517,-2.7591371719186526,0.36527179242280994,0.3766996450661493,0.3767737536968294
80,3.124319511284517,2.7792825814345257,3.0665806321067484,2.721626141109766,-2.721626141109766,0.4026933701747506,0.34495449099698217,0.3450369298499911
81,2.959591737884564,2.647993557411682,3.0131931672676044,2.701684138776919,-2.70168413877692,0.25790759910764427,0.3115090284906845,0.311598180472882
82,2.9229197757535483,2.6464825702101313,2.9785043642926308,2.702159478457143,-2.7021594784571428,0.22076029729640556,0.276344885835488,0.276437205543417
83,2.9228063494993344,2.6832658145658472,2.9627450608162205,2.7232953049386506,-2.7232953049386506,0.1995110445606838,0.2394497558775699,0.23954053493348715
84,2.922759687123161,2.721857629133883,2.9635250503922865,2.7627094356026873,-2.7627094356026882,0.16005025152047292,0.2008156147895983,0.20090205798927796
85,2.9728016173857186,2.8122781113864277,2.9763418337596095,2.8159049304192925,-2.815904930419293,0.15689668696642567,0.16043690334031657,0.16052350599929088
86,3.0237010657301004,2.905286189691915,2.9955511091325437,2.877240259335024,-2.877240259335024,0.1464608063950763,0.1183108497975196,0.11841487603818557
87,3.024250595129557,2.9496558102180632,3.015602720605995,2.9411602026648747,-2.941160202664875,0.08309039246468197,0.07444251794112011,0.07459478491149385
88,3.125684187539794,3.0965934450388253,3.032248085817359,3.0033922742757255,-3.003392274275725,0.12229191326406896,0.02885581154163397,0.02909074250096877
89,3.1119737492209767,3.1300344144828065,3.0433976069743705,3.0617893747834715,-3.061789374783471,0.050184374437505674,-0.018391767809100568,-0.01806066526182981
90,3.0276919458066063,3.094505638089756,3.0493737174497673,3.116571085975704,-3.116571085975704,-0.08887914016909759,-0.06719736852593661,-0.0668136922831497
91,3.0292042086066866,3.1463176625270957,3.0524602965261143,3.1698745711685374,-3.1698745711685374,-0.14067036256185084,-0.11741427464242316,-0.11711345392040906
92,3.03057311291166,3.1994691721603417,3.0558521315174687,3.224728399394385,-3.2247283993943836,-0.19415528648272362,-0.1688762678769149,-0.16889605924868167
93,3.0314614176923613,3.2535502743960856,3.062295462415493,3.283743251976045,-3.2837432519760457,-0.25228183428368434,-0.22144778956055244,-0.22208885670372425
94,3.03144830681414,3.308059100229821,3.072819424079344,3.3479101580322546,-3.347910158032255,-0.316461851218115,-0.27509073395291095,-0.27661079341568096
95,3.0300552463674806,3.362428132374593,3.085950041153645,3.4158755949702524,-3.415875594970252,-0.38582034860277137,-0.32992555381660704,-0.33237288600711246
96,3.066167498697505,3.4554462967401065,3.097671220613125,3.4839279295724683,-3.483927929572468,-0.41776043087496273,-0.3862567089593427,-0.38927879804260135
97,3.1837925056584884,3.6310180224345654,3.1021856913164,3.5467219325136004,-3.5467219325136004,-0.362929426855112,-0.44453624119720025,-0.447225516776077
98,3.0974881697380865,3.603592289177899,3.0932948598897556,3.5985512809575013,-3.5985512809575013,-0.5010631112194148,-0.5052564210677457,-0.5061041194398124
99,3.1077710444319737,3.673571661578545,3.0660301234163585,3.6348191766287883,-3.6348191766287887,-0.527048132196815,-0.5687890532124302,-0.5658006171465715
100,3.103894826879704,3.7300916894962968,3.0180870072524684,3.65330232809705,-3.6533023280970505,-0.5494075012173463,-0.6352153208445821,-0.6261968626165926
101,2.9998485485427384,3.6870200550073395,2.950663159450812,3.654867302147709,-3.6548673021477085,-0.6550187536049701,-0.7042041426968964,-0.6871715064646011
102,2.910886954961988,3.6594879407057306,2.8684682846205036,3.6434588058333315,-3.6434588058333306,-0.7325718508713428,-0.774990521212827,-0.7486009857437428
104,2.721541968093136,3.5938671211334254,2.77890992605764,3.6253877771202383,-3.6253877771202374,-0.9038458090271013,-0.8464778510625974,-0.8723251530402893
105,2.7026117826405107,3.636982441069331,2.6906903315403117,3.6081383229720427,-3.608138322972043,-0.9055265403315325,-0.9174479914317315,-0.9343706584288203
106,2.552592194036473,3.5489667628070887,2.612201605943848,3.5990260727612764,-3.5990260727612755,-1.0464338787248026,-0.9868244668174273,-0.9963745687706158
107,2.449158363824696,3.5073754024496826,2.5501312355921346,3.604043607477496,-3.604043607477496,-1.1548852436528003,-1.0539123718853616,-1.0582170386249867
108,2.4675131035535376,3.587294797245185,2.508586092806247,3.627128739730323,-3.6271287397303236,-1.159615636176786,-1.1185426469240767,-1.1197816936916474
109,2.512025542059586,3.6929819422669454,2.48885611205427,3.6699336285312043,-3.6699336285312043,-1.1579080864716182,-1.1810775164769343,-1.1809564002073594
110,2.488820751296452,3.730454704897125,2.4897423447242195,3.73201994554781,-3.73201994554781,-1.2431991942513578,-1.2422776008235905,-1.2416339536006729
111,2.5471121556687244,3.8488248354379393,2.508239939741654,3.811313796825318,-3.811313796825318,-1.2642016411565935,-1.303073857083664,-1.301712679769215
112,2.575027233184934,3.9361241777551883,2.5403350331563987,3.90464951037269,-3.904649510372691,-1.3296222771877568,-1.364314477216292,-1.3610969445702543
113,2.5530786429691528,3.9727762122661687,2.5817351328024087,4.008294711620486,-4.008294711620486,-1.4552160686513336,-1.4265595788180776,-1.419697569297016
114,2.5802974133465755,4.057729565328823,2.6284536149913222,4.118429023999379,-4.11842902399938,-1.5381316106528047,-1.489975409008058,-1.4774321519822475
115,2.6454056496674334,4.179630945938712,2.677249023570899,4.2315928987201055,-4.231592898720106,-1.586187249052673,-1.5543438751492076,-1.5342252962712783
117,2.778995971831204,4.4237174392389385,2.725940955267787,4.3451071957669765,-4.3451071957669765,-1.5661112239357724,-1.6191662404991893,-1.644721467407734
118,2.8510137734499184,4.549323347312921,2.7735908971973773,4.457405510376994,-4.457405510376992,-1.6063917369270735,-1.6838146131796146,-1.698309573863003
119,2.8563695114123018,4.60709579676301,2.820488882270986,4.568167481096078,-4.568167481096078,-1.7117979696837766,-1.7476785988250922,-1.750726285350709
120,2.8630479379323988,4.664979682971385,2.867876946292185,4.678143793963299,-4.678143793963299,-1.8150958560309003,-1.8102668476711141,-1.8019317450389858
121,2.8705128219530387,4.722405634045574,2.917397633675801,4.788644926016191,-4.788644926016191,-1.9181321040631527,-1.8712472923403904,-1.8518928120925344
123,2.938953316992375,4.886934503627299,2.970364753975262,4.900799581090277,-4.900799581090277,-1.9618462640979022,-1.9304348271150156,-1.947981186634924
124,2.9866408947395002,4.980714160216646,3.0270602584091075,5.014811357836855,-5.014811357836855,-2.028170463097355,-1.9877510994277476,-1.9940732654771458
125,3.044412874106029,5.083262683714126,3.0863030911471103,5.1294862552953635,-5.129486255295363,-2.085073381189334,-2.0431831641482523,-2.038849809608097
126,3.1336531763702054,5.215959867772085,3.1454768717826562,5.242234742061539,-5.242234742061539,-2.108581565691334,-2.096757870278883,-2.0823066914018797
128,3.250690846289277,5.4159590156918735,3.201054951343046,5.349588924153744,-5.349588924153746,-2.0988980778644692,-2.1485339728107,-2.1652681694025966
129,3.3156133332537885,5.520399897928591,3.249480325225419,5.448082262023716,-5.448082262023718,-2.132468928769929,-2.1986019367982985,-2.204786564674803
130,3.3212677417031835,5.564279871634736,3.288120671386385,5.53519848041268,-5.5351984804126815,-2.213930738709498,-2.2470778090262966,-2.2430121299315524
131,3.3264895332770408,5.606450036016447,3.3159850820260353,5.610068370572331,-5.610068370572332,-2.283578837295291,-2.2940832885462967,-2.279960502739406
133,3.3312814799050243,5.681383541400683,3.3339726402785876,5.673687565980045,-5.673687565980046,-2.3424060860750218,-2.3397149257014584,-2.3501020614956585
134,3.3356187548645644,5.718958100472954,3.344587497869296,5.728601976742066,-5.728601976742067,-2.3929832218775027,-2.384014478872771,-2.38333934560839
135,3.3394521022908044,5.754839098197758,3.3512335786327663,5.778188168484256,-5.778188168484256,-2.4387360661934516,-2.4269545898514897,-2.4153869959069536
137,3.3427199234713183,5.818740812125373,3.357327345923909,5.8257754225074,-5.825775422507398,-2.48305549903608,-2.4684480765834893,-2.476020888654055
138,3.3453656042086037,5.850029465052064,3.365499049844002,5.873877733003335,-5.873877733003335,-2.528512128794731,-2.5083786831593327,-2.5046638608434595
140,3.347355693002326,5.906105831597663,3.3770914745375578,5.923732726815556,-5.9237327268155555,-2.5763770338132295,-2.5466412522779978,-2.558750138595337
141,3.3657650797335528,5.9500195337547055,3.392045471476961,5.975220539154606,-5.975220539154606,-2.609455459421053,-2.5831750676776446,-2.5842544540211527
142,3.4345072497699554,6.043281320342077,3.4091336935852175,6.027111406084311,-6.027111406084311,-2.5926041563143554,-2.6179777124990933,-2.6087740705721214
144,3.4502464538713125,6.105229718498574,3.426410657650143,6.077506795644567,-6.077506795644567,-2.6272603417732543,-2.651096137994424,-2.6549832646272615
145,3.4501202336666923,6.126854840689129,3.441710452593368,6.124312307942276,-6.124312307942275,-2.6741920742755827,-2.682601855348907,-2.6767346070224365
147,3.4497927519902563,6.1674759728003075,3.4530430791242193,6.165606419180864,-6.165606419180861,-2.715813667190605,-2.712563340056642,-2.7176832208100508
148,3.4494320384232915,6.186372321876592,3.4588007538188186,6.1998291807742785,-6.199829180774278,-2.750397142350986,-2.741028426955459,-2.7369402834532996
150,3.4491893281719985,6.222354865597781,3.4577634552690144,6.225786972107431,-6.225786972107432,-2.7765976439354336,-2.7680235168384177,-2.773165537425782
151,3.4491766949571083,6.239366880605548,3.4489663144454976,6.2425340901133595,-6.2425340901133595,-2.793357395156251,-2.793567775667862,-2.79019018564844
153,3.449446999647185,6.271646664233376,3.4315418433234344,6.249235354095882,-6.249235354095882,-2.799788354448697,-2.8176935107724477,-2.8221996645861918
154,3.43917052190657,6.276407339484759,3.404662923840263,6.245124627982309,-6.245124627982309,-2.8059541060757396,-2.8404617041420464,-2.837236817578189
156,3.3500928980309985,6.215594069956259,3.36767869088965,6.229643488782912,-6.229643488782913,-2.8795505907519146,-2.861964797893263,-2.8655011719252608
157,3.3051620232041388,6.1839382001982806,3.320457194862441,6.2027724494643675,-6.202772449464366,-2.897610426260227,-2.8823152546019246,-2.878776176994142
159,3.250561491045401,6.154287077491213,3.263846625042448,6.165471547943664,-6.165471547943664,-2.914910056898263,-2.901624922901216,-2.9037255864458116
160,3.25036966070802,6.16581284845077,3.200078266876103,6.120062292411935,-6.120062292411935,-2.8696926317039146,-2.9199840255358316,-2.9154431877427496
