frequency,raw,error,smoothed,error_smoothed,equalization,equalized_raw,equalized_smoothed,target
20,-10.484453731667566,-12.132297487136913,-10.454255031609332,-12.102083440411574,5.999999999999999,-4.484453731667567,-4.454255031609333,1.647843755469347
21,-9.79532744225126,-11.443152238269438,-9.854079023188739,-11.501906173357789,6.0,-3.79532744225126,-3.8540790231887385,1.6478247960181784
22,-9.303969762897971,-10.951769761383314,-9.27681697711758,-10.924629289522976,6.0,-3.303969762897971,-3.27681697711758,1.6477999984853424
23,-8.718813921223486,-10.366581877865459,-8.722468893395853,-10.370252788907138,6.0,-2.718813921223486,-2.7224688933958525,1.6477679566419732
24,-8.184522978215746,-9.832249989554594,-8.191034772023547,-9.83877667151026,5.999999999999998,-2.184522978215748,-2.1910347720235492,1.647727011338847
25,-7.681649414997352,-9.329324634057526,-7.6830191726364205,-9.330706973285897,6.0,-1.6816494149973522,-1.6830191726364205,1.647675219060174
26,-7.195379227061016,-8.842989545241014,-7.197941061739334,-8.845561206241655,6.000000000000001,-1.1953792270610153,-1.197941061739333,1.6476103181799977
27,-6.72051322050349,-8.36804291370378,-6.735240760291188,-8.382778122718994,6.0,-0.7205132205034896,-0.7352407602911883,1.647529693200291
28,-6.323121153612638,-7.970551489123995,-6.293973948617725,-7.941410819396744,6.0,-0.3231211536126377,-0.2939739486177251,1.6474303355113573
29,-5.848177622759483,-7.495486425684751,-5.872827434337832,-7.520142484127538,6.000000000000001,0.15182237724051806,0.1271725656621685,1.6473088029252683
30,-5.45809680191532,-7.105257978017066,-5.470368295392616,-7.1175361155535,6.0,0.5419031980846798,0.5296317046073842,1.6471611761017466
31,-5.0675930436143135,-6.714576056212456,-5.085090241542278,-6.732080677357072,6.0,0.9324069563856865,0.9149097584577222,1.6469830125981426
32,-4.758321746714363,-6.4050910451308445,-4.715571616047212,-6.362349258207068,5.9248015473737,1.1664798006593369,1.2092299313264876,1.6467692984164817
33,-4.367278610868295,-6.01379300792849,-4.360557172693738,-6.007080847461706,5.769004052937072,1.401725442068777,1.4084468802433339,1.6465143970601943
34,-4.05258132362862,-5.698793319803058,-4.018964106298144,-5.665186261742675,5.540321915446624,1.487740591818004,1.5213578091484798,1.6462119961744381
35,-3.6586609092502123,-5.304515960966292,-3.689866440986508,-5.335732483771346,5.2766382631009074,1.6179773538506952,1.5867718221143994,1.645855051716079
36,-3.356936771319177,-5.00237250113007,-3.3724615546595995,-5.017909084248345,4.999779690617816,1.6428429192986385,1.627318135958216,1.6454357298108935
37,-3.020366241107442,-4.665311587457602,-3.066067149448397,-4.7110251075686165,4.7110251075686165,1.6906588664611744,1.6449579581202194,1.6449453463501595
38,-2.7811777005917686,-4.425552005034232,-2.7701545655129864,-4.4145423160074655,4.414542316007466,1.6333646154156978,1.64438775049448,1.6443743044424641
39,-2.560412212962395,-4.204124242815677,-2.4843881742943736,-4.128114512719605,4.1281145127196055,1.5677022997572103,1.6437263384252319,1.643712029853282
40,-2.237327294885951,-3.880274199474538,-2.208625818717521,-3.8515879204085834,3.8515879204085834,1.6142606255226326,1.6429621016910625,1.6429469045885874
41,-1.8986034379860597,-3.5406696367955925,-1.9428404139769613,-3.5849227185694277,3.5849227185694286,1.6863192805833689,1.6420823045924673,1.642066198809533
42,-1.6672755775979442,-3.308331578884208,-1.686964451537471,-3.328037480649537,3.3280374806495368,1.6607619030515925,1.6410730291120657,1.6410560012862638
43,-1.4408564287783823,-3.080757577414896,-1.4407100984377867,-3.0806292042626398,3.0806292042626393,1.639772775484257,1.6399191058248526,1.6399011486365138
44,-1.1442930931531676,-2.7828782467856814,-1.2034490103512587,-2.8420530522119525,2.8420530522119525,1.6977599590587849,1.6386040418606937,1.6385851536325138
45,-1.003400651182146,-2.6404907840902534,-0.9742267823750621,-2.6113367302182695,2.6113367302182686,1.6079360790361226,1.6371099478432065,1.6370901329081073
46,-0.7915413648195841,-2.4269380992777876,-0.7519338722497072,-2.3873513369161152,2.3873513369161152,1.595809972096531,1.635417464666408,1.6353967344582032
47,-0.5285221124484665,-2.16200617784674,-0.5355812339460376,-2.1690869246108186,2.169086924610818,1.6405648121623517,1.6335056906647805,1.6334840653982736
48,-0.33969539211252586,-1.9710250126589401,-0.3245712977110996,-1.9559234075898488,1.9559234075898493,1.6162280154773234,1.6313521098787498,1.6313296205464143
49,-0.17912812459784377,-1.8080373371048475,-0.11884474296280759,-1.7477772648555607,1.7477772648555603,1.5686491402577165,1.6289325218927526,1.6289092125070037
50,0.16127926712758678,-1.4649176369482313,0.08117009342312975,-1.545050880583001,1.5450508805830006,1.7063301477105872,1.6262209740061304,1.626196904075818
51,0.2637528845766084,-1.3594120593760184,0.27479526782255165,-1.3483944289082073,1.348394428908207,1.6121473134848154,1.6231896967307586,1.6231649439526268
52,0.464902310475895,-1.154881396462245,0.46143696688546965,-1.1583720769299253,1.158372076929925,1.62327438740582,1.6198090438153947,1.61978370693814
53,0.6716768966191384,-0.9443447433854926,0.6408803712392862,-0.9751670670131558,0.9751670670131561,1.6468439636322945,1.6160474382524423,1.616021640004631
54,0.80125215563494,-0.810593060223057,0.81342732364833,-0.7984440022824976,0.7984440022824975,1.5996961579174376,1.6118713259308275,1.611845215857997
55,0.9878528322439672,-0.6193660636007783,0.9798252185562817,-0.6274199202663147,0.6274199202663145,1.6152727525102817,1.6072451388225963,1.6072188958447455
56,1.1186379295296152,-0.48346717475910417,1.141021809892087,-0.4611094599220502,0.4611094599220504,1.5797473894516656,1.6021312698141374,1.6021051042887193
57,1.2694999924598853,-0.32696422409486003,1.2978486435892265,-0.29864141790106313,0.2986414179010631,1.5681414103609483,1.5964900614902895,1.5964642165547454
58,1.4385693641003714,-0.15168519921250612,1.4507584272055345,-0.1395213841388387,0.1395213841388387,1.5780907482392101,1.5902798113443732,1.5902545633128775
59,1.6533456998511176,0.06991324625212081,1.5997129480030896,0.016256152011043308,-0.016256152011043315,1.6370895478400742,1.5834567959920463,1.5834324535989968
60,1.7144953416735849,0.13854312235700394,1.7442530954942836,0.16827777849948522,-0.16827777849948516,1.5462175631740998,1.5759753169947985,1.575952219316581
61,1.8741445345185934,0.3063782507359629,1.8837100432758282,0.31592227244053694,-0.315922272440537,1.5582222620780564,1.5677877708352912,1.5677662837826305
62,2.030011297769805,0.4711860409964741,2.0174663096072356,0.45862156418919786,-0.4586215641891979,1.5713897335806069,1.5588447454180376,1.5588252567733307
63,2.174672665981621,0.6255946077198735,2.14516432908657,0.5960691839010532,-0.5960691839010532,1.5786034820805679,1.5490951451855166,1.5490780582617476
64,2.2752472947370443,0.7367752220800847,2.2667892604018594,0.7283029138246387,-0.728302913824639,1.5469443809124055,1.5384863465772205,1.5384720726569596
65,2.3338336122548253,0.8068802773991379,2.3826081455220227,0.8556437606313256,-0.8556437606313254,1.4781898516235,1.5269643848906973,1.5269533348556874
66,2.5266831653166553,1.0122164164995802,2.493006404084193,0.9785322307544101,-0.9785322307544105,1.5481509345622446,1.5144741733297824,1.514466748817075
67,2.5769696367872146,1.0760132980953374,2.5983014341186443,1.0973416796921858,-1.0973416796921858,1.4796279570950288,1.5009597544264586,1.5009563386918772
68,2.707587894902245,1.221222363090643,2.6986166923523074,1.2122521098194898,-1.2122521098194898,1.495335785082755,1.4863645825328176,1.486365531811602
69,2.7781175167158043,1.307480044603572,2.7938682869210254,1.323236451927794,-1.323236451927794,1.4548810647880104,1.4706318349932315,1.4706374721122324
70,2.8786927777074176,1.424977415828844,2.883864227022414,1.430159476524909,-1.430159476524909,1.4485333011825086,1.4537047504975051,1.4537153618785736
71,2.9792701027382957,1.5437272736383294,2.9684662107243254,1.5329392157355355,-1.5329392157355362,1.4463308870027596,1.4355269949887892,1.4355428290999663
72,3.0532844574757383,1.6372201401992728,3.047737203008044,1.6316941482452245,-1.6316941482452243,1.421590309230514,1.4160430547628196,1.4160643172764655
73,3.1804338230942966,1.7852083288423022,3.122006644993629,1.7268079954990978,-1.7268079954990978,1.4536258275951988,1.3951986494945312,1.3952254942519944
74,3.180444963544254,1.8074712869315905,3.191823969698455,1.818882816889102,-1.818882816889102,1.3615621466551522,1.3729411528093531,1.3729736766126637
75,3.207965697074416,1.858707430679614,3.2578207314016816,1.9086007269666792,-1.9086007269666792,1.299364970107737,1.3492200044350025,1.349258266394802
76,3.28513440664771,1.9611032093486456,3.320538866545149,1.996551760488094,-1.9965517604880945,1.2885826461596155,1.3239871060570545,1.3240311972990644
77,3.381603997396319,2.0843566091141867,3.3802919494066246,2.0830947204118364,-2.0830947204118364,1.2985092769844826,1.2971972289947882,1.2972473882821323
78,3.4821509394475316,2.2132857361987104,3.4371064233438497,2.168297908913684,-2.1682979089136833,1.3138530305338483,1.2688085144301664,1.2688652032488212
79,3.482094362942533,2.243247446420346,3.490753601004734,2.251970445180792,-2.2519704451807927,1.2301239177617402,1.2387831558239415,1.2388469165221871
80,3.572155178265845,2.3649959935342384,3.540849884112622,2.3337616385114126,-2.3337616385114126,1.2383935397544326,1.2070882456012093,1.2071591847316068
81,3.5824610652054,2.4086875385914923,3.586986362295507,2.4132898235933924,-2.4132898235933924,1.1691712416120077,1.1736965387021145,1.1737735266139078
82,3.582329312285658,2.4436624994424356,3.628851708927659,2.4902650368478323,-2.4902650368478327,1.0920642754378251,1.1385866720798261,1.1386668128432222
83,3.679804547298058,2.577982779037011,3.6663252487377873,2.5645828694496755,-2.564582869449675,1.1152216778483828,1.1017423792881123,1.101821768261047
84,3.682743936298948,2.619516447652862,3.6995292520905068,2.636378544038198,-2.636378544038198,1.0463653922607499,1.0631507080523086,1.0632274886460862
85,3.7580938314659926,2.7352138581256615,3.728834975655184,2.7060347116788357,-2.7060347116788357,1.052059119787157,1.0228002639763485,1.022879973340331
86,3.7836853149058878,2.80290264134438,3.754817918411921,2.7741362483140115,-2.7741362483140115,1.0095490665918763,0.9806816700979093,0.980782673561508
87,3.7842348443053444,2.847287790252053,3.7781619660371675,2.8413691322107315,-2.8413691322107315,0.9428657120946129,0.936792833826436,0.9369470540532916
88,3.785093724071899,2.893700561194718,3.7995240940077477,2.9083738368074297,-2.9083738368074297,0.8767198872644695,0.891150257200318,0.891393162877181
89,3.7862622374468478,2.9421120367304003,3.819387749361499,2.9755835617841404,-2.975583561784141,0.8106786756627069,0.8438041875773581,0.8441502007164474
90,3.7876761949823927,2.99241911779383,3.837943693830774,3.043092848935358,-3.043092848935359,0.7445833460470337,0.7948508448954148,0.7952570771885625
91,3.8897631704261517,3.1450002328716944,3.8550324342718305,3.1106009513283013,-3.1106009513283004,0.7791622190978513,0.7444314829435301,0.7447629375544573
92,3.8911320747311247,3.198404435599466,3.870161992954158,3.177453363213149,-3.177453363213149,0.7136787115179755,0.6927086297410088,0.6927276391316588
93,3.8920203795118256,3.2527982265440687,3.8825884058418176,3.242771844129785,-3.2427718441297855,0.6492485353820401,0.6398165617120322,0.6392221529677569
94,3.892007268633605,3.307678405393082,3.891428710655898,3.3056335576010576,-3.305633557601057,0.586373711032548,0.5857951530548409,0.5843288632405232
95,3.8906142081869453,3.36247247342998,3.895777359162463,3.3652479710817875,-3.3652479710817866,0.5253662371051586,0.5305293880806765,0.5281417347569652
96,3.887343346626787,3.4165770284843786,3.8948135558577968,3.421089084406579,-3.4210890844065784,0.4662542622202084,0.4737244714512183,0.4707663181424082
97,3.8817250129622454,3.469405449846872,3.8879047736341388,3.4729620565386825,-3.4729620565386825,0.40876295642356286,0.41494271709545627,0.41231956311537354
98,3.8733691173727007,3.5204397045346196,3.874714711148564,3.5210034759634183,-3.521003475963419,0.35236564140928195,0.35371123518514525,0.3529294128380811
99,3.862014241364466,3.569280084537939,3.8553069133234636,3.565624115843108,-3.565624115843108,0.2963901255213579,0.2896827974803555,0.29273415682652715
100,3.847568136217973,3.615686609920558,3.830209170818581,3.607403198326229,-3.60740319832623,0.24016493789174298,0.22280597249235123,0.23188152629741499
101,3.830134255002242,3.659606731006368,3.8003896954575236,3.646943159854824,-3.6469431598548248,0.18319109514741738,0.15344653560269883,0.17052752399587412
102,3.790733287898855,3.681898297667486,3.7671118082077273,3.684703145805785,-3.6847031458057846,0.10603014209307027,0.08240866240194267,0.10883499023136878
104,3.6871551377671965,3.7021478452625485,3.731680430212237,3.7208484970445914,-3.7208484970445923,-0.03369335927739581,0.010831933167644525,-0.014992707495351976
105,3.6633556831036405,3.7402916496336207,3.695150297745982,3.755169944733302,-3.755169944733301,-0.09181426162966044,-0.060019646987318875,-0.07693596652998025
106,3.638838540251681,3.7774222285404733,3.6581010067610853,3.787122964404864,-3.787122964404863,-0.14828442415318221,-0.12902195764377788,-0.1385836882887923
107,3.614462519075873,3.8142297672924506,3.620572963466622,3.816004910719764,-3.816004910719764,-0.20154239164389098,-0.19543194725314184,-0.19976724821657754
108,3.5910941644025978,3.8514164801763107,3.5821993455478447,3.8412326631634715,-3.841232663163472,-0.25013849876087413,-0.2590333176156272,-0.2603223157737129
109,3.569547551418173,3.889638698339723,3.5424867640455426,3.8626302156570116,-3.862630215657012,-0.2930826642388391,-0.3201434516114694,-0.32009114692155016
110,3.5505291384032716,3.929453962748345,3.5011305385631206,3.8806125762106407,-3.8806125762106407,-0.33008343780736915,-0.3794820376475201,-0.3789248243450736
111,3.45597261306103,3.892657989428707,3.458233236525612,3.8961777239906876,-3.896177723990689,-0.44020511092965897,-0.4379444874650771,-0.43668537636767724
112,3.407471638908701,3.900719345463982,3.414337435856215,3.910687649414025,-3.910687649414026,-0.5032160105053247,-0.49635021355781106,-0.4932477065552807
113,3.31306289214494,3.861564162518468,3.3702655060798374,3.92550404945506,-3.9255040494550597,-0.6124411573101196,-0.5552385433752223,-0.5485012703735279
114,3.3067745764140803,3.909126019293724,3.326841800786568,3.941605738128726,-3.941605738128727,-0.6348311617146467,-0.614763937342159,-0.6023514428796437
115,3.304815186199543,3.9595357182164497,3.284618350762451,3.9593246303555176,-3.959324630355518,-0.6545094441559751,-0.674706279593067,-0.6547205320169067
117,3.2737987123482326,4.034059833606019,3.2437156343050693,3.9782906798778166,-3.9782906798778166,-0.704491967529584,-0.7345750455727473,-0.7602611212577859
118,3.208699172050989,4.017079989808808,3.203833017614654,3.9975939713637576,-3.9975939713637567,-0.7888947993127675,-0.7937609537491026,-0.8083808177578189
119,3.125557126819534,3.9804025358921367,3.1644078110162965,4.016090275597506,-4.016090275597505,-0.8905331487779709,-0.8516824645812084,-0.8548454090726025
120,3.1201586238897927,4.019812717478862,3.124842832255503,4.032729696741184,-4.0327296967411845,-0.9125710728513918,-0.9078868644856817,-0.8996540935890698
121,3.127623507910432,4.070445450477586,3.084704004462197,4.046793756097903,-4.046793756097903,-0.9191702481874704,-0.9620897516357054,-0.942821942567154
123,3.064405565644742,4.0961825461917325,3.043814390448378,4.057976097525181,-4.057976097525181,-0.9935705318804389,-1.014161707076803,-1.031776980546991
124,2.9543265622502735,4.024785339929324,3.0022232179719452,4.066310082450853,-4.066310082450854,-1.1119835202005803,-1.0640868644789085,-1.0704587776790508
125,2.949512065810552,4.057128753519967,2.960083042964209,4.072003221699675,-4.072003221699674,-1.1224911558891222,-1.1119201787354651,-1.1076166877094145
126,2.956577628031172,4.099896684395235,2.9175021018200824,4.075262418283269,-4.075262418283268,-1.1186847902520958,-1.1577603164631856,-1.1433190563640632
128,2.862591440062723,4.081056345231261,2.8744393016404732,4.076179516631194,-4.076179516631194,-1.2135880765684708,-1.2017402149907204,-1.218464905168538
129,2.8023439371530516,4.052525955828055,2.8306796294563568,4.074704957280742,-4.074704957280743,-1.2723610201276916,-1.2440253278243865,-1.2501820186750034
130,2.773780726511151,4.054476000401326,2.785884850258962,4.070690827296323,-4.070690827296324,-1.2969101007851727,-1.2848059770373617,-1.2806952738901747
131,2.779002518085009,4.089095159883982,2.73967909051486,4.063955071240423,-4.063955071240424,-1.2849525531554153,-1.3242759807255644,-1.3100926417989736
133,2.7171446078592316,4.090057815405127,2.6917164341885176,4.054316946425777,-4.054316946425778,-1.3371723385665462,-1.3626005122372602,-1.3729132075458956
134,2.6072977629655347,4.006421150056634,2.6416933020619835,4.041578539143769,-4.041578539143769,-1.4342807761782344,-1.3998852370817856,-1.3991233870910995
135,2.5908156618114173,4.015311463396984,2.5893049441099607,4.025465839118313,-4.025465839118315,-1.4346501773068976,-1.4361608950083542,-1.424495801585567
137,2.552210898468228,4.031068376706336,2.5341841495738233,4.005575773364687,-4.005575773364686,-1.4533648748964585,-1.471391623790863,-1.4788574782381079
138,2.434588042794602,3.9362628060287097,2.4758794519428586,3.9813843076625544,-3.9813843076625544,-1.5467962648679525,-1.5055048557196957,-1.5016747632341079
140,2.3975698272355803,3.947986869131821,2.4139177512139707,3.952348490497191,-3.952348490497191,-1.5547786632616107,-1.5384307392832204,-1.5504170418962406
141,2.3989089265948635,3.9699941604317757,2.34795593847977,3.9180907585888454,-3.918090758588846,-1.5191818319939823,-1.5701348201090757,-1.5710852338369121
142,2.2952907162522687,3.886583984388762,2.277975692373857,3.878607008698088,-3.878607008698088,-1.5833162924458195,-1.6006313163242312,-1.5912932681364933
144,2.1987364501735356,3.83245852757362,2.204439211864009,3.8344128894896876,-3.8344128894896876,-1.635676439316152,-1.6299736776256788,-1.6337220774000842
145,2.163801973745636,3.816022428186381,2.128322198560763,3.786551542476816,-3.786551542476816,-1.6227495687311801,-1.658229343916053,-1.6522204544407448
147,1.9971333230051203,3.6875622818693787,2.0509800119832176,3.7364318178992337,-3.7364318178992324,-1.7392984948941121,-1.6854518059160148,-1.6904289588642585
148,1.996772609438156,3.7042057739642824,1.9738686532548084,3.685531422574031,-3.68553142257403,-1.6887588131358742,-1.7116627693192217,-1.7074331645261265
150,1.8779351252279084,3.6197911711280457,1.8982046755137487,3.635055952246673,-3.6350559522466743,-1.757120827018766,-1.7368512767329256,-1.7418560459001373
151,1.7953678406846179,3.55284876397561,1.8246792117621813,3.58566722148244,-3.5856672214824403,-1.7902993807978225,-1.760988009720259,-1.7574809232909923
153,1.7469419798516632,3.535376489289713,1.7533258511471388,3.5373718526093523,-3.5373718526093523,-1.790429872757689,-1.7840460014622135,-1.78843450943805
154,1.6955950781056413,3.4982857097686013,1.6835856600925596,3.489602447073467,-3.489602447073467,-1.7940073689678255,-1.8060167869809072,-1.8026906316629603
156,1.6116019433192672,3.4419723245972023,1.6145385692349836,3.4414526978305062,-3.4414526978305053,-1.8298507545112381,-1.8269141285955217,-1.8303703812779348
157,1.596370844652007,3.439541431256578,1.545210876358351,3.3919747487312177,-3.391974748731217,-1.7956039040792098,-1.8467638723728659,-1.8431705866045713
159,1.4458905678073952,3.3135523847759445,1.4748493781208452,3.3404343623687653,-3.340434362368765,-1.8945437945613697,-1.8655849842479197,-1.8676618169685493
160,1.4191234627644131,3.2979635877780913,1.4030792746170664,3.2864498563715285,-3.2864498563715276,-1.8673263936071145,-1.8833705817544613,-1.878840125013678
