frequency,raw,error,smoothed,error_smoothed,equalization,parametric_eq,fixed_band_eq,equalized_raw,equalized_smoothed,target
20.00,3.75,-5.09,3.74,-5.09,5.09,3.17,1.36,8.84,8.84,8.84
20.20,3.75,-5.08,3.75,-5.08,5.08,3.17,1.40,8.83,8.83,8.83
20.40,3.76,-5.06,3.76,-5.06,5.06,3.16,1.44,8.82,8.82,8.82
20.61,3.77,-5.04,3.77,-5.04,5.04,3.16,1.49,8.81,8.81,8.81
20.81,3.78,-5.02,3.78,-5.02,5.02,3.16,1.53,8.80,8.80,8.80
21.02,3.80,-4.99,3.79,-4.99,4.99,3.16,1.58,8.79,8.78,8.78
21.23,3.81,-4.97,3.81,-4.97,4.96,3.15,1.62,8.77,8.77,8.77
21.44,3.83,-4.94,3.83,-4.93,4.93,3.15,1.67,8.76,8.76,8.76
21.66,3.86,-4.90,3.86,-4.90,4.89,3.15,1.72,8.75,8.75,8.75
21.87,3.89,-4.85,3.89,-4.85,4.85,3.15,1.77,8.74,8.74,8.74
22.09,3.93,-4.80,3.92,-4.81,4.81,3.14,1.82,8.74,8.73,8.73
22.31,3.96,-4.76,3.96,-4.76,4.76,3.14,1.88,8.72,8.72,8.72
22.54,4.00,-4.71,4.00,-4.71,4.71,3.14,1.93,8.71,8.71,8.71
22.76,4.04,-4.66,4.04,-4.66,4.66,3.13,1.99,8.70,8.70,8.70
22.99,4.09,-4.61,4.09,-4.61,4.60,3.13,2.05,8.69,8.69,8.70
23.22,4.14,-4.55,4.14,-4.55,4.55,3.12,2.11,8.68,8.68,8.68
23.45,4.19,-4.49,4.18,-4.49,4.49,3.12,2.17,8.67,8.67,8.67
23.69,4.24,-4.43,4.24,-4.43,4.43,3.12,2.23,8.66,8.66,8.66
23.92,4.29,-4.36,4.29,-4.36,4.36,3.11,2.29,8.65,8.65,8.65
24.16,4.35,-4.29,4.34,-4.30,4.30,3.11,2.36,8.65,8.64,8.64
24.40,4.40,-4.23,4.40,-4.23,4.23,3.10,2.42,8.63,8.63,8.63
24.65,4.46,-4.17,4.46,-4.17,4.17,3.10,2.49,8.62,8.62,8.63
24.89,4.52,-4.11,4.52,-4.10,4.10,3.09,2.55,8.62,8.62,8.62
25.14,4.59,-4.04,4.58,-4.04,4.03,3.09,2.62,8.62,8.62,8.62
25.39,4.65,-3.96,4.65,-3.96,3.96,3.08,2.69,8.61,8.61,8.61
25.65,4.72,-3.89,4.72,-3.89,3.89,3.07,2.75,8.61,8.61,8.61
25.91,4.78,-3.82,4.78,-3.82,3.82,3.07,2.82,8.61,8.61,8.61
26.16,4.86,-3.75,4.85,-3.75,3.75,3.06,2.89,8.61,8.61,8.60
26.43,4.92,-3.69,4.92,-3.68,3.68,3.05,2.95,8.60,8.60,8.60
26.69,4.99,-3.61,4.99,-3.61,3.61,3.05,3.02,8.60,8.60,8.60
26.96,5.06,-3.54,5.05,-3.54,3.54,3.04,3.09,8.60,8.60,8.60
27.23,5.13,-3.47,5.12,-3.48,3.48,3.03,3.15,8.60,8.60,8.60
27.50,5.19,-3.41,5.19,-3.41,3.41,3.02,3.21,8.59,8.59,8.59
27.77,5.25,-3.34,5.25,-3.34,3.34,3.01,3.27,8.58,8.59,8.59
28.05,5.32,-3.26,5.31,-3.27,3.27,3.00,3.33,8.58,8.58,8.58
28.33,5.38,-3.20,5.38,-3.20,3.20,2.99,3.38,8.57,8.57,8.58
28.62,5.44,-3.13,5.44,-3.13,3.13,2.98,3.43,8.56,8.57,8.56
28.90,5.50,-3.06,5.50,-3.06,3.06,2.97,3.48,8.56,8.56,8.56
29.19,5.56,-2.99,5.55,-2.99,3.00,2.96,3.52,8.55,8.55,8.55
29.48,5.61,-2.93,5.61,-2.93,2.93,2.95,3.56,8.54,8.54,8.54
29.78,5.66,-2.88,5.66,-2.87,2.87,2.93,3.60,8.53,8.53,8.53
30.08,5.71,-2.81,5.71,-2.82,2.82,2.92,3.63,8.52,8.52,8.52
30.38,5.76,-2.76,5.75,-2.76,2.76,2.90,3.65,8.52,8.52,8.52
30.68,5.80,-2.72,5.80,-2.71,2.71,2.89,3.67,8.51,8.51,8.51
30.99,5.85,-2.66,5.84,-2.66,2.66,2.87,3.69,8.51,8.51,8.51
31.30,5.89,-2.62,5.89,-2.62,2.62,2.85,3.70,8.51,8.50,8.50
31.61,5.93,-2.57,5.93,-2.58,2.58,2.84,3.70,8.50,8.51,8.50
31.93,5.97,-2.54,5.97,-2.54,2.54,2.82,3.70,8.50,8.50,8.51
32.24,6.01,-2.50,6.00,-2.50,2.50,2.80,3.70,8.51,8.50,8.50
32.57,6.04,-2.46,6.04,-2.46,2.46,2.77,3.68,8.50,8.50,8.50
32.89,6.08,-2.43,6.07,-2.43,2.43,2.75,3.67,8.50,8.50,8.50
33.22,6.11,-2.39,6.10,-2.39,2.39,2.72,3.65,8.50,8.49,8.50
33.55,6.13,-2.37,6.13,-2.36,2.35,2.70,3.63,8.48,8.49,8.49
33.89,6.17,-2.31,6.16,-2.32,2.32,2.67,3.60,8.48,8.48,8.48
34.23,6.20,-2.28,6.20,-2.28,2.28,2.64,3.57,8.48,8.48,8.47
34.57,6.23,-2.24,6.22,-2.24,2.24,2.61,3.53,8.47,8.47,8.47
34.92,6.25,-2.21,6.25,-2.21,2.21,2.57,3.49,8.45,8.45,8.45
35.27,6.27,-2.17,6.27,-2.17,2.17,2.54,3.45,8.43,8.44,8.44
35.62,6.30,-2.12,6.29,-2.13,2.13,2.50,3.41,8.43,8.42,8.42
35.97,6.31,-2.10,6.31,-2.10,2.09,2.46,3.37,8.40,8.40,8.40
36.33,6.33,-2.06,6.33,-2.06,2.06,2.41,3.32,8.38,8.38,8.39
36.70,6.34,-2.02,6.34,-2.02,2.02,2.37,3.27,8.36,8.36,8.36
37.06,6.36,-1.99,6.35,-1.99,1.99,2.32,3.23,8.34,8.34,8.34
37.43,6.37,-1.95,6.37,-1.95,1.95,2.27,3.18,8.32,8.32,8.32
37.81,6.38,-1.92,6.38,-1.92,1.92,2.22,3.13,8.30,8.30,8.30
38.19,6.39,-1.89,6.39,-1.89,1.89,2.16,3.08,8.28,8.28,8.27
38.57,6.40,-1.86,6.39,-1.86,1.86,2.11,3.03,8.26,8.26,8.25
38.95,6.40,-1.84,6.40,-1.84,1.84,2.05,2.99,8.23,8.23,8.23
39.34,6.40,-1.82,6.40,-1.82,1.82,2.00,2.94,8.21,8.22,8.22
39.74,6.40,-1.80,6.40,-1.80,1.80,1.94,2.90,8.20,8.20,8.20
40.14,6.40,-1.78,6.39,-1.79,1.79,1.88,2.85,8.18,8.18,8.18
40.54,6.39,-1.78,6.39,-1.78,1.78,1.83,2.81,8.16,8.17,8.17
40.94,6.39,-1.77,6.38,-1.77,1.77,1.78,2.77,8.16,8.15,8.16
41.35,6.38,-1.76,6.38,-1.76,1.76,1.73,2.73,8.14,8.14,8.14
41.76,6.37,-1.76,6.37,-1.76,1.76,1.68,2.69,8.13,8.13,8.13
42.18,6.36,-1.77,6.35,-1.77,1.76,1.65,2.66,8.12,8.12,8.12
42.60,6.34,-1.78,6.34,-1.77,1.77,1.61,2.62,8.11,8.11,8.11
43.03,6.34,-1.77,6.33,-1.78,1.78,1.59,2.59,8.11,8.11,8.10
43.46,6.32,-1.78,6.32,-1.78,1.79,1.58,2.56,8.10,8.10,8.10
43.90,6.30,-1.80,6.30,-1.79,1.80,1.57,2.53,8.09,8.10,8.10
44.33,6.28,-1.81,6.27,-1.81,1.81,1.57,2.50,8.09,8.08,8.08
44.78,6.25,-1.83,6.25,-1.83,1.82,1.59,2.48,8.07,8.07,8.08
45.23,6.23,-1.85,6.23,-1.84,1.84,1.61,2.46,8.06,8.06,8.07
45.68,6.21,-1.85,6.20,-1.86,1.85,1.63,2.44,8.06,8.06,8.06
46.13,6.19,-1.86,6.18,-1.86,1.87,1.67,2.42,8.05,8.05,8.04
46.60,6.16,-1.88,6.16,-1.88,1.88,1.71,2.40,8.04,8.04,8.04
47.06,6.14,-1.89,6.13,-1.89,1.89,1.75,2.39,8.03,8.02,8.02
47.53,6.10,-1.91,6.10,-1.91,1.91,1.80,2.37,8.00,8.01,8.00
48.01,6.07,-1.92,6.07,-1.92,1.92,1.84,2.36,7.99,7.99,7.99
48.49,6.04,-1.93,6.03,-1.94,1.93,1.89,2.35,7.97,7.97,7.97
48.97,6.00,-1.95,6.00,-1.95,1.95,1.94,2.34,7.94,7.95,7.95
49.46,5.97,-1.96,5.96,-1.96,1.96,2.00,2.34,7.93,7.93,7.93
49.96,5.93,-1.97,5.93,-1.98,1.98,2.04,2.33,7.90,7.90,7.90
50.46,5.89,-1.99,5.89,-1.99,1.99,2.09,2.33,7.88,7.88,7.88
50.96,5.85,-2.00,5.85,-2.00,2.01,2.14,2.33,7.85,7.85,7.85
51.47,5.81,-2.02,5.81,-2.02,2.02,2.18,2.32,7.83,7.83,7.83
51.99,5.77,-2.04,5.77,-2.04,2.04,2.22,2.32,7.81,7.81,7.80
52.51,5.73,-2.05,5.72,-2.06,2.06,2.26,2.32,7.78,7.78,7.78
53.03,5.68,-2.08,5.68,-2.08,2.08,2.30,2.33,7.75,7.76,7.75
53.56,5.63,-2.10,5.63,-2.10,2.10,2.34,2.33,7.72,7.73,7.73
54.10,5.59,-2.12,5.58,-2.12,2.12,2.37,2.33,7.71,7.70,7.70
54.64,5.53,-2.15,5.53,-2.14,2.14,2.40,2.33,7.67,7.68,7.68
55.18,5.49,-2.16,5.48,-2.17,2.17,2.43,2.34,7.65,7.65,7.65
55.74,5.43,-2.19,5.43,-2.19,2.19,2.45,2.34,7.62,7.62,7.62
56.29,5.38,-2.22,5.37,-2.22,2.22,2.48,2.34,7.59,7.59,7.59
56.86,5.32,-2.24,5.32,-2.24,2.24,2.50,2.34,7.56,7.56,7.56
57.42,5.26,-2.27,5.26,-2.27,2.27,2.52,2.34,7.53,7.53,7.53
58.00,5.21,-2.29,5.20,-2.29,2.29,2.54,2.34,7.50,7.50,7.50
58.58,5.15,-2.32,5.15,-2.32,2.32,2.55,2.34,7.47,7.47,7.46
59.16,5.09,-2.34,5.09,-2.34,2.34,2.57,2.34,7.43,7.43,7.43
59.76,5.03,-2.37,5.03,-2.37,2.37,2.58,2.34,7.39,7.39,7.40
60.35,4.97,-2.39,4.97,-2.39,2.39,2.59,2.33,7.35,7.36,7.36
60.96,4.92,-2.41,4.91,-2.41,2.41,2.60,2.33,7.32,7.32,7.32
61.57,4.85,-2.43,4.85,-2.43,2.43,2.61,2.32,7.27,7.28,7.27
62.18,4.79,-2.45,4.79,-2.44,2.44,2.62,2.31,7.23,7.23,7.24
62.80,4.74,-2.46,4.73,-2.46,2.46,2.63,2.30,7.20,7.19,7.19
63.43,4.67,-2.48,4.67,-2.48,2.48,2.64,2.29,7.15,7.15,7.14
64.07,4.61,-2.49,4.61,-2.49,2.50,2.64,2.28,7.10,7.11,7.10
64.71,4.55,-2.51,4.54,-2.52,2.52,2.65,2.27,7.06,7.06,7.06
65.35,4.48,-2.54,4.48,-2.54,2.54,2.65,2.25,7.01,7.01,7.01
66.01,4.41,-2.56,4.41,-2.56,2.56,2.66,2.23,6.96,6.97,6.97
66.67,4.35,-2.57,4.34,-2.58,2.58,2.66,2.21,6.92,6.92,6.92
67.33,4.27,-2.61,4.27,-2.60,2.60,2.66,2.19,6.86,6.87,6.87
68.01,4.21,-2.62,4.20,-2.62,2.62,2.66,2.17,6.83,6.82,6.82
68.69,4.14,-2.64,4.13,-2.64,2.64,2.66,2.15,6.78,6.77,6.77
69.37,4.07,-2.66,4.07,-2.66,2.66,2.67,2.13,6.72,6.72,6.72
70.07,4.00,-2.68,4.00,-2.68,2.68,2.67,2.11,6.67,6.67,6.68
70.77,3.93,-2.70,3.93,-2.69,2.70,2.67,2.08,6.62,6.62,6.63
71.48,3.87,-2.70,3.86,-2.71,2.71,2.67,2.06,6.58,6.57,6.57
72.19,3.79,-2.73,3.79,-2.73,2.73,2.67,2.04,6.52,6.52,6.51
72.91,3.72,-2.75,3.72,-2.75,2.75,2.67,2.01,6.46,6.47,6.47
73.64,3.65,-2.76,3.64,-2.77,2.76,2.67,1.99,6.41,6.41,6.41
74.38,3.57,-2.78,3.57,-2.78,2.78,2.67,1.97,6.34,6.35,6.35
75.12,3.50,-2.79,3.50,-2.80,2.79,2.67,1.94,6.29,6.29,6.29
75.87,3.43,-2.81,3.42,-2.81,2.81,2.68,1.92,6.23,6.23,6.24
76.63,3.36,-2.82,3.36,-2.82,2.82,2.68,1.90,6.17,6.17,6.17
77.40,3.29,-2.82,3.29,-2.83,2.83,2.68,1.88,6.11,6.11,6.11
78.17,3.22,-2.83,3.21,-2.83,2.84,2.68,1.86,6.05,6.05,6.04
78.95,3.14,-2.85,3.14,-2.84,2.84,2.69,1.84,5.98,5.98,5.99
79.74,3.07,-2.85,3.07,-2.85,2.85,2.69,1.82,5.92,5.92,5.92
80.54,3.00,-2.86,3.00,-2.86,2.86,2.70,1.80,5.85,5.85,5.85
81.35,2.93,-2.87,2.92,-2.86,2.86,2.70,1.78,5.79,5.79,5.79
82.16,2.86,-2.87,2.85,-2.87,2.87,2.71,1.77,5.72,5.72,5.72
82.98,2.78,-2.87,2.78,-2.87,2.87,2.71,1.76,5.65,5.65,5.65
83.81,2.72,-2.87,2.71,-2.87,2.87,2.72,1.74,5.59,5.59,5.59
84.65,2.65,-2.87,2.65,-2.87,2.87,2.73,1.73,5.52,5.52,5.51
85.50,2.58,-2.87,2.58,-2.87,2.87,2.74,1.72,5.45,5.45,5.45
86.35,2.52,-2.87,2.51,-2.87,2.87,2.75,1.71,5.39,5.38,5.38
87.22,2.44,-2.87,2.44,-2.87,2.87,2.76,1.71,5.30,5.31,5.31
88.09,2.38,-2.86,2.38,-2.86,2.86,2.77,1.70,5.24,5.24,5.24
88.97,2.31,-2.86,2.31,-2.85,2.86,2.78,1.70,5.16,5.17,5.16
89.86,2.26,-2.84,2.25,-2.84,2.85,2.79,1.69,5.10,5.10,5.10
90.76,2.19,-2.83,2.18,-2.83,2.84,2.80,1.69,5.02,5.02,5.02
91.66,2.12,-2.83,2.12,-2.82,2.82,2.81,1.69,4.94,4.94,4.95
92.58,2.06,-2.81,2.06,-2.81,2.81,2.81,1.69,4.86,4.86,4.87
93.51,2.00,-2.79,2.00,-2.79,2.79,2.82,1.69,4.79,4.78,4.78
94.44,1.94,-2.77,1.94,-2.77,2.77,2.82,1.70,4.70,4.70,4.70
95.39,1.88,-2.74,1.88,-2.75,2.75,2.82,1.70,4.62,4.62,4.62
96.34,1.82,-2.72,1.82,-2.72,2.72,2.81,1.71,4.54,4.54,4.54
97.30,1.76,-2.70,1.76,-2.69,2.69,2.80,1.71,4.45,4.45,4.46
98.28,1.71,-2.66,1.70,-2.66,2.66,2.78,1.72,4.37,4.36,4.36
99.26,1.65,-2.63,1.65,-2.63,2.63,2.76,1.73,4.27,4.28,4.28
100.25,1.61,-2.59,1.60,-2.59,2.59,2.73,1.74,4.20,4.19,4.19
101.25,1.55,-2.55,1.55,-2.56,2.56,2.69,1.74,4.11,4.11,4.10
102.27,1.49,-2.53,1.49,-2.52,2.52,2.65,1.75,4.01,4.02,4.02
103.29,1.45,-2.49,1.44,-2.49,2.49,2.61,1.76,3.93,3.93,3.93
104.32,1.40,-2.45,1.39,-2.45,2.45,2.55,1.77,3.85,3.84,3.85
105.37,1.35,-2.42,1.35,-2.41,2.41,2.49,1.78,3.76,3.76,3.76
106.42,1.31,-2.37,1.31,-2.37,2.37,2.43,1.79,3.68,3.68,3.68
107.48,1.27,-2.33,1.26,-2.33,2.33,2.36,1.80,3.60,3.59,3.59
108.56,1.22,-2.29,1.22,-2.29,2.29,2.29,1.80,3.51,3.51,3.51
109.64,1.18,-2.26,1.18,-2.25,2.25,2.22,1.81,3.42,3.43,3.43
110.74,1.15,-2.20,1.14,-2.21,2.20,2.14,1.81,3.35,3.35,3.35
111.85,1.12,-2.15,1.11,-2.16,2.16,2.06,1.82,3.27,3.27,3.27
112.97,1.08,-2.11,1.08,-2.10,2.11,1.99,1.82,3.18,3.19,3.18
114.10,1.05,-2.05,1.05,-2.05,2.05,1.91,1.82,3.10,3.10,3.10
115.24,1.02,-2.00,1.02,-2.00,2.00,1.83,1.82,3.01,3.01,3.02
116.39,0.99,-1.94,0.99,-1.94,1.94,1.75,1.81,2.92,2.93,2.92
117.55,0.97,-1.88,0.96,-1.88,1.88,1.67,1.80,2.84,2.84,2.84
118.73,0.94,-1.82,0.94,-1.81,1.81,1.59,1.79,2.75,2.75,2.75
119.92,0.92,-1.74,0.91,-1.75,1.75,1.51,1.78,2.66,2.66,2.66
121.12,0.89,-1.68,0.89,-1.68,1.68,1.44,1.76,2.57,2.57,2.57
122.33,0.88,-1.61,0.87,-1.61,1.61,1.37,1.74,2.49,2.48,2.48
123.55,0.86,-1.54,0.85,-1.54,1.54,1.29,1.72,2.40,2.39,2.39
124.79,0.84,-1.47,0.84,-1.47,1.47,1.22,1.69,2.30,2.30,2.31
126.03,0.82,-1.40,0.82,-1.40,1.39,1.15,1.66,2.21,2.21,2.22
127.29,0.81,-1.32,0.80,-1.32,1.32,1.08,1.62,2.12,2.12,2.12
128.57,0.80,-1.24,0.80,-1.24,1.24,1.02,1.58,2.04,2.04,2.04
129.85,0.79,-1.17,0.79,-1.16,1.17,0.95,1.54,1.95,1.95,1.95
131.15,0.79,-1.08,0.78,-1.09,1.09,0.89,1.50,1.88,1.87,1.87
132.46,0.77,-1.02,0.77,-1.02,1.02,0.83,1.45,1.78,1.79,1.78
133.79,0.77,-0.95,0.77,-0.94,0.94,0.76,1.40,1.71,1.71,1.71
135.12,0.77,-0.87,0.76,-0.87,0.87,0.71,1.34,1.64,1.63,1.63
136.48,0.77,-0.80,0.77,-0.80,0.80,0.65,1.28,1.56,1.57,1.56
137.84,0.77,-0.73,0.77,-0.72,0.73,0.59,1.22,1.49,1.50,1.49
139.22,0.78,-0.65,0.77,-0.66,0.66,0.53,1.15,1.43,1.43,1.43
140.61,0.77,-0.59,0.77,-0.59,0.59,0.48,1.09,1.35,1.36,1.36
142.02,0.78,-0.52,0.78,-0.52,0.52,0.42,1.02,1.29,1.29,1.29
143.44,0.79,-0.44,0.78,-0.45,0.44,0.37,0.95,1.23,1.22,1.23
144.87,0.79,-0.38,0.79,-0.38,0.37,0.31,0.87,1.16,1.16,1.17
146.32,0.80,-0.31,0.80,-0.30,0.30,0.26,0.80,1.10,1.10,1.10
147.78,0.82,-0.23,0.81,-0.23,0.23,0.21,0.72,1.05,1.04,1.04
149.26,0.83,-0.16,0.82,-0.16,0.16,0.16,0.64,0.99,0.99,0.98
150.75,0.83,-0.10,0.83,-0.09,0.09,0.11,0.56,0.92,0.93,0.92
152.26,0.85,-0.02,0.84,-0.02,0.02,0.06,0.48,0.87,0.87,0.87
153.78,0.86,0.05,0.86,0.05,-0.05,0.01,0.40,0.81,0.81,0.81
155.32,0.88,0.12,0.87,0.12,-0.12,-0.04,0.31,0.76,0.75,0.75
156.88,0.89,0.19,0.89,0.19,-0.19,-0.09,0.23,0.69,0.70,0.70
158.44,0.92,0.27,0.91,0.26,-0.27,-0.14,0.14,0.65,0.64,0.65
160.03,0.94,0.34,0.94,0.34,-0.35,-0.19,0.06,0.59,0.59,0.60
161.63,0.96,0.42,0.96,0.42,-0.42,-0.24,-0.03,0.53,0.54,0.53
163.24,0.99,0.51,0.98,0.50,-0.50,-0.29,-0.12,0.48,0.48,0.47
164.88,1.01,0.58,1.01,0.59,-0.58,-0.34,-0.21,0.43,0.43,0.43
166.53,1.05,0.67,1.04,0.66,-0.66,-0.38,-0.30,0.39,0.38,0.38
168.19,1.07,0.73,1.07,0.73,-0.74,-0.43,-0.39,0.33,0.33,0.33
169.87,1.10,0.81,1.10,0.81,-0.82,-0.48,-0.48,0.28,0.28,0.29
171.57,1.13,0.89,1.13,0.89,-0.89,-0.53,-0.57,0.23,0.23,0.23
173.29,1.17,0.97,1.16,0.97,-0.97,-0.58,-0.66,0.20,0.19,0.19
175.02,1.20,1.05,1.20,1.05,-1.05,-0.63,-0.76,0.15,0.15,0.15
176.77,1.24,1.13,1.24,1.13,-1.12,-0.68,-0.85,0.12,0.11,0.11
178.54,1.27,1.20,1.27,1.20,-1.19,-0.73,-0.94,0.07,0.07,0.07
180.32,1.31,1.27,1.30,1.27,-1.27,-0.78,-1.04,0.04,0.03,0.03
182.13,1.33,1.33,1.33,1.33,-1.34,-0.83,-1.14,-0.01,-0.01,-0.01
183.95,1.36,1.40,1.36,1.40,-1.40,-0.88,-1.23,-0.05,-0.04,-0.04
185.79,1.40,1.47,1.39,1.47,-1.47,-0.93,-1.33,-0.08,-0.08,-0.08
187.65,1.43,1.54,1.42,1.54,-1.54,-0.98,-1.43,-0.11,-0.12,-0.11
189.52,1.46,1.60,1.46,1.61,-1.61,-1.03,-1.52,-0.15,-0.15,-0.14
191.42,1.49,1.67,1.49,1.67,-1.67,-1.09,-1.62,-0.19,-0.19,-0.19
193.33,1.53,1.74,1.52,1.74,-1.74,-1.14,-1.72,-0.21,-0.22,-0.22
195.27,1.56,1.81,1.56,1.81,-1.80,-1.20,-1.82,-0.25,-0.25,-0.25
197.22,1.60,1.88,1.59,1.87,-1.87,-1.25,-1.92,-0.27,-0.28,-0.28
199.19,1.62,1.92,1.62,1.93,-1.93,-1.31,-2.02,-0.31,-0.30,-0.31
201.18,1.66,1.99,1.65,1.99,-1.99,-1.36,-2.12,-0.33,-0.33,-0.34
203.19,1.69,2.05,1.68,2.05,-2.05,-1.42,-2.22,-0.36,-0.36,-0.36
205.23,1.71,2.10,1.71,2.10,-2.10,-1.48,-2.32,-0.40,-0.39,-0.39
207.28,1.75,2.16,1.74,2.15,-2.16,-1.54,-2.42,-0.41,-0.42,-0.41
209.35,1.77,2.21,1.77,2.21,-2.21,-1.60,-2.51,-0.45,-0.44,-0.44
211.44,1.81,2.27,1.80,2.27,-2.27,-1.66,-2.61,-0.46,-0.47,-0.46
213.56,1.84,2.33,1.83,2.33,-2.33,-1.72,-2.70,-0.49,-0.49,-0.50
215.69,1.87,2.38,1.87,2.39,-2.38,-1.79,-2.79,-0.52,-0.52,-0.52
217.85,1.90,2.44,1.90,2.44,-2.44,-1.85,-2.88,-0.54,-0.54,-0.54
220.03,1.94,2.50,1.93,2.49,-2.49,-1.92,-2.97,-0.56,-0.56,-0.56
222.23,1.97,2.55,1.97,2.55,-2.55,-1.98,-3.05,-0.58,-0.58,-0.58
224.45,2.01,2.61,2.00,2.60,-2.61,-2.05,-3.14,-0.60,-0.60,-0.60
226.70,2.04,2.66,2.04,2.66,-2.66,-2.12,-3.21,-0.62,-0.62,-0.62
228.96,2.08,2.71,2.08,2.71,-2.72,-2.19,-3.29,-0.64,-0.64,-0.64
231.25,2.12,2.77,2.11,2.77,-2.77,-2.25,-3.35,-0.65,-0.66,-0.66
233.57,2.14,2.81,2.14,2.82,-2.82,-2.32,-3.42,-0.69,-0.68,-0.67
235.90,2.18,2.89,2.17,2.88,-2.88,-2.40,-3.47,-0.70,-0.70,-0.71
238.26,2.21,2.93,2.20,2.93,-2.93,-2.47,-3.53,-0.72,-0.72,-0.73
240.64,2.24,2.98,2.24,2.98,-2.98,-2.54,-3.57,-0.74,-0.74,-0.74
243.05,2.27,3.02,2.27,3.02,-3.02,-2.61,-3.62,-0.75,-0.75,-0.76
245.48,2.30,3.07,2.29,3.06,-3.06,-2.68,-3.65,-0.77,-0.77,-0.77
247.93,2.32,3.10,2.32,3.11,-3.10,-2.76,-3.68,-0.79,-0.78,-0.79
250.41,2.35,3.14,2.34,3.14,-3.14,-2.83,-3.70,-0.80,-0.80,-0.80
252.92,2.37,3.18,2.37,3.18,-3.18,-2.90,-3.71,-0.81,-0.81,-0.81
255.45,2.39,3.21,2.39,3.21,-3.22,-2.97,-3.72,-0.83,-0.83,-0.82
258.00,2.42,3.25,2.41,3.25,-3.25,-3.04,-3.72,-0.84,-0.84,-0.84
260.58,2.44,3.28,2.44,3.29,-3.29,-3.11,-3.72,-0.85,-0.85,-0.85
263.19,2.46,3.33,2.46,3.33,-3.32,-3.18,-3.71,-0.87,-0.86,-0.87
265.82,2.49,3.37,2.48,3.36,-3.36,-3.25,-3.69,-0.87,-0.88,-0.88
268.48,2.50,3.39,2.50,3.39,-3.39,-3.32,-3.67,-0.90,-0.89,-0.89
271.16,2.52,3.43,2.52,3.42,-3.42,-3.38,-3.65,-0.91,-0.91,-0.91
273.87,2.53,3.45,2.53,3.45,-3.45,-3.44,-3.62,-0.93,-0.92,-0.92
276.61,2.55,3.49,2.54,3.48,-3.48,-3.50,-3.58,-0.93,-0.94,-0.94
279.38,2.56,3.51,2.56,3.51,-3.51,-3.56,-3.55,-0.95,-0.95,-0.95
282.17,2.57,3.53,2.57,3.53,-3.53,-3.61,-3.51,-0.96,-0.96,-0.97
284.99,2.58,3.54,2.57,3.54,-3.55,-3.66,-3.46,-0.97,-0.97,-0.97
287.84,2.58,3.55,2.58,3.56,-3.57,-3.70,-3.42,-0.99,-0.98,-0.98
290.72,2.60,3.59,2.59,3.58,-3.58,-3.74,-3.37,-0.98,-0.99,-0.99
293.63,2.60,3.60,2.60,3.60,-3.59,-3.78,-3.32,-1.00,-1.00,-1.00
296.57,2.60,3.60,2.60,3.61,-3.60,-3.81,-3.27,-1.00,-1.00,-1.01
299.53,2.60,3.60,2.59,3.61,-3.61,-3.84,-3.22,-1.01,-1.01,-1.01
302.53,2.59,3.61,2.59,3.61,-3.61,-3.86,-3.17,-1.02,-1.02,-1.02
305.55,2.59,3.61,2.58,3.60,-3.61,-3.88,-3.12,-1.02,-1.03,-1.02
308.61,2.57,3.60,2.57,3.60,-3.61,-3.89,-3.07,-1.04,-1.03,-1.04
311.69,2.57,3.60,2.56,3.60,-3.60,-3.90,-3.01,-1.03,-1.04,-1.03
314.81,2.56,3.60,2.55,3.60,-3.59,-3.90,-2.96,-1.04,-1.04,-1.05
317.96,2.54,3.58,2.54,3.59,-3.58,-3.89,-2.92,-1.04,-1.04,-1.04
321.14,2.53,3.57,2.52,3.57,-3.57,-3.88,-2.87,-1.04,-1.05,-1.05
324.35,2.50,3.55,2.50,3.55,-3.55,-3.87,-2.82,-1.06,-1.05,-1.05
327.59,2.48,3.53,2.48,3.53,-3.54,-3.85,-2.78,-1.06,-1.06,-1.05
330.87,2.46,3.51,2.45,3.51,-3.51,-3.82,-2.73,-1.06,-1.06,-1.05
334.18,2.44,3.50,2.43,3.49,-3.49,-3.79,-2.69,-1.06,-1.06,-1.06
337.52,2.41,3.47,2.41,3.47,-3.47,-3.75,-2.65,-1.06,-1.06,-1.06
340.90,2.39,3.45,2.38,3.44,-3.44,-3.71,-2.61,-1.06,-1.06,-1.07
344.30,2.35,3.41,2.35,3.42,-3.42,-3.67,-2.58,-1.07,-1.06,-1.06
347.75,2.33,3.38,2.33,3.39,-3.39,-3.62,-2.54,-1.06,-1.06,-1.06
351.23,2.30,3.37,2.29,3.35,-3.36,-3.57,-2.51,-1.06,-1.07,-1.07
354.74,2.27,3.32,2.27,3.33,-3.33,-3.51,-2.48,-1.06,-1.06,-1.05
358.28,2.23,3.29,2.23,3.30,-3.29,-3.46,-2.45,-1.07,-1.06,-1.07
361.87,2.21,3.27,2.20,3.26,-3.26,-3.40,-2.43,-1.06,-1.06,-1.06
365.49,2.17,3.23,2.17,3.23,-3.23,-3.33,-2.40,-1.06,-1.06,-1.06
369.14,2.13,3.19,2.13,3.19,-3.20,-3.27,-2.38,-1.07,-1.07,-1.07
372.83,2.10,3.16,2.09,3.16,-3.16,-3.20,-2.36,-1.07,-1.07,-1.06
376.56,2.06,3.12,2.06,3.13,-3.13,-3.14,-2.34,-1.07,-1.07,-1.06
380.33,2.03,3.09,2.02,3.09,-3.09,-3.07,-2.33,-1.06,-1.07,-1.07
384.13,1.99,3.07,1.99,3.06,-3.05,-3.00,-2.31,-1.07,-1.07,-1.08
387.97,1.95,3.02,1.95,3.02,-3.02,-2.93,-2.30,-1.07,-1.07,-1.07
391.85,1.91,2.97,1.91,2.98,-2.98,-2.86,-2.29,-1.07,-1.07,-1.07
395.77,1.87,2.93,1.87,2.94,-2.94,-2.79,-2.28,-1.07,-1.07,-1.07
399.73,1.84,2.91,1.83,2.90,-2.90,-2.72,-2.27,-1.06,-1.07,-1.07
403.72,1.79,2.86,1.79,2.86,-2.86,-2.65,-2.26,-1.07,-1.07,-1.07
407.76,1.75,2.82,1.75,2.82,-2.82,-2.58,-2.25,-1.07,-1.07,-1.08
411.84,1.71,2.78,1.70,2.78,-2.78,-2.51,-2.25,-1.07,-1.08,-1.08
415.96,1.67,2.74,1.66,2.74,-2.74,-2.44,-2.24,-1.07,-1.08,-1.07
420.12,1.62,2.70,1.62,2.70,-2.70,-2.37,-2.24,-1.08,-1.08,-1.08
424.32,1.58,2.66,1.58,2.66,-2.66,-2.30,-2.24,-1.08,-1.08,-1.08
428.56,1.54,2.62,1.53,2.62,-2.62,-2.24,-2.23,-1.08,-1.09,-1.09
432.85,1.49,2.57,1.49,2.58,-2.58,-2.17,-2.23,-1.09,-1.09,-1.09
437.18,1.44,2.54,1.44,2.54,-2.53,-2.11,-2.23,-1.10,-1.09,-1.10
441.55,1.40,2.50,1.39,2.49,-2.49,-2.04,-2.22,-1.09,-1.09,-1.10
445.96,1.35,2.45,1.35,2.45,-2.44,-1.98,-2.22,-1.09,-1.10,-1.10
450.42,1.30,2.39,1.30,2.39,-2.39,-1.92,-2.21,-1.10,-1.10,-1.09
454.93,1.25,2.34,1.25,2.34,-2.35,-1.86,-2.21,-1.10,-1.10,-1.10
459.48,1.20,2.29,1.20,2.29,-2.30,-1.80,-2.20,-1.11,-1.11,-1.10
464.07,1.15,2.25,1.15,2.25,-2.26,-1.74,-2.19,-1.11,-1.11,-1.11
468.71,1.10,2.21,1.10,2.21,-2.21,-1.69,-2.18,-1.11,-1.11,-1.11
473.40,1.06,2.17,1.05,2.17,-2.16,-1.63,-2.17,-1.11,-1.11,-1.11
478.13,1.01,2.12,1.01,2.12,-2.12,-1.58,-2.16,-1.11,-1.11,-1.11
482.91,0.97,2.08,0.96,2.07,-2.07,-1.52,-2.14,-1.10,-1.11,-1.11
487.74,0.92,2.02,0.91,2.02,-2.02,-1.47,-2.13,-1.10,-1.11,-1.10
492.62,0.86,1.96,0.86,1.97,-1.97,-1.42,-2.11,-1.12,-1.11,-1.11
497.55,0.82,1.92,0.81,1.92,-1.92,-1.37,-2.08,-1.10,-1.11,-1.11
502.52,0.77,1.87,0.76,1.87,-1.87,-1.32,-2.06,-1.10,-1.11,-1.11
507.55,0.71,1.81,0.71,1.82,-1.81,-1.27,-2.03,-1.11,-1.10,-1.10
512.62,0.67,1.77,0.66,1.76,-1.76,-1.22,-2.00,-1.10,-1.10,-1.10
517.75,0.62,1.71,0.61,1.70,-1.71,-1.18,-1.97,-1.09,-1.10,-1.09
522.93,0.56,1.65,0.56,1.65,-1.65,-1.13,-1.94,-1.10,-1.09,-1.09
528.16,0.51,1.60,0.51,1.60,-1.60,-1.09,-1.90,-1.09,-1.09,-1.09
533.44,0.46,1.55,0.45,1.55,-1.54,-1.04,-1.86,-1.09,-1.09,-1.09
