frequency,raw,error,smoothed,error_smoothed,equalization,parametric_eq,fixed_band_eq,equalized_raw,equalized_smoothed,target
20.00,-1.10,-7.45,-1.10,-7.45,6.00,6.16,2.52,4.90,4.90,6.35
20.20,-1.02,-7.42,-1.02,-7.41,6.00,6.14,2.60,4.98,4.98,6.40
20.40,-0.94,-7.39,-0.94,-7.38,6.00,6.11,2.67,5.06,5.06,6.45
20.61,-0.86,-7.34,-0.85,-7.34,6.00,6.09,2.75,5.14,5.15,6.48
20.81,-0.77,-7.29,-0.77,-7.30,6.00,6.06,2.83,5.23,5.23,6.53
21.02,-0.69,-7.25,-0.70,-7.25,6.00,6.03,2.91,5.31,5.30,6.57
21.23,-0.63,-7.21,-0.63,-7.21,6.00,6.01,2.99,5.37,5.37,6.58
21.44,-0.57,-7.17,-0.56,-7.17,6.00,5.98,3.08,5.43,5.44,6.60
21.66,-0.50,-7.12,-0.50,-7.12,6.00,5.96,3.17,5.50,5.50,6.62
21.87,-0.44,-7.07,-0.44,-7.07,6.00,5.93,3.26,5.56,5.56,6.63
22.09,-0.37,-7.02,-0.37,-7.02,6.00,5.90,3.35,5.63,5.63,6.65
22.31,-0.31,-6.97,-0.31,-6.97,6.00,5.87,3.45,5.69,5.69,6.66
22.54,-0.25,-6.91,-0.25,-6.91,6.00,5.85,3.55,5.75,5.75,6.66
22.76,-0.19,-6.85,-0.19,-6.85,6.00,5.82,3.65,5.81,5.81,6.66
22.99,-0.13,-6.78,-0.14,-6.79,6.00,5.79,3.76,5.87,5.86,6.65
23.22,-0.09,-6.74,-0.09,-6.74,6.00,5.77,3.86,5.91,5.91,6.65
23.45,-0.06,-6.71,-0.06,-6.71,6.00,5.74,3.97,5.94,5.94,6.65
23.69,-0.02,-6.68,-0.02,-6.68,6.00,5.71,4.08,5.98,5.98,6.66
23.92,0.02,-6.64,0.03,-6.63,6.00,5.68,4.20,6.02,6.03,6.66
24.16,0.09,-6.57,0.10,-6.57,6.00,5.65,4.31,6.09,6.10,6.67
24.40,0.19,-6.48,0.19,-6.48,6.00,5.63,4.43,6.19,6.19,6.67
24.65,0.28,-6.38,0.28,-6.39,6.00,5.60,4.55,6.28,6.28,6.66
24.89,0.37,-6.29,0.37,-6.30,6.01,5.57,4.67,6.38,6.38,6.66
25.14,0.44,-6.22,0.44,-6.23,6.01,5.54,4.79,6.45,6.45,6.66
25.39,0.49,-6.18,0.49,-6.18,6.01,5.51,4.91,6.50,6.50,6.67
25.65,0.53,-6.14,0.54,-6.13,6.00,5.48,5.04,6.53,6.54,6.67
25.91,0.58,-6.08,0.58,-6.08,5.99,5.45,5.16,6.57,6.57,6.66
26.16,0.64,-6.02,0.64,-6.02,5.97,5.42,5.28,6.61,6.61,6.66
26.43,0.69,-5.97,0.69,-5.96,5.95,5.40,5.41,6.64,6.64,6.66
26.69,0.75,-5.90,0.75,-5.91,5.91,5.37,5.53,6.66,6.66,6.66
26.96,0.80,-5.86,0.80,-5.86,5.87,5.34,5.65,6.67,6.67,6.66
27.23,0.84,-5.82,0.85,-5.82,5.83,5.31,5.77,6.67,6.67,6.66
27.50,0.89,-5.77,0.89,-5.77,5.78,5.28,5.88,6.67,6.66,6.66
27.77,0.93,-5.72,0.93,-5.72,5.72,5.25,5.99,6.65,6.65,6.65
28.05,0.97,-5.68,0.98,-5.67,5.67,5.22,6.10,6.64,6.64,6.65
28.33,1.02,-5.62,1.02,-5.62,5.61,5.19,6.20,6.63,6.64,6.64
28.62,1.08,-5.56,1.08,-5.56,5.56,5.16,6.29,6.64,6.64,6.64
28.90,1.13,-5.51,1.13,-5.51,5.51,5.13,6.38,6.64,6.64,6.64
29.19,1.18,-5.45,1.19,-5.46,5.46,5.10,6.46,6.64,6.64,6.63
29.48,1.24,-5.41,1.24,-5.40,5.41,5.07,6.53,6.65,6.65,6.65
29.78,1.29,-5.35,1.29,-5.35,5.37,5.04,6.59,6.66,6.66,6.64
30.08,1.34,-5.31,1.33,-5.31,5.32,5.01,6.64,6.66,6.66,6.65
30.38,1.36,-5.27,1.36,-5.28,5.28,4.98,6.69,6.64,6.64,6.64
30.68,1.38,-5.25,1.38,-5.25,5.23,4.95,6.72,6.62,6.62,6.63
30.99,1.41,-5.22,1.42,-5.21,5.19,4.92,6.74,6.60,6.61,6.63
31.30,1.47,-5.16,1.47,-5.16,5.14,4.89,6.75,6.61,6.61,6.63
31.61,1.54,-5.09,1.54,-5.09,5.09,4.86,6.75,6.63,6.63,6.63
31.93,1.60,-5.02,1.60,-5.02,5.04,4.83,6.74,6.64,6.64,6.62
32.24,1.65,-4.96,1.65,-4.97,4.98,4.79,6.72,6.64,6.63,6.61
32.57,1.69,-4.93,1.69,-4.93,4.93,4.76,6.68,6.62,6.62,6.62
32.89,1.73,-4.89,1.73,-4.88,4.87,4.73,6.64,6.60,6.60,6.62
33.22,1.78,-4.82,1.78,-4.82,4.81,4.70,6.58,6.59,6.59,6.60
33.55,1.84,-4.76,1.84,-4.76,4.76,4.67,6.52,6.60,6.60,6.60
33.89,1.90,-4.69,1.90,-4.70,4.70,4.64,6.45,6.61,6.60,6.59
34.23,1.95,-4.65,1.95,-4.64,4.66,4.61,6.38,6.61,6.60,6.60
34.57,1.98,-4.60,1.98,-4.60,4.61,4.58,6.29,6.59,6.59,6.58
34.92,2.02,-4.56,2.02,-4.56,4.56,4.55,6.20,6.58,6.58,6.58
35.27,2.05,-4.53,2.05,-4.52,4.52,4.51,6.11,6.57,6.57,6.58
35.62,2.09,-4.48,2.09,-4.49,4.48,4.48,6.01,6.57,6.57,6.57
35.97,2.12,-4.45,2.12,-4.45,4.44,4.45,5.91,6.56,6.56,6.57
36.33,2.15,-4.42,2.16,-4.41,4.41,4.42,5.80,6.56,6.56,6.57
36.70,2.19,-4.37,2.19,-4.37,4.37,4.39,5.70,6.57,6.56,6.56
37.06,2.23,-4.33,2.23,-4.34,4.35,4.35,5.59,6.58,6.57,6.56
37.43,2.26,-4.31,2.27,-4.30,4.32,4.32,5.48,6.58,6.58,6.57
37.81,2.30,-4.27,2.30,-4.27,4.28,4.29,5.37,6.58,6.58,6.57
38.19,2.32,-4.24,2.31,-4.26,4.25,4.26,5.26,6.57,6.56,6.56
38.57,2.33,-4.24,2.33,-4.24,4.22,4.22,5.15,6.55,6.55,6.57
38.95,2.34,-4.23,2.36,-4.21,4.19,4.19,5.05,6.53,6.55,6.57
39.34,2.40,-4.17,2.41,-4.16,4.16,4.16,4.94,6.56,6.56,6.57
39.74,2.47,-4.09,2.46,-4.11,4.12,4.13,4.84,6.59,6.58,6.56
40.14,2.52,-4.05,2.50,-4.06,4.09,4.09,4.74,6.61,6.59,6.57
40.54,2.52,-4.04,2.52,-4.04,4.05,4.06,4.64,6.57,6.57,6.56
40.94,2.52,-4.04,2.54,-4.02,4.01,4.03,4.54,6.53,6.55,6.56
41.35,2.57,-3.98,2.57,-3.98,3.97,3.99,4.44,6.54,6.54,6.55
41.76,2.62,-3.92,2.61,-3.93,3.93,3.96,4.35,6.55,6.54,6.55
42.18,2.66,-3.89,2.66,-3.89,3.89,3.92,4.26,6.55,6.54,6.55
42.60,2.69,-3.84,2.69,-3.84,3.84,3.89,4.17,6.53,6.53,6.53
43.03,2.72,-3.80,2.73,-3.80,3.79,3.85,4.09,6.51,6.52,6.52
43.46,2.77,-3.75,2.77,-3.74,3.73,3.82,4.01,6.51,6.50,6.52
43.90,2.81,-3.68,2.81,-3.68,3.68,3.78,3.93,6.49,6.49,6.49
44.33,2.85,-3.62,2.85,-3.62,3.63,3.75,3.86,6.48,6.49,6.47
44.78,2.89,-3.56,2.89,-3.57,3.59,3.71,3.78,6.48,6.47,6.45
45.23,2.91,-3.54,2.91,-3.53,3.55,3.67,3.71,6.46,6.46,6.45
45.68,2.92,-3.51,2.92,-3.50,3.51,3.64,3.65,6.43,6.43,6.43
46.13,2.93,-3.48,2.94,-3.48,3.47,3.60,3.59,6.40,6.41,6.41
46.60,2.96,-3.45,2.96,-3.44,3.44,3.56,3.53,6.40,6.40,6.41
47.06,2.98,-3.41,2.98,-3.42,3.40,3.52,3.47,6.39,6.38,6.39
47.53,3.00,-3.38,3.00,-3.38,3.37,3.48,3.41,6.37,6.37,6.38
48.01,3.02,-3.36,3.03,-3.34,3.33,3.44,3.36,6.35,6.37,6.38
48.49,3.07,-3.29,3.07,-3.29,3.29,3.40,3.31,6.36,6.36,6.36
48.97,3.12,-3.22,3.10,-3.24,3.24,3.36,3.26,6.36,6.34,6.34
49.46,3.12,-3.20,3.12,-3.20,3.19,3.32,3.22,6.32,6.31,6.32
49.96,3.12,-3.17,3.14,-3.16,3.15,3.28,3.17,6.27,6.30,6.29
50.46,3.17,-3.12,3.17,-3.11,3.12,3.24,3.13,6.29,6.29,6.29
50.96,3.23,-3.05,3.21,-3.07,3.09,3.20,3.09,6.32,6.29,6.28
51.47,3.23,-3.03,3.23,-3.03,3.06,3.16,3.06,6.29,6.29,6.26
51.99,3.23,-3.01,3.24,-3.01,3.03,3.11,3.02,6.26,6.27,6.24
52.51,3.23,-3.01,3.23,-3.01,3.00,3.07,2.99,6.23,6.23,6.24
53.03,3.23,-3.00,3.22,-3.01,2.97,3.02,2.95,6.20,6.19,6.23
53.56,3.23,-2.99,3.24,-2.98,2.93,2.98,2.92,6.16,6.17,6.22
54.10,3.25,-2.95,3.28,-2.92,2.89,2.93,2.89,6.14,6.18,6.20
54.64,3.36,-2.83,3.35,-2.84,2.85,2.89,2.86,6.21,6.20,6.19
55.18,3.43,-2.75,3.40,-2.78,2.81,2.84,2.83,6.24,6.22,6.18
55.74,3.43,-2.73,3.44,-2.73,2.77,2.80,2.80,6.20,6.21,6.16
56.29,3.43,-2.73,3.44,-2.72,2.73,2.75,2.77,6.17,6.17,6.16
56.86,3.43,-2.71,3.43,-2.70,2.71,2.70,2.74,6.14,6.14,6.14
57.42,3.43,-2.68,3.43,-2.69,2.69,2.66,2.71,6.12,6.12,6.11
58.00,3.43,-2.67,3.43,-2.67,2.67,2.61,2.68,6.10,6.10,6.10
58.58,3.43,-2.66,3.43,-2.66,2.66,2.57,2.65,6.09,6.09,6.09
59.16,3.43,-2.64,3.43,-2.64,2.63,2.52,2.62,6.07,6.07,6.07
59.76,3.43,-2.62,3.43,-2.62,2.60,2.47,2.59,6.03,6.03,6.05
60.35,3.43,-2.58,3.43,-2.58,2.56,2.43,2.56,5.99,5.99,6.01
60.96,3.43,-2.54,3.45,-2.52,2.51,2.38,2.52,5.94,5.96,5.98
61.57,3.49,-2.44,3.48,-2.45,2.44,2.34,2.49,5.93,5.92,5.93
62.18,3.53,-2.36,3.51,-2.38,2.37,2.30,2.45,5.91,5.89,5.89
62.80,3.53,-2.31,3.55,-2.29,2.30,2.25,2.41,5.83,5.85,5.84
63.43,3.57,-2.23,3.58,-2.22,2.23,2.21,2.37,5.80,5.81,5.80
64.07,3.63,-2.12,3.61,-2.14,2.16,2.17,2.33,5.79,5.77,5.75
64.71,3.63,-2.08,3.63,-2.08,2.10,2.13,2.29,5.73,5.73,5.71
65.35,3.63,-2.04,3.64,-2.03,2.04,2.09,2.24,5.67,5.67,5.67
66.01,3.63,-1.99,3.63,-1.99,1.98,2.05,2.20,5.62,5.62,5.62
66.67,3.63,-1.94,3.63,-1.94,1.94,2.01,2.15,5.57,5.57,5.57
67.33,3.63,-1.89,3.63,-1.89,1.89,1.98,2.10,5.52,5.52,5.52
68.01,3.63,-1.85,3.63,-1.85,1.84,1.94,2.05,5.47,5.47,5.48
68.69,3.63,-1.80,3.63,-1.80,1.79,1.90,2.00,5.42,5.42,5.43
69.37,3.63,-1.75,3.63,-1.75,1.74,1.87,1.95,5.37,5.37,5.38
70.07,3.63,-1.69,3.63,-1.70,1.69,1.83,1.90,5.32,5.32,5.33
70.77,3.63,-1.65,3.63,-1.65,1.64,1.80,1.85,5.27,5.27,5.28
71.48,3.63,-1.60,3.64,-1.59,1.58,1.76,1.79,5.22,5.22,5.23
72.19,3.63,-1.53,3.63,-1.53,1.54,1.72,1.74,5.17,5.17,5.16
72.91,3.63,-1.48,3.61,-1.50,1.50,1.69,1.68,5.13,5.11,5.11
73.64,3.57,-1.48,3.59,-1.46,1.48,1.65,1.63,5.05,5.06,5.05
74.38,3.53,-1.46,3.55,-1.44,1.47,1.62,1.57,5.00,5.02,4.99
75.12,3.52,-1.41,3.49,-1.44,1.46,1.58,1.52,4.98,4.96,4.93
75.87,3.43,-1.44,3.42,-1.45,1.47,1.55,1.46,4.90,4.89,4.87
76.63,3.32,-1.50,3.33,-1.49,1.48,1.51,1.41,4.80,4.81,4.82
77.40,3.23,-1.54,3.23,-1.54,1.50,1.47,1.35,4.73,4.74,4.77
78.17,3.16,-1.55,3.17,-1.55,1.53,1.43,1.30,4.69,4.70,4.71
78.95,3.12,-1.56,3.13,-1.54,1.55,1.40,1.24,4.67,4.68,4.68
79.74,3.12,-1.50,3.08,-1.54,1.56,1.36,1.19,4.68,4.65,4.62
80.54,3.03,-1.55,3.03,-1.55,1.56,1.32,1.13,4.60,4.59,4.58
81.35,2.95,-1.57,2.97,-1.56,1.56,1.28,1.08,4.51,4.53,4.53
82.16,2.92,-1.56,2.92,-1.56,1.53,1.24,1.02,4.45,4.45,4.48
82.98,2.92,-1.52,2.91,-1.52,1.49,1.20,0.97,4.41,4.40,4.44
83.81,2.92,-1.47,2.93,-1.46,1.44,1.16,0.92,4.36,4.37,4.39
84.65,2.95,-1.39,2.95,-1.39,1.38,1.12,0.87,4.33,4.33,4.34
85.50,2.99,-1.31,2.98,-1.32,1.31,1.08,0.81,4.30,4.29,4.30
86.35,3.02,-1.23,3.02,-1.23,1.24,1.04,0.76,4.26,4.26,4.25
87.22,3.04,-1.16,3.07,-1.13,1.16,1.00,0.71,4.20,4.24,4.20
88.09,3.13,-1.02,3.09,-1.06,1.10,0.96,0.66,4.23,4.19,4.15
88.97,3.11,-0.99,3.09,-1.01,1.04,0.93,0.61,4.15,4.13,4.10
89.86,3.04,-1.01,3.07,-0.98,0.99,0.89,0.56,4.03,4.06,4.05
90.76,3.03,-0.97,3.04,-0.96,0.95,0.85,0.51,3.98,3.98,4.00
91.66,3.03,-0.92,3.02,-0.92,0.90,0.82,0.46,3.93,3.92,3.95
92.58,3.03,-0.86,3.03,-0.87,0.85,0.78,0.41,3.88,3.88,3.89
93.51,3.03,-0.82,3.03,-0.82,0.80,0.75,0.37,3.83,3.82,3.85
94.44,3.03,-0.77,3.04,-0.77,0.73,0.72,0.32,3.77,3.77,3.80
95.39,3.05,-0.71,3.07,-0.68,0.67,0.69,0.27,3.72,3.74,3.76
96.34,3.11,-0.59,3.10,-0.60,0.61,0.67,0.22,3.72,3.71,3.70
97.30,3.16,-0.50,3.13,-0.53,0.55,0.65,0.18,3.72,3.68,3.66
98.28,3.10,-0.51,3.13,-0.48,0.52,0.63,0.13,3.62,3.65,3.61
99.26,3.11,-0.46,3.11,-0.46,0.49,0.61,0.09,3.61,3.60,3.57
100.25,3.07,-0.45,3.05,-0.47,0.49,0.60,0.04,3.56,3.54,3.52
101.25,2.98,-0.50,2.98,-0.49,0.51,0.59,-0.00,3.49,3.49,3.48
102.27,2.88,-0.55,2.89,-0.54,0.55,0.59,-0.05,3.43,3.43,3.43
103.29,2.79,-0.58,2.80,-0.58,0.59,0.59,-0.09,3.38,3.39,3.37
104.32,2.71,-0.63,2.71,-0.63,0.63,0.59,-0.14,3.34,3.33,3.34
105.37,2.64,-0.65,2.61,-0.68,0.65,0.59,-0.18,3.29,3.26,3.29
106.42,2.51,-0.73,2.53,-0.71,0.66,0.59,-0.22,3.18,3.20,3.24
107.48,2.46,-0.73,2.48,-0.70,0.66,0.59,-0.26,3.12,3.14,3.19
108.56,2.49,-0.64,2.47,-0.66,0.64,0.58,-0.30,3.13,3.11,3.13
109.64,2.50,-0.59,2.51,-0.58,0.59,0.56,-0.34,3.09,3.10,3.09
110.74,2.53,-0.50,2.53,-0.50,0.53,0.53,-0.38,3.06,3.06,3.03
111.85,2.58,-0.41,2.55,-0.44,0.44,0.49,-0.42,3.03,2.99,2.99
112.97,2.55,-0.38,2.57,-0.36,0.35,0.43,-0.46,2.90,2.92,2.93
114.10,2.59,-0.29,2.61,-0.28,0.25,0.36,-0.49,2.84,2.86,2.88
115.24,2.67,-0.17,2.66,-0.17,0.16,0.27,-0.53,2.83,2.82,2.84
116.39,2.74,-0.04,2.75,-0.04,0.07,0.18,-0.56,2.81,2.81,2.78
117.55,2.82,0.07,2.81,0.06,-0.01,0.08,-0.59,2.81,2.80,2.75
118.73,2.86,0.15,2.85,0.14,-0.09,-0.03,-0.63,2.77,2.75,2.71
119.92,2.86,0.18,2.87,0.19,-0.18,-0.13,-0.66,2.68,2.69,2.68
121.12,2.87,0.23,2.88,0.24,-0.26,-0.24,-0.68,2.61,2.62,2.64
122.33,2.92,0.31,2.91,0.30,-0.35,-0.34,-0.71,2.58,2.57,2.61
123.55,2.97,0.38,2.97,0.39,-0.43,-0.44,-0.74,2.54,2.54,2.59
124.79,3.03,0.48,3.04,0.49,-0.52,-0.53,-0.76,2.51,2.53,2.56
126.03,3.13,0.61,3.13,0.60,-0.60,-0.62,-0.79,2.53,2.52,2.52
127.29,3.21,0.71,3.21,0.71,-0.69,-0.71,-0.81,2.52,2.52,2.50
128.57,3.29,0.83,3.28,0.81,-0.77,-0.79,-0.83,2.52,2.51,2.47
129.85,3.32,0.88,3.32,0.88,-0.85,-0.86,-0.85,2.48,2.47,2.44
131.15,3.33,0.92,3.33,0.93,-0.91,-0.94,-0.87,2.42,2.43,2.41
132.46,3.33,0.95,3.34,0.96,-0.95,-1.00,-0.89,2.38,2.38,2.38
133.79,3.34,0.99,3.34,0.98,-0.99,-1.07,-0.90,2.35,2.34,2.35
135.12,3.34,1.02,3.34,1.01,-1.03,-1.13,-0.92,2.31,2.31,2.32
136.48,3.34,1.04,3.34,1.05,-1.06,-1.18,-0.93,2.28,2.29,2.30
137.84,3.35,1.08,3.34,1.07,-1.09,-1.23,-0.95,2.26,2.25,2.27
139.22,3.35,1.12,3.36,1.12,-1.13,-1.29,-0.96,2.22,2.22,2.24
140.61,3.36,1.16,3.38,1.17,-1.17,-1.33,-0.97,2.19,2.21,2.20
142.02,3.43,1.24,3.41,1.23,-1.22,-1.38,-0.99,2.21,2.19,2.19
143.44,3.44,1.28,3.44,1.28,-1.27,-1.42,-1.00,2.17,2.17,2.16
144.87,3.45,1.33,3.45,1.33,-1.32,-1.46,-1.01,2.13,2.14,2.12
146.32,3.45,1.37,3.45,1.36,-1.37,-1.50,-1.03,2.08,2.08,2.08
147.78,3.45,1.40,3.45,1.41,-1.42,-1.53,-1.04,2.03,2.03,2.05
149.26,3.45,1.45,3.45,1.45,-1.47,-1.56,-1.05,1.98,1.98,2.00
150.75,3.45,1.52,3.46,1.52,-1.52,-1.60,-1.07,1.93,1.94,1.94
152.26,3.45,1.58,3.45,1.58,-1.56,-1.63,-1.08,1.89,1.89,1.87
153.78,3.44,1.64,3.42,1.62,-1.61,-1.65,-1.09,1.83,1.81,1.80
155.32,3.38,1.65,3.38,1.65,-1.66,-1.68,-1.11,1.72,1.72,1.73
156.88,3.31,1.66,3.33,1.67,-1.69,-1.70,-1.12,1.62,1.63,1.66
158.44,3.27,1.70,3.28,1.71,-1.72,-1.73,-1.14,1.55,1.56,1.57
160.03,3.25,1.76,3.25,1.75,-1.72,-1.75,-1.16,1.53,1.52,1.49
161.63,3.21,1.79,3.20,1.78,-1.72,-1.76,-1.18,1.49,1.48,1.42
163.24,3.13,1.77,3.12,1.76,-1.71,-1.78,-1.20,1.42,1.41,1.36
164.88,3.01,1.70,3.02,1.71,-1.71,-1.80,-1.22,1.30,1.31,1.31
166.53,2.92,1.66,2.92,1.66,-1.71,-1.81,-1.24,1.21,1.21,1.26
168.19,2.86,1.64,2.86,1.64,-1.72,-1.83,-1.26,1.14,1.14,1.22
169.87,2.83,1.65,2.86,1.67,-1.73,-1.84,-1.28,1.10,1.13,1.18
171.57,2.90,1.73,2.90,1.73,-1.75,-1.85,-1.31,1.15,1.15,1.17
173.29,2.97,1.82,2.95,1.80,-1.77,-1.86,-1.33,1.20,1.18,1.15
175.02,3.01,1.87,3.00,1.86,-1.80,-1.87,-1.36,1.21,1.20,1.14
176.77,3.00,1.87,3.01,1.88,-1.83,-1.87,-1.39,1.17,1.18,1.13
178.54,3.00,1.88,3.01,1.88,-1.86,-1.88,-1.42,1.14,1.15,1.13
180.32,3.01,1.88,3.01,1.87,-1.89,-1.88,-1.45,1.12,1.12,1.13
182.13,3.01,1.87,3.01,1.87,-1.91,-1.88,-1.48,1.10,1.10,1.14
183.95,3.02,1.89,3.02,1.89,-1.93,-1.89,-1.51,1.09,1.09,1.13
185.79,3.03,1.90,3.05,1.93,-1.94,-1.89,-1.54,1.09,1.11,1.13
187.65,3.08,1.97,3.09,1.98,-1.96,-1.89,-1.58,1.12,1.12,1.11
189.52,3.14,2.04,3.11,2.02,-1.99,-1.88,-1.61,1.15,1.12,1.10
191.42,3.12,2.04,3.12,2.05,-2.03,-1.88,-1.65,1.09,1.09,1.08
193.33,3.10,2.04,3.12,2.06,-2.06,-1.88,-1.69,1.04,1.05,1.06
195.27,3.11,2.07,3.11,2.07,-2.10,-1.87,-1.73,1.01,1.01,1.04
197.22,3.12,2.10,3.12,2.10,-2.12,-1.87,-1.77,1.00,1.00,1.02
199.19,3.13,2.14,3.13,2.13,-2.13,-1.86,-1.81,1.00,1.00,0.99
201.18,3.14,2.16,3.15,2.17,-2.13,-1.85,-1.85,1.01,1.01,0.98
203.19,3.14,2.18,3.14,2.18,-2.13,-1.84,-1.89,1.01,1.01,0.96
205.23,3.12,2.18,3.09,2.15,-2.12,-1.83,-1.93,1.00,0.97,0.94
207.28,3.01,2.08,3.03,2.11,-2.11,-1.82,-1.97,0.90,0.91,0.93
209.35,2.95,2.04,2.97,2.07,-2.10,-1.81,-2.00,0.85,0.87,0.91
211.44,2.94,2.07,2.94,2.05,-2.09,-1.80,-2.04,0.85,0.84,0.87
213.56,2.94,2.07,2.93,2.07,-2.08,-1.79,-2.08,0.86,0.85,0.87
215.69,2.93,2.08,2.93,2.08,-2.08,-1.78,-2.12,0.85,0.86,0.86
217.85,2.93,2.09,2.93,2.09,-2.08,-1.76,-2.15,0.85,0.85,0.84
220.03,2.93,2.10,2.93,2.10,-2.09,-1.75,-2.19,0.84,0.84,0.83
222.23,2.92,2.11,2.92,2.11,-2.10,-1.73,-2.22,0.82,0.82,0.81
224.45,2.92,2.10,2.92,2.11,-2.11,-1.71,-2.25,0.81,0.81,0.82
226.70,2.92,2.11,2.92,2.11,-2.11,-1.70,-2.28,0.81,0.81,0.82
228.96,2.93,2.11,2.93,2.10,-2.11,-1.68,-2.30,0.82,0.82,0.82
231.25,2.93,2.10,2.94,2.10,-2.10,-1.66,-2.32,0.83,0.84,0.83
233.57,2.94,2.10,2.95,2.10,-2.09,-1.64,-2.34,0.85,0.86,0.84
235.90,2.96,2.11,2.94,2.09,-2.07,-1.62,-2.35,0.89,0.87,0.85
238.26,2.94,2.08,2.93,2.06,-2.06,-1.60,-2.36,0.89,0.88,0.87
240.64,2.90,2.01,2.91,2.03,-2.04,-1.58,-2.37,0.86,0.87,0.89
243.05,2.90,1.98,2.91,1.99,-2.02,-1.56,-2.37,0.88,0.88,0.92
245.48,2.92,1.98,2.92,1.98,-2.01,-1.54,-2.37,0.91,0.91,0.94
247.93,2.95,1.98,2.95,1.98,-1.98,-1.52,-2.36,0.97,0.96,0.97
250.41,2.97,1.99,2.97,1.98,-1.96,-1.50,-2.34,1.01,1.01,0.98
252.92,2.99,1.98,2.98,1.96,-1.94,-1.47,-2.33,1.05,1.04,1.02
255.45,2.97,1.93,2.96,1.93,-1.92,-1.45,-2.30,1.05,1.05,1.04
258.00,2.93,1.87,2.94,1.88,-1.89,-1.42,-2.28,1.04,1.05,1.06
260.58,2.91,1.84,2.92,1.84,-1.85,-1.40,-2.25,1.06,1.07,1.07
263.19,2.91,1.80,2.91,1.81,-1.81,-1.37,-2.21,1.10,1.10,1.11
265.82,2.91,1.79,2.89,1.77,-1.76,-1.35,-2.17,1.15,1.13,1.12
268.48,2.87,1.73,2.87,1.72,-1.71,-1.32,-2.13,1.16,1.15,1.15
271.16,2.82,1.64,2.83,1.66,-1.67,-1.30,-2.08,1.15,1.17,1.18
273.87,2.80,1.61,2.81,1.61,-1.62,-1.27,-2.03,1.18,1.19,1.19
276.61,2.80,1.57,2.80,1.57,-1.57,-1.24,-1.97,1.23,1.22,1.23
279.38,2.80,1.55,2.78,1.52,-1.53,-1.22,-1.91,1.28,1.25,1.25
282.17,2.74,1.46,2.75,1.47,-1.47,-1.19,-1.85,1.27,1.28,1.28
284.99,2.71,1.40,2.73,1.42,-1.42,-1.16,-1.79,1.29,1.31,1.31
287.84,2.71,1.38,2.71,1.38,-1.37,-1.13,-1.72,1.34,1.34,1.33
290.72,2.72,1.36,2.69,1.33,-1.32,-1.10,-1.66,1.40,1.38,1.36
293.63,2.65,1.26,2.66,1.27,-1.26,-1.07,-1.59,1.39,1.40,1.39
296.57,2.61,1.19,2.61,1.19,-1.21,-1.04,-1.51,1.40,1.41,1.43
299.53,2.57,1.12,2.58,1.14,-1.15,-1.01,-1.44,1.42,1.43,1.45
302.53,2.57,1.10,2.57,1.10,-1.10,-0.98,-1.37,1.47,1.48,1.47
305.55,2.58,1.07,2.56,1.05,-1.04,-0.95,-1.29,1.54,1.52,1.51
308.61,2.53,1.00,2.54,1.01,-0.99,-0.92,-1.22,1.54,1.55,1.53
311.69,2.50,0.94,2.50,0.94,-0.94,-0.88,-1.14,1.56,1.56,1.56
314.81,2.47,0.89,2.46,0.88,-0.90,-0.85,-1.06,1.57,1.56,1.58
317.96,2.42,0.82,2.43,0.83,-0.86,-0.82,-0.99,1.56,1.57,1.60
321.14,2.40,0.79,2.41,0.80,-0.81,-0.78,-0.91,1.59,1.60,1.61
324.35,2.40,0.78,2.40,0.78,-0.77,-0.75,-0.83,1.63,1.63,1.62
327.59,2.40,0.76,2.38,0.75,-0.73,-0.72,-0.75,1.67,1.66,1.64
330.87,2.36,0.71,2.36,0.71,-0.69,-0.68,-0.68,1.67,1.68,1.65
334.18,2.31,0.65,2.33,0.66,-0.65,-0.65,-0.60,1.66,1.68,1.66
337.52,2.30,0.63,2.28,0.60,-0.62,-0.61,-0.52,1.68,1.66,1.67
340.90,2.23,0.54,2.24,0.55,-0.58,-0.57,-0.44,1.65,1.66,1.69
344.30,2.19,0.49,2.21,0.51,-0.54,-0.54,-0.37,1.66,1.67,1.70
347.75,2.19,0.50,2.20,0.50,-0.49,-0.50,-0.29,1.70,1.71,1.69
351.23,2.20,0.50,2.19,0.49,-0.46,-0.46,-0.21,1.74,1.73,1.70
354.74,2.18,0.48,2.15,0.45,-0.42,-0.43,-0.13,1.76,1.73,1.70
358.28,2.07,0.36,2.09,0.38,-0.39,-0.39,-0.06,1.68,1.70,1.71
361.87,2.02,0.31,2.04,0.33,-0.36,-0.35,0.02,1.66,1.68,1.71
365.49,2.01,0.30,2.01,0.30,-0.32,-0.31,0.10,1.69,1.69,1.71
369.14,2.02,0.32,2.01,0.30,-0.29,-0.27,0.17,1.73,1.72,1.70
372.83,1.99,0.29,1.98,0.28,-0.26,-0.23,0.25,1.73,1.73,1.70
376.56,1.95,0.25,1.94,0.24,-0.23,-0.19,0.32,1.72,1.71,1.70
380.33,1.87,0.16,1.89,0.18,-0.21,-0.14,0.40,1.66,1.68,1.71
384.13,1.85,0.15,1.86,0.16,-0.19,-0.10,0.48,1.66,1.67,1.71
387.97,1.85,0.16,1.85,0.16,-0.17,-0.06,0.55,1.68,1.68,1.69
391.85,1.86,0.18,1.86,0.17,-0.15,-0.01,0.63,1.72,1.71,1.68
395.77,1.85,0.16,1.83,0.15,-0.12,0.03,0.70,1.73,1.72,1.69
399.73,1.79,0.11,1.78,0.10,-0.09,0.08,0.77,1.70,1.70,1.68
403.72,1.71,0.03,1.73,0.05,-0.05,0.12,0.85,1.66,1.68,1.68
407.76,1.66,-0.01,1.67,0.01,-0.01,0.17,0.92,1.65,1.66,1.67
411.84,1.65,-0.01,1.63,-0.04,0.04,0.22,0.99,1.69,1.67,1.67
415.96,1.58,-0.08,1.58,-0.08,0.09,0.27,1.06,1.67,1.68,1.66
420.12,1.52,-0.14,1.52,-0.14,0.14,0.31,1.14,1.66,1.67,1.66
424.32,1.46,-0.20,1.45,-0.21,0.19,0.36,1.20,1.65,1.64,1.66
428.56,1.40,-0.27,1.41,-0.26,0.23,0.42,1.27,1.63,1.64,1.67
432.85,1.38,-0.30,1.39,-0.28,0.27,0.47,1.34,1.65,1.66,1.68
437.18,1.40,-0.29,1.39,-0.30,0.30,0.52,1.41,1.70,1.70,1.69
441.55,1.42,-0.31,1.40,-0.32,0.34,0.57,1.47,1.76,1.74,1.73
445.96,1.40,-0.36,1.41,-0.34,0.37,0.63,1.53,1.77,1.78,1.76
450.42,1.40,-0.39,1.40,-0.39,0.40,0.68,1.59,1.80,1.80,1.79
454.93,1.40,-0.43,1.39,-0.44,0.44,0.74,1.65,1.84,1.83,1.84
459.48,1.38,-0.50,1.40,-0.48,0.48,0.80,1.70,1.86,1.88,1.88
464.07,1.41,-0.52,1.41,-0.53,0.52,0.86,1.76,1.93,1.93,1.93
468.71,1.44,-0.55,1.40,-0.58,0.57,0.92,1.81,2.01,1.98,1.99
473.40,1.38,-0.65,1.41,-0.63,0.62,0.98,1.85,2.00,2.03,2.03
478.13,1.39,-0.70,1.41,-0.68,0.67,1.04,1.90,2.06,2.08,2.09
482.91,1.43,-0.70,1.41,-0.72,0.72,1.10,1.94,2.15,2.13,2.13
487.74,1.40,-0.77,1.41,-0.77,0.77,1.17,1.98,2.17,2.17,2.17
492.62,1.39,-0.83,1.38,-0.83,0.81,1.23,2.01,2.20,2.19,2.22
497.55,1.31,-0.93,1.32,-0.92,0.87,1.30,2.04,2.18,2.19,2.24
502.52,1.27,-1.00,1.28,-0.99,0.95,1.37,2.07,2.22,2.22,2.27
507.55,1.20,-1.08,1.22,-1.05,1.07,1.44,2.09,2.27,2.30,2.28
512.62,1.16,-1.13,1.13,-1.16,1.24,1.51,2.12,2.41,2.38,2.29
517.75,1.00,-1.30,0.98,-1.31,1.47,1.58,2.13,2.47,2.45,2.30
522.93,0.71,-1.58,0.73,-1.55,1.72,1.65,2.15,2.43,2.46,2.29
528.16,0.41,-1.84,0.36,-1.90,1.99,1.72,2.16,2.40,2.35,2.26
533.44,-0.06,-2.28,-0.07,-2.30,2.25,1.80,2.17,2.19,2.17,2.22
538.77,-0.52,-2.71,-0.47,-2.66,2.49,1.87,2.18,1.97,2.02,2.19
544.16,-0.81,-2.95,-0.76,-2.90,2.70,1.95,2.19,1.89,1.94,2.14
549.60,-0.90,-2.99,-0.91,-3.01,2.87,2.02,2.19,1.97,1.95,2.09
555.10,-0.93,-2.96,-0.96,-2.99,2.98,2.10,2.19,2.05,2.02,2.03
560.65,-1.00,-2.98,-0.98,-2.96,3.03,2.18,2.19,2.03,2.05,1.98
