frequency,raw
20.00,-0.25
20.20,-0.25
20.40,-0.25
20.61,-0.25
20.81,-0.25
21.02,-0.25
21.23,-0.25
21.44,-0.25
21.66,-0.25
21.87,-0.25
22.09,-0.25
22.31,-0.25
22.54,-0.25
22.76,-0.25
22.99,-0.25
23.22,-0.25
23.45,-0.25
23.69,-0.25
23.92,-0.25
24.16,-0.25
24.40,-0.25
24.65,-0.25
24.89,-0.25
25.14,-0.26
25.39,-0.29
25.65,-0.32
25.91,-0.34
26.16,-0.37
26.43,-0.39
26.69,-0.41
26.96,-0.44
27.23,-0.54
27.50,-0.66
27.77,-0.77
28.05,-0.87
28.33,-0.90
28.62,-0.93
28.90,-0.95
29.19,-0.97
29.48,-0.98
29.78,-1.00
30.08,-1.04
30.38,-1.16
30.68,-1.28
30.99,-1.40
31.30,-1.36
31.61,-1.30
31.93,-1.24
32.24,-1.34
32.57,-1.48
32.89,-1.61
33.22,-1.62
33.55,-1.56
33.89,-1.50
34.23,-1.49
34.57,-1.50
34.92,-1.52
35.27,-1.66
35.62,-1.84
35.97,-2.02
36.33,-1.93
36.70,-1.81
37.06,-1.69
37.43,-1.51
37.81,-1.32
38.19,-1.19
38.57,-1.12
38.95,-1.05
39.34,-1.10
39.74,-1.17
40.14,-1.20
40.54,-1.16
40.94,-1.12
41.35,-1.00
41.76,-0.86
42.18,-0.82
42.60,-0.89
43.03,-0.93
43.46,-0.70
43.90,-0.47
44.33,-0.26
44.78,-0.05
45.23,0.10
45.68,0.21
46.13,0.34
46.60,0.49
47.06,0.64
47.53,0.70
48.01,0.76
48.49,0.74
48.97,0.72
49.46,0.74
49.96,0.76
50.46,0.70
50.96,0.63
51.47,0.56
51.99,0.50
52.51,0.39
53.03,0.29
53.56,0.26
54.10,0.22
54.64,0.12
55.18,0.05
55.74,0.06
56.29,0.09
56.86,0.13
57.42,0.09
58.00,0.02
58.58,0.30
59.16,0.57
59.76,0.81
60.35,1.02
60.96,1.20
61.57,1.26
62.18,1.30
62.80,1.32
63.43,1.24
64.07,1.12
64.71,1.03
65.35,0.99
66.01,1.00
66.67,1.00
67.33,1.07
68.01,1.22
68.69,1.38
69.37,1.50
70.07,1.59
70.77,1.66
71.48,1.68
72.19,1.68
72.91,1.68
73.64,1.68
74.38,1.68
75.12,1.67
75.87,1.61
76.63,1.59
77.40,1.54
78.17,1.49
78.95,1.49
79.74,1.49
80.54,1.49
81.35,1.54
82.16,1.65
82.98,1.83
83.81,1.96
84.65,2.05
85.50,2.12
86.35,2.16
87.22,2.17
88.09,2.21
88.97,2.26
89.86,2.26
90.76,2.26
91.66,2.26
92.58,2.27
93.51,2.27
94.44,2.27
95.39,2.31
96.34,2.38
97.30,2.36
98.28,2.34
99.26,2.33
100.25,2.31
101.25,2.29
102.27,2.28
103.29,2.27
104.32,2.25
105.37,2.22
106.42,2.20
107.48,2.18
108.56,2.15
109.64,2.14
110.74,2.12
111.85,2.02
112.97,1.99
114.10,1.98
115.24,1.98
116.39,1.98
117.55,1.98
118.73,1.99
119.92,2.00
121.12,1.94
122.33,1.91
123.55,1.91
124.79,1.93
126.03,1.95
127.29,1.94
128.57,1.89
129.85,1.86
131.15,1.87
132.46,1.85
133.79,1.78
135.12,1.76
136.48,1.77
137.84,1.79
139.22,1.79
140.61,1.79
142.02,1.79
143.44,1.80
144.87,1.81
146.32,1.71
147.78,1.60
149.26,1.59
150.75,1.60
152.26,1.54
153.78,1.49
155.32,1.45
156.88,1.34
158.44,1.20
160.03,1.05
161.63,0.96
163.24,1.01
164.88,1.10
166.53,1.27
168.19,1.39
169.87,1.49
171.57,1.58
173.29,1.64
175.02,1.65
176.77,1.61
178.54,1.55
180.32,1.56
182.13,1.58
183.95,1.54
185.79,1.50
187.65,1.50
189.52,1.52
191.42,1.47
193.33,1.43
195.27,1.39
197.22,1.38
199.19,1.39
201.18,1.40
203.19,1.40
205.23,1.41
207.28,1.41
209.35,1.40
211.44,1.32
213.56,1.30
215.69,1.32
217.85,1.31
220.03,1.24
222.23,1.15
224.45,1.09
226.70,1.09
228.96,1.10
231.25,1.10
233.57,1.04
235.90,0.96
238.26,0.95
240.64,0.97
243.05,0.98
245.48,1.02
247.93,1.05
250.41,0.88
252.92,0.85
255.45,0.86
258.00,0.82
260.58,0.76
263.19,0.71
265.82,0.61
268.48,0.60
271.16,0.55
273.87,0.51
276.61,0.45
279.38,0.40
282.17,0.27
284.99,0.15
287.84,0.13
290.72,0.06
293.63,0.02
296.57,-0.01
299.53,0.01
302.53,-0.07
305.55,-0.18
308.61,-0.26
311.69,-0.26
314.81,-0.30
317.96,-0.34
321.14,-0.39
324.35,-0.44
327.59,-0.45
330.87,-0.53
334.18,-0.59
337.52,-0.64
340.90,-0.66
344.30,-0.70
347.75,-0.75
351.23,-0.81
354.74,-0.83
358.28,-0.85
361.87,-0.98
365.49,-1.05
369.14,-1.11
372.83,-1.19
376.56,-1.32
380.33,-1.30
384.13,-1.31
387.97,-1.43
391.85,-1.58
395.77,-1.63
399.73,-1.64
403.72,-1.70
407.76,-1.73
411.84,-1.81
415.96,-1.87
420.12,-1.93
424.32,-2.02
428.56,-1.99
432.85,-1.97
437.18,-2.05
441.55,-2.04
445.96,-1.97
450.42,-1.91
454.93,-1.98
459.48,-2.04
464.07,-1.96
468.71,-1.92
473.40,-1.93
478.13,-1.92
482.91,-1.93
487.74,-1.92
492.62,-1.94
497.55,-1.91
502.52,-1.89
507.55,-1.93
512.62,-1.96
517.75,-1.96
522.93,-1.96
528.16,-1.97
533.44,-1.98
538.77,-2.03
544.16,-2.14
549.60,-2.19
555.10,-2.24
560.65,-2.30
566.25,-2.35
571.92,-2.44
577.64,-2.51
583.41,-2.54
589.25,-2.56
595.14,-2.65
601.09,-2.75
607.10,-2.80
613.17,-2.82
619.30,-2.82
625.50,-2.79
631.75,-2.77
638.07,-2.73
644.45,-2.74
650.89,-2.74
657.40,-2.70
663.98,-2.59
670.62,-2.43
677.32,-2.31
684.10,-2.18
690.94,-2.08
697.85,-1.98
704.83,-1.91
711.87,-1.86
718.99,-1.77
726.18,-1.75
733.44,-1.74
740.78,-1.72
748.19,-1.74
755.67,-1.77
763.23,-1.79
770.86,-1.81
778.57,-1.82
786.35,-1.77
794.22,-1.68
802.16,-1.58
810.18,-1.46
818.28,-1.43
826.46,-1.43
834.73,-1.43
843.08,-1.41
851.51,-1.33
860.02,-1.26
868.62,-1.25
877.31,-1.26
886.08,-1.21
894.94,-1.25
903.89,-1.28
912.93,-1.28
922.06,-1.20
931.28,-1.18
940.59,-1.16
950.00,-1.08
959.50,-0.92
969.09,-0.82
978.78,-0.65
988.57,-0.56
998.46,-0.09
1008.44,0.29
1018.53,0.49
1028.71,0.49
1039.00,0.32
1049.39,0.02
1059.88,-0.51
1070.48,-0.96
1081.19,-0.87
1092.00,-0.67
1102.92,-0.41
1113.95,-0.38
1125.09,-0.93
1136.34,-1.49
1147.70,-2.39
1159.18,-2.63
1170.77,-2.62
1182.48,-2.55
1194.30,-2.51
1206.25,-2.41
1218.31,-2.26
1230.49,-2.13
1242.80,-2.11
1255.22,-1.99
1267.78,-1.85
1280.45,-1.75
1293.26,-1.65
1306.19,-1.62
1319.25,-1.60
1332.45,-1.55
1345.77,-1.55
1359.23,-1.59
1372.82,-1.59
1386.55,-1.55
1400.41,-1.50
1414.42,-1.31
1428.56,-1.04
1442.85,-0.75
1457.28,-0.62
1471.85,-0.52
1486.57,-0.42
1501.43,-0.33
1516.45,-0.28
1531.61,-0.22
1546.93,-0.06
1562.40,0.14
1578.02,0.33
1593.80,0.46
1609.74,0.62
1625.84,0.64
1642.10,0.67
1658.52,0.83
1675.10,0.99
1691.85,1.13
1708.77,1.17
1725.86,1.19
1743.12,1.34
1760.55,1.50
1778.15,1.76
1795.94,1.94
1813.90,2.03
1832.03,2.14
1850.36,2.26
1868.86,2.38
1887.55,2.51
1906.42,2.71
1925.49,2.86
1944.74,2.84
1964.19,2.88
1983.83,2.99
2003.67,3.07
2023.71,3.17
2043.94,3.20
2064.38,3.16
2085.03,3.17
2105.88,3.13
2126.94,3.20
2148.20,3.40
2169.69,3.57
2191.38,3.63
2213.30,3.68
2235.43,3.71
2257.78,3.82
2280.36,3.99
2303.17,4.16
2326.20,4.39
2349.46,4.66
2372.95,4.89
2396.68,4.92
2420.65,4.82
2444.86,4.84
2469.31,4.87
2494.00,4.85
2518.94,4.74
2544.13,4.80
2569.57,4.88
2595.27,4.90
2621.22,5.04
2647.43,5.27
2673.90,5.54
2700.64,5.81
2727.65,6.13
2754.93,6.39
2782.48,6.65
2810.30,6.89
2838.40,7.09
2866.79,7.25
2895.46,7.43
2924.41,7.68
2953.65,7.96
2983.19,8.19
3013.02,8.47
3043.15,8.68
3073.58,8.84
3104.32,9.00
3135.36,9.21
3166.72,9.29
3198.38,9.32
3230.37,9.54
3262.67,9.77
3295.30,9.89
3328.25,9.96
3361.53,10.04
3395.15,10.07
3429.10,10.08
3463.39,10.09
3498.03,10.08
3533.01,10.08
3568.34,10.02
3604.02,9.94
3640.06,9.77
3676.46,9.51
3713.22,9.23
3750.36,8.94
3787.86,8.64
3825.74,8.44
3864.00,8.21
3902.64,8.00
3941.66,7.80
3981.08,7.64
4020.89,7.54
4061.10,7.26
4101.71,6.89
4142.73,6.59
4184.15,6.42
4226.00,6.32
4268.26,6.07
4310.94,5.83
4354.05,5.70
4397.59,5.42
4441.56,5.39
4485.98,5.45
4530.84,5.42
4576.15,5.18
4621.91,4.90
4668.13,4.66
4714.81,4.46
4761.96,4.32
4809.58,4.19
4857.67,4.07
4906.25,3.99
4955.31,3.77
5004.87,3.53
5054.91,3.36
5105.46,3.26
5156.52,3.21
5208.08,3.24
5260.16,3.35
5312.77,3.41
5365.89,3.41
5419.55,3.47
5473.75,3.48
5528.49,3.44
5583.77,3.33
5639.61,3.09
5696.00,3.00
5752.96,3.02
5810.49,3.14
5868.60,3.33
5927.28,3.33
5986.56,3.51
6046.42,3.53
6106.89,4.26
6167.96,4.52
6229.64,4.56
6291.93,4.59
6354.85,4.30
6418.40,4.34
6482.58,4.46
6547.41,4.07
6612.88,3.17
6679.01,2.41
6745.80,2.26
6813.26,2.30
6881.39,2.09
6950.21,2.24
7019.71,2.38
7089.91,2.17
7160.81,1.92
7232.41,1.61
7304.74,1.02
7377.79,0.23
7451.56,-0.39
7526.08,-1.38
7601.34,-1.50
7677.35,-0.86
7754.13,-0.84
7831.67,-1.07
7909.98,-0.93
7989.08,-0.78
8068.98,-0.83
8149.67,-0.93
8231.16,-0.83
8313.47,-0.39
8396.61,-0.05
8480.57,0.20
8565.38,0.25
8651.03,0.27
8737.54,0.28
8824.92,-0.02
8913.17,0.38
9002.30,0.68
9092.32,0.82
9183.25,1.18
9275.08,1.54
9367.83,1.75
9461.51,1.68
9556.12,1.36
9651.68,0.59
9748.20,-0.05
9845.68,-0.99
9944.14,-1.80
10043.58,-2.64
10144.02,-3.50
10245.46,-4.44
10347.91,-5.26
10451.39,-5.93
10555.91,-6.95
10661.46,-8.28
10768.08,-9.45
10875.76,-9.68
10984.52,-9.09
11094.36,-8.00
11205.31,-6.69
11317.36,-5.28
11430.53,-3.96
11544.84,-2.84
11660.29,-1.90
11776.89,-1.10
11894.66,-0.42
12013.60,-0.38
12133.74,-0.56
12255.08,-0.85
12377.63,-1.18
12501.41,-1.54
12626.42,-2.15
12752.68,-2.66
12880.21,-3.40
13009.01,-4.29
13139.10,-4.85
13270.49,-5.14
13403.20,-4.92
13537.23,-5.14
13672.60,-5.05
13809.33,-5.19
13947.42,-5.29
14086.90,-5.39
14227.77,-5.58
14370.04,-5.50
14513.74,-5.11
14658.88,-5.49
14805.47,-6.50
14953.52,-7.06
15103.06,-8.40
15254.09,-9.90
15406.63,-11.34
15560.70,-12.93
15716.30,-13.81
15873.47,-14.12
16032.20,-13.87
16192.52,-12.69
16354.45,-11.32
16517.99,-11.11
16683.17,-11.37
16850.01,-11.93
17018.51,-12.45
17188.69,-13.36
17360.58,-13.79
17534.18,-14.71
17709.53,-15.11
17886.62,-14.82
18065.49,-14.08
18246.14,-13.29
18428.60,-12.44
18612.89,-12.10
18799.02,-12.49
18987.01,-13.20
19176.88,-13.97
19368.65,-14.59
19562.33,-14.21
19757.96,-12.63
19955.54,-13.33
