frequency,raw,smoothed,error,error_smoothed,equalization,parametric_eq,fixed_band_eq,equalized_raw,equalized_smoothed,target
20.00,-8.96,-8.96,-13.95,-13.95,6.00,6.39,2.75,-2.96,-2.96,4.99
20.20,-8.88,-8.88,-13.90,-13.90,6.00,6.39,2.83,-2.88,-2.88,5.01
20.40,-8.80,-8.80,-13.85,-13.85,6.00,6.39,2.91,-2.80,-2.80,5.04
20.61,-8.72,-8.72,-13.79,-13.79,6.00,6.38,3.00,-2.72,-2.72,5.06
20.81,-8.64,-8.64,-13.74,-13.74,6.00,6.38,3.08,-2.64,-2.64,5.09
21.02,-8.56,-8.56,-13.69,-13.68,6.00,6.37,3.17,-2.56,-2.56,5.12
21.23,-8.47,-8.48,-13.61,-13.61,6.00,6.37,3.26,-2.47,-2.48,5.13
21.44,-8.39,-8.39,-13.53,-13.53,6.00,6.36,3.35,-2.39,-2.39,5.14
21.66,-8.30,-8.31,-13.46,-13.45,6.00,6.36,3.45,-2.30,-2.31,5.15
21.87,-8.22,-8.22,-13.37,-13.37,6.00,6.36,3.55,-2.22,-2.22,5.15
22.09,-8.13,-8.13,-13.29,-13.29,6.00,6.35,3.65,-2.13,-2.13,5.16
22.31,-8.04,-8.04,-13.20,-13.20,6.00,6.35,3.75,-2.04,-2.04,5.16
22.54,-7.95,-7.95,-13.11,-13.11,6.00,6.34,3.86,-1.95,-1.95,5.16
22.76,-7.86,-7.86,-13.02,-13.02,6.00,6.34,3.97,-1.86,-1.86,5.16
22.99,-7.77,-7.78,-12.92,-12.93,6.00,6.33,4.08,-1.77,-1.78,5.15
23.22,-7.69,-7.69,-12.84,-12.84,6.00,6.32,4.20,-1.69,-1.69,5.15
23.45,-7.60,-7.60,-12.75,-12.74,6.00,6.32,4.31,-1.60,-1.60,5.15
23.69,-7.50,-7.51,-12.65,-12.65,6.00,6.31,4.43,-1.50,-1.51,5.15
23.92,-7.41,-7.41,-12.56,-12.56,6.00,6.31,4.55,-1.41,-1.41,5.14
24.16,-7.32,-7.32,-12.48,-12.47,6.00,6.30,4.68,-1.32,-1.32,5.15
24.40,-7.22,-7.22,-12.37,-12.37,6.00,6.30,4.80,-1.22,-1.22,5.15
24.65,-7.12,-7.13,-12.27,-12.27,6.00,6.29,4.93,-1.12,-1.13,5.14
24.89,-7.03,-7.03,-12.17,-12.17,6.00,6.28,5.06,-1.03,-1.03,5.14
25.14,-6.93,-6.93,-12.07,-12.07,6.00,6.28,5.20,-0.93,-0.93,5.14
25.39,-6.83,-6.84,-11.97,-11.97,6.00,6.27,5.33,-0.83,-0.84,5.14
25.65,-6.74,-6.74,-11.88,-11.87,6.00,6.27,5.46,-0.74,-0.74,5.14
25.91,-6.64,-6.65,-11.77,-11.78,6.00,6.26,5.60,-0.64,-0.65,5.13
26.16,-6.55,-6.55,-11.68,-11.68,6.00,6.25,5.73,-0.55,-0.55,5.13
26.43,-6.46,-6.46,-11.59,-11.58,6.00,6.25,5.87,-0.46,-0.46,5.12
26.69,-6.36,-6.37,-11.49,-11.49,6.00,6.24,6.00,-0.36,-0.37,5.12
26.96,-6.27,-6.27,-11.40,-11.40,6.00,6.23,6.13,-0.27,-0.27,5.12
27.23,-6.18,-6.18,-11.31,-11.30,6.00,6.23,6.26,-0.18,-0.18,5.12
27.50,-6.08,-6.09,-11.20,-11.20,6.00,6.22,6.38,-0.08,-0.09,5.12
27.77,-5.99,-5.99,-11.10,-11.10,6.00,6.21,6.51,0.01,0.01,5.11
28.05,-5.89,-5.89,-11.00,-11.00,6.00,6.20,6.63,0.11,0.11,5.11
28.33,-5.80,-5.80,-10.90,-10.90,6.00,6.20,6.74,0.20,0.20,5.10
28.62,-5.70,-5.71,-10.80,-10.80,6.00,6.19,6.84,0.30,0.29,5.09
28.90,-5.61,-5.61,-10.70,-10.70,6.00,6.18,6.94,0.39,0.39,5.09
29.19,-5.51,-5.51,-10.59,-10.60,6.00,6.17,7.04,0.49,0.49,5.08
29.48,-5.42,-5.42,-10.51,-10.50,6.00,6.16,7.12,0.58,0.58,5.09
29.78,-5.32,-5.33,-10.40,-10.40,6.00,6.16,7.19,0.68,0.67,5.08
30.08,-5.23,-5.23,-10.31,-10.31,6.00,6.15,7.26,0.77,0.77,5.07
30.38,-5.14,-5.14,-10.21,-10.21,6.00,6.14,7.31,0.86,0.86,5.06
30.68,-5.05,-5.05,-10.11,-10.11,6.00,6.13,7.35,0.95,0.95,5.06
30.99,-4.96,-4.97,-10.01,-10.02,6.00,6.12,7.39,1.04,1.03,5.05
31.30,-4.88,-4.88,-9.93,-9.93,6.00,6.11,7.41,1.12,1.12,5.05
31.61,-4.80,-4.80,-9.85,-9.84,6.00,6.10,7.42,1.20,1.20,5.04
31.93,-4.72,-4.72,-9.76,-9.76,6.00,6.10,7.41,1.28,1.28,5.03
32.24,-4.64,-4.64,-9.66,-9.67,6.00,6.09,7.41,1.36,1.36,5.02
32.57,-4.56,-4.56,-9.58,-9.58,6.00,6.08,7.38,1.44,1.44,5.02
32.89,-4.48,-4.48,-9.50,-9.49,6.00,6.07,7.35,1.52,1.52,5.01
33.22,-4.40,-4.40,-9.40,-9.41,6.00,6.06,7.31,1.60,1.60,5.00
33.55,-4.32,-4.32,-9.32,-9.32,6.00,6.05,7.26,1.68,1.68,5.00
33.89,-4.24,-4.25,-9.23,-9.24,6.00,6.04,7.20,1.76,1.75,4.99
34.23,-4.17,-4.17,-9.16,-9.15,6.00,6.03,7.13,1.83,1.83,4.98
34.57,-4.10,-4.10,-9.07,-9.07,6.00,6.02,7.06,1.90,1.90,4.97
34.92,-4.02,-4.03,-8.98,-8.99,6.00,6.01,6.98,1.98,1.97,4.96
35.27,-3.95,-3.95,-8.91,-8.90,6.00,6.00,6.90,2.05,2.05,4.95
35.62,-3.88,-3.88,-8.82,-8.82,6.00,6.00,6.81,2.12,2.12,4.94
35.97,-3.81,-3.81,-8.74,-8.74,6.00,5.99,6.72,2.19,2.19,4.93
36.33,-3.74,-3.74,-8.66,-8.66,6.00,5.98,6.63,2.26,2.26,4.92
36.70,-3.67,-3.67,-8.58,-8.58,6.00,5.97,6.54,2.33,2.33,4.91
37.06,-3.60,-3.60,-8.50,-8.50,6.00,5.96,6.45,2.40,2.40,4.89
37.43,-3.53,-3.53,-8.42,-8.42,6.00,5.95,6.35,2.47,2.47,4.89
37.81,-3.46,-3.47,-8.34,-8.34,6.00,5.94,6.26,2.54,2.53,4.88
38.19,-3.40,-3.40,-8.27,-8.26,6.00,5.94,6.17,2.60,2.60,4.86
38.57,-3.33,-3.33,-8.19,-8.19,6.00,5.93,6.08,2.67,2.67,4.86
38.95,-3.26,-3.27,-8.10,-8.11,6.00,5.92,5.99,2.74,2.73,4.84
39.34,-3.20,-3.20,-8.03,-8.03,6.00,5.92,5.90,2.80,2.80,4.83
39.74,-3.14,-3.14,-7.96,-7.95,6.00,5.91,5.82,2.86,2.86,4.81
40.14,-3.07,-3.08,-7.88,-7.88,6.00,5.91,5.73,2.93,2.92,4.81
40.54,-3.01,-3.01,-7.80,-7.81,6.00,5.91,5.66,2.99,2.99,4.79
40.94,-2.95,-2.95,-7.74,-7.73,6.00,5.91,5.58,3.05,3.05,4.78
41.35,-2.88,-2.89,-7.65,-7.66,6.00,5.91,5.51,3.12,3.11,4.77
41.76,-2.82,-2.82,-7.59,-7.59,6.00,5.91,5.44,3.18,3.18,4.76
42.18,-2.76,-2.76,-7.52,-7.51,6.00,5.91,5.38,3.24,3.24,4.76
42.60,-2.69,-2.70,-7.43,-7.44,6.00,5.91,5.31,3.31,3.30,4.74
43.03,-2.63,-2.63,-7.37,-7.36,6.00,5.92,5.26,3.37,3.37,4.73
43.46,-2.56,-2.56,-7.28,-7.28,6.00,5.93,5.20,3.44,3.44,4.72
43.90,-2.50,-2.50,-7.19,-7.19,6.00,5.94,5.16,3.50,3.50,4.69
44.33,-2.43,-2.44,-7.10,-7.11,6.00,5.95,5.11,3.57,3.56,4.67
44.78,-2.37,-2.37,-7.03,-7.02,6.00,5.96,5.07,3.63,3.63,4.65
45.23,-2.31,-2.31,-6.95,-6.94,6.00,5.98,5.03,3.69,3.69,4.63
45.68,-2.24,-2.25,-6.86,-6.86,6.00,5.99,5.00,3.76,3.75,4.62
46.13,-2.18,-2.18,-6.78,-6.78,6.00,6.00,4.97,3.82,3.82,4.60
46.60,-2.11,-2.11,-6.70,-6.70,6.00,6.02,4.94,3.89,3.89,4.59
47.06,-2.05,-2.05,-6.62,-6.62,6.00,6.03,4.92,3.95,3.95,4.57
47.53,-1.98,-1.99,-6.53,-6.54,6.01,6.03,4.90,4.02,4.02,4.55
48.01,-1.92,-1.92,-6.46,-6.45,6.01,6.03,4.88,4.09,4.09,4.54
48.49,-1.86,-1.86,-6.37,-6.37,6.02,6.03,4.87,4.15,4.16,4.51
48.97,-1.79,-1.80,-6.27,-6.27,6.01,6.01,4.86,4.22,4.22,4.48
49.46,-1.73,-1.73,-6.18,-6.18,6.00,5.98,4.86,4.27,4.27,4.44
49.96,-1.67,-1.67,-6.09,-6.09,5.98,5.95,4.85,4.31,4.31,4.41
50.46,-1.61,-1.61,-6.01,-6.01,5.94,5.90,4.85,4.33,4.33,4.40
50.96,-1.54,-1.55,-5.92,-5.92,5.89,5.84,4.85,4.35,4.35,4.38
51.47,-1.48,-1.48,-5.83,-5.83,5.83,5.78,4.85,4.35,4.35,4.34
51.99,-1.42,-1.42,-5.74,-5.75,5.76,5.70,4.86,4.34,4.34,4.32
52.51,-1.36,-1.36,-5.67,-5.66,5.68,5.63,4.86,4.32,4.32,4.31
53.03,-1.29,-1.30,-5.58,-5.58,5.59,5.55,4.87,4.30,4.29,4.28
53.56,-1.23,-1.23,-5.49,-5.49,5.50,5.46,4.87,4.26,4.26,4.26
54.10,-1.17,-1.17,-5.41,-5.40,5.40,5.38,4.88,4.23,4.23,4.23
54.64,-1.11,-1.11,-5.32,-5.32,5.32,5.29,4.89,4.20,4.21,4.21
55.18,-1.05,-1.05,-5.23,-5.23,5.23,5.21,4.89,4.18,4.18,4.18
55.74,-0.99,-0.99,-5.15,-5.15,5.15,5.13,4.90,4.15,4.16,4.15
56.29,-0.93,-0.93,-5.07,-5.06,5.06,5.04,4.90,4.13,4.13,4.13
56.86,-0.87,-0.87,-4.98,-4.98,4.98,4.96,4.90,4.11,4.11,4.11
57.42,-0.81,-0.82,-4.89,-4.90,4.90,4.88,4.89,4.09,4.09,4.08
58.00,-0.76,-0.76,-4.82,-4.82,4.82,4.81,4.89,4.06,4.06,4.06
58.58,-0.70,-0.70,-4.74,-4.74,4.74,4.73,4.88,4.04,4.04,4.04
59.16,-0.64,-0.65,-4.66,-4.66,4.66,4.65,4.87,4.02,4.01,4.02
59.76,-0.59,-0.59,-4.59,-4.59,4.58,4.57,4.85,3.99,3.99,4.00
60.35,-0.53,-0.54,-4.50,-4.50,4.50,4.50,4.83,3.97,3.96,3.97
60.96,-0.48,-0.48,-4.43,-4.42,4.42,4.42,4.80,3.93,3.93,3.94
61.57,-0.43,-0.43,-4.33,-4.34,4.33,4.35,4.77,3.90,3.90,3.90
62.18,-0.38,-0.38,-4.25,-4.25,4.25,4.27,4.73,3.87,3.87,3.87
62.80,-0.32,-0.33,-4.16,-4.16,4.17,4.20,4.69,3.85,3.84,3.84
63.43,-0.27,-0.28,-4.08,-4.09,4.09,4.12,4.65,3.82,3.81,3.81
64.07,-0.23,-0.23,-4.01,-4.01,4.01,4.05,4.59,3.78,3.78,3.78
64.71,-0.18,-0.18,-3.94,-3.93,3.93,3.97,4.53,3.75,3.75,3.75
65.35,-0.13,-0.13,-3.86,-3.86,3.86,3.90,4.47,3.72,3.72,3.73
66.01,-0.08,-0.09,-3.78,-3.78,3.78,3.82,4.40,3.70,3.70,3.70
66.67,-0.04,-0.04,-3.71,-3.71,3.71,3.75,4.33,3.66,3.67,3.67
67.33,0.01,0.01,-3.63,-3.63,3.63,3.67,4.26,3.64,3.64,3.64
68.01,0.06,0.05,-3.55,-3.56,3.56,3.59,4.17,3.61,3.61,3.61
68.69,0.10,0.10,-3.48,-3.48,3.48,3.52,4.09,3.58,3.58,3.58
69.37,0.15,0.14,-3.40,-3.40,3.40,3.44,4.00,3.55,3.55,3.55
70.07,0.19,0.19,-3.33,-3.33,3.33,3.36,3.91,3.52,3.52,3.51
70.77,0.23,0.23,-3.26,-3.26,3.25,3.29,3.82,3.48,3.48,3.49
71.48,0.28,0.27,-3.18,-3.18,3.18,3.21,3.72,3.45,3.45,3.46
72.19,0.32,0.32,-3.10,-3.10,3.10,3.14,3.62,3.42,3.42,3.42
72.91,0.36,0.36,-3.03,-3.03,3.03,3.07,3.52,3.39,3.39,3.38
73.64,0.40,0.40,-2.95,-2.95,2.95,2.99,3.42,3.35,3.35,3.35
74.38,0.44,0.44,-2.88,-2.88,2.88,2.92,3.32,3.32,3.32,3.32
75.12,0.48,0.48,-2.80,-2.81,2.81,2.85,3.22,3.28,3.28,3.28
75.87,0.52,0.52,-2.73,-2.74,2.73,2.78,3.11,3.25,3.25,3.25
76.63,0.56,0.56,-2.66,-2.66,2.66,2.71,3.01,3.22,3.22,3.22
77.40,0.60,0.60,-2.59,-2.59,2.59,2.64,2.91,3.19,3.19,3.19
78.17,0.64,0.64,-2.51,-2.52,2.52,2.57,2.80,3.16,3.16,3.15
78.95,0.68,0.68,-2.45,-2.45,2.45,2.51,2.70,3.12,3.12,3.13
79.74,0.72,0.72,-2.38,-2.37,2.38,2.44,2.60,3.09,3.09,3.09
80.54,0.76,0.75,-2.30,-2.30,2.30,2.37,2.50,3.06,3.06,3.06
81.35,0.79,0.79,-2.24,-2.24,2.23,2.31,2.39,3.02,3.02,3.02
82.16,0.83,0.83,-2.16,-2.17,2.16,2.24,2.29,2.99,2.99,2.99
82.98,0.86,0.86,-2.10,-2.09,2.09,2.18,2.20,2.95,2.95,2.96
83.81,0.90,0.89,-2.02,-2.02,2.03,2.11,2.10,2.92,2.92,2.91
84.65,0.93,0.93,-1.95,-1.95,1.96,2.04,2.00,2.88,2.88,2.88
85.50,0.96,0.96,-1.89,-1.89,1.89,1.97,1.90,2.85,2.85,2.85
86.35,0.99,0.99,-1.82,-1.82,1.82,1.91,1.81,2.81,2.81,2.81
87.22,1.02,1.02,-1.75,-1.75,1.75,1.84,1.72,2.77,2.77,2.77
88.09,1.05,1.05,-1.68,-1.69,1.68,1.77,1.62,2.73,2.73,2.73
88.97,1.08,1.08,-1.62,-1.62,1.61,1.70,1.53,2.69,2.69,2.70
89.86,1.11,1.11,-1.55,-1.55,1.55,1.63,1.44,2.65,2.65,2.66
90.76,1.14,1.13,-1.47,-1.48,1.48,1.56,1.35,2.61,2.61,2.60
91.66,1.16,1.16,-1.41,-1.41,1.41,1.49,1.26,2.57,2.57,2.57
92.58,1.19,1.19,-1.33,-1.34,1.34,1.41,1.18,2.53,2.53,2.52
93.51,1.21,1.21,-1.28,-1.27,1.27,1.34,1.09,2.48,2.48,2.48
94.44,1.24,1.23,-1.20,-1.20,1.20,1.27,1.01,2.44,2.44,2.44
95.39,1.26,1.26,-1.14,-1.14,1.14,1.19,0.92,2.39,2.39,2.40
96.34,1.28,1.28,-1.06,-1.07,1.07,1.12,0.84,2.35,2.35,2.34
97.30,1.30,1.30,-1.00,-1.00,1.00,1.04,0.76,2.30,2.30,2.30
98.28,1.32,1.32,-0.93,-0.93,0.93,0.97,0.68,2.25,2.25,2.25
99.26,1.34,1.34,-0.87,-0.87,0.87,0.89,0.60,2.20,2.20,2.21
100.25,1.36,1.36,-0.80,-0.80,0.80,0.81,0.52,2.16,2.16,2.16
101.25,1.38,1.38,-0.74,-0.74,0.73,0.74,0.45,2.11,2.11,2.11
102.27,1.40,1.40,-0.67,-0.67,0.67,0.66,0.37,2.07,2.07,2.07
103.29,1.42,1.42,-0.59,-0.60,0.60,0.58,0.30,2.02,2.02,2.01
104.32,1.44,1.43,-0.54,-0.54,0.54,0.51,0.23,1.98,1.97,1.97
105.37,1.45,1.45,-0.48,-0.48,0.48,0.43,0.15,1.92,1.93,1.93
106.42,1.47,1.47,-0.42,-0.42,0.41,0.36,0.08,1.88,1.88,1.88
107.48,1.49,1.48,-0.35,-0.35,0.35,0.28,0.01,1.84,1.83,1.84
108.56,1.50,1.50,-0.28,-0.28,0.29,0.20,-0.05,1.78,1.79,1.78
109.64,1.52,1.51,-0.22,-0.22,0.22,0.13,-0.12,1.74,1.74,1.73
110.74,1.53,1.53,-0.16,-0.16,0.16,0.05,-0.18,1.68,1.68,1.69
111.85,1.54,1.54,-0.11,-0.10,0.09,-0.02,-0.24,1.63,1.63,1.64
112.97,1.56,1.55,-0.02,-0.03,0.03,-0.10,-0.30,1.58,1.58,1.58
114.10,1.57,1.57,0.04,0.04,-0.04,-0.17,-0.36,1.53,1.53,1.53
115.24,1.58,1.58,0.10,0.10,-0.10,-0.24,-0.42,1.47,1.47,1.48
116.39,1.59,1.59,0.16,0.17,-0.17,-0.31,-0.47,1.42,1.42,1.42
117.55,1.60,1.60,0.23,0.23,-0.23,-0.38,-0.52,1.37,1.37,1.37
118.73,1.62,1.61,0.30,0.30,-0.29,-0.45,-0.57,1.33,1.32,1.31
119.92,1.63,1.62,0.36,0.36,-0.35,-0.52,-0.62,1.27,1.27,1.27
121.12,1.63,1.63,0.41,0.41,-0.41,-0.59,-0.66,1.22,1.22,1.22
122.33,1.64,1.64,0.47,0.47,-0.47,-0.66,-0.70,1.17,1.17,1.17
123.55,1.65,1.65,0.52,0.52,-0.53,-0.72,-0.74,1.12,1.12,1.12
124.79,1.66,1.65,0.58,0.58,-0.59,-0.78,-0.78,1.07,1.07,1.07
126.03,1.66,1.66,0.63,0.64,-0.64,-0.85,-0.81,1.01,1.02,1.02
127.29,1.67,1.67,0.69,0.70,-0.70,-0.91,-0.84,0.97,0.97,0.97
128.57,1.68,1.67,0.76,0.76,-0.75,-0.97,-0.87,0.92,0.92,0.91
129.85,1.68,1.68,0.81,0.81,-0.81,-1.03,-0.90,0.87,0.87,0.86
131.15,1.68,1.68,0.86,0.86,-0.86,-1.09,-0.92,0.82,0.82,0.82
132.46,1.69,1.68,0.92,0.91,-0.91,-1.14,-0.94,0.77,0.77,0.77
133.79,1.69,1.69,0.95,0.96,-0.96,-1.20,-0.96,0.72,0.72,0.73
135.12,1.69,1.69,1.01,1.01,-1.01,-1.25,-0.98,0.68,0.68,0.68
136.48,1.70,1.69,1.06,1.05,-1.06,-1.30,-1.00,0.64,0.63,0.64
137.84,1.70,1.70,1.10,1.11,-1.10,-1.35,-1.01,0.59,0.59,0.60
139.22,1.70,1.70,1.15,1.15,-1.15,-1.40,-1.03,0.55,0.55,0.54
140.61,1.71,1.70,1.21,1.19,-1.19,-1.44,-1.04,0.52,0.51,0.50
142.02,1.71,1.71,1.23,1.24,-1.23,-1.49,-1.05,0.47,0.47,0.48
143.44,1.71,1.71,1.27,1.28,-1.28,-1.53,-1.06,0.43,0.44,0.44
144.87,1.72,1.71,1.32,1.31,-1.32,-1.58,-1.07,0.40,0.40,0.40
146.32,1.72,1.72,1.36,1.35,-1.36,-1.61,-1.08,0.36,0.36,0.36
147.78,1.72,1.72,1.39,1.39,-1.40,-1.65,-1.09,0.32,0.32,0.33
149.26,1.72,1.72,1.43,1.43,-1.44,-1.69,-1.10,0.28,0.28,0.29
150.75,1.73,1.72,1.48,1.47,-1.48,-1.72,-1.11,0.25,0.25,0.24
152.26,1.73,1.73,1.52,1.52,-1.52,-1.76,-1.12,0.21,0.21,0.21
153.78,1.73,1.73,1.56,1.56,-1.56,-1.79,-1.13,0.17,0.17,0.17
155.32,1.73,1.72,1.60,1.59,-1.60,-1.82,-1.14,0.13,0.13,0.13
156.88,1.72,1.72,1.62,1.63,-1.63,-1.84,-1.15,0.08,0.09,0.09
158.44,1.72,1.72,1.67,1.67,-1.67,-1.87,-1.16,0.04,0.05,0.05
160.03,1.72,1.72,1.71,1.71,-1.71,-1.89,-1.17,0.01,0.01,0.01
161.63,1.72,1.71,1.75,1.75,-1.74,-1.92,-1.18,-0.03,-0.03,-0.03
163.24,1.71,1.71,1.78,1.78,-1.77,-1.94,-1.19,-0.07,-0.07,-0.07
164.88,1.70,1.70,1.80,1.81,-1.81,-1.96,-1.21,-0.11,-0.10,-0.10
166.53,1.70,1.69,1.84,1.83,-1.84,-1.97,-1.22,-0.14,-0.14,-0.14
168.19,1.68,1.68,1.86,1.86,-1.86,-1.99,-1.24,-0.19,-0.18,-0.18
169.87,1.67,1.67,1.89,1.89,-1.89,-2.00,-1.26,-0.22,-0.22,-0.22
171.57,1.66,1.65,1.91,1.91,-1.91,-2.02,-1.27,-0.25,-0.26,-0.26
173.29,1.64,1.64,1.93,1.93,-1.93,-2.03,-1.29,-0.30,-0.29,-0.29
175.02,1.63,1.62,1.95,1.96,-1.96,-2.04,-1.31,-0.33,-0.33,-0.33
176.77,1.61,1.61,1.98,1.98,-1.98,-2.04,-1.33,-0.37,-0.37,-0.37
178.54,1.59,1.59,2.00,2.00,-2.00,-2.05,-1.36,-0.41,-0.41,-0.42
180.32,1.57,1.57,2.02,2.02,-2.02,-2.06,-1.38,-0.45,-0.45,-0.45
182.13,1.55,1.55,2.03,2.03,-2.03,-2.06,-1.40,-0.49,-0.49,-0.48
183.95,1.53,1.53,2.05,2.05,-2.05,-2.06,-1.43,-0.52,-0.52,-0.52
185.79,1.51,1.51,2.06,2.07,-2.07,-2.06,-1.46,-0.56,-0.56,-0.56
187.65,1.49,1.49,2.08,2.08,-2.08,-2.06,-1.49,-0.59,-0.59,-0.60
189.52,1.47,1.47,2.09,2.09,-2.09,-2.06,-1.51,-0.63,-0.62,-0.63
191.42,1.45,1.45,2.10,2.10,-2.10,-2.05,-1.54,-0.66,-0.66,-0.66
193.33,1.43,1.42,2.11,2.11,-2.11,-2.05,-1.58,-0.68,-0.69,-0.68
195.27,1.40,1.40,2.11,2.12,-2.11,-2.04,-1.61,-0.72,-0.71,-0.71
197.22,1.38,1.37,2.12,2.12,-2.12,-2.03,-1.64,-0.74,-0.74,-0.74
199.19,1.35,1.35,2.12,2.12,-2.12,-2.03,-1.67,-0.77,-0.77,-0.78
201.18,1.32,1.32,2.11,2.12,-2.11,-2.01,-1.71,-0.80,-0.79,-0.79
203.19,1.30,1.29,2.11,2.11,-2.11,-2.00,-1.74,-0.81,-0.82,-0.81
205.23,1.27,1.27,2.10,2.10,-2.10,-1.99,-1.77,-0.83,-0.83,-0.84
207.28,1.24,1.24,2.08,2.09,-2.09,-1.98,-1.81,-0.86,-0.85,-0.84
209.35,1.22,1.21,2.08,2.08,-2.08,-1.96,-1.84,-0.86,-0.87,-0.87
211.44,1.19,1.19,2.08,2.07,-2.07,-1.95,-1.87,-0.88,-0.88,-0.89
213.56,1.17,1.16,2.06,2.06,-2.06,-1.93,-1.91,-0.89,-0.89,-0.89
215.69,1.14,1.14,2.03,2.04,-2.04,-1.91,-1.94,-0.90,-0.90,-0.90
217.85,1.11,1.11,2.02,2.02,-2.02,-1.89,-1.97,-0.92,-0.91,-0.91
220.03,1.09,1.08,2.01,2.00,-2.00,-1.87,-2.00,-0.92,-0.92,-0.92
222.23,1.06,1.06,1.99,1.98,-1.98,-1.85,-2.03,-0.92,-0.92,-0.93
224.45,1.03,1.03,1.95,1.96,-1.95,-1.83,-2.05,-0.92,-0.92,-0.93
226.70,1.00,1.00,1.92,1.92,-1.92,-1.81,-2.08,-0.93,-0.93,-0.93
228.96,0.97,0.97,1.89,1.89,-1.89,-1.79,-2.10,-0.93,-0.93,-0.93
231.25,0.94,0.94,1.85,1.86,-1.86,-1.76,-2.12,-0.92,-0.93,-0.92
233.57,0.91,0.91,1.82,1.83,-1.83,-1.74,-2.13,-0.92,-0.92,-0.92
235.90,0.88,0.88,1.79,1.80,-1.80,-1.71,-2.14,-0.92,-0.92,-0.92
238.26,0.86,0.85,1.77,1.77,-1.77,-1.69,-2.16,-0.91,-0.91,-0.92
240.64,0.83,0.83,1.73,1.73,-1.74,-1.66,-2.16,-0.91,-0.91,-0.91
243.05,0.81,0.81,1.70,1.70,-1.71,-1.63,-2.16,-0.90,-0.90,-0.89
245.48,0.79,0.79,1.67,1.67,-1.68,-1.60,-2.16,-0.89,-0.89,-0.88
247.93,0.78,0.77,1.65,1.65,-1.65,-1.58,-2.16,-0.87,-0.87,-0.87
250.41,0.76,0.76,1.63,1.62,-1.62,-1.55,-2.15,-0.86,-0.86,-0.87
252.92,0.75,0.74,1.59,1.59,-1.59,-1.52,-2.13,-0.84,-0.84,-0.85
255.45,0.73,0.73,1.55,1.56,-1.56,-1.49,-2.12,-0.83,-0.83,-0.82
258.00,0.71,0.71,1.52,1.52,-1.52,-1.46,-2.10,-0.82,-0.81,-0.81
260.58,0.70,0.69,1.49,1.49,-1.49,-1.42,-2.07,-0.79,-0.79,-0.80
263.19,0.68,0.68,1.45,1.46,-1.45,-1.39,-2.04,-0.77,-0.77,-0.77
265.82,0.66,0.66,1.42,1.41,-1.41,-1.36,-2.01,-0.75,-0.75,-0.76
268.48,0.64,0.63,1.37,1.37,-1.37,-1.33,-1.98,-0.73,-0.74,-0.74
271.16,0.61,0.61,1.32,1.33,-1.33,-1.29,-1.94,-0.72,-0.72,-0.71
273.87,0.59,0.59,1.29,1.28,-1.29,-1.26,-1.90,-0.70,-0.70,-0.70
276.61,0.57,0.57,1.24,1.24,-1.25,-1.22,-1.85,-0.68,-0.68,-0.67
279.38,0.55,0.55,1.21,1.21,-1.21,-1.19,-1.80,-0.66,-0.66,-0.66
282.17,0.53,0.53,1.17,1.17,-1.17,-1.16,-1.76,-0.64,-0.64,-0.64
284.99,0.51,0.51,1.13,1.13,-1.13,-1.12,-1.70,-0.62,-0.62,-0.62
287.84,0.49,0.49,1.09,1.09,-1.09,-1.09,-1.65,-0.60,-0.60,-0.60
290.72,0.47,0.47,1.05,1.05,-1.05,-1.05,-1.60,-0.58,-0.58,-0.58
293.63,0.45,0.45,1.01,1.01,-1.01,-1.01,-1.54,-0.56,-0.56,-0.56
296.57,0.43,0.43,0.96,0.97,-0.97,-0.98,-1.48,-0.54,-0.54,-0.54
299.53,0.41,0.41,0.93,0.93,-0.93,-0.94,-1.42,-0.52,-0.52,-0.52
302.53,0.39,0.39,0.89,0.89,-0.89,-0.90,-1.36,-0.50,-0.50,-0.51
305.55,0.37,0.37,0.84,0.85,-0.84,-0.87,-1.30,-0.48,-0.47,-0.47
308.61,0.36,0.35,0.81,0.80,-0.80,-0.83,-1.24,-0.44,-0.45,-0.45
311.69,0.34,0.34,0.76,0.76,-0.76,-0.79,-1.18,-0.42,-0.42,-0.43
314.81,0.32,0.32,0.71,0.72,-0.72,-0.75,-1.12,-0.40,-0.40,-0.39
317.96,0.30,0.30,0.67,0.67,-0.67,-0.72,-1.06,-0.38,-0.38,-0.37
321.14,0.28,0.27,0.63,0.63,-0.63,-0.68,-1.00,-0.35,-0.36,-0.36
324.35,0.25,0.25,0.59,0.59,-0.59,-0.64,-0.94,-0.34,-0.34,-0.34
327.59,0.23,0.23,0.54,0.54,-0.54,-0.60,-0.88,-0.31,-0.31,-0.31
330.87,0.21,0.20,0.50,0.50,-0.50,-0.57,-0.81,-0.29,-0.29,-0.29
334.18,0.18,0.18,0.45,0.45,-0.45,-0.53,-0.75,-0.27,-0.27,-0.28
337.52,0.15,0.15,0.41,0.40,-0.40,-0.49,-0.69,-0.25,-0.25,-0.26
340.90,0.12,0.12,0.35,0.35,-0.35,-0.45,-0.63,-0.24,-0.23,-0.23
344.30,0.09,0.09,0.30,0.30,-0.30,-0.41,-0.57,-0.21,-0.21,-0.22
347.75,0.06,0.05,0.25,0.25,-0.25,-0.37,-0.51,-0.19,-0.20,-0.20
351.23,0.02,0.02,0.20,0.20,-0.20,-0.34,-0.45,-0.18,-0.18,-0.18
354.74,-0.01,-0.01,0.15,0.15,-0.15,-0.30,-0.39,-0.17,-0.16,-0.16
358.28,-0.04,-0.04,0.10,0.10,-0.11,-0.26,-0.34,-0.15,-0.15,-0.14
361.87,-0.07,-0.07,0.05,0.06,-0.06,-0.22,-0.28,-0.13,-0.13,-0.13
365.49,-0.10,-0.10,0.01,0.01,-0.02,-0.18,-0.22,-0.12,-0.12,-0.12
369.14,-0.13,-0.13,-0.02,-0.02,0.03,-0.14,-0.16,-0.11,-0.10,-0.11
372.83,-0.15,-0.16,-0.06,-0.06,0.07,-0.11,-0.10,-0.08,-0.09,-0.09
376.56,-0.18,-0.18,-0.10,-0.11,0.11,-0.07,-0.05,-0.08,-0.08,-0.08
380.33,-0.21,-0.21,-0.16,-0.15,0.15,-0.03,0.01,-0.07,-0.06,-0.06
384.13,-0.23,-0.24,-0.19,-0.19,0.18,0.01,0.07,-0.05,-0.05,-0.05
387.97,-0.26,-0.26,-0.22,-0.22,0.22,0.04,0.12,-0.04,-0.04,-0.04
391.85,-0.28,-0.28,-0.25,-0.26,0.26,0.08,0.18,-0.02,-0.02,-0.03
395.77,-0.30,-0.31,-0.29,-0.29,0.29,0.12,0.23,-0.01,-0.01,-0.01
399.73,-0.33,-0.33,-0.33,-0.33,0.33,0.16,0.28,-0.00,-0.00,-0.00
403.72,-0.35,-0.35,-0.36,-0.36,0.36,0.19,0.34,0.01,0.01,0.01
407.76,-0.37,-0.38,-0.39,-0.39,0.39,0.23,0.39,0.02,0.02,0.01
411.84,-0.39,-0.39,-0.43,-0.42,0.42,0.27,0.44,0.03,0.03,0.03
415.96,-0.41,-0.41,-0.46,-0.45,0.45,0.30,0.49,0.04,0.04,0.04
420.12,-0.42,-0.42,-0.47,-0.48,0.47,0.34,0.54,0.05,0.05,0.05
424.32,-0.43,-0.43,-0.49,-0.49,0.50,0.37,0.59,0.06,0.06,0.06
428.56,-0.44,-0.44,-0.51,-0.51,0.51,0.41,0.64,0.07,0.07,0.07
432.85,-0.45,-0.45,-0.53,-0.53,0.53,0.44,0.69,0.08,0.08,0.08
437.18,-0.45,-0.45,-0.54,-0.54,0.54,0.48,0.74,0.09,0.09,0.09
441.55,-0.45,-0.45,-0.56,-0.55,0.55,0.51,0.78,0.10,0.10,0.11
445.96,-0.44,-0.45,-0.56,-0.56,0.56,0.54,0.82,0.12,0.11,0.11
450.42,-0.44,-0.44,-0.57,-0.57,0.57,0.58,0.87,0.12,0.13,0.12
454.93,-0.43,-0.43,-0.58,-0.57,0.57,0.61,0.91,0.14,0.14,0.14
459.48,-0.41,-0.42,-0.57,-0.57,0.57,0.64,0.94,0.16,0.15,0.15
464.07,-0.40,-0.40,-0.57,-0.57,0.57,0.67,0.98,0.17,0.17,0.17
468.71,-0.38,-0.38,-0.57,-0.57,0.57,0.70,1.01,0.19,0.19,0.19
473.40,-0.36,-0.36,-0.56,-0.57,0.56,0.73,1.04,0.20,0.20,0.20
478.13,-0.34,-0.34,-0.56,-0.56,0.56,0.76,1.07,0.22,0.22,0.22
482.91,-0.32,-0.32,-0.55,-0.55,0.55,0.79,1.10,0.23,0.23,0.23
487.74,-0.30,-0.30,-0.55,-0.55,0.55,0.82,1.13,0.24,0.24,0.25
492.62,-0.28,-0.29,-0.55,-0.55,0.54,0.85,1.15,0.26,0.26,0.27
497.55,-0.27,-0.27,-0.55,-0.55,0.54,0.87,1.17,0.27,0.27,0.28
