frequency,raw,error,smoothed,error_smoothed,equalization,parametric_eq,equalized_raw,equalized_smoothed,target
20,-16.22,-17.50,-16.09,-17.32,6.00,2.66,-10.22,-10.09,1.28
21,-15.50,-16.78,-15.44,-16.68,6.00,3.06,-9.50,-9.44,1.28
22,-14.82,-16.10,-14.81,-16.06,6.00,3.49,-8.82,-8.81,1.28
23,-14.15,-15.43,-14.21,-15.46,6.00,3.95,-8.15,-8.21,1.28
24,-13.51,-14.79,-13.63,-14.89,6.00,4.45,-7.51,-7.63,1.28
25,-12.97,-14.25,-13.07,-14.33,6.00,4.96,-6.97,-7.07,1.28
26,-12.44,-13.72,-12.53,-13.80,6.00,5.47,-6.44,-6.53,1.28
27,-12.00,-13.28,-12.02,-13.29,6.00,5.96,-6.00,-6.02,1.28
28,-11.54,-12.82,-11.53,-12.80,6.00,6.40,-5.54,-5.53,1.28
29,-11.05,-12.33,-11.05,-12.33,6.00,6.77,-5.05,-5.05,1.28
30,-10.63,-11.91,-10.61,-11.89,6.00,7.04,-4.63,-4.61,1.28
31,-10.21,-11.49,-10.19,-11.48,6.00,7.19,-4.21,-4.19,1.28
32,-9.82,-11.10,-9.81,-11.09,6.00,7.24,-3.82,-3.81,1.28
33,-9.43,-10.71,-9.45,-10.72,6.00,7.19,-3.43,-3.45,1.28
34,-9.09,-10.37,-9.10,-10.37,6.00,7.06,-3.09,-3.10,1.28
35,-8.76,-10.04,-8.76,-10.03,6.00,6.88,-2.76,-2.76,1.28
36,-8.44,-9.72,-8.43,-9.71,6.00,6.68,-2.44,-2.43,1.28
37,-8.13,-9.41,-8.12,-9.40,6.00,6.47,-2.13,-2.12,1.28
38,-7.83,-9.11,-7.83,-9.11,6.00,6.26,-1.83,-1.83,1.28
39,-7.54,-8.82,-7.55,-8.83,6.00,6.07,-1.54,-1.55,1.28
40,-7.25,-8.53,-7.29,-8.56,6.00,5.90,-1.25,-1.29,1.28
41,-7.14,-8.42,-7.04,-8.31,6.00,5.75,-1.14,-1.04,1.28
42,-6.81,-8.09,-6.79,-8.07,6.00,5.63,-0.81,-0.79,1.28
43,-6.49,-7.77,-6.57,-7.84,6.00,5.54,-0.49,-0.57,1.28
44,-6.34,-7.62,-6.35,-7.62,6.00,5.46,-0.34,-0.35,1.28
45,-6.16,-7.44,-6.14,-7.41,6.00,5.41,-0.16,-0.14,1.28
46,-6.00,-7.28,-5.94,-7.22,6.00,5.39,0.00,0.06,1.28
47,-5.84,-7.12,-5.76,-7.04,6.00,5.38,0.16,0.24,1.28
48,-5.53,-6.81,-5.61,-6.88,6.00,5.39,0.47,0.39,1.28
49,-5.45,-6.73,-5.46,-6.73,6.00,5.41,0.55,0.54,1.28
50,-5.22,-6.50,-5.31,-6.59,6.00,5.45,0.78,0.69,1.28
51,-5.19,-6.47,-5.19,-6.47,6.00,5.50,0.81,0.81,1.28
52,-5.10,-6.38,-5.09,-6.36,6.00,5.55,0.90,0.91,1.28
53,-4.89,-6.17,-4.99,-6.26,6.00,5.61,1.11,1.01,1.28
54,-4.86,-6.14,-4.90,-6.17,6.00,5.66,1.14,1.10,1.28
55,-4.86,-6.14,-4.81,-6.09,5.99,5.72,1.13,1.18,1.28
56,-4.86,-6.14,-4.74,-6.01,5.96,5.77,1.10,1.22,1.28
57,-4.71,-5.99,-4.68,-5.94,5.92,5.81,1.21,1.24,1.28
58,-4.54,-5.82,-4.61,-5.87,5.86,5.84,1.32,1.25,1.28
59,-4.54,-5.82,-4.54,-5.81,5.81,5.86,1.27,1.27,1.28
60,-4.54,-5.82,-4.48,-5.74,5.74,5.87,1.20,1.27,1.28
61,-4.44,-5.72,-4.40,-5.67,5.67,5.86,1.23,1.27,1.28
62,-4.25,-5.53,-4.33,-5.60,5.60,5.84,1.35,1.27,1.28
63,-4.22,-5.50,-4.26,-5.52,5.52,5.80,1.30,1.26,1.28
64,-4.22,-5.50,-4.18,-5.45,5.45,5.74,1.23,1.27,1.28
65,-4.19,-5.47,-4.08,-5.37,5.37,5.67,1.18,1.28,1.28
66,-3.89,-5.17,-4.01,-5.28,5.28,5.59,1.39,1.28,1.28
67,-3.89,-5.17,-3.92,-5.19,5.19,5.50,1.30,1.27,1.28
68,-3.89,-5.17,-3.83,-5.10,5.10,5.40,1.21,1.27,1.28
69,-3.82,-5.10,-3.73,-5.01,5.01,5.30,1.19,1.28,1.28
70,-3.57,-4.85,-3.63,-4.91,4.91,5.18,1.34,1.28,1.28
71,-3.57,-4.85,-3.54,-4.81,4.81,5.07,1.24,1.27,1.28
72,-3.50,-4.78,-3.44,-4.71,4.71,4.95,1.21,1.27,1.28
73,-3.24,-4.52,-3.33,-4.61,4.61,4.83,1.37,1.28,1.28
74,-3.24,-4.52,-3.22,-4.51,4.51,4.71,1.27,1.29,1.28
75,-3.23,-4.51,-3.14,-4.42,4.42,4.59,1.19,1.28,1.28
76,-2.93,-4.21,-3.06,-4.32,4.32,4.48,1.39,1.26,1.28
77,-2.92,-4.20,-2.96,-4.24,4.24,4.36,1.32,1.27,1.28
78,-2.92,-4.20,-2.87,-4.15,4.15,4.25,1.23,1.28,1.28
79,-2.81,-4.09,-2.79,-4.07,4.07,4.14,1.26,1.28,1.28
80,-2.67,-3.95,-2.71,-4.00,4.00,4.04,1.33,1.28,1.28
81,-2.59,-3.87,-2.64,-3.93,3.93,3.94,1.34,1.28,1.28
82,-2.59,-3.87,-2.59,-3.86,3.86,3.85,1.27,1.27,1.28
83,-2.59,-3.87,-2.54,-3.80,3.80,3.76,1.21,1.26,1.28
84,-2.59,-3.87,-2.47,-3.74,3.74,3.67,1.15,1.27,1.28
85,-2.35,-3.63,-2.41,-3.68,3.68,3.59,1.33,1.27,1.28
86,-2.27,-3.55,-2.36,-3.63,3.63,3.51,1.36,1.27,1.28
87,-2.27,-3.55,-2.30,-3.57,3.57,3.44,1.30,1.28,1.28
88,-2.27,-3.55,-2.24,-3.52,3.52,3.37,1.25,1.29,1.28
89,-2.27,-3.55,-2.19,-3.48,3.48,3.30,1.21,1.28,1.28
90,-2.27,-3.55,-2.16,-3.43,3.43,3.24,1.16,1.27,1.28
91,-2.11,-3.39,-2.12,-3.38,3.38,3.18,1.27,1.26,1.28
92,-1.95,-3.23,-2.08,-3.34,3.34,3.13,1.39,1.26,1.28
93,-1.95,-3.23,-2.04,-3.30,3.30,3.08,1.35,1.26,1.28
94,-1.95,-3.23,-2.00,-3.26,3.26,3.03,1.31,1.26,1.28
95,-1.95,-3.23,-1.96,-3.22,3.22,2.99,1.27,1.25,1.28
96,-1.95,-3.23,-1.92,-3.18,3.18,2.95,1.23,1.25,1.28
97,-1.95,-3.23,-1.87,-3.14,3.14,2.91,1.19,1.26,1.28
98,-1.95,-3.23,-1.83,-3.10,3.10,2.87,1.15,1.27,1.28
99,-1.89,-3.17,-1.80,-3.07,3.07,2.84,1.18,1.27,1.28
100,-1.77,-3.05,-1.77,-3.03,3.03,2.81,1.26,1.26,1.28
101,-1.66,-2.94,-1.75,-3.00,3.00,2.78,1.34,1.25,1.28
102,-1.62,-2.90,-1.73,-2.97,2.97,2.75,1.35,1.25,1.28
104,-1.62,-2.90,-1.69,-2.94,2.94,2.70,1.32,1.25,1.28
105,-1.62,-2.90,-1.66,-2.91,2.91,2.68,1.29,1.25,1.28
106,-1.62,-2.90,-1.62,-2.88,2.88,2.66,1.26,1.26,1.28
107,-1.62,-2.90,-1.58,-2.85,2.85,2.64,1.23,1.26,1.28
108,-1.62,-2.90,-1.54,-2.82,2.82,2.62,1.20,1.27,1.28
109,-1.61,-2.89,-1.51,-2.79,2.79,2.61,1.18,1.28,1.28
110,-1.51,-2.79,-1.49,-2.76,2.76,2.59,1.25,1.27,1.28
111,-1.46,-2.74,-1.47,-2.73,2.73,2.57,1.27,1.26,1.28
112,-1.46,-2.74,-1.46,-2.70,2.70,2.56,1.24,1.25,1.28
113,-1.37,-2.65,-1.43,-2.68,2.68,2.54,1.31,1.24,1.28
114,-1.30,-2.58,-1.40,-2.65,2.65,2.53,1.35,1.25,1.28
115,-1.30,-2.58,-1.36,-2.61,2.61,2.51,1.31,1.25,1.28
117,-1.30,-2.58,-1.31,-2.57,2.57,2.49,1.27,1.26,1.28
118,-1.30,-2.58,-1.27,-2.54,2.54,2.47,1.24,1.26,1.28
119,-1.30,-2.58,-1.23,-2.50,2.50,2.46,1.20,1.27,1.28
120,-1.30,-2.58,-1.19,-2.46,2.46,2.44,1.16,1.27,1.28
121,-1.30,-2.58,-1.16,-2.43,2.43,2.43,1.13,1.27,1.28
123,-1.14,-2.42,-1.13,-2.39,2.39,2.40,1.25,1.26,1.28
124,-0.97,-2.25,-1.11,-2.36,2.36,2.39,1.39,1.25,1.28
125,-0.97,-2.25,-1.09,-2.33,2.33,2.37,1.36,1.24,1.28
126,-0.97,-2.25,-1.05,-2.29,2.29,2.36,1.32,1.24,1.28
128,-0.97,-2.25,-1.01,-2.26,2.26,2.33,1.29,1.25,1.28
129,-0.97,-2.25,-0.97,-2.22,2.22,2.31,1.25,1.25,1.28
130,-0.97,-2.25,-0.92,-2.18,2.18,2.29,1.21,1.26,1.28
131,-0.97,-2.25,-0.88,-2.14,2.14,2.28,1.17,1.26,1.28
133,-0.97,-2.25,-0.84,-2.11,2.11,2.24,1.14,1.26,1.28
134,-0.90,-2.18,-0.82,-2.08,2.08,2.23,1.18,1.26,1.28
135,-0.82,-2.10,-0.79,-2.05,2.05,2.21,1.23,1.25,1.28
137,-0.65,-1.93,-0.77,-2.02,2.02,2.18,1.37,1.25,1.28
138,-0.65,-1.93,-0.74,-2.00,2.00,2.16,1.35,1.26,1.28
140,-0.65,-1.93,-0.71,-1.98,1.98,2.13,1.33,1.27,1.28
141,-0.65,-1.93,-0.68,-1.96,1.96,2.11,1.31,1.28,1.28
142,-0.65,-1.93,-0.66,-1.94,1.94,2.09,1.29,1.28,1.28
144,-0.65,-1.93,-0.65,-1.93,1.93,2.06,1.28,1.28,1.28
145,-0.65,-1.93,-0.64,-1.93,1.93,2.05,1.28,1.28,1.28
147,-0.65,-1.93,-0.64,-1.92,1.92,2.01,1.27,1.28,1.28
148,-0.65,-1.93,-0.65,-1.91,1.91,2.00,1.26,1.27,1.28
150,-0.65,-1.93,-0.65,-1.90,1.90,1.97,1.25,1.26,1.28
151,-0.65,-1.93,-0.64,-1.89,1.89,1.96,1.24,1.25,1.28
153,-0.65,-1.93,-0.62,-1.88,1.88,1.93,1.23,1.26,1.28
154,-0.65,-1.93,-0.60,-1.85,1.85,1.92,1.20,1.26,1.28
156,-0.64,-1.92,-0.57,-1.82,1.82,1.90,1.18,1.26,1.28
157,-0.57,-1.85,-0.53,-1.78,1.78,1.89,1.21,1.26,1.28
159,-0.49,-1.77,-0.49,-1.75,1.75,1.87,1.26,1.26,1.28
160,-0.49,-1.77,-0.45,-1.72,1.72,1.86,1.23,1.27,1.28
162,-0.38,-1.66,-0.41,-1.69,1.69,1.84,1.31,1.28,1.28
164,-0.32,-1.60,-0.38,-1.66,1.66,1.83,1.34,1.28,1.28
165,-0.32,-1.60,-0.37,-1.65,1.65,1.82,1.33,1.28,1.28
167,-0.32,-1.60,-0.36,-1.64,1.64,1.81,1.32,1.28,1.28
169,-0.32,-1.60,-0.37,-1.64,1.64,1.80,1.32,1.28,1.28
170,-0.32,-1.60,-0.38,-1.66,1.66,1.79,1.34,1.27,1.28
172,-0.32,-1.60,-0.41,-1.68,1.68,1.78,1.36,1.27,1.28
174,-0.43,-1.71,-0.44,-1.71,1.71,1.78,1.28,1.26,1.28
175,-0.49,-1.77,-0.48,-1.74,1.74,1.78,1.25,1.26,1.28
177,-0.62,-1.90,-0.52,-1.77,1.77,1.77,1.15,1.25,1.28
179,-0.65,-1.93,-0.56,-1.81,1.81,1.77,1.16,1.25,1.28
181,-0.65,-1.93,-0.59,-1.84,1.84,1.77,1.19,1.25,1.28
183,-0.65,-1.93,-0.61,-1.87,1.87,1.77,1.22,1.26,1.28
184,-0.65,-1.93,-0.64,-1.90,1.90,1.77,1.25,1.26,1.28
186,-0.65,-1.93,-0.66,-1.92,1.92,1.78,1.27,1.26,1.28
188,-0.65,-1.93,-0.68,-1.93,1.93,1.78,1.28,1.25,1.28
190,-0.65,-1.93,-0.69,-1.94,1.94,1.79,1.29,1.25,1.28
192,-0.65,-1.93,-0.68,-1.95,1.95,1.80,1.30,1.27,1.28
194,-0.65,-1.93,-0.67,-1.95,1.95,1.81,1.30,1.28,1.28
196,-0.65,-1.93,-0.67,-1.96,1.96,1.82,1.31,1.29,1.28
198,-0.65,-1.93,-0.68,-1.96,1.96,1.83,1.31,1.28,1.28
200,-0.70,-1.98,-0.68,-1.96,1.96,1.84,1.26,1.28,1.28
202,-0.81,-2.09,-0.69,-1.97,1.97,1.85,1.16,1.28,1.28
204,-0.70,-1.98,-0.69,-1.97,1.97,1.86,1.27,1.28,1.28
206,-0.65,-1.93,-0.70,-1.97,1.97,1.88,1.32,1.27,1.28
208,-0.65,-1.93,-0.70,-1.97,1.97,1.89,1.32,1.27,1.28
210,-0.65,-1.93,-0.70,-1.97,1.97,1.90,1.32,1.27,1.28
212,-0.71,-1.99,-0.69,-1.97,1.97,1.92,1.26,1.27,1.28
214,-0.80,-2.08,-0.69,-1.97,1.97,1.93,1.17,1.27,1.28
216,-0.70,-1.98,-0.68,-1.96,1.96,1.94,1.26,1.28,1.28
218,-0.65,-1.93,-0.68,-1.95,1.95,1.96,1.30,1.28,1.28
221,-0.65,-1.93,-0.67,-1.95,1.95,1.98,1.30,1.28,1.28
223,-0.65,-1.93,-0.66,-1.94,1.94,1.99,1.29,1.28,1.28
225,-0.65,-1.93,-0.66,-1.94,1.94,2.00,1.29,1.27,1.28
227,-0.65,-1.93,-0.66,-1.93,1.93,2.01,1.28,1.27,1.28
229,-0.65,-1.93,-0.66,-1.93,1.93,2.02,1.28,1.27,1.28
232,-0.65,-1.93,-0.65,-1.93,1.93,2.04,1.28,1.28,1.28
234,-0.65,-1.93,-0.64,-1.93,1.93,2.04,1.28,1.28,1.28
236,-0.65,-1.93,-0.64,-1.93,1.93,2.05,1.28,1.29,1.28
239,-0.65,-1.93,-0.65,-1.93,1.93,2.06,1.28,1.28,1.28
241,-0.65,-1.93,-0.65,-1.93,1.93,2.06,1.28,1.28,1.28
244,-0.65,-1.93,-0.65,-1.93,1.93,2.07,1.28,1.28,1.28
246,-0.65,-1.93,-0.65,-1.93,1.93,2.07,1.28,1.28,1.28
248,-0.65,-1.93,-0.65,-1.93,1.93,2.07,1.28,1.28,1.28
251,-0.65,-1.93,-0.65,-1.93,1.93,2.07,1.28,1.28,1.28
253,-0.65,-1.93,-0.65,-1.93,1.93,2.07,1.28,1.28,1.28
256,-0.65,-1.93,-0.65,-1.93,1.93,2.06,1.28,1.28,1.28
259,-0.65,-1.93,-0.65,-1.93,1.93,2.06,1.28,1.28,1.28
261,-0.65,-1.93,-0.65,-1.93,1.93,2.05,1.28,1.28,1.28
264,-0.65,-1.93,-0.65,-1.93,1.93,2.04,1.28,1.28,1.28
266,-0.65,-1.93,-0.65,-1.93,1.93,2.03,1.28,1.28,1.28
269,-0.65,-1.93,-0.65,-1.93,1.93,2.02,1.28,1.28,1.28
272,-0.65,-1.93,-0.65,-1.93,1.93,2.01,1.28,1.28,1.28
274,-0.65,-1.93,-0.65,-1.93,1.93,2.00,1.28,1.28,1.28
277,-0.65,-1.93,-0.65,-1.93,1.93,1.98,1.28,1.28,1.28
280,-0.65,-1.93,-0.65,-1.93,1.93,1.97,1.28,1.28,1.28
283,-0.65,-1.93,-0.65,-1.93,1.93,1.95,1.28,1.28,1.28
286,-0.65,-1.93,-0.65,-1.93,1.93,1.93,1.28,1.28,1.28
288,-0.65,-1.93,-0.65,-1.93,1.93,1.92,1.28,1.28,1.28
291,-0.65,-1.93,-0.65,-1.93,1.93,1.90,1.28,1.28,1.28
294,-0.65,-1.93,-0.65,-1.93,1.93,1.89,1.28,1.28,1.28
297,-0.65,-1.93,-0.65,-1.93,1.93,1.87,1.28,1.28,1.28
300,-0.65,-1.93,-0.65,-1.93,1.93,1.85,1.28,1.28,1.28
303,-0.65,-1.93,-0.65,-1.93,1.93,1.84,1.28,1.28,1.28
306,-0.65,-1.93,-0.65,-1.93,1.93,1.82,1.28,1.28,1.28
309,-0.65,-1.93,-0.65,-1.93,1.93,1.81,1.28,1.28,1.28
312,-0.65,-1.93,-0.65,-1.93,1.93,1.79,1.28,1.28,1.28
316,-0.65,-1.93,-0.65,-1.93,1.93,1.78,1.28,1.28,1.28
319,-0.65,-1.93,-0.65,-1.93,1.93,1.77,1.28,1.28,1.28
322,-0.65,-1.93,-0.65,-1.93,1.93,1.76,1.28,1.28,1.28
325,-0.65,-1.93,-0.65,-1.93,1.93,1.75,1.28,1.28,1.28
328,-0.65,-1.93,-0.65,-1.93,1.93,1.74,1.28,1.28,1.28
332,-0.65,-1.93,-0.65,-1.93,1.93,1.73,1.28,1.28,1.28
335,-0.65,-1.93,-0.65,-1.93,1.93,1.72,1.28,1.28,1.28
338,-0.65,-1.93,-0.65,-1.93,1.93,1.72,1.28,1.28,1.28
342,-0.65,-1.93,-0.65,-1.93,1.93,1.71,1.28,1.28,1.28
345,-0.65,-1.93,-0.65,-1.93,1.93,1.71,1.28,1.28,1.28
349,-0.65,-1.93,-0.65,-1.93,1.93,1.71,1.28,1.28,1.28
352,-0.65,-1.93,-0.65,-1.93,1.93,1.71,1.28,1.28,1.28
356,-0.65,-1.93,-0.65,-1.93,1.93,1.71,1.28,1.28,1.28
359,-0.65,-1.93,-0.65,-1.93,1.93,1.71,1.28,1.28,1.28
363,-0.65,-1.93,-0.65,-1.93,1.93,1.72,1.28,1.28,1.28
366,-0.65,-1.93,-0.65,-1.93,1.93,1.72,1.28,1.28,1.28
370,-0.65,-1.93,-0.65,-1.93,1.93,1.73,1.28,1.28,1.28
374,-0.65,-1.93,-0.65,-1.93,1.93,1.73,1.28,1.28,1.28
377,-0.65,-1.93,-0.65,-1.93,1.93,1.74,1.28,1.28,1.28
381,-0.65,-1.93,-0.65,-1.93,1.93,1.75,1.28,1.28,1.28
385,-0.65,-1.93,-0.65,-1.93,1.93,1.76,1.28,1.28,1.28
389,-0.65,-1.93,-0.65,-1.93,1.93,1.77,1.28,1.28,1.28
393,-0.65,-1.93,-0.65,-1.93,1.93,1.79,1.28,1.28,1.28
397,-0.65,-1.93,-0.65,-1.93,1.93,1.80,1.28,1.28,1.28
401,-0.65,-1.93,-0.65,-1.93,1.93,1.81,1.28,1.28,1.28
405,-0.65,-1.93,-0.65,-1.93,1.93,1.83,1.28,1.28,1.28
409,-0.65,-1.93,-0.65,-1.93,1.93,1.85,1.28,1.28,1.28
413,-0.65,-1.93,-0.65,-1.93,1.93,1.86,1.28,1.28,1.28
417,-0.65,-1.93,-0.65,-1.93,1.93,1.88,1.28,1.28,1.28
421,-0.65,-1.93,-0.65,-1.93,1.93,1.89,1.28,1.28,1.28
425,-0.65,-1.93,-0.65,-1.93,1.93,1.91,1.28,1.28,1.28
430,-0.65,-1.93,-0.65,-1.94,1.94,1.93,1.29,1.29,1.28
434,-0.65,-1.93,-0.65,-1.94,1.94,1.94,1.29,1.29,1.28
438,-0.65,-1.93,-0.66,-1.94,1.94,1.96,1.29,1.28,1.28
443,-0.65,-1.93,-0.66,-1.94,1.94,1.98,1.29,1.28,1.28
447,-0.65,-1.93,-0.66,-1.94,1.94,1.99,1.29,1.28,1.28
451,-0.65,-1.93,-0.66,-1.93,1.93,2.00,1.28,1.28,1.28
456,-0.65,-1.93,-0.66,-1.93,1.93,2.01,1.28,1.27,1.28
460,-0.65,-1.93,-0.65,-1.92,1.92,2.02,1.27,1.27,1.28
465,-0.65,-1.93,-0.64,-1.91,1.91,2.04,1.26,1.27,1.28
470,-0.65,-1.93,-0.62,-1.89,1.89,2.04,1.24,1.27,1.28
474,-0.65,-1.93,-0.60,-1.87,1.87,2.05,1.22,1.27,1.28
479,-0.62,-1.90,-0.57,-1.84,1.84,2.05,1.22,1.27,1.28
484,-0.51,-1.79,-0.54,-1.81,1.81,2.06,1.30,1.27,1.28
489,-0.49,-1.77,-0.51,-1.78,1.78,2.06,1.29,1.27,1.28
494,-0.49,-1.77,-0.47,-1.75,1.75,2.06,1.26,1.27,1.28
499,-0.49,-1.77,-0.44,-1.72,1.72,2.05,1.23,1.28,1.28
504,-0.37,-1.65,-0.41,-1.69,1.69,2.05,1.32,1.28,1.28
509,-0.32,-1.60,-0.38,-1.66,1.66,2.04,1.34,1.28,1.28
514,-0.32,-1.60,-0.36,-1.64,1.64,2.03,1.32,1.28,1.28
519,-0.32,-1.60,-0.34,-1.62,1.62,2.02,1.30,1.28,1.28
524,-0.32,-1.60,-0.32,-1.61,1.61,2.00,1.29,1.28,1.28
529,-0.32,-1.60,-0.32,-1.60,1.60,1.99,1.28,1.28,1.28
535,-0.32,-1.60,-0.31,-1.59,1.59,1.96,1.27,1.28,1.28
540,-0.32,-1.60,-0.31,-1.59,1.59,1.95,1.27,1.28,1.28
545,-0.32,-1.60,-0.31,-1.59,1.59,1.93,1.27,1.28,1.28
551,-0.32,-1.60,-0.31,-1.59,1.59,1.90,1.27,1.28,1.28
556,-0.32,-1.60,-0.32,-1.59,1.59,1.88,1.27,1.27,1.28
562,-0.32,-1.60,-0.32,-1.59,1.59,1.85,1.27,1.27,1.28
568,-0.32,-1.60,-0.32,-1.60,1.60,1.82,1.28,1.28,1.28
573,-0.32,-1.60,-0.32,-1.60,1.60,1.80,1.28,1.28,1.28
579,-0.32,-1.60,-0.32,-1.60,1.60,1.77,1.28,1.28,1.28
585,-0.32,-1.60,-0.32,-1.60,1.60,1.74,1.28,1.28,1.28
591,-0.32,-1.60,-0.32,-1.60,1.60,1.71,1.28,1.28,1.28
596,-0.32,-1.60,-0.32,-1.60,1.60,1.68,1.28,1.28,1.28
602,-0.32,-1.60,-0.32,-1.60,1.60,1.65,1.28,1.28,1.28
608,-0.32,-1.60,-0.32,-1.60,1.60,1.62,1.28,1.28,1.28
615,-0.32,-1.60,-0.32,-1.60,1.60,1.59,1.28,1.28,1.28
621,-0.32,-1.60,-0.32,-1.60,1.60,1.56,1.28,1.28,1.28
627,-0.32,-1.60,-0.32,-1.60,1.60,1.54,1.28,1.28,1.28
633,-0.32,-1.60,-0.32,-1.60,1.60,1.51,1.28,1.28,1.28
639,-0.32,-1.60,-0.32,-1.60,1.60,1.48,1.28,1.28,1.28
646,-0.32,-1.60,-0.32,-1.60,1.60,1.46,1.28,1.28,1.28
652,-0.32,-1.60,-0.32,-1.60,1.60,1.43,1.28,1.28,1.28
659,-0.32,-1.60,-0.32,-1.60,1.60,1.40,1.28,1.28,1.28
665,-0.32,-1.60,-0.32,-1.60,1.60,1.38,1.28,1.28,1.28
672,-0.32,-1.60,-0.32,-1.60,1.60,1.36,1.28,1.28,1.28
679,-0.32,-1.60,-0.32,-1.60,1.60,1.33,1.28,1.28,1.28
686,-0.32,-1.60,-0.32,-1.60,1.60,1.31,1.28,1.28,1.28
692,-0.32,-1.60,-0.32,-1.60,1.60,1.29,1.28,1.28,1.28
699,-0.32,-1.60,-0.32,-1.60,1.60,1.27,1.28,1.28,1.28
706,-0.32,-1.60,-0.32,-1.60,1.60,1.26,1.28,1.28,1.28
713,-0.32,-1.60,-0.32,-1.60,1.60,1.24,1.28,1.28,1.28
721,-0.32,-1.60,-0.32,-1.60,1.60,1.22,1.28,1.28,1.28
728,-0.32,-1.60,-0.32,-1.60,1.60,1.20,1.28,1.28,1.28
735,-0.32,-1.60,-0.32,-1.60,1.60,1.19,1.28,1.28,1.28
742,-0.32,-1.60,-0.32,-1.60,1.60,1.18,1.28,1.28,1.28
750,-0.32,-1.60,-0.32,-1.60,1.60,1.16,1.28,1.28,1.28
757,-0.32,-1.60,-0.32,-1.60,1.60,1.15,1.28,1.28,1.28
765,-0.32,-1.60,-0.32,-1.60,1.60,1.14,1.28,1.28,1.28
773,-0.32,-1.60,-0.32,-1.60,1.60,1.13,1.28,1.28,1.28
780,-0.32,-1.60,-0.32,-1.60,1.60,1.12,1.28,1.28,1.28
788,-0.32,-1.60,-0.32,-1.60,1.60,1.11,1.28,1.28,1.28
796,-0.32,-1.60,-0.32,-1.60,1.60,1.11,1.28,1.28,1.28
804,-0.32,-1.60,-0.32,-1.60,1.60,1.10,1.28,1.28,1.28
812,-0.32,-1.60,-0.32,-1.61,1.61,1.09,1.29,1.29,1.28
820,-0.32,-1.60,-0.32,-1.61,1.61,1.09,1.29,1.29,1.28
828,-0.32,-1.60,-0.32,-1.61,1.61,1.08,1.29,1.29,1.28
837,-0.32,-1.60,-0.33,-1.61,1.61,1.08,1.29,1.28,1.28
845,-0.32,-1.60,-0.34,-1.61,1.61,1.07,1.29,1.27,1.28
853,-0.32,-1.60,-0.34,-1.61,1.61,1.07,1.29,1.27,1.28
862,-0.32,-1.60,-0.34,-1.60,1.60,1.06,1.28,1.26,1.28
871,-0.32,-1.60,-0.33,-1.59,1.59,1.06,1.27,1.26,1.28
879,-0.32,-1.60,-0.31,-1.57,1.57,1.06,1.25,1.26,1.28
888,-0.32,-1.60,-0.29,-1.55,1.55,1.06,1.23,1.26,1.28
897,-0.32,-1.60,-0.26,-1.53,1.53,1.05,1.21,1.27,1.28
906,-0.32,-1.60,-0.23,-1.50,1.50,1.05,1.18,1.27,1.28
915,-0.29,-1.57,-0.20,-1.47,1.47,1.05,1.18,1.27,1.28
924,-0.18,-1.46,-0.17,-1.44,1.44,1.05,1.26,1.28,1.28
933,-0.07,-1.35,-0.13,-1.41,1.41,1.04,1.34,1.28,1.28
943,0.00,-1.28,-0.10,-1.38,1.38,1.04,1.38,1.28,1.28
952,0.00,-1.28,-0.08,-1.36,1.36,1.04,1.36,1.28,1.28
962,0.00,-1.28,-0.06,-1.33,1.33,1.03,1.33,1.27,1.28
971,0.00,-1.28,-0.04,-1.31,1.31,1.03,1.31,1.27,1.28
981,0.00,-1.28,-0.02,-1.28,1.28,1.02,1.28,1.27,1.28
991,0.00,-1.28,0.01,-1.26,1.26,1.02,1.26,1.27,1.28
1001,0.00,-1.28,0.03,-1.24,1.24,1.01,1.24,1.27,1.28
1011,0.00,-1.28,0.05,-1.22,1.22,1.01,1.22,1.27,1.28
1021,0.00,-1.28,0.07,-1.19,1.19,1.00,1.19,1.26,1.28
1031,0.00,-1.28,0.09,-1.17,1.17,0.99,1.17,1.26,1.28
1041,0.03,-1.25,0.12,-1.15,1.15,0.98,1.18,1.27,1.28
1052,0.15,-1.13,0.16,-1.12,1.12,0.98,1.27,1.27,1.28
1062,0.26,-1.02,0.18,-1.09,1.09,0.97,1.35,1.27,1.28
1073,0.32,-0.96,0.21,-1.06,1.06,0.96,1.38,1.27,1.28
1084,0.32,-0.96,0.23,-1.03,1.03,0.95,1.35,1.27,1.28
1094,0.32,-0.96,0.26,-1.01,1.01,0.94,1.33,1.27,1.28
1105,0.32,-0.96,0.29,-0.98,0.98,0.93,1.30,1.27,1.28
1116,0.32,-0.96,0.32,-0.95,0.95,0.92,1.27,1.28,1.28
1128,0.32,-0.96,0.36,-0.93,0.93,0.91,1.25,1.28,1.28
1139,0.32,-0.96,0.39,-0.90,0.90,0.90,1.22,1.28,1.28
1150,0.32,-0.96,0.40,-0.87,0.87,0.90,1.19,1.27,1.28
1162,0.32,-0.96,0.42,-0.84,0.84,0.89,1.16,1.26,1.28
1173,0.41,-0.87,0.44,-0.81,0.81,0.88,1.22,1.25,1.28
1185,0.52,-0.76,0.48,-0.77,0.77,0.87,1.29,1.25,1.28
1197,0.64,-0.64,0.53,-0.73,0.73,0.86,1.37,1.26,1.28
1209,0.65,-0.63,0.58,-0.69,0.69,0.85,1.34,1.27,1.28
1221,0.65,-0.63,0.63,-0.65,0.65,0.84,1.30,1.28,1.28
1233,0.65,-0.63,0.68,-0.60,0.60,0.84,1.25,1.28,1.28
1246,0.65,-0.63,0.72,-0.56,0.56,0.83,1.21,1.28,1.28
1258,0.71,-0.57,0.77,-0.51,0.51,0.82,1.22,1.28,1.28
1271,0.83,-0.45,0.82,-0.47,0.47,0.82,1.30,1.28,1.28
1283,0.93,-0.35,0.86,-0.42,0.42,0.81,1.35,1.28,1.28
1296,0.97,-0.31,0.91,-0.37,0.37,0.81,1.34,1.28,1.28
1309,0.97,-0.31,0.95,-0.33,0.33,0.80,1.30,1.28,1.28
1322,0.97,-0.31,0.99,-0.28,0.28,0.80,1.25,1.27,1.28
1335,0.97,-0.31,1.04,-0.24,0.24,0.80,1.21,1.27,1.28
1349,1.01,-0.27,1.08,-0.19,0.19,0.79,1.20,1.27,1.28
1362,1.12,-0.16,1.13,-0.15,0.15,0.79,1.27,1.27,1.28
1376,1.24,-0.04,1.18,-0.10,0.10,0.79,1.34,1.28,1.28
1390,1.30,0.02,1.22,-0.05,0.05,0.79,1.35,1.28,1.28
1404,1.30,0.02,1.27,-0.01,0.01,0.79,1.31,1.28,1.28
1418,1.30,0.02,1.31,0.04,-0.04,0.80,1.26,1.28,1.28
1432,1.30,0.02,1.36,0.08,-0.08,0.80,1.22,1.28,1.28
1446,1.31,0.03,1.41,0.12,-0.12,0.80,1.19,1.28,1.28
1461,1.43,0.15,1.45,0.17,-0.17,0.80,1.26,1.28,1.28
1475,1.53,0.25,1.49,0.21,-0.21,0.81,1.32,1.28,1.28
1490,1.62,0.34,1.53,0.25,-0.25,0.81,1.37,1.27,1.28
1505,1.62,0.34,1.57,0.30,-0.30,0.82,1.32,1.27,1.28
1520,1.62,0.34,1.61,0.34,-0.34,0.82,1.28,1.27,1.28
1535,1.62,0.34,1.66,0.38,-0.38,0.83,1.24,1.27,1.28
1550,1.62,0.34,1.71,0.43,-0.43,0.84,1.19,1.28,1.28
1566,1.72,0.44,1.75,0.47,-0.47,0.84,1.25,1.28,1.28
1582,1.78,0.50,1.79,0.51,-0.51,0.85,1.27,1.28,1.28
1597,1.78,0.50,1.83,0.55,-0.55,0.86,1.23,1.28,1.28
1613,1.90,0.62,1.86,0.58,-0.58,0.87,1.32,1.28,1.28
1629,1.95,0.67,1.89,0.61,-0.61,0.87,1.34,1.28,1.28
1646,1.95,0.67,1.91,0.64,-0.64,0.88,1.31,1.28,1.28
1662,1.95,0.67,1.94,0.65,-0.65,0.89,1.30,1.29,1.28
1679,1.95,0.67,1.96,0.66,-0.66,0.90,1.29,1.30,1.28
1696,1.95,0.67,1.97,0.67,-0.67,0.90,1.28,1.30,1.28
1713,1.95,0.67,1.96,0.66,-0.66,0.91,1.29,1.29,1.28
1730,1.95,0.67,1.93,0.65,-0.65,0.91,1.30,1.28,1.28
1747,1.95,0.67,1.91,0.63,-0.63,0.92,1.32,1.28,1.28
1764,1.95,0.67,1.88,0.60,-0.60,0.92,1.35,1.28,1.28
1782,1.84,0.56,1.85,0.57,-0.57,0.92,1.27,1.28,1.28
1800,1.78,0.50,1.82,0.53,-0.53,0.92,1.25,1.28,1.28
1818,1.78,0.50,1.78,0.50,-0.50,0.92,1.28,1.28,1.28
1836,1.67,0.39,1.74,0.45,-0.45,0.92,1.22,1.28,1.28
1854,1.62,0.34,1.69,0.41,-0.41,0.91,1.21,1.28,1.28
1873,1.62,0.34,1.64,0.37,-0.37,0.90,1.25,1.27,1.28
1892,1.62,0.34,1.59,0.32,-0.32,0.89,1.30,1.27,1.28
