frequency,raw,error,smoothed,error_smoothed,equalization,parametric_eq,fixed_band_eq,equalized_raw,equalized_smoothed,target
20.00,7.77,4.56,7.77,4.55,-4.56,-4.54,-1.21,3.21,3.21,3.22
20.20,7.75,4.51,7.76,4.51,-4.51,-4.50,-1.25,3.24,3.25,3.25
20.40,7.75,4.48,7.75,4.47,-4.47,-4.46,-1.28,3.29,3.28,3.28
20.61,7.74,4.45,7.73,4.43,-4.42,-4.41,-1.32,3.32,3.31,3.30
20.81,7.70,4.38,7.71,4.38,-4.38,-4.37,-1.36,3.33,3.33,3.33
21.02,7.67,4.32,7.68,4.33,-4.33,-4.33,-1.40,3.34,3.34,3.36
21.23,7.66,4.30,7.65,4.28,-4.29,-4.28,-1.44,3.37,3.36,3.37
21.44,7.61,4.24,7.62,4.25,-4.25,-4.24,-1.48,3.36,3.37,3.38
21.66,7.60,4.22,7.60,4.22,-4.22,-4.20,-1.53,3.39,3.38,3.38
21.87,7.57,4.19,7.57,4.18,-4.18,-4.15,-1.57,3.39,3.39,3.38
22.09,7.54,4.15,7.54,4.15,-4.15,-4.11,-1.62,3.39,3.39,3.39
22.31,7.51,4.12,7.51,4.11,-4.12,-4.06,-1.67,3.39,3.39,3.39
22.54,7.47,4.08,7.48,4.09,-4.09,-4.02,-1.71,3.38,3.39,3.39
22.76,7.45,4.06,7.45,4.06,-4.06,-3.98,-1.76,3.40,3.39,3.39
22.99,7.42,4.04,7.41,4.02,-4.02,-3.93,-1.82,3.40,3.39,3.38
23.22,7.36,3.98,7.38,3.99,-3.99,-3.88,-1.87,3.38,3.39,3.38
23.45,7.33,3.95,7.33,3.95,-3.95,-3.84,-1.92,3.38,3.38,3.38
23.69,7.30,3.92,7.29,3.91,-3.91,-3.79,-1.98,3.39,3.38,3.38
23.92,7.25,3.87,7.26,3.87,-3.87,-3.75,-2.03,3.38,3.39,3.38
24.16,7.21,3.82,7.21,3.82,-3.83,-3.70,-2.09,3.38,3.38,3.39
24.40,7.16,3.77,7.16,3.78,-3.78,-3.65,-2.14,3.38,3.38,3.39
24.65,7.12,3.74,7.12,3.74,-3.74,-3.61,-2.20,3.38,3.38,3.38
24.89,7.07,3.69,7.07,3.69,-3.69,-3.56,-2.26,3.38,3.38,3.38
25.14,7.03,3.65,7.03,3.65,-3.65,-3.51,-2.32,3.38,3.38,3.38
25.39,6.98,3.60,6.98,3.60,-3.60,-3.46,-2.38,3.38,3.38,3.38
25.65,6.93,3.55,6.93,3.56,-3.55,-3.42,-2.44,3.38,3.38,3.38
25.91,6.87,3.51,6.87,3.50,-3.50,-3.37,-2.50,3.37,3.37,3.37
26.16,6.81,3.44,6.81,3.44,-3.45,-3.32,-2.56,3.36,3.36,3.37
26.43,6.75,3.39,6.76,3.39,-3.40,-3.27,-2.61,3.36,3.36,3.37
26.69,6.70,3.34,6.71,3.34,-3.34,-3.22,-2.67,3.36,3.37,3.37
26.96,6.66,3.30,6.66,3.29,-3.29,-3.17,-2.73,3.38,3.37,3.37
27.23,6.61,3.25,6.60,3.24,-3.23,-3.13,-2.78,3.38,3.37,3.36
27.50,6.52,3.16,6.54,3.18,-3.17,-3.08,-2.84,3.35,3.36,3.36
27.77,6.47,3.12,6.47,3.11,-3.11,-3.03,-2.89,3.36,3.35,3.35
28.05,6.40,3.05,6.40,3.05,-3.05,-2.98,-2.94,3.35,3.35,3.35
28.33,6.33,2.99,6.34,2.99,-2.99,-2.93,-2.99,3.34,3.35,3.34
28.62,6.27,2.93,6.27,2.93,-2.93,-2.88,-3.03,3.35,3.34,3.34
28.90,6.19,2.85,6.20,2.86,-2.86,-2.83,-3.07,3.33,3.34,3.34
29.19,6.13,2.80,6.13,2.80,-2.80,-2.79,-3.11,3.33,3.33,3.33
29.48,6.06,2.72,6.06,2.73,-2.73,-2.74,-3.14,3.33,3.33,3.34
29.78,6.00,2.68,6.00,2.67,-2.67,-2.69,-3.17,3.34,3.33,3.33
30.08,5.92,2.60,5.93,2.60,-2.60,-2.64,-3.20,3.32,3.33,3.33
30.38,5.85,2.54,5.85,2.53,-2.53,-2.59,-3.22,3.32,3.32,3.31
30.68,5.77,2.46,5.78,2.47,-2.47,-2.54,-3.24,3.30,3.31,3.31
30.99,5.70,2.40,5.71,2.40,-2.40,-2.50,-3.25,3.30,3.30,3.30
31.30,5.64,2.34,5.63,2.33,-2.34,-2.45,-3.26,3.31,3.30,3.30
31.61,5.56,2.26,5.57,2.27,-2.27,-2.40,-3.26,3.29,3.30,3.30
31.93,5.49,2.20,5.50,2.21,-2.20,-2.36,-3.26,3.29,3.29,3.29
32.24,5.43,2.15,5.42,2.14,-2.14,-2.31,-3.26,3.29,3.28,3.28
32.57,5.35,2.08,5.35,2.08,-2.08,-2.26,-3.24,3.27,3.28,3.28
32.89,5.28,2.01,5.29,2.02,-2.02,-2.22,-3.23,3.26,3.27,3.27
33.22,5.22,1.96,5.22,1.96,-1.96,-2.17,-3.21,3.26,3.26,3.26
33.55,5.16,1.90,5.16,1.90,-1.90,-2.13,-3.19,3.26,3.26,3.26
33.89,5.10,1.85,5.10,1.85,-1.84,-2.08,-3.16,3.26,3.26,3.25
34.23,5.03,1.78,5.04,1.79,-1.79,-2.04,-3.13,3.24,3.25,3.25
34.57,4.97,1.74,4.97,1.74,-1.74,-2.00,-3.10,3.24,3.23,3.24
34.92,4.91,1.69,4.91,1.68,-1.69,-1.95,-3.07,3.23,3.22,3.22
35.27,4.85,1.63,4.86,1.64,-1.64,-1.91,-3.03,3.21,3.22,3.22
35.62,4.81,1.60,4.81,1.60,-1.60,-1.87,-2.99,3.21,3.21,3.21
35.97,4.76,1.56,4.76,1.56,-1.56,-1.83,-2.95,3.20,3.20,3.20
36.33,4.70,1.51,4.71,1.52,-1.52,-1.79,-2.91,3.18,3.19,3.20
36.70,4.67,1.49,4.66,1.48,-1.48,-1.75,-2.87,3.19,3.18,3.18
37.06,4.62,1.45,4.63,1.45,-1.45,-1.72,-2.82,3.17,3.18,3.17
37.43,4.59,1.42,4.59,1.43,-1.42,-1.68,-2.78,3.17,3.17,3.17
37.81,4.56,1.41,4.55,1.39,-1.39,-1.64,-2.73,3.17,3.16,3.16
38.19,4.50,1.36,4.51,1.36,-1.36,-1.61,-2.69,3.14,3.15,3.14
38.57,4.47,1.33,4.47,1.34,-1.34,-1.58,-2.64,3.13,3.14,3.14
38.95,4.44,1.31,4.44,1.31,-1.31,-1.55,-2.60,3.13,3.13,3.13
39.34,4.41,1.30,4.41,1.29,-1.29,-1.52,-2.56,3.12,3.12,3.12
39.74,4.38,1.28,4.38,1.28,-1.27,-1.49,-2.51,3.11,3.11,3.10
40.14,4.35,1.25,4.35,1.26,-1.26,-1.46,-2.47,3.10,3.10,3.10
40.54,4.33,1.25,4.33,1.24,-1.24,-1.43,-2.43,3.09,3.08,3.09
40.94,4.30,1.22,4.31,1.23,-1.24,-1.41,-2.39,3.07,3.08,3.08
41.35,4.30,1.23,4.30,1.23,-1.23,-1.39,-2.35,3.07,3.07,3.07
41.76,4.30,1.24,4.30,1.23,-1.23,-1.37,-2.31,3.07,3.07,3.06
42.18,4.30,1.24,4.30,1.24,-1.24,-1.35,-2.28,3.06,3.06,3.06
42.60,4.30,1.26,4.30,1.25,-1.25,-1.33,-2.24,3.05,3.05,3.05
43.03,4.30,1.26,4.30,1.26,-1.27,-1.32,-2.21,3.03,3.03,3.04
43.46,4.30,1.27,4.32,1.29,-1.30,-1.30,-2.18,3.00,3.02,3.03
43.90,4.35,1.35,4.33,1.33,-1.33,-1.29,-2.15,3.02,3.00,3.00
44.33,4.35,1.36,4.36,1.37,-1.37,-1.28,-2.12,2.98,2.99,2.99
44.78,4.39,1.42,4.39,1.42,-1.41,-1.28,-2.10,2.98,2.98,2.97
45.23,4.42,1.46,4.42,1.46,-1.46,-1.27,-2.07,2.96,2.96,2.96
45.68,4.46,1.52,4.46,1.52,-1.51,-1.27,-2.05,2.95,2.95,2.94
46.13,4.49,1.56,4.50,1.56,-1.56,-1.27,-2.03,2.93,2.93,2.93
46.60,4.54,1.62,4.54,1.62,-1.62,-1.27,-2.01,2.92,2.92,2.92
47.06,4.57,1.67,4.58,1.67,-1.67,-1.27,-1.99,2.90,2.90,2.91
47.53,4.63,1.74,4.63,1.73,-1.73,-1.28,-1.97,2.90,2.89,2.89
48.01,4.66,1.78,4.67,1.79,-1.79,-1.29,-1.95,2.87,2.87,2.88
48.49,4.71,1.85,4.71,1.85,-1.85,-1.30,-1.94,2.86,2.85,2.86
48.97,4.74,1.91,4.74,1.91,-1.91,-1.31,-1.93,2.83,2.83,2.83
49.46,4.77,1.97,4.78,1.98,-1.97,-1.33,-1.92,2.80,2.81,2.80
49.96,4.82,2.05,4.82,2.03,-2.03,-1.34,-1.91,2.79,2.79,2.78
50.46,4.86,2.09,4.85,2.09,-2.09,-1.36,-1.90,2.78,2.77,2.77
50.96,4.87,2.12,4.88,2.14,-2.14,-1.39,-1.89,2.74,2.74,2.75
51.47,4.91,2.19,4.90,2.18,-2.18,-1.41,-1.89,2.73,2.72,2.72
51.99,4.91,2.21,4.93,2.22,-2.22,-1.44,-1.88,2.69,2.71,2.70
52.51,4.96,2.27,4.95,2.26,-2.26,-1.46,-1.88,2.71,2.69,2.70
53.03,4.96,2.29,4.96,2.29,-2.28,-1.50,-1.88,2.68,2.68,2.68
53.56,4.96,2.31,4.97,2.31,-2.30,-1.53,-1.88,2.66,2.66,2.66
54.10,4.96,2.33,4.95,2.31,-2.31,-1.56,-1.88,2.65,2.64,2.64
54.64,4.92,2.31,4.93,2.32,-2.32,-1.60,-1.88,2.60,2.62,2.62
55.18,4.91,2.32,4.91,2.31,-2.31,-1.64,-1.88,2.60,2.60,2.60
55.74,4.88,2.31,4.88,2.30,-2.30,-1.68,-1.88,2.58,2.58,2.58
56.29,4.85,2.29,4.85,2.29,-2.28,-1.72,-1.89,2.57,2.56,2.56
56.86,4.79,2.25,4.80,2.26,-2.26,-1.77,-1.89,2.53,2.54,2.54
57.42,4.75,2.23,4.75,2.23,-2.22,-1.81,-1.90,2.53,2.53,2.52
58.00,4.70,2.19,4.70,2.19,-2.19,-1.86,-1.90,2.52,2.52,2.51
58.58,4.65,2.16,4.65,2.15,-2.14,-1.91,-1.91,2.51,2.50,2.50
59.16,4.58,2.10,4.58,2.10,-2.10,-1.96,-1.92,2.48,2.48,2.48
59.76,4.50,2.03,4.51,2.04,-2.05,-2.01,-1.92,2.45,2.46,2.47
60.35,4.44,2.00,4.44,1.99,-2.00,-2.06,-1.93,2.44,2.44,2.44
60.96,4.37,1.94,4.37,1.95,-1.95,-2.11,-1.94,2.42,2.42,2.43
61.57,4.30,1.91,4.30,1.90,-1.90,-2.17,-1.95,2.40,2.40,2.40
62.18,4.23,1.86,4.24,1.86,-1.86,-2.22,-1.96,2.38,2.38,2.37
62.80,4.17,1.82,4.17,1.82,-1.82,-2.28,-1.97,2.36,2.35,2.35
63.43,4.11,1.78,4.11,1.78,-1.78,-2.34,-1.98,2.33,2.33,2.33
64.07,4.05,1.74,4.06,1.75,-1.75,-2.39,-1.99,2.30,2.31,2.31
64.71,4.02,1.73,4.02,1.73,-1.73,-2.45,-2.00,2.29,2.30,2.29
65.35,3.99,1.72,3.99,1.72,-1.71,-2.51,-2.02,2.28,2.28,2.28
66.01,3.98,1.73,3.96,1.71,-1.71,-2.57,-2.03,2.27,2.25,2.26
66.67,3.93,1.69,3.95,1.71,-1.72,-2.63,-2.04,2.21,2.23,2.24
67.33,3.93,1.71,3.95,1.73,-1.74,-2.68,-2.06,2.20,2.21,2.22
68.01,3.98,1.78,3.96,1.76,-1.77,-2.74,-2.07,2.21,2.19,2.20
68.69,3.98,1.81,3.99,1.82,-1.81,-2.80,-2.09,2.17,2.18,2.18
69.37,4.02,1.87,4.02,1.87,-1.87,-2.86,-2.11,2.16,2.16,2.16
70.07,4.07,1.94,4.06,1.93,-1.93,-2.91,-2.12,2.14,2.13,2.13
70.77,4.11,1.99,4.12,2.01,-2.01,-2.97,-2.14,2.10,2.11,2.12
71.48,4.19,2.09,4.19,2.09,-2.09,-3.03,-2.16,2.10,2.09,2.10
72.19,4.26,2.19,4.26,2.18,-2.18,-3.08,-2.18,2.08,2.07,2.07
72.91,4.33,2.28,4.34,2.29,-2.28,-3.14,-2.21,2.05,2.06,2.05
73.64,4.41,2.39,4.41,2.38,-2.38,-3.20,-2.23,2.04,2.03,2.03
74.38,4.49,2.48,4.49,2.49,-2.48,-3.25,-2.26,2.01,2.02,2.01
75.12,4.57,2.59,4.57,2.59,-2.58,-3.30,-2.28,1.99,1.99,1.98
75.87,4.66,2.69,4.66,2.69,-2.68,-3.35,-2.31,1.98,1.97,1.97
76.63,4.72,2.77,4.73,2.79,-2.79,-3.41,-2.34,1.94,1.95,1.95
77.40,4.83,2.90,4.82,2.89,-2.89,-3.46,-2.37,1.94,1.93,1.93
78.17,4.89,2.99,4.90,2.99,-3.00,-3.50,-2.41,1.90,1.91,1.90
78.95,5.00,3.11,4.99,3.10,-3.10,-3.55,-2.44,1.90,1.89,1.90
79.74,5.08,3.21,5.08,3.21,-3.21,-3.60,-2.48,1.87,1.87,1.88
80.54,5.17,3.32,5.18,3.33,-3.33,-3.65,-2.52,1.85,1.86,1.86
81.35,5.28,3.45,5.27,3.44,-3.44,-3.69,-2.56,1.84,1.83,1.84
82.16,5.37,3.56,5.37,3.55,-3.55,-3.73,-2.60,1.82,1.82,1.81
82.98,5.45,3.65,5.46,3.67,-3.67,-3.77,-2.65,1.79,1.80,1.80
83.81,5.56,3.79,5.55,3.78,-3.78,-3.81,-2.70,1.78,1.77,1.77
84.65,5.64,3.90,5.64,3.89,-3.89,-3.85,-2.74,1.75,1.75,1.75
85.50,5.73,4.00,5.74,4.01,-4.00,-3.89,-2.80,1.73,1.73,1.73
86.35,5.82,4.11,5.82,4.11,-4.11,-3.93,-2.85,1.71,1.71,1.71
87.22,5.90,4.22,5.90,4.21,-4.21,-3.96,-2.91,1.69,1.69,1.69
88.09,5.97,4.31,5.98,4.31,-4.31,-4.00,-2.96,1.66,1.66,1.66
88.97,6.05,4.41,6.05,4.41,-4.41,-4.03,-3.03,1.64,1.64,1.65
89.86,6.11,4.49,6.12,4.50,-4.50,-4.06,-3.09,1.61,1.62,1.62
90.76,6.18,4.60,6.18,4.59,-4.59,-4.09,-3.15,1.60,1.60,1.58
91.66,6.24,4.68,6.23,4.67,-4.66,-4.11,-3.22,1.58,1.57,1.57
92.58,6.27,4.74,6.28,4.74,-4.74,-4.14,-3.29,1.53,1.54,1.53
93.51,6.31,4.80,6.32,4.80,-4.81,-4.16,-3.36,1.51,1.51,1.51
94.44,6.35,4.87,6.35,4.87,-4.87,-4.19,-3.44,1.48,1.48,1.48
95.39,6.38,4.93,6.38,4.92,-4.93,-4.21,-3.51,1.45,1.45,1.46
96.34,6.40,4.98,6.40,4.98,-4.98,-4.23,-3.59,1.42,1.42,1.42
97.30,6.40,5.01,6.42,5.03,-5.03,-4.25,-3.67,1.37,1.39,1.39
98.28,6.45,5.09,6.44,5.08,-5.07,-4.27,-3.75,1.38,1.36,1.36
99.26,6.45,5.12,6.45,5.12,-5.11,-4.28,-3.83,1.34,1.34,1.33
100.25,6.45,5.15,6.46,5.15,-5.14,-4.30,-3.92,1.31,1.31,1.30
101.25,6.45,5.18,6.44,5.17,-5.17,-4.31,-4.00,1.29,1.27,1.27
102.27,6.41,5.17,6.43,5.18,-5.19,-4.32,-4.08,1.23,1.24,1.25
103.29,6.40,5.20,6.40,5.19,-5.20,-4.33,-4.17,1.21,1.21,1.21
104.32,6.39,5.21,6.38,5.20,-5.20,-4.34,-4.26,1.19,1.18,1.19
105.37,6.35,5.20,6.36,5.20,-5.20,-4.35,-4.34,1.15,1.16,1.16
106.42,6.33,5.20,6.32,5.20,-5.20,-4.36,-4.43,1.14,1.13,1.13
107.48,6.27,5.17,6.28,5.19,-5.19,-4.36,-4.51,1.08,1.10,1.10
108.56,6.24,5.18,6.24,5.18,-5.17,-4.37,-4.59,1.07,1.07,1.06
109.64,6.19,5.16,6.19,5.15,-5.15,-4.37,-4.67,1.04,1.03,1.03
110.74,6.13,5.13,6.13,5.13,-5.13,-4.37,-4.75,1.00,1.00,1.00
111.85,6.06,5.09,6.07,5.10,-5.10,-4.38,-4.83,0.96,0.96,0.97
112.97,6.00,5.08,6.00,5.07,-5.07,-4.38,-4.90,0.93,0.93,0.92
114.10,5.93,5.04,5.93,5.04,-5.04,-4.38,-4.96,0.89,0.89,0.89
115.24,5.85,5.00,5.85,5.00,-5.00,-4.37,-5.03,0.85,0.85,0.86
116.39,5.77,4.95,5.77,4.95,-4.95,-4.37,-5.09,0.82,0.82,0.82
117.55,5.68,4.90,5.69,4.91,-4.90,-4.37,-5.14,0.78,0.79,0.78
118.73,5.61,4.87,5.60,4.85,-4.85,-4.37,-5.18,0.76,0.75,0.74
119.92,5.51,4.80,5.51,4.80,-4.80,-4.36,-5.22,0.72,0.71,0.72
121.12,5.40,4.72,5.42,4.74,-4.74,-4.35,-5.26,0.67,0.68,0.68
122.33,5.32,4.68,5.32,4.67,-4.67,-4.35,-5.28,0.65,0.65,0.64
123.55,5.23,4.62,5.22,4.61,-4.61,-4.34,-5.31,0.62,0.61,0.62
124.79,5.12,4.54,5.13,4.54,-4.55,-4.33,-5.32,0.58,0.58,0.58
126.03,5.01,4.47,5.02,4.48,-4.48,-4.32,-5.32,0.53,0.54,0.55
127.29,4.93,4.42,4.92,4.41,-4.41,-4.32,-5.32,0.52,0.51,0.51
128.57,4.82,4.35,4.82,4.35,-4.35,-4.31,-5.31,0.48,0.47,0.47
129.85,4.71,4.28,4.73,4.29,-4.28,-4.30,-5.30,0.43,0.44,0.43
131.15,4.63,4.23,4.62,4.22,-4.22,-4.28,-5.28,0.42,0.40,0.40
132.46,4.52,4.15,4.52,4.15,-4.15,-4.27,-5.24,0.37,0.37,0.37
133.79,4.41,4.07,4.43,4.09,-4.09,-4.26,-5.21,0.32,0.34,0.35
135.12,4.35,4.05,4.34,4.02,-4.03,-4.25,-5.17,0.32,0.31,0.31
136.48,4.24,3.96,4.25,3.96,-3.97,-4.24,-5.13,0.27,0.28,0.28
137.84,4.16,3.91,4.16,3.91,-3.91,-4.22,-5.08,0.25,0.25,0.25
139.22,4.07,3.86,4.07,3.85,-3.85,-4.21,-5.03,0.22,0.22,0.21
140.61,4.00,3.82,4.00,3.81,-3.80,-4.20,-4.97,0.20,0.20,0.19
142.02,3.92,3.75,3.93,3.76,-3.75,-4.18,-4.91,0.17,0.17,0.18
143.44,3.86,3.71,3.85,3.71,-3.71,-4.17,-4.85,0.15,0.15,0.15
144.87,3.78,3.66,3.79,3.66,-3.67,-4.15,-4.78,0.12,0.12,0.12
146.32,3.72,3.63,3.73,3.63,-3.63,-4.14,-4.72,0.09,0.10,0.10
147.78,3.67,3.59,3.67,3.59,-3.59,-4.12,-4.65,0.08,0.07,0.08
149.26,3.61,3.56,3.61,3.56,-3.56,-4.10,-4.59,0.05,0.05,0.05
150.75,3.56,3.54,3.56,3.54,-3.54,-4.09,-4.52,0.02,0.02,0.02
152.26,3.51,3.52,3.52,3.52,-3.52,-4.07,-4.45,-0.01,-0.01,-0.01
153.78,3.48,3.51,3.47,3.50,-3.51,-4.05,-4.39,-0.03,-0.04,-0.03
155.32,3.42,3.49,3.43,3.49,-3.50,-4.04,-4.33,-0.08,-0.07,-0.06
156.88,3.39,3.48,3.39,3.48,-3.49,-4.02,-4.26,-0.10,-0.10,-0.09
158.44,3.36,3.48,3.36,3.48,-3.48,-4.00,-4.20,-0.12,-0.12,-0.12
160.03,3.33,3.48,3.33,3.48,-3.47,-3.98,-4.14,-0.14,-0.14,-0.15
161.63,3.30,3.48,3.30,3.48,-3.46,-3.96,-4.09,-0.16,-0.17,-0.18
163.24,3.25,3.46,3.26,3.46,-3.45,-3.94,-4.03,-0.20,-0.20,-0.21
164.88,3.21,3.44,3.21,3.44,-3.44,-3.93,-3.98,-0.23,-0.23,-0.23
166.53,3.16,3.42,3.16,3.42,-3.42,-3.91,-3.93,-0.26,-0.26,-0.26
168.19,3.11,3.40,3.12,3.40,-3.41,-3.89,-3.88,-0.29,-0.29,-0.29
169.87,3.07,3.39,3.07,3.39,-3.39,-3.87,-3.83,-0.32,-0.32,-0.32
171.57,3.02,3.37,3.03,3.37,-3.37,-3.85,-3.79,-0.35,-0.34,-0.34
173.29,2.98,3.35,2.98,3.35,-3.35,-3.83,-3.75,-0.37,-0.37,-0.37
175.02,2.93,3.33,2.93,3.33,-3.34,-3.81,-3.72,-0.40,-0.40,-0.40
176.77,2.88,3.32,2.89,3.32,-3.32,-3.79,-3.68,-0.44,-0.43,-0.43
178.54,2.85,3.32,2.85,3.31,-3.31,-3.76,-3.65,-0.46,-0.46,-0.47
180.32,2.81,3.31,2.81,3.30,-3.30,-3.74,-3.62,-0.49,-0.49,-0.49
182.13,2.77,3.29,2.78,3.30,-3.30,-3.72,-3.60,-0.52,-0.52,-0.52
183.95,2.73,3.29,2.74,3.29,-3.29,-3.70,-3.58,-0.56,-0.55,-0.55
185.79,2.72,3.30,2.71,3.29,-3.29,-3.68,-3.56,-0.57,-0.58,-0.58
187.65,2.67,3.28,2.68,3.29,-3.29,-3.66,-3.54,-0.62,-0.61,-0.61
189.52,2.67,3.31,2.66,3.29,-3.30,-3.63,-3.53,-0.63,-0.64,-0.63
191.42,2.63,3.29,2.64,3.30,-3.31,-3.61,-3.51,-0.67,-0.67,-0.66
193.33,2.63,3.31,2.63,3.31,-3.32,-3.59,-3.50,-0.69,-0.68,-0.68
195.27,2.63,3.33,2.63,3.33,-3.33,-3.56,-3.50,-0.70,-0.70,-0.70
197.22,2.63,3.35,2.63,3.36,-3.34,-3.54,-3.49,-0.71,-0.71,-0.72
199.19,2.63,3.38,2.63,3.37,-3.36,-3.51,-3.49,-0.73,-0.73,-0.75
201.18,2.61,3.37,2.61,3.38,-3.38,-3.49,-3.49,-0.76,-0.76,-0.76
203.19,2.60,3.37,2.61,3.38,-3.39,-3.47,-3.49,-0.79,-0.79,-0.77
205.23,2.60,3.39,2.61,3.40,-3.41,-3.44,-3.49,-0.81,-0.80,-0.79
207.28,2.63,3.42,2.62,3.42,-3.42,-3.41,-3.49,-0.79,-0.80,-0.79
209.35,2.63,3.44,2.63,3.44,-3.44,-3.39,-3.50,-0.80,-0.81,-0.81
211.44,2.63,3.46,2.64,3.46,-3.45,-3.36,-3.50,-0.82,-0.81,-0.83
213.56,2.63,3.46,2.63,3.46,-3.46,-3.34,-3.50,-0.83,-0.83,-0.83
215.69,2.63,3.46,2.63,3.46,-3.47,-3.31,-3.51,-0.84,-0.84,-0.83
217.85,2.63,3.47,2.63,3.47,-3.47,-3.28,-3.51,-0.84,-0.84,-0.83
220.03,2.63,3.47,2.64,3.48,-3.47,-3.26,-3.52,-0.84,-0.83,-0.84
222.23,2.63,3.48,2.63,3.48,-3.46,-3.23,-3.52,-0.83,-0.83,-0.85
224.45,2.63,3.47,2.62,3.46,-3.45,-3.20,-3.52,-0.82,-0.83,-0.84
226.70,2.60,3.44,2.61,3.44,-3.44,-3.17,-3.52,-0.84,-0.84,-0.83
228.96,2.58,3.41,2.59,3.42,-3.43,-3.14,-3.52,-0.85,-0.84,-0.83
231.25,2.58,3.40,2.58,3.40,-3.42,-3.11,-3.52,-0.83,-0.84,-0.82
233.57,2.58,3.40,2.59,3.40,-3.40,-3.08,-3.51,-0.82,-0.81,-0.81
235.90,2.58,3.39,2.58,3.39,-3.38,-3.05,-3.50,-0.80,-0.80,-0.81
238.26,2.58,3.39,2.57,3.37,-3.36,-3.02,-3.49,-0.78,-0.79,-0.80
240.64,2.53,3.32,2.55,3.34,-3.34,-2.99,-3.48,-0.81,-0.79,-0.79
243.05,2.53,3.31,2.54,3.31,-3.32,-2.96,-3.46,-0.78,-0.78,-0.78
245.48,2.53,3.29,2.52,3.28,-3.29,-2.93,-3.44,-0.76,-0.77,-0.76
247.93,2.51,3.26,2.52,3.26,-3.26,-2.90,-3.41,-0.75,-0.75,-0.75
250.41,2.49,3.23,2.50,3.23,-3.23,-2.87,-3.38,-0.74,-0.73,-0.74
252.92,2.49,3.21,2.48,3.20,-3.20,-2.84,-3.35,-0.70,-0.71,-0.72
255.45,2.46,3.15,2.47,3.16,-3.16,-2.80,-3.31,-0.70,-0.69,-0.69
258.00,2.44,3.12,2.45,3.12,-3.12,-2.77,-3.28,-0.68,-0.67,-0.67
260.58,2.43,3.09,2.42,3.08,-3.08,-2.74,-3.23,-0.65,-0.66,-0.66
263.19,2.39,3.02,2.40,3.04,-3.03,-2.70,-3.18,-0.64,-0.63,-0.63
265.82,2.37,2.99,2.37,2.99,-2.98,-2.67,-3.13,-0.61,-0.61,-0.62
268.48,2.35,2.94,2.34,2.93,-2.93,-2.63,-3.08,-0.58,-0.59,-0.59
271.16,2.31,2.88,2.32,2.88,-2.88,-2.60,-3.02,-0.57,-0.57,-0.56
273.87,2.28,2.83,2.28,2.83,-2.83,-2.56,-2.96,-0.55,-0.54,-0.55
276.61,2.25,2.77,2.25,2.77,-2.77,-2.53,-2.90,-0.52,-0.52,-0.52
279.38,2.22,2.72,2.22,2.72,-2.72,-2.49,-2.83,-0.50,-0.50,-0.50
282.17,2.18,2.67,2.18,2.66,-2.67,-2.45,-2.76,-0.48,-0.48,-0.49
284.99,2.15,2.61,2.15,2.61,-2.61,-2.42,-2.69,-0.46,-0.46,-0.46
287.84,2.11,2.55,2.12,2.56,-2.57,-2.38,-2.62,-0.45,-0.44,-0.44
290.72,2.11,2.53,2.10,2.52,-2.52,-2.34,-2.55,-0.41,-0.42,-0.41
293.63,2.07,2.47,2.08,2.47,-2.48,-2.30,-2.48,-0.40,-0.40,-0.40
296.57,2.07,2.44,2.06,2.43,-2.43,-2.26,-2.40,-0.36,-0.38,-0.37
299.53,2.02,2.37,2.04,2.39,-2.39,-2.22,-2.33,-0.37,-0.36,-0.35
302.53,2.02,2.36,2.03,2.36,-2.35,-2.18,-2.25,-0.33,-0.32,-0.33
305.55,2.02,2.32,2.02,2.32,-2.31,-2.14,-2.18,-0.29,-0.30,-0.30
308.61,2.02,2.30,2.01,2.28,-2.28,-2.10,-2.10,-0.25,-0.27,-0.28
311.69,1.97,2.22,1.99,2.24,-2.24,-2.06,-2.03,-0.27,-0.25,-0.25
314.81,1.97,2.18,1.97,2.19,-2.20,-2.02,-1.95,-0.23,-0.23,-0.21
317.96,1.97,2.17,1.96,2.15,-2.16,-1.98,-1.87,-0.19,-0.20,-0.19
321.14,1.93,2.11,1.94,2.12,-2.12,-1.94,-1.80,-0.18,-0.17,-0.18
324.35,1.93,2.09,1.92,2.08,-2.07,-1.89,-1.73,-0.14,-0.15,-0.16
327.59,1.88,2.01,1.89,2.03,-2.02,-1.85,-1.65,-0.14,-0.13,-0.13
330.87,1.87,1.98,1.87,1.98,-1.98,-1.81,-1.58,-0.10,-0.11,-0.11
334.18,1.83,1.92,1.83,1.92,-1.92,-1.76,-1.51,-0.09,-0.09,-0.09
337.52,1.79,1.87,1.80,1.87,-1.87,-1.72,-1.44,-0.08,-0.07,-0.07
340.90,1.76,1.81,1.76,1.81,-1.81,-1.67,-1.36,-0.05,-0.05,-0.05
344.30,1.73,1.76,1.72,1.75,-1.75,-1.63,-1.29,-0.02,-0.03,-0.03
347.75,1.67,1.68,1.68,1.68,-1.68,-1.58,-1.23,-0.01,-0.01,-0.01
351.23,1.62,1.61,1.63,1.62,-1.62,-1.53,-1.16,0.01,0.01,0.01
354.74,1.58,1.55,1.58,1.55,-1.55,-1.49,-1.09,0.03,0.03,0.03
358.28,1.53,1.48,1.53,1.48,-1.48,-1.44,-1.02,0.05,0.05,0.05
361.87,1.47,1.41,1.47,1.41,-1.41,-1.39,-0.96,0.07,0.07,0.07
365.49,1.41,1.33,1.41,1.33,-1.33,-1.34,-0.89,0.08,0.08,0.09
369.14,1.35,1.26,1.36,1.26,-1.26,-1.29,-0.83,0.09,0.09,0.10
372.83,1.30,1.19,1.30,1.19,-1.19,-1.24,-0.76,0.11,0.11,0.11
376.56,1.25,1.13,1.25,1.12,-1.12,-1.19,-0.70,0.13,0.13,0.12
380.33,1.20,1.05,1.20,1.05,-1.05,-1.14,-0.64,0.15,0.15,0.15
384.13,1.14,0.98,1.14,0.98,-0.98,-1.09,-0.58,0.16,0.16,0.16
387.97,1.08,0.91,1.08,0.91,-0.91,-1.04,-0.52,0.17,0.17,0.17
391.85,1.02,0.84,1.02,0.84,-0.85,-0.99,-0.46,0.18,0.18,0.18
395.77,0.97,0.77,0.97,0.78,-0.78,-0.93,-0.40,0.19,0.19,0.20
399.73,0.92,0.71,0.92,0.72,-0.72,-0.88,-0.34,0.21,0.21,0.21
403.72,0.88,0.66,0.87,0.65,-0.65,-0.82,-0.28,0.23,0.22,0.22
407.76,0.82,0.60,0.83,0.60,-0.59,-0.77,-0.23,0.23,0.23,0.23
411.84,0.77,0.53,0.78,0.54,-0.54,-0.71,-0.17,0.24,0.24,0.25
415.96,0.74,0.49,0.73,0.48,-0.48,-0.66,-0.12,0.26,0.25,0.26
420.12,0.68,0.42,0.69,0.42,-0.43,-0.60,-0.06,0.25,0.26,0.26
424.32,0.65,0.38,0.65,0.37,-0.38,-0.54,-0.01,0.28,0.27,0.27
428.56,0.60,0.32,0.61,0.32,-0.32,-0.48,0.04,0.28,0.28,0.28
432.85,0.57,0.28,0.57,0.28,-0.27,-0.43,0.09,0.30,0.30,0.29
437.18,0.53,0.23,0.53,0.22,-0.22,-0.37,0.14,0.31,0.31,0.30
441.55,0.48,0.16,0.49,0.17,-0.17,-0.31,0.18,0.31,0.32,0.32
445.96,0.45,0.12,0.45,0.12,-0.12,-0.25,0.23,0.34,0.33,0.33
450.42,0.40,0.06,0.41,0.06,-0.06,-0.19,0.28,0.34,0.35,0.34
454.93,0.37,0.01,0.36,0.01,-0.00,-0.13,0.32,0.37,0.36,0.36
459.48,0.31,-0.06,0.32,-0.05,0.06,-0.07,0.36,0.37,0.38,0.37
464.07,0.27,-0.12,0.27,-0.12,0.12,-0.00,0.40,0.39,0.39,0.39
468.71,0.23,-0.18,0.23,-0.18,0.18,0.06,0.44,0.41,0.40,0.41
473.40,0.17,-0.25,0.18,-0.24,0.24,0.12,0.47,0.41,0.42,0.42
478.13,0.14,-0.30,0.14,-0.30,0.29,0.18,0.51,0.44,0.43,0.44
482.91,0.09,-0.36,0.10,-0.36,0.35,0.25,0.54,0.44,0.45,0.45
487.74,0.06,-0.41,0.06,-0.41,0.41,0.31,0.57,0.47,0.47,0.47
492.62,0.02,-0.47,0.02,-0.46,0.46,0.37,0.60,0.48,0.48,0.49
497.55,-0.01,-0.51,-0.01,-0.51,0.51,0.44,0.62,0.50,0.50,0.50
502.52,-0.04,-0.56,-0.04,-0.56,0.56,0.50,0.65,0.52,0.52,0.52
507.55,-0.08,-0.60,-0.08,-0.61,0.61,0.56,0.67,0.53,0.53,0.53
512.62,-0.12,-0.66,-0.12,-0.67,0.66,0.63,0.69,0.55,0.55,0.55
517.75,-0.16,-0.72,-0.15,-0.72,0.72,0.69,0.71,0.56,0.56,0.57
522.93,-0.19,-0.77,-0.19,-0.77,0.77,0.75,0.73,0.58,0.58,0.59
