frequency,raw,error,smoothed,error_smoothed,equalization,parametric_eq,equalized_raw,equalized_smoothed,target
20.00,-12.39,-14.41,-12.44,-14.44,6.00,2.73,-6.39,-6.44,2.02
20.20,-12.24,-14.26,-12.27,-14.27,6.00,2.81,-6.24,-6.27,2.02
20.40,-12.09,-14.10,-12.09,-14.10,6.00,2.89,-6.09,-6.09,2.02
20.61,-11.94,-13.96,-11.92,-13.93,6.00,2.97,-5.94,-5.92,2.01
20.81,-11.79,-13.80,-11.75,-13.76,6.00,3.06,-5.79,-5.75,2.01
21.02,-11.63,-13.64,-11.58,-13.58,6.00,3.15,-5.63,-5.58,2.01
21.23,-11.44,-13.45,-11.41,-13.41,6.00,3.24,-5.44,-5.41,2.01
21.44,-11.26,-13.27,-11.23,-13.24,6.00,3.33,-5.26,-5.23,2.01
21.66,-11.07,-13.08,-11.06,-13.06,6.00,3.42,-5.07,-5.06,2.01
21.87,-10.88,-12.89,-10.89,-12.89,6.00,3.52,-4.88,-4.89,2.01
22.09,-10.70,-12.71,-10.71,-12.71,6.00,3.62,-4.70,-4.71,2.01
22.31,-10.52,-12.52,-10.54,-12.53,6.00,3.73,-4.52,-4.54,2.01
22.54,-10.35,-12.36,-10.35,-12.35,6.00,3.83,-4.35,-4.35,2.01
22.76,-10.17,-12.17,-10.17,-12.18,6.00,3.94,-4.17,-4.17,2.00
22.99,-10.00,-12.00,-9.99,-12.00,6.00,4.05,-4.00,-3.99,2.00
23.22,-9.82,-11.82,-9.81,-11.82,6.00,4.16,-3.82,-3.81,2.00
23.45,-9.64,-11.64,-9.64,-11.64,6.00,4.28,-3.64,-3.64,2.00
23.69,-9.46,-11.46,-9.46,-11.46,6.00,4.40,-3.46,-3.46,2.00
23.92,-9.28,-11.28,-9.29,-11.29,6.00,4.52,-3.28,-3.29,2.00
24.16,-9.11,-11.10,-9.12,-11.11,6.00,4.64,-3.11,-3.12,2.00
24.40,-8.94,-10.93,-8.95,-10.93,6.00,4.76,-2.94,-2.95,2.00
24.65,-8.77,-10.76,-8.77,-10.76,6.00,4.89,-2.77,-2.77,1.99
24.89,-8.60,-10.59,-8.60,-10.58,6.00,5.01,-2.60,-2.60,1.99
25.14,-8.43,-10.42,-8.42,-10.41,6.00,5.14,-2.43,-2.42,1.99
25.39,-8.26,-10.25,-8.25,-10.23,6.00,5.27,-2.26,-2.25,1.99
25.65,-8.09,-10.08,-8.07,-10.05,6.00,5.40,-2.09,-2.07,1.99
25.91,-7.92,-9.91,-7.89,-9.88,6.00,5.53,-1.92,-1.89,1.99
26.16,-7.74,-9.72,-7.72,-9.70,6.00,5.66,-1.74,-1.72,1.98
26.43,-7.55,-9.54,-7.55,-9.52,6.00,5.79,-1.55,-1.55,1.98
26.69,-7.37,-9.35,-7.37,-9.35,6.00,5.91,-1.37,-1.37,1.98
26.96,-7.18,-9.16,-7.20,-9.18,6.00,6.03,-1.18,-1.20,1.98
27.23,-7.01,-8.99,-7.03,-9.01,6.00,6.16,-1.01,-1.03,1.98
27.50,-6.85,-8.83,-6.86,-8.84,6.00,6.27,-0.85,-0.86,1.98
27.77,-6.69,-8.66,-6.70,-8.67,6.00,6.38,-0.69,-0.70,1.97
28.05,-6.53,-8.50,-6.54,-8.51,6.00,6.49,-0.53,-0.54,1.97
28.33,-6.38,-8.35,-6.38,-8.35,6.00,6.59,-0.38,-0.38,1.97
28.62,-6.23,-8.20,-6.23,-8.19,6.00,6.69,-0.23,-0.23,1.97
28.90,-6.07,-8.03,-6.08,-8.04,6.00,6.77,-0.07,-0.08,1.97
29.19,-5.93,-7.89,-5.93,-7.89,6.00,6.85,0.07,0.07,1.96
29.48,-5.78,-7.74,-5.78,-7.74,6.00,6.91,0.22,0.22,1.96
29.78,-5.64,-7.60,-5.63,-7.59,6.00,6.97,0.36,0.37,1.96
30.08,-5.49,-7.45,-5.49,-7.44,6.00,7.02,0.51,0.51,1.96
30.38,-5.36,-7.31,-5.35,-7.29,6.00,7.05,0.64,0.65,1.95
30.68,-5.22,-7.17,-5.20,-7.15,6.00,7.07,0.78,0.80,1.95
30.99,-5.08,-7.03,-5.06,-7.00,6.00,7.08,0.92,0.94,1.95
31.30,-4.93,-6.88,-4.92,-6.86,6.00,7.07,1.07,1.08,1.95
31.61,-4.78,-6.72,-4.78,-6.72,6.00,7.05,1.22,1.22,1.94
31.93,-4.63,-6.57,-4.65,-6.58,6.00,7.02,1.37,1.35,1.94
32.24,-4.50,-6.43,-4.52,-6.45,6.00,6.98,1.50,1.48,1.94
32.57,-4.37,-6.30,-4.39,-6.32,5.99,6.93,1.61,1.60,1.93
32.89,-4.25,-6.18,-4.26,-6.19,5.95,6.86,1.70,1.69,1.93
33.22,-4.13,-6.06,-4.14,-6.06,5.90,6.78,1.77,1.77,1.93
33.55,-4.01,-5.93,-4.01,-5.94,5.84,6.69,1.83,1.82,1.92
33.89,-3.90,-5.82,-3.89,-5.81,5.76,6.60,1.86,1.86,1.92
34.23,-3.79,-5.71,-3.78,-5.70,5.67,6.49,1.88,1.89,1.92
34.57,-3.68,-5.59,-3.67,-5.58,5.57,6.38,1.89,1.90,1.91
34.92,-3.57,-5.48,-3.56,-5.47,5.47,6.26,1.90,1.91,1.91
35.27,-3.46,-5.37,-3.45,-5.36,5.36,6.13,1.90,1.90,1.91
35.62,-3.35,-5.25,-3.35,-5.25,5.25,6.00,1.90,1.90,1.90
35.97,-3.24,-5.14,-3.25,-5.14,5.14,5.87,1.90,1.89,1.90
36.33,-3.14,-5.03,-3.15,-5.04,5.04,5.73,1.90,1.89,1.89
36.70,-3.04,-4.93,-3.05,-4.93,4.93,5.59,1.89,1.89,1.89
37.06,-2.94,-4.82,-2.95,-4.83,4.83,5.44,1.89,1.88,1.89
37.43,-2.85,-4.73,-2.85,-4.73,4.73,5.30,1.88,1.88,1.88
37.81,-2.76,-4.64,-2.75,-4.63,4.63,5.15,1.87,1.88,1.88
38.19,-2.67,-4.54,-2.66,-4.53,4.53,5.01,1.86,1.87,1.87
38.57,-2.58,-4.45,-2.57,-4.44,4.44,4.86,1.86,1.87,1.87
38.95,-2.49,-4.35,-2.48,-4.34,4.34,4.72,1.86,1.86,1.86
39.34,-2.40,-4.25,-2.40,-4.25,4.25,4.57,1.85,1.85,1.86
39.74,-2.30,-4.15,-2.31,-4.16,4.16,4.43,1.86,1.85,1.85
40.14,-2.21,-4.06,-2.23,-4.07,4.07,4.28,1.86,1.84,1.84
40.54,-2.14,-3.98,-2.15,-3.98,3.98,4.14,1.84,1.83,1.84
40.94,-2.06,-3.89,-2.06,-3.89,3.89,4.00,1.83,1.83,1.83
41.35,-1.99,-3.82,-1.98,-3.80,3.80,3.86,1.81,1.82,1.83
41.76,-1.91,-3.73,-1.90,-3.71,3.71,3.73,1.81,1.82,1.82
42.18,-1.83,-3.64,-1.81,-3.62,3.62,3.59,1.80,1.81,1.81
42.60,-1.75,-3.56,-1.73,-3.54,3.54,3.46,1.79,1.80,1.81
43.03,-1.66,-3.46,-1.65,-3.44,3.44,3.33,1.79,1.80,1.80
43.46,-1.57,-3.36,-1.57,-3.35,3.35,3.20,1.79,1.79,1.79
43.90,-1.47,-3.26,-1.48,-3.26,3.26,3.07,1.79,1.78,1.79
44.33,-1.39,-3.17,-1.40,-3.17,3.17,2.95,1.78,1.77,1.78
44.78,-1.30,-3.07,-1.31,-3.08,3.08,2.83,1.78,1.77,1.77
45.23,-1.22,-2.98,-1.23,-2.99,2.99,2.71,1.77,1.76,1.76
45.68,-1.14,-2.90,-1.14,-2.89,2.89,2.59,1.75,1.75,1.76
46.13,-1.06,-2.81,-1.05,-2.80,2.80,2.47,1.74,1.75,1.75
46.60,-0.98,-2.72,-0.97,-2.71,2.71,2.36,1.73,1.74,1.74
47.06,-0.89,-2.62,-0.88,-2.61,2.61,2.25,1.72,1.73,1.73
47.53,-0.80,-2.52,-0.80,-2.52,2.52,2.14,1.72,1.72,1.72
48.01,-0.72,-2.43,-0.72,-2.43,2.43,2.03,1.71,1.71,1.71
48.49,-0.63,-2.33,-0.63,-2.33,2.33,1.92,1.70,1.70,1.70
48.97,-0.54,-2.23,-0.55,-2.24,2.24,1.82,1.70,1.69,1.69
49.46,-0.47,-2.15,-0.47,-2.15,2.15,1.72,1.68,1.68,1.68
49.96,-0.39,-2.06,-0.39,-2.06,2.06,1.62,1.67,1.67,1.67
50.46,-0.31,-1.97,-0.31,-1.97,1.97,1.52,1.66,1.66,1.66
50.96,-0.23,-1.88,-0.23,-1.88,1.88,1.42,1.65,1.65,1.65
51.47,-0.15,-1.79,-0.15,-1.79,1.79,1.33,1.64,1.64,1.64
51.99,-0.07,-1.70,-0.08,-1.71,1.71,1.23,1.64,1.63,1.63
52.51,0.00,-1.62,-0.00,-1.62,1.62,1.14,1.62,1.61,1.62
53.03,0.07,-1.53,0.07,-1.53,1.53,1.05,1.60,1.60,1.60
53.56,0.15,-1.44,0.15,-1.44,1.44,0.96,1.59,1.59,1.59
54.10,0.22,-1.36,0.22,-1.36,1.36,0.88,1.58,1.57,1.58
54.64,0.29,-1.27,0.29,-1.27,1.27,0.79,1.56,1.56,1.57
55.18,0.36,-1.19,0.37,-1.18,1.18,0.71,1.54,1.55,1.55
55.74,0.43,-1.11,0.44,-1.09,1.09,0.63,1.52,1.54,1.54
56.29,0.51,-1.01,0.52,-1.00,1.00,0.55,1.51,1.52,1.52
56.86,0.59,-0.92,0.60,-0.91,0.91,0.47,1.50,1.51,1.51
57.42,0.67,-0.82,0.67,-0.82,0.82,0.40,1.49,1.49,1.49
58.00,0.75,-0.73,0.75,-0.73,0.73,0.33,1.48,1.48,1.48
58.58,0.83,-0.63,0.83,-0.63,0.63,0.25,1.46,1.46,1.46
59.16,0.90,-0.55,0.90,-0.54,0.54,0.19,1.44,1.44,1.45
59.76,0.99,-0.44,0.98,-0.45,0.45,0.12,1.44,1.43,1.43
60.35,1.06,-0.35,1.06,-0.35,0.35,0.06,1.41,1.41,1.41
60.96,1.13,-0.27,1.14,-0.26,0.26,-0.01,1.39,1.40,1.40
61.57,1.20,-0.18,1.21,-0.17,0.17,-0.07,1.37,1.38,1.38
62.18,1.28,-0.08,1.28,-0.08,0.08,-0.13,1.36,1.36,1.36
62.80,1.36,0.02,1.36,0.01,-0.01,-0.18,1.35,1.34,1.34
63.43,1.43,0.11,1.43,0.10,-0.10,-0.24,1.33,1.32,1.32
64.07,1.50,0.20,1.49,0.19,-0.19,-0.29,1.31,1.30,1.30
64.71,1.56,0.28,1.56,0.27,-0.27,-0.34,1.29,1.28,1.28
65.35,1.62,0.36,1.62,0.35,-0.35,-0.39,1.27,1.27,1.26
66.01,1.68,0.44,1.68,0.43,-0.43,-0.43,1.25,1.24,1.24
66.67,1.74,0.52,1.73,0.51,-0.51,-0.48,1.23,1.22,1.22
67.33,1.79,0.59,1.79,0.59,-0.59,-0.52,1.20,1.20,1.20
68.01,1.84,0.66,1.84,0.66,-0.66,-0.57,1.18,1.18,1.18
68.69,1.89,0.73,1.89,0.73,-0.73,-0.61,1.16,1.16,1.16
69.37,1.94,0.81,1.93,0.80,-0.80,-0.65,1.14,1.13,1.13
70.07,1.98,0.87,1.98,0.87,-0.87,-0.69,1.11,1.11,1.11
70.77,2.02,0.93,2.02,0.93,-0.93,-0.73,1.09,1.08,1.09
71.48,2.05,0.99,2.06,1.00,-1.00,-0.77,1.05,1.06,1.06
72.19,2.09,1.05,2.10,1.06,-1.06,-0.81,1.03,1.04,1.04
72.91,2.13,1.12,2.14,1.13,-1.13,-0.84,1.00,1.01,1.01
73.64,2.17,1.18,2.18,1.19,-1.19,-0.88,0.98,0.99,0.99
74.38,2.21,1.25,2.21,1.25,-1.25,-0.92,0.96,0.96,0.96
75.12,2.25,1.31,2.25,1.32,-1.32,-0.96,0.93,0.93,0.94
75.87,2.28,1.37,2.29,1.38,-1.38,-1.00,0.90,0.91,0.91
76.63,2.32,1.44,2.32,1.44,-1.44,-1.04,0.88,0.88,0.88
77.40,2.35,1.49,2.35,1.50,-1.50,-1.08,0.85,0.86,0.86
78.17,2.39,1.56,2.39,1.56,-1.56,-1.12,0.84,0.83,0.83
78.95,2.41,1.61,2.41,1.61,-1.61,-1.16,0.80,0.80,0.80
79.74,2.44,1.67,2.44,1.67,-1.67,-1.20,0.78,0.77,0.77
80.54,2.47,1.73,2.46,1.72,-1.72,-1.24,0.75,0.74,0.74
81.35,2.49,1.78,2.48,1.77,-1.77,-1.28,0.72,0.71,0.71
82.16,2.51,1.83,2.50,1.82,-1.82,-1.33,0.69,0.68,0.68
82.98,2.54,1.89,2.51,1.87,-1.87,-1.37,0.67,0.65,0.65
83.81,2.54,1.92,2.53,1.91,-1.91,-1.42,0.63,0.62,0.62
84.65,2.54,1.95,2.55,1.96,-1.96,-1.47,0.58,0.59,0.59
85.50,2.54,1.98,2.56,2.01,-2.01,-1.52,0.53,0.55,0.56
86.35,2.54,2.01,2.58,2.05,-2.05,-1.57,0.49,0.52,0.53
87.22,2.55,2.05,2.59,2.10,-2.10,-1.62,0.45,0.49,0.50
88.09,2.59,2.12,2.61,2.14,-2.14,-1.68,0.45,0.46,0.47
88.97,2.61,2.17,2.62,2.19,-2.19,-1.73,0.42,0.43,0.44
89.86,2.64,2.24,2.63,2.23,-2.23,-1.79,0.41,0.40,0.41
90.76,2.66,2.29,2.64,2.28,-2.28,-1.85,0.39,0.37,0.37
91.66,2.68,2.34,2.65,2.32,-2.32,-1.91,0.36,0.34,0.34
92.58,2.68,2.37,2.66,2.36,-2.36,-1.97,0.32,0.30,0.31
93.51,2.68,2.40,2.67,2.40,-2.40,-2.03,0.29,0.27,0.28
94.44,2.68,2.44,2.67,2.43,-2.43,-2.09,0.25,0.24,0.24
95.39,2.68,2.47,2.68,2.47,-2.47,-2.16,0.22,0.21,0.21
96.34,2.68,2.50,2.68,2.50,-2.50,-2.22,0.18,0.18,0.18
97.30,2.68,2.54,2.67,2.53,-2.53,-2.29,0.15,0.14,0.14
98.28,2.66,2.55,2.67,2.56,-2.56,-2.36,0.10,0.11,0.11
99.26,2.64,2.56,2.66,2.59,-2.59,-2.43,0.05,0.07,0.08
100.25,2.64,2.60,2.66,2.62,-2.62,-2.50,0.02,0.04,0.04
101.25,2.64,2.63,2.65,2.65,-2.65,-2.57,-0.00,0.00,0.01
102.27,2.64,2.66,2.65,2.67,-2.67,-2.64,-0.03,-0.03,-0.02
103.29,2.64,2.70,2.64,2.70,-2.70,-2.71,-0.06,-0.06,-0.05
104.32,2.64,2.73,2.64,2.74,-2.74,-2.78,-0.09,-0.09,-0.09
105.37,2.64,2.76,2.64,2.77,-2.77,-2.85,-0.13,-0.12,-0.12
106.42,2.64,2.79,2.64,2.80,-2.80,-2.92,-0.16,-0.16,-0.15
107.48,2.64,2.83,2.64,2.83,-2.83,-2.98,-0.19,-0.19,-0.19
108.56,2.64,2.86,2.64,2.86,-2.86,-3.05,-0.22,-0.22,-0.22
109.64,2.64,2.89,2.64,2.89,-2.89,-3.12,-0.25,-0.25,-0.25
110.74,2.64,2.92,2.64,2.92,-2.92,-3.18,-0.28,-0.28,-0.28
111.85,2.64,2.96,2.64,2.95,-2.95,-3.24,-0.31,-0.32,-0.32
112.97,2.64,2.99,2.63,2.98,-2.98,-3.30,-0.34,-0.35,-0.35
114.10,2.64,3.02,2.63,3.01,-3.01,-3.35,-0.37,-0.38,-0.38
115.24,2.63,3.04,2.62,3.03,-3.03,-3.40,-0.40,-0.41,-0.41
116.39,2.61,3.05,2.61,3.06,-3.06,-3.45,-0.45,-0.44,-0.44
117.55,2.59,3.06,2.61,3.08,-3.08,-3.49,-0.49,-0.47,-0.47
118.73,2.59,3.09,2.60,3.10,-3.10,-3.53,-0.51,-0.50,-0.50
119.92,2.59,3.12,2.58,3.12,-3.12,-3.57,-0.53,-0.53,-0.53
121.12,2.56,3.12,2.57,3.14,-3.14,-3.60,-0.57,-0.56,-0.56
122.33,2.55,3.14,2.56,3.15,-3.15,-3.62,-0.60,-0.59,-0.59
123.55,2.54,3.16,2.54,3.16,-3.16,-3.64,-0.62,-0.62,-0.62
124.79,2.54,3.19,2.52,3.17,-3.17,-3.65,-0.63,-0.65,-0.65
126.03,2.50,3.18,2.50,3.18,-3.18,-3.66,-0.68,-0.68,-0.68
127.29,2.49,3.20,2.48,3.19,-3.19,-3.66,-0.70,-0.71,-0.71
128.57,2.46,3.20,2.46,3.20,-3.20,-3.66,-0.74,-0.74,-0.74
129.85,2.45,3.22,2.44,3.20,-3.20,-3.65,-0.75,-0.77,-0.76
131.15,2.41,3.20,2.41,3.21,-3.21,-3.64,-0.80,-0.79,-0.79
132.46,2.38,3.20,2.39,3.21,-3.21,-3.62,-0.83,-0.82,-0.82
133.79,2.36,3.21,2.37,3.21,-3.21,-3.60,-0.85,-0.85,-0.84
135.12,2.34,3.21,2.34,3.22,-3.22,-3.57,-0.87,-0.87,-0.87
136.48,2.31,3.21,2.32,3.22,-3.22,-3.54,-0.91,-0.90,-0.90
137.84,2.27,3.19,2.29,3.22,-3.22,-3.51,-0.95,-0.93,-0.92
139.22,2.26,3.21,2.27,3.22,-3.22,-3.47,-0.96,-0.95,-0.95
140.61,2.24,3.21,2.24,3.22,-3.22,-3.43,-0.98,-0.97,-0.97
142.02,2.22,3.21,2.22,3.22,-3.22,-3.39,-1.00,-1.00,-0.99
143.44,2.20,3.22,2.19,3.21,-3.21,-3.34,-1.01,-1.02,-1.02
144.87,2.17,3.21,2.17,3.21,-3.21,-3.30,-1.04,-1.04,-1.04
146.32,2.14,3.20,2.14,3.20,-3.20,-3.25,-1.06,-1.06,-1.06
147.78,2.12,3.21,2.11,3.20,-3.20,-3.20,-1.08,-1.08,-1.08
149.26,2.09,3.20,2.08,3.19,-3.19,-3.15,-1.10,-1.11,-1.11
150.75,2.06,3.19,2.05,3.18,-3.18,-3.11,-1.12,-1.13,-1.13
152.26,2.02,3.17,2.02,3.16,-3.16,-3.06,-1.14,-1.15,-1.15
153.78,1.99,3.16,1.98,3.15,-3.15,-3.01,-1.16,-1.17,-1.17
155.32,1.94,3.13,1.94,3.13,-3.13,-2.96,-1.19,-1.19,-1.19
156.88,1.91,3.12,1.90,3.12,-3.12,-2.92,-1.20,-1.21,-1.21
158.44,1.86,3.09,1.87,3.10,-3.10,-2.87,-1.24,-1.23,-1.23
160.03,1.82,3.07,1.83,3.08,-3.08,-2.83,-1.26,-1.25,-1.25
161.63,1.78,3.04,1.79,3.06,-3.06,-2.78,-1.28,-1.27,-1.26
163.24,1.75,3.03,1.75,3.04,-3.04,-2.74,-1.29,-1.29,-1.28
164.88,1.70,3.00,1.72,3.02,-3.02,-2.70,-1.32,-1.30,-1.30
166.53,1.67,2.99,1.68,3.00,-3.00,-2.66,-1.33,-1.32,-1.32
168.19,1.64,2.97,1.64,2.98,-2.98,-2.63,-1.34,-1.34,-1.33
169.87,1.61,2.96,1.61,2.96,-2.96,-2.59,-1.35,-1.35,-1.35
171.57,1.57,2.94,1.58,2.95,-2.95,-2.56,-1.37,-1.37,-1.37
173.29,1.54,2.92,1.54,2.93,-2.93,-2.53,-1.39,-1.38,-1.38
175.02,1.52,2.92,1.51,2.91,-2.91,-2.50,-1.39,-1.40,-1.40
176.77,1.48,2.89,1.48,2.89,-2.89,-2.47,-1.41,-1.41,-1.41
178.54,1.45,2.88,1.44,2.87,-2.87,-2.45,-1.41,-1.42,-1.43
180.32,1.41,2.85,1.41,2.84,-2.84,-2.43,-1.43,-1.44,-1.44
182.13,1.37,2.82,1.37,2.82,-2.82,-2.41,-1.45,-1.45,-1.45
183.95,1.34,2.81,1.33,2.79,-2.79,-2.39,-1.45,-1.47,-1.47
185.79,1.29,2.77,1.29,2.77,-2.77,-2.37,-1.48,-1.48,-1.48
187.65,1.26,2.75,1.25,2.74,-2.74,-2.36,-1.48,-1.49,-1.49
189.52,1.22,2.72,1.21,2.72,-2.72,-2.34,-1.50,-1.51,-1.50
191.42,1.17,2.69,1.17,2.69,-2.69,-2.33,-1.52,-1.52,-1.52
193.33,1.13,2.66,1.14,2.67,-2.67,-2.32,-1.54,-1.53,-1.53
195.27,1.08,2.62,1.10,2.64,-2.64,-2.31,-1.56,-1.54,-1.54
197.22,1.05,2.60,1.06,2.62,-2.62,-2.31,-1.57,-1.56,-1.55
199.19,1.02,2.58,1.03,2.60,-2.60,-2.30,-1.58,-1.57,-1.56
201.18,0.99,2.56,1.00,2.58,-2.58,-2.30,-1.59,-1.58,-1.57
203.19,0.97,2.55,0.97,2.56,-2.56,-2.29,-1.59,-1.59,-1.58
205.23,0.94,2.53,0.94,2.54,-2.54,-2.29,-1.60,-1.60,-1.59
207.28,0.92,2.52,0.92,2.53,-2.53,-2.29,-1.61,-1.61,-1.60
209.35,0.89,2.50,0.90,2.52,-2.52,-2.29,-1.62,-1.62,-1.61
211.44,0.87,2.49,0.87,2.50,-2.50,-2.29,-1.63,-1.63,-1.62
213.56,0.86,2.49,0.85,2.49,-2.49,-2.29,-1.63,-1.63,-1.63
215.69,0.83,2.47,0.83,2.47,-2.47,-2.29,-1.64,-1.64,-1.64
217.85,0.82,2.47,0.81,2.46,-2.46,-2.29,-1.64,-1.65,-1.65
220.03,0.79,2.45,0.79,2.44,-2.44,-2.29,-1.65,-1.66,-1.66
222.23,0.77,2.43,0.76,2.42,-2.42,-2.28,-1.65,-1.66,-1.66
224.45,0.74,2.41,0.74,2.40,-2.40,-2.28,-1.66,-1.67,-1.67
226.70,0.72,2.39,0.71,2.38,-2.38,-2.28,-1.66,-1.67,-1.67
228.96,0.68,2.35,0.68,2.36,-2.36,-2.27,-1.68,-1.67,-1.67
231.25,0.66,2.33,0.66,2.33,-2.33,-2.26,-1.67,-1.67,-1.67
233.57,0.63,2.30,0.63,2.30,-2.30,-2.26,-1.67,-1.67,-1.67
235.90,0.58,2.25,0.59,2.26,-2.26,-2.24,-1.68,-1.67,-1.67
238.26,0.55,2.22,0.56,2.22,-2.22,-2.23,-1.67,-1.66,-1.67
240.64,0.52,2.18,0.52,2.18,-2.18,-2.22,-1.66,-1.66,-1.66
243.05,0.49,2.14,0.49,2.14,-2.14,-2.20,-1.65,-1.65,-1.65
245.48,0.44,2.09,0.45,2.09,-2.09,-2.18,-1.65,-1.65,-1.65
247.93,0.41,2.05,0.40,2.04,-2.04,-2.15,-1.63,-1.64,-1.64
250.41,0.37,2.00,0.36,1.99,-1.99,-2.13,-1.62,-1.63,-1.63
252.92,0.32,1.94,0.31,1.94,-1.94,-2.10,-1.62,-1.62,-1.62
255.45,0.29,1.90,0.27,1.88,-1.88,-2.07,-1.59,-1.62,-1.61
258.00,0.23,1.83,0.22,1.83,-1.83,-2.03,-1.60,-1.61,-1.60
260.58,0.17,1.76,0.17,1.77,-1.77,-1.99,-1.60,-1.60,-1.59
263.19,0.11,1.69,0.12,1.71,-1.71,-1.95,-1.60,-1.59,-1.58
265.82,0.05,1.62,0.08,1.65,-1.65,-1.91,-1.60,-1.58,-1.57
268.48,0.01,1.57,0.03,1.59,-1.59,-1.86,-1.58,-1.56,-1.56
271.16,-0.04,1.51,-0.02,1.53,-1.53,-1.82,-1.57,-1.55,-1.55
273.87,-0.07,1.47,-0.07,1.47,-1.47,-1.77,-1.54,-1.54,-1.54
276.61,-0.12,1.41,-0.12,1.40,-1.40,-1.71,-1.52,-1.52,-1.53
279.38,-0.16,1.35,-0.17,1.34,-1.34,-1.66,-1.50,-1.51,-1.51
282.17,-0.21,1.28,-0.21,1.28,-1.28,-1.60,-1.49,-1.49,-1.49
284.99,-0.26,1.21,-0.26,1.21,-1.21,-1.54,-1.47,-1.47,-1.47
287.84,-0.30,1.15,-0.30,1.15,-1.15,-1.48,-1.45,-1.45,-1.45
290.72,-0.35,1.08,-0.35,1.08,-1.08,-1.42,-1.43,-1.43,-1.43
293.63,-0.39,1.02,-0.40,1.02,-1.02,-1.36,-1.41,-1.41,-1.41
296.57,-0.45,0.95,-0.45,0.95,-0.95,-1.30,-1.40,-1.40,-1.40
299.53,-0.50,0.88,-0.50,0.88,-0.88,-1.23,-1.38,-1.38,-1.38
302.53,-0.54,0.82,-0.55,0.81,-0.81,-1.17,-1.35,-1.36,-1.36
305.55,-0.59,0.75,-0.60,0.74,-0.74,-1.11,-1.33,-1.34,-1.34
308.61,-0.64,0.68,-0.65,0.67,-0.67,-1.04,-1.31,-1.33,-1.32
311.69,-0.69,0.62,-0.70,0.61,-0.61,-0.97,-1.30,-1.31,-1.31
314.81,-0.75,0.54,-0.75,0.54,-0.54,-0.91,-1.29,-1.29,-1.29
317.96,-0.80,0.47,-0.80,0.48,-0.48,-0.84,-1.27,-1.27,-1.27
321.14,-0.85,0.40,-0.84,0.41,-0.41,-0.77,-1.26,-1.26,-1.25
324.35,-0.90,0.34,-0.88,0.35,-0.35,-0.71,-1.25,-1.24,-1.24
327.59,-0.95,0.27,-0.92,0.30,-0.30,-0.64,-1.24,-1.22,-1.22
330.87,-0.97,0.23,-0.96,0.24,-0.24,-0.57,-1.21,-1.20,-1.20
334.18,-0.99,0.19,-0.99,0.19,-0.19,-0.51,-1.18,-1.18,-1.18
337.52,-1.03,0.13,-1.02,0.15,-0.15,-0.44,-1.17,-1.16,-1.16
340.90,-1.04,0.10,-1.04,0.10,-0.10,-0.37,-1.14,-1.14,-1.14
344.30,-1.05,0.07,-1.06,0.06,-0.06,-0.31,-1.11,-1.12,-1.12
347.75,-1.08,0.02,-1.07,0.03,-0.03,-0.24,-1.11,-1.10,-1.10
351.23,-1.10,-0.02,-1.08,-0.00,0.00,-0.17,-1.10,-1.08,-1.08
354.74,-1.10,-0.04,-1.09,-0.03,0.03,-0.11,-1.07,-1.06,-1.06
358.28,-1.10,-0.06,-1.10,-0.06,0.06,-0.04,-1.04,-1.04,-1.04
361.87,-1.10,-0.08,-1.10,-0.08,0.08,0.03,-1.02,-1.03,-1.02
365.49,-1.10,-0.09,-1.11,-0.10,0.10,0.09,-1.00,-1.01,-1.01
369.14,-1.10,-0.11,-1.11,-0.11,0.11,0.16,-0.99,-1.00,-0.99
372.83,-1.10,-0.12,-1.12,-0.13,0.13,0.23,-0.97,-0.99,-0.98
376.56,-1.13,-0.16,-1.12,-0.14,0.14,0.29,-0.99,-0.98,-0.97
380.33,-1.14,-0.18,-1.12,-0.16,0.16,0.36,-0.98,-0.96,-0.95
384.13,-1.14,-0.20,-1.12,-0.17,0.17,0.42,-0.97,-0.95,-0.94
387.97,-1.14,-0.20,-1.12,-0.18,0.18,0.49,-0.96,-0.94,-0.93
391.85,-1.14,-0.21,-1.13,-0.20,0.20,0.55,-0.94,-0.93,-0.93
395.77,-1.14,-0.22,-1.14,-0.22,0.22,0.62,-0.92,-0.92,-0.92
399.73,-1.17,-0.26,-1.16,-0.25,0.25,0.68,-0.92,-0.92,-0.91
403.72,-1.19,-0.28,-1.19,-0.28,0.28,0.75,-0.91,-0.91,-0.91
407.76,-1.19,-0.29,-1.22,-0.32,0.32,0.81,-0.87,-0.90,-0.90
411.84,-1.20,-0.30,-1.26,-0.36,0.36,0.87,-0.84,-0.90,-0.90
415.96,-1.25,-0.36,-1.30,-0.41,0.41,0.94,-0.84,-0.89,-0.89
420.12,-1.32,-0.43,-1.35,-0.47,0.47,1.00,-0.85,-0.89,-0.89
424.32,-1.39,-0.50,-1.41,-0.53,0.53,1.06,-0.86,-0.88,-0.88
428.56,-1.48,-0.60,-1.48,-0.60,0.60,1.11,-0.88,-0.88,-0.88
432.85,-1.55,-0.67,-1.54,-0.67,0.67,1.17,-0.88,-0.87,-0.87
437.18,-1.62,-0.75,-1.61,-0.74,0.74,1.22,-0.87,-0.87,-0.87
441.55,-1.70,-0.84,-1.69,-0.82,0.82,1.28,-0.88,-0.86,-0.86
445.96,-1.77,-0.92,-1.76,-0.90,0.90,1.33,-0.87,-0.86,-0.85
450.42,-1.85,-1.01,-1.83,-0.98,0.98,1.38,-0.87,-0.85,-0.84
454.93,-1.92,-1.09,-1.89,-1.05,1.05,1.42,-0.87,-0.84,-0.83
459.48,-1.97,-1.15,-1.95,-1.12,1.12,1.47,-0.85,-0.83,-0.82
464.07,-2.02,-1.22,-2.01,-1.19,1.19,1.51,-0.83,-0.82,-0.80
468.71,-2.06,-1.27,-2.05,-1.25,1.25,1.54,-0.81,-0.80,-0.79
473.40,-2.10,-1.32,-2.09,-1.30,1.30,1.58,-0.80,-0.79,-0.78
478.13,-2.12,-1.36,-2.13,-1.35,1.35,1.61,-0.77,-0.77,-0.76
482.91,-2.16,-1.41,-2.16,-1.40,1.40,1.63,-0.76,-0.76,-0.75
487.74,-2.17,-1.43,-2.18,-1.43,1.43,1.66,-0.73,-0.75,-0.74
492.62,-2.21,-1.49,-2.20,-1.47,1.47,1.67,-0.74,-0.73,-0.72
497.55,-2.22,-1.51,-2.21,-1.50,1.50,1.69,-0.72,-0.71,-0.71
502.52,-2.22,-1.52,-2.22,-1.52,1.52,1.70,-0.70,-0.70,-0.70
507.55,-2.22,-1.53,-2.23,-1.54,1.54,1.71,-0.67,-0.68,-0.69
512.62,-2.22,-1.55,-2.23,-1.56,1.56,1.71,-0.66,-0.66,-0.67
517.75,-2.22,-1.57,-2.23,-1.58,1.58,1.71,-0.64,-0.65,-0.65
522.93,-2.22,-1.59,-2.22,-1.59,1.59,1.71,-0.63,-0.63,-0.63
528.16,-2.22,-1.61,-2.21,-1.60,1.60,1.70,-0.62,-0.61,-0.61
533.44,-2.22,-1.63,-2.20,-1.61,1.61,1.69,-0.61,-0.59,-0.59
538.77,-2.18,-1.61,-2.19,-1.62,1.62,1.68,-0.56,-0.57,-0.57
544.16,-2.17,-1.62,-2.17,-1.63,1.63,1.66,-0.54,-0.55,-0.55
549.60,-2.17,-1.64,-2.16,-1.63,1.63,1.64,-0.54,-0.52,-0.52
555.10,-2.13,-1.63,-2.14,-1.63,1.63,1.62,-0.49,-0.50,-0.50
560.65,-2.12,-1.64,-2.12,-1.64,1.64,1.59,-0.48,-0.48,-0.48
566.25,-2.09,-1.63,-2.10,-1.63,1.63,1.57,-0.45,-0.46,-0.46
571.92,-2.07,-1.63,-2.07,-1.63,1.63,1.54,-0.44,-0.44,-0.44
577.64,-2.04,-1.62,-2.05,-1.63,1.63,1.51,-0.41,-0.42,-0.42
583.41,-2.03,-1.63,-2.02,-1.62,1.62,1.48,-0.41,-0.40,-0.40
589.25,-1.99,-1.61,-2.00,-1.61,1.61,1.45,-0.38,-0.38,-0.38
595.14,-1.98,-1.62,-1.97,-1.60,1.60,1.41,-0.38,-0.37,-0.36
601.09,-1.95,-1.60,-1.94,-1.59,1.59,1.38,-0.36,-0.35,-0.35
607.10,-1.91,-1.58,-1.91,-1.58,1.58,1.34,-0.33,-0.33,-0.33
613.17,-1.90,-1.58,-1.88,-1.57,1.57,1.31,-0.33,-0.32,-0.32
619.30,-1.85,-1.55,-1.86,-1.55,1.55,1.27,-0.30,-0.30,-0.30
625.50,-1.82,-1.53,-1.83,-1.54,1.54,1.24,-0.28,-0.29,-0.29
631.75,-1.80,-1.52,-1.80,-1.52,1.52,1.20,-0.27,-0.27,-0.28
638.07,-1.76,-1.50,-1.77,-1.51,1.51,1.17,-0.25,-0.26,-0.26
644.45,-1.73,-1.48,-1.74,-1.49,1.49,1.13,-0.24,-0.25,-0.25
