frequency,raw,smoothed,error,error_smoothed,equalization,parametric_eq,fixed_band_eq,equalized_raw,equalized_smoothed,target
20.00,-0.15,-0.15,-2.51,-2.51,2.50,0.54,-0.53,2.35,2.34,2.36
20.20,-0.03,-0.02,-2.42,-2.41,2.41,0.50,-0.54,2.38,2.38,2.39
20.40,0.10,0.10,-2.32,-2.31,2.32,0.45,-0.56,2.42,2.42,2.42
20.61,0.22,0.23,-2.22,-2.22,2.23,0.41,-0.57,2.45,2.45,2.44
20.81,0.35,0.35,-2.12,-2.12,2.14,0.36,-0.58,2.49,2.49,2.47
21.02,0.47,0.46,-2.03,-2.03,2.05,0.32,-0.60,2.52,2.51,2.50
21.23,0.56,0.56,-1.95,-1.95,1.96,0.27,-0.61,2.52,2.52,2.51
21.44,0.65,0.65,-1.86,-1.86,1.86,0.23,-0.63,2.52,2.52,2.52
21.66,0.74,0.74,-1.79,-1.78,1.78,0.18,-0.65,2.52,2.52,2.53
21.87,0.83,0.83,-1.69,-1.70,1.69,0.14,-0.66,2.52,2.52,2.53
22.09,0.92,0.92,-1.61,-1.61,1.60,0.09,-0.68,2.52,2.52,2.53
22.31,1.02,1.02,-1.51,-1.51,1.50,0.04,-0.70,2.52,2.52,2.53
22.54,1.12,1.12,-1.41,-1.41,1.41,-0.00,-0.71,2.53,2.53,2.53
22.76,1.22,1.22,-1.31,-1.31,1.32,-0.05,-0.73,2.54,2.54,2.53
22.99,1.33,1.32,-1.19,-1.21,1.23,-0.10,-0.75,2.56,2.54,2.52
23.22,1.40,1.40,-1.12,-1.12,1.14,-0.14,-0.77,2.54,2.54,2.52
23.45,1.48,1.48,-1.04,-1.04,1.04,-0.19,-0.79,2.53,2.53,2.52
23.69,1.56,1.56,-0.96,-0.96,0.95,-0.24,-0.81,2.51,2.51,2.52
23.92,1.64,1.64,-0.88,-0.88,0.86,-0.29,-0.83,2.50,2.50,2.52
24.16,1.73,1.74,-0.80,-0.79,0.77,-0.34,-0.85,2.50,2.51,2.53
24.40,1.84,1.84,-0.68,-0.68,0.67,-0.38,-0.87,2.52,2.51,2.53
24.65,1.95,1.95,-0.57,-0.57,0.58,-0.43,-0.89,2.52,2.52,2.52
24.89,2.05,2.05,-0.46,-0.46,0.48,-0.48,-0.91,2.53,2.53,2.52
25.14,2.15,2.15,-0.36,-0.36,0.38,-0.53,-0.94,2.53,2.53,2.51
25.39,2.24,2.24,-0.27,-0.27,0.28,-0.58,-0.96,2.52,2.52,2.51
25.65,2.33,2.33,-0.18,-0.18,0.18,-0.63,-0.98,2.52,2.52,2.51
25.91,2.42,2.42,-0.08,-0.09,0.09,-0.68,-1.01,2.51,2.51,2.50
26.16,2.50,2.50,0.00,0.00,0.00,-0.73,-1.03,2.51,2.51,2.50
26.43,2.58,2.58,0.08,0.08,-0.09,-0.78,-1.05,2.49,2.49,2.50
26.69,2.67,2.67,0.17,0.17,-0.19,-0.83,-1.08,2.48,2.48,2.50
26.96,2.75,2.76,0.25,0.26,-0.28,-0.88,-1.10,2.47,2.47,2.50
27.23,2.86,2.86,0.36,0.37,-0.38,-0.93,-1.13,2.48,2.48,2.50
27.50,2.97,2.98,0.48,0.48,-0.48,-0.98,-1.15,2.49,2.50,2.49
27.77,3.09,3.09,0.61,0.60,-0.57,-1.04,-1.18,2.52,2.52,2.48
28.05,3.19,3.18,0.71,0.70,-0.66,-1.09,-1.20,2.53,2.52,2.48
28.33,3.25,3.25,0.78,0.78,-0.76,-1.14,-1.23,2.49,2.49,2.47
28.62,3.31,3.31,0.84,0.84,-0.85,-1.19,-1.26,2.46,2.46,2.47
28.90,3.37,3.38,0.90,0.91,-0.94,-1.24,-1.28,2.43,2.43,2.47
29.19,3.46,3.47,1.01,1.01,-1.04,-1.30,-1.31,2.42,2.43,2.46
29.48,3.57,3.57,1.11,1.11,-1.13,-1.35,-1.34,2.44,2.44,2.46
29.78,3.69,3.68,1.24,1.23,-1.23,-1.40,-1.36,2.46,2.45,2.45
30.08,3.79,3.79,1.34,1.34,-1.33,-1.46,-1.39,2.46,2.46,2.45
30.38,3.88,3.89,1.44,1.45,-1.43,-1.51,-1.42,2.45,2.46,2.44
30.68,3.97,3.98,1.53,1.54,-1.53,-1.57,-1.44,2.44,2.45,2.44
30.99,4.07,4.06,1.65,1.63,-1.62,-1.62,-1.47,2.45,2.44,2.42
31.30,4.13,4.13,1.71,1.71,-1.70,-1.68,-1.50,2.43,2.43,2.42
31.61,4.19,4.20,1.77,1.78,-1.78,-1.73,-1.52,2.41,2.42,2.42
31.93,4.26,4.26,1.85,1.85,-1.85,-1.79,-1.55,2.41,2.40,2.41
32.24,4.32,4.32,1.93,1.92,-1.93,-1.85,-1.58,2.39,2.39,2.39
32.57,4.38,4.38,1.99,1.99,-2.01,-1.90,-1.60,2.37,2.37,2.39
32.89,4.45,4.45,2.06,2.07,-2.09,-1.96,-1.63,2.36,2.36,2.39
33.22,4.53,4.54,2.15,2.16,-2.17,-2.02,-1.66,2.36,2.37,2.38
33.55,4.63,4.63,2.26,2.26,-2.25,-2.08,-1.69,2.38,2.38,2.37
33.89,4.72,4.71,2.36,2.35,-2.32,-2.14,-1.72,2.40,2.39,2.36
34.23,4.78,4.78,2.42,2.42,-2.40,-2.20,-1.75,2.39,2.38,2.36
34.57,4.82,4.83,2.48,2.48,-2.47,-2.26,-1.78,2.35,2.36,2.34
34.92,4.87,4.87,2.54,2.53,-2.54,-2.32,-1.81,2.33,2.33,2.33
35.27,4.92,4.92,2.59,2.59,-2.61,-2.38,-1.84,2.31,2.30,2.33
35.62,4.97,4.97,2.66,2.66,-2.68,-2.44,-1.87,2.29,2.29,2.31
35.97,5.03,5.04,2.73,2.73,-2.75,-2.50,-1.90,2.28,2.28,2.30
36.33,5.11,5.12,2.81,2.83,-2.83,-2.57,-1.94,2.29,2.29,2.30
36.70,5.21,5.20,2.93,2.92,-2.90,-2.63,-1.97,2.31,2.30,2.28
37.06,5.29,5.27,3.02,3.00,-2.98,-2.69,-2.01,2.31,2.29,2.27
37.43,5.32,5.33,3.06,3.06,-3.06,-2.76,-2.05,2.26,2.27,2.27
37.81,5.36,5.37,3.11,3.12,-3.13,-2.82,-2.08,2.23,2.24,2.25
38.19,5.42,5.43,3.18,3.19,-3.19,-2.89,-2.12,2.23,2.23,2.24
38.57,5.49,5.50,3.26,3.27,-3.25,-2.96,-2.17,2.24,2.24,2.23
38.95,5.57,5.55,3.35,3.33,-3.31,-3.02,-2.21,2.26,2.24,2.22
39.34,5.58,5.57,3.38,3.37,-3.36,-3.09,-2.25,2.22,2.21,2.20
39.74,5.58,5.59,3.39,3.40,-3.42,-3.16,-2.30,2.16,2.17,2.19
40.14,5.61,5.63,3.43,3.45,-3.48,-3.23,-2.35,2.13,2.15,2.18
40.54,5.69,5.69,3.52,3.52,-3.54,-3.30,-2.40,2.15,2.15,2.17
40.94,5.77,5.76,3.61,3.60,-3.60,-3.37,-2.45,2.17,2.16,2.16
41.35,5.82,5.82,3.68,3.67,-3.66,-3.43,-2.50,2.16,2.16,2.14
41.76,5.86,5.86,3.72,3.73,-3.71,-3.50,-2.56,2.15,2.15,2.14
42.18,5.90,5.91,3.77,3.78,-3.77,-3.57,-2.62,2.13,2.14,2.13
42.60,5.94,5.94,3.83,3.82,-3.81,-3.64,-2.68,2.13,2.13,2.11
43.03,5.98,5.97,3.87,3.86,-3.85,-3.70,-2.74,2.13,2.12,2.11
43.46,5.98,5.98,3.89,3.90,-3.88,-3.77,-2.80,2.10,2.10,2.09
43.90,5.98,5.98,3.92,3.92,-3.91,-3.83,-2.87,2.07,2.07,2.06
44.33,5.98,5.98,3.94,3.93,-3.95,-3.89,-2.94,2.03,2.03,2.04
44.78,5.98,5.99,3.95,3.96,-3.99,-3.96,-3.01,1.99,2.00,2.03
45.23,6.00,6.01,3.99,4.00,-4.03,-4.01,-3.08,1.97,1.98,2.01
45.68,6.05,6.04,4.06,4.05,-4.07,-4.07,-3.16,1.98,1.98,1.99
46.13,6.09,6.10,4.12,4.12,-4.11,-4.12,-3.23,1.98,1.99,1.97
46.60,6.14,6.14,4.18,4.18,-4.15,-4.17,-3.31,1.99,1.99,1.96
47.06,6.18,6.17,4.24,4.22,-4.20,-4.22,-3.39,1.98,1.97,1.94
47.53,6.18,6.18,4.26,4.26,-4.25,-4.26,-3.47,1.93,1.93,1.92
48.01,6.18,6.19,4.27,4.28,-4.30,-4.31,-3.56,1.88,1.89,1.91
48.49,6.19,6.19,4.31,4.31,-4.34,-4.34,-3.64,1.85,1.85,1.88
48.97,6.21,6.22,4.36,4.37,-4.38,-4.38,-3.73,1.83,1.83,1.85
49.46,6.24,6.24,4.42,4.43,-4.42,-4.41,-3.82,1.82,1.82,1.82
49.96,6.28,6.27,4.49,4.47,-4.46,-4.44,-3.91,1.82,1.81,1.79
50.46,6.28,6.28,4.51,4.51,-4.49,-4.47,-4.00,1.79,1.79,1.77
50.96,6.28,6.28,4.53,4.54,-4.53,-4.49,-4.10,1.75,1.76,1.75
51.47,6.28,6.28,4.56,4.56,-4.56,-4.51,-4.19,1.72,1.72,1.72
51.99,6.28,6.28,4.59,4.58,-4.59,-4.54,-4.28,1.69,1.69,1.70
52.51,6.28,6.28,4.60,4.60,-4.61,-4.55,-4.38,1.67,1.67,1.68
53.03,6.28,6.28,4.62,4.62,-4.63,-4.57,-4.47,1.65,1.65,1.66
53.56,6.28,6.28,4.65,4.65,-4.66,-4.59,-4.57,1.62,1.62,1.63
54.10,6.28,6.28,4.67,4.67,-4.68,-4.60,-4.66,1.60,1.60,1.61
54.64,6.28,6.28,4.70,4.70,-4.71,-4.62,-4.75,1.57,1.57,1.58
55.18,6.28,6.28,4.73,4.73,-4.73,-4.63,-4.84,1.55,1.55,1.55
55.74,6.28,6.28,4.75,4.75,-4.74,-4.65,-4.93,1.54,1.54,1.53
56.29,6.28,6.28,4.77,4.78,-4.75,-4.66,-5.01,1.53,1.53,1.51
56.86,6.28,6.26,4.80,4.78,-4.76,-4.68,-5.09,1.52,1.50,1.48
57.42,6.24,6.23,4.79,4.78,-4.77,-4.69,-5.17,1.47,1.46,1.45
58.00,6.18,6.20,4.75,4.77,-4.78,-4.71,-5.24,1.40,1.42,1.43
58.58,6.18,6.18,4.77,4.77,-4.79,-4.72,-5.31,1.39,1.39,1.41
59.16,6.18,6.18,4.79,4.78,-4.81,-4.74,-5.38,1.37,1.37,1.39
59.76,6.18,6.18,4.81,4.81,-4.82,-4.76,-5.44,1.36,1.36,1.37
60.35,6.18,6.18,4.84,4.84,-4.84,-4.77,-5.49,1.34,1.34,1.34
60.96,6.18,6.19,4.86,4.88,-4.86,-4.79,-5.54,1.32,1.33,1.32
61.57,6.19,6.18,4.92,4.90,-4.88,-4.81,-5.59,1.31,1.30,1.27
62.18,6.17,6.16,4.93,4.91,-4.90,-4.83,-5.62,1.27,1.26,1.24
62.80,6.12,6.13,4.90,4.92,-4.91,-4.85,-5.66,1.21,1.22,1.22
63.43,6.09,6.10,4.91,4.92,-4.92,-4.87,-5.68,1.17,1.18,1.18
64.07,6.08,6.08,4.93,4.92,-4.92,-4.89,-5.70,1.16,1.16,1.16
64.71,6.06,6.05,4.93,4.92,-4.92,-4.91,-5.72,1.14,1.13,1.13
65.35,6.03,6.02,4.93,4.92,-4.93,-4.94,-5.73,1.10,1.10,1.10
66.01,5.98,6.00,4.91,4.92,-4.94,-4.96,-5.73,1.04,1.06,1.07
66.67,5.98,5.98,4.94,4.94,-4.95,-4.98,-5.73,1.03,1.03,1.04
67.33,5.98,5.98,4.97,4.96,-4.97,-5.01,-5.73,1.01,1.00,1.01
68.01,5.98,5.98,5.00,5.00,-5.00,-5.03,-5.72,0.98,0.98,0.98
68.69,5.98,5.98,5.03,5.03,-5.03,-5.06,-5.71,0.95,0.95,0.95
69.37,5.98,5.98,5.06,5.06,-5.06,-5.08,-5.69,0.93,0.93,0.92
70.07,5.98,5.98,5.09,5.09,-5.08,-5.11,-5.68,0.90,0.90,0.89
70.77,5.98,5.99,5.12,5.13,-5.11,-5.14,-5.66,0.87,0.88,0.86
71.48,5.98,5.96,5.15,5.14,-5.13,-5.17,-5.64,0.85,0.84,0.83
72.19,5.95,5.94,5.16,5.14,-5.14,-5.19,-5.62,0.81,0.79,0.79
72.91,5.87,5.91,5.11,5.15,-5.15,-5.22,-5.59,0.72,0.76,0.76
73.64,5.89,5.88,5.17,5.16,-5.16,-5.25,-5.57,0.73,0.72,0.72
74.38,5.88,5.86,5.19,5.17,-5.17,-5.28,-5.55,0.72,0.69,0.69
75.12,5.83,5.84,5.18,5.18,-5.17,-5.31,-5.53,0.66,0.66,0.66
75.87,5.79,5.80,5.16,5.17,-5.18,-5.34,-5.51,0.61,0.62,0.63
76.63,5.78,5.78,5.18,5.19,-5.20,-5.37,-5.49,0.58,0.58,0.60
77.40,5.78,5.78,5.22,5.22,-5.21,-5.40,-5.48,0.57,0.56,0.57
78.17,5.78,5.78,5.26,5.25,-5.24,-5.43,-5.47,0.54,0.54,0.52
78.95,5.78,5.78,5.28,5.28,-5.27,-5.47,-5.46,0.51,0.51,0.50
79.74,5.78,5.78,5.31,5.31,-5.32,-5.50,-5.45,0.46,0.45,0.47
80.54,5.78,5.77,5.35,5.34,-5.38,-5.53,-5.44,0.40,0.39,0.43
81.35,5.79,5.81,5.39,5.41,-5.45,-5.56,-5.44,0.35,0.36,0.40
82.16,5.83,5.87,5.47,5.50,-5.51,-5.59,-5.44,0.32,0.36,0.36
82.98,5.98,5.93,5.64,5.60,-5.58,-5.63,-5.45,0.41,0.35,0.34
83.81,5.98,5.98,5.69,5.68,-5.64,-5.66,-5.46,0.34,0.34,0.29
84.65,5.98,5.99,5.73,5.74,-5.70,-5.69,-5.47,0.28,0.29,0.25
85.50,5.98,5.98,5.76,5.76,-5.76,-5.73,-5.49,0.22,0.22,0.22
86.35,5.98,5.98,5.80,5.80,-5.81,-5.76,-5.50,0.17,0.17,0.18
87.22,5.98,5.98,5.84,5.83,-5.85,-5.80,-5.53,0.13,0.13,0.14
88.09,5.98,5.98,5.88,5.87,-5.89,-5.83,-5.56,0.09,0.09,0.10
88.97,5.98,5.98,5.91,5.92,-5.92,-5.87,-5.59,0.06,0.06,0.07
89.86,5.99,5.99,5.96,5.96,-5.96,-5.90,-5.63,0.03,0.03,0.03
90.76,5.99,5.99,6.01,6.01,-6.00,-5.94,-5.67,-0.01,-0.01,-0.02
91.66,5.99,5.99,6.04,6.05,-6.04,-5.98,-5.71,-0.05,-0.05,-0.05
92.58,5.99,5.99,6.10,6.09,-6.09,-6.01,-5.76,-0.10,-0.10,-0.11
93.51,5.99,5.99,6.13,6.13,-6.14,-6.05,-5.82,-0.15,-0.15,-0.14
94.44,5.99,5.99,6.18,6.17,-6.19,-6.09,-5.87,-0.20,-0.20,-0.18
95.39,5.99,5.99,6.22,6.22,-6.24,-6.13,-5.93,-0.25,-0.26,-0.23
96.34,5.99,6.00,6.27,6.28,-6.30,-6.17,-6.00,-0.31,-0.29,-0.28
97.30,6.02,6.03,6.35,6.36,-6.35,-6.21,-6.07,-0.33,-0.32,-0.33
98.28,6.07,6.05,6.44,6.43,-6.40,-6.25,-6.14,-0.33,-0.35,-0.37
99.26,6.06,6.06,6.48,6.48,-6.46,-6.29,-6.21,-0.39,-0.40,-0.42
100.25,6.04,6.05,6.51,6.51,-6.50,-6.33,-6.29,-0.46,-0.46,-0.47
101.25,6.02,6.03,6.53,6.54,-6.54,-6.38,-6.37,-0.52,-0.52,-0.51
102.27,6.01,6.01,6.57,6.57,-6.58,-6.42,-6.45,-0.57,-0.57,-0.56
103.29,6.00,6.00,6.61,6.60,-6.60,-6.47,-6.54,-0.60,-0.61,-0.61
104.32,5.98,5.98,6.63,6.63,-6.63,-6.51,-6.62,-0.65,-0.65,-0.65
105.37,5.95,5.95,6.65,6.65,-6.65,-6.56,-6.71,-0.70,-0.70,-0.70
106.42,5.93,5.93,6.67,6.67,-6.68,-6.60,-6.80,-0.75,-0.75,-0.74
107.48,5.90,5.90,6.69,6.70,-6.70,-6.65,-6.89,-0.80,-0.80,-0.79
108.56,5.88,5.88,6.73,6.72,-6.73,-6.70,-6.98,-0.85,-0.85,-0.85
109.64,5.86,5.86,6.75,6.75,-6.75,-6.75,-7.07,-0.89,-0.89,-0.89
110.74,5.84,5.85,6.78,6.79,-6.77,-6.80,-7.15,-0.93,-0.93,-0.94
111.85,5.82,5.82,6.80,6.81,-6.80,-6.85,-7.24,-0.98,-0.98,-0.98
112.97,5.81,5.79,6.86,6.83,-6.83,-6.90,-7.32,-1.02,-1.04,-1.05
114.10,5.74,5.75,6.83,6.85,-6.86,-6.95,-7.40,-1.12,-1.11,-1.09
115.24,5.70,5.72,6.85,6.87,-6.88,-7.00,-7.47,-1.18,-1.16,-1.15
116.39,5.71,5.71,6.91,6.91,-6.91,-7.05,-7.55,-1.20,-1.20,-1.20
117.55,5.71,5.70,6.97,6.96,-6.94,-7.10,-7.61,-1.23,-1.24,-1.26
118.73,5.70,5.68,7.01,6.99,-6.98,-7.15,-7.68,-1.27,-1.29,-1.31
119.92,5.63,5.66,6.99,7.01,-7.01,-7.20,-7.73,-1.38,-1.36,-1.35
121.12,5.63,5.64,7.04,7.04,-7.06,-7.25,-7.78,-1.43,-1.42,-1.41
122.33,5.64,5.63,7.10,7.09,-7.10,-7.30,-7.82,-1.46,-1.47,-1.46
123.55,5.64,5.64,7.14,7.15,-7.15,-7.35,-7.86,-1.51,-1.51,-1.50
124.79,5.65,5.65,7.20,7.20,-7.21,-7.39,-7.89,-1.56,-1.56,-1.55
126.03,5.66,5.66,7.26,7.26,-7.26,-7.44,-7.91,-1.60,-1.61,-1.60
127.29,5.66,5.67,7.31,7.32,-7.32,-7.49,-7.93,-1.66,-1.65,-1.65
128.57,5.67,5.67,7.38,7.38,-7.37,-7.53,-7.94,-1.70,-1.70,-1.71
129.85,5.68,5.68,7.44,7.44,-7.42,-7.58,-7.94,-1.74,-1.74,-1.76
131.15,5.68,5.69,7.49,7.50,-7.47,-7.62,-7.94,-1.79,-1.78,-1.81
132.46,5.69,5.67,7.55,7.53,-7.52,-7.66,-7.93,-1.83,-1.85,-1.86
133.79,5.67,5.65,7.56,7.55,-7.57,-7.71,-7.92,-1.90,-1.92,-1.89
135.12,5.60,5.65,7.55,7.59,-7.62,-7.75,-7.90,-2.02,-1.97,-1.95
136.48,5.67,5.66,7.65,7.65,-7.67,-7.79,-7.88,-2.00,-2.01,-1.98
137.84,5.70,5.68,7.73,7.72,-7.71,-7.83,-7.85,-2.01,-2.03,-2.03
139.22,5.70,5.71,7.78,7.78,-7.76,-7.86,-7.83,-2.06,-2.05,-2.08
140.61,5.70,5.70,7.83,7.82,-7.80,-7.90,-7.79,-2.10,-2.10,-2.12
142.02,5.70,5.70,7.85,7.85,-7.85,-7.94,-7.76,-2.15,-2.15,-2.15
143.44,5.70,5.70,7.89,7.89,-7.89,-7.97,-7.73,-2.19,-2.19,-2.19
144.87,5.70,5.70,7.93,7.93,-7.94,-8.00,-7.69,-2.24,-2.24,-2.23
146.32,5.70,5.70,7.97,7.96,-7.98,-8.03,-7.66,-2.28,-2.28,-2.27
147.78,5.70,5.70,8.00,8.00,-8.02,-8.07,-7.63,-2.32,-2.32,-2.30
149.26,5.70,5.70,8.04,8.04,-8.05,-8.09,-7.60,-2.35,-2.35,-2.33
150.75,5.70,5.71,8.08,8.08,-8.09,-8.12,-7.57,-2.39,-2.38,-2.38
152.26,5.70,5.70,8.12,8.12,-8.11,-8.15,-7.54,-2.41,-2.41,-2.42
153.78,5.70,5.68,8.15,8.14,-8.12,-8.18,-7.52,-2.42,-2.43,-2.45
155.32,5.63,5.66,8.13,8.15,-8.11,-8.20,-7.50,-2.48,-2.45,-2.50
156.88,5.61,5.60,8.14,8.13,-8.09,-8.22,-7.48,-2.48,-2.49,-2.53
158.44,5.53,5.51,8.11,8.08,-8.06,-8.25,-7.46,-2.53,-2.55,-2.58
160.03,5.40,5.41,8.02,8.03,-8.02,-8.27,-7.45,-2.62,-2.61,-2.62
161.63,5.29,5.31,7.95,7.96,-7.99,-8.29,-7.45,-2.70,-2.69,-2.66
163.24,5.23,5.22,7.93,7.92,-7.98,-8.31,-7.45,-2.75,-2.75,-2.70
164.88,5.19,5.19,7.92,7.92,-7.98,-8.32,-7.45,-2.79,-2.79,-2.73
166.53,5.17,5.19,7.94,7.96,-7.99,-8.34,-7.46,-2.82,-2.80,-2.77
168.19,5.22,5.22,8.03,8.02,-8.03,-8.35,-7.47,-2.81,-2.81,-2.81
169.87,5.28,5.25,8.13,8.09,-8.08,-8.37,-7.49,-2.80,-2.83,-2.84
171.57,5.27,5.29,8.15,8.17,-8.15,-8.38,-7.52,-2.88,-2.86,-2.88
173.29,5.31,5.32,8.23,8.24,-8.22,-8.39,-7.54,-2.91,-2.90,-2.92
175.02,5.36,5.34,8.31,8.30,-8.28,-8.40,-7.58,-2.92,-2.94,-2.95
176.77,5.36,5.36,8.36,8.36,-8.34,-8.41,-7.62,-2.98,-2.98,-3.00
178.54,5.36,5.37,8.40,8.40,-8.40,-8.42,-7.67,-3.04,-3.03,-3.04
180.32,5.36,5.36,8.44,8.44,-8.45,-8.43,-7.72,-3.08,-3.08,-3.08
182.13,5.37,5.37,8.48,8.48,-8.49,-8.43,-7.78,-3.12,-3.12,-3.11
183.95,5.38,5.38,8.53,8.53,-8.53,-8.44,-7.84,-3.15,-3.16,-3.15
185.79,5.39,5.39,8.57,8.58,-8.58,-8.44,-7.91,-3.19,-3.19,-3.18
187.65,5.40,5.40,8.62,8.62,-8.62,-8.45,-7.98,-3.22,-3.22,-3.22
189.52,5.42,5.42,8.67,8.67,-8.67,-8.45,-8.06,-3.25,-3.25,-3.25
191.42,5.43,5.43,8.71,8.71,-8.72,-8.45,-8.14,-3.29,-3.28,-3.28
193.33,5.45,5.45,8.76,8.76,-8.76,-8.45,-8.23,-3.31,-3.31,-3.31
195.27,5.46,5.46,8.80,8.80,-8.80,-8.45,-8.33,-3.34,-3.34,-3.34
197.22,5.48,5.48,8.85,8.85,-8.84,-8.45,-8.43,-3.36,-3.37,-3.37
199.19,5.49,5.49,8.89,8.88,-8.88,-8.44,-8.53,-3.39,-3.39,-3.40
201.18,5.49,5.50,8.91,8.92,-8.91,-8.44,-8.64,-3.42,-3.41,-3.42
203.19,5.50,5.50,8.94,8.94,-8.94,-8.43,-8.75,-3.44,-3.44,-3.44
205.23,5.50,5.50,8.96,8.95,-8.96,-8.43,-8.86,-3.46,-3.46,-3.46
207.28,5.50,5.50,8.97,8.98,-8.98,-8.42,-8.98,-3.48,-3.48,-3.47
209.35,5.50,5.50,8.99,8.99,-9.00,-8.41,-9.10,-3.50,-3.50,-3.49
211.44,5.50,5.50,9.02,9.01,-9.01,-8.40,-9.22,-3.51,-3.51,-3.52
213.56,5.49,5.49,9.01,9.01,-9.02,-8.39,-9.34,-3.53,-3.52,-3.52
215.69,5.49,5.49,9.01,9.01,-9.02,-8.38,-9.46,-3.52,-3.53,-3.52
217.85,5.48,5.49,9.02,9.03,-9.01,-8.37,-9.58,-3.53,-3.52,-3.53
220.03,5.48,5.48,9.03,9.03,-9.00,-8.36,-9.70,-3.52,-3.52,-3.55
222.23,5.48,5.45,9.04,9.00,-8.98,-8.34,-9.81,-3.50,-3.54,-3.56
224.45,5.39,5.41,8.94,8.97,-8.97,-8.33,-9.92,-3.58,-3.56,-3.55
226.70,5.36,5.38,8.91,8.93,-8.96,-8.31,-10.02,-3.60,-3.58,-3.55
228.96,5.38,5.37,8.93,8.92,-8.95,-8.30,-10.11,-3.57,-3.58,-3.55
231.25,5.39,5.39,8.93,8.93,-8.95,-8.28,-10.20,-3.56,-3.56,-3.54
233.57,5.40,5.40,8.94,8.95,-8.95,-8.26,-10.28,-3.55,-3.55,-3.54
235.90,5.41,5.41,8.95,8.96,-8.96,-8.24,-10.33,-3.55,-3.55,-3.54
238.26,5.43,5.43,8.97,8.97,-8.98,-8.22,-10.39,-3.54,-3.55,-3.54
240.64,5.45,5.45,8.98,8.98,-8.98,-8.20,-10.42,-3.53,-3.54,-3.53
243.05,5.46,5.48,8.98,9.00,-8.98,-8.17,-10.44,-3.52,-3.50,-3.52
245.48,5.50,5.50,9.01,9.01,-8.97,-8.15,-10.44,-3.46,-3.47,-3.51
247.93,5.52,5.49,9.02,8.99,-8.94,-8.13,-10.43,-3.42,-3.45,-3.50
250.41,5.45,5.45,8.94,8.94,-8.92,-8.10,-10.39,-3.47,-3.47,-3.49
252.92,5.38,5.39,8.85,8.87,-8.90,-8.07,-10.35,-3.52,-3.50,-3.47
255.45,5.34,5.36,8.79,8.81,-8.87,-8.05,-10.27,-3.53,-3.52,-3.45
258.00,5.35,5.35,8.79,8.78,-8.84,-8.02,-10.19,-3.49,-3.49,-3.44
260.58,5.37,5.36,8.79,8.78,-8.80,-7.99,-10.09,-3.43,-3.43,-3.42
263.19,5.37,5.39,8.77,8.79,-8.75,-7.96,-9.97,-3.38,-3.36,-3.40
265.82,5.39,5.39,8.78,8.77,-8.71,-7.93,-9.84,-3.31,-3.32,-3.39
268.48,5.38,5.33,8.74,8.69,-8.66,-7.89,-9.70,-3.28,-3.33,-3.36
271.16,5.25,5.27,8.59,8.61,-8.61,-7.86,-9.54,-3.36,-3.34,-3.34
273.87,5.14,5.19,8.46,8.51,-8.54,-7.82,-9.37,-3.40,-3.35,-3.32
276.61,5.16,5.13,8.46,8.43,-8.47,-7.79,-9.19,-3.31,-3.34,-3.30
279.38,5.10,5.09,8.39,8.38,-8.39,-7.75,-9.01,-3.29,-3.29,-3.28
282.17,5.05,5.05,8.32,8.32,-8.31,-7.71,-8.81,-3.25,-3.25,-3.27
284.99,4.98,4.99,8.23,8.24,-8.23,-7.67,-8.62,-3.25,-3.24,-3.24
287.84,4.93,4.93,8.16,8.16,-8.16,-7.63,-8.41,-3.22,-3.23,-3.23
290.72,4.88,4.85,8.08,8.06,-8.08,-7.59,-8.21,-3.20,-3.23,-3.20
293.63,4.77,4.79,7.96,7.98,-8.00,-7.55,-8.00,-3.23,-3.21,-3.19
296.57,4.71,4.74,7.87,7.91,-7.91,-7.50,-7.79,-3.20,-3.17,-3.16
299.53,4.71,4.68,7.86,7.82,-7.80,-7.46,-7.58,-3.09,-3.13,-3.15
302.53,4.62,4.60,7.75,7.73,-7.69,-7.41,-7.37,-3.07,-3.09,-3.13
305.55,4.48,4.50,7.57,7.60,-7.57,-7.36,-7.16,-3.09,-3.07,-3.09
308.61,4.36,4.37,7.44,7.44,-7.44,-7.31,-6.96,-3.08,-3.07,-3.08
311.69,4.25,4.24,7.30,7.29,-7.30,-7.26,-6.75,-3.05,-3.06,-3.05
314.81,4.12,4.12,7.14,7.14,-7.15,-7.21,-6.55,-3.03,-3.03,-3.01
317.96,3.99,4.00,6.99,7.00,-7.00,-7.16,-6.35,-3.01,-3.00,-3.00
321.14,3.87,3.86,6.85,6.84,-6.85,-7.10,-6.15,-2.98,-2.99,-2.98
324.35,3.73,3.72,6.69,6.69,-6.69,-7.04,-5.95,-2.96,-2.97,-2.96
327.59,3.58,3.60,6.52,6.54,-6.54,-6.99,-5.76,-2.96,-2.94,-2.94
330.87,3.48,3.49,6.40,6.41,-6.39,-6.92,-5.57,-2.91,-2.90,-2.92
334.18,3.39,3.37,6.29,6.27,-6.25,-6.86,-5.38,-2.86,-2.88,-2.90
337.52,3.26,3.25,6.15,6.13,-6.12,-6.80,-5.19,-2.86,-2.87,-2.89
340.90,3.11,3.12,5.97,5.98,-6.00,-6.74,-5.01,-2.89,-2.88,-2.86
344.30,2.99,3.00,5.83,5.84,-5.89,-6.67,-4.83,-2.90,-2.89,-2.84
347.75,2.93,2.93,5.75,5.75,-5.80,-6.60,-4.66,-2.87,-2.87,-2.82
351.23,2.88,2.90,5.69,5.71,-5.72,-6.53,-4.49,-2.84,-2.81,-2.80
354.74,2.90,2.88,5.69,5.66,-5.65,-6.46,-4.32,-2.75,-2.77,-2.79
358.28,2.85,2.83,5.62,5.60,-5.59,-6.38,-4.15,-2.74,-2.76,-2.77
361.87,2.75,2.77,5.50,5.53,-5.52,-6.31,-3.99,-2.77,-2.75,-2.75
365.49,2.69,2.71,5.43,5.45,-5.45,-6.23,-3.83,-2.76,-2.74,-2.74
369.14,2.65,2.66,5.39,5.39,-5.36,-6.15,-3.67,-2.71,-2.70,-2.74
372.83,2.61,2.59,5.33,5.31,-5.25,-6.06,-3.52,-2.64,-2.65,-2.72
376.56,2.50,2.48,5.21,5.19,-5.12,-5.98,-3.36,-2.62,-2.64,-2.71
380.33,2.33,2.33,5.01,5.02,-5.00,-5.89,-3.22,-2.66,-2.66,-2.68
384.13,2.16,2.17,4.83,4.85,-4.87,-5.80,-3.07,-2.71,-2.70,-2.67
387.97,2.03,2.04,4.69,4.70,-4.77,-5.70,-2.93,-2.74,-2.72,-2.66
391.85,1.96,1.96,4.62,4.61,-4.68,-5.61,-2.79,-2.72,-2.72,-2.66
395.77,1.92,1.91,4.56,4.55,-4.62,-5.51,-2.65,-2.69,-2.70,-2.64
399.73,1.89,1.89,4.52,4.52,-4.57,-5.41,-2.51,-2.68,-2.67,-2.63
403.72,1.89,1.91,4.51,4.53,-4.54,-5.30,-2.38,-2.65,-2.63,-2.62
407.76,1.93,1.94,4.54,4.54,-4.51,-5.19,-2.25,-2.58,-2.58,-2.61
411.84,1.98,1.95,4.57,4.55,-4.48,-5.08,-2.12,-2.50,-2.53,-2.59
415.96,1.92,1.93,4.50,4.51,-4.44,-4.97,-2.00,-2.51,-2.51,-2.58
420.12,1.85,1.84,4.42,4.42,-4.37,-4.85,-1.88,-2.52,-2.53,-2.57
424.32,1.73,1.73,4.30,4.29,-4.29,-4.73,-1.76,-2.56,-2.56,-2.57
428.56,1.59,1.61,4.15,4.17,-4.19,-4.60,-1.65,-2.60,-2.58,-2.56
432.85,1.50,1.50,4.05,4.04,-4.07,-4.47,-1.53,-2.57,-2.58,-2.55
437.18,1.40,1.40,3.94,3.93,-3.95,-4.34,-1.42,-2.55,-2.55,-2.54
441.55,1.29,1.30,3.81,3.82,-3.83,-4.20,-1.32,-2.53,-2.53,-2.52
445.96,1.20,1.19,3.71,3.70,-3.71,-4.06,-1.22,-2.51,-2.52,-2.51
450.42,1.08,1.08,3.58,3.58,-3.60,-3.91,-1.12,-2.52,-2.51,-2.50
454.93,0.97,0.99,3.45,3.48,-3.49,-3.75,-1.02,-2.52,-2.50,-2.48
459.48,0.91,0.91,3.38,3.38,-3.38,-3.60,-0.93,-2.47,-2.47,-2.47
464.07,0.84,0.83,3.29,3.28,-3.27,-3.43,-0.85,-2.43,-2.44,-2.45
468.71,0.73,0.73,3.17,3.17,-3.15,-3.27,-0.76,-2.42,-2.43,-2.43
473.40,0.61,0.61,3.04,3.03,-3.04,-3.09,-0.69,-2.43,-2.43,-2.43
478.13,0.48,0.49,2.89,2.90,-2.91,-2.91,-0.61,-2.43,-2.42,-2.41
482.91,0.38,0.38,2.78,2.78,-2.78,-2.73,-0.54,-2.40,-2.39,-2.40
487.74,0.27,0.25,2.65,2.63,-2.63,-2.53,-0.48,-2.36,-2.38,-2.38
492.62,0.12,0.11,2.48,2.47,-2.47,-2.34,-0.41,-2.35,-2.36,-2.36
497.55,-0.07,-0.04,2.28,2.31,-2.29,-2.13,-0.36,-2.36,-2.33,-2.35
