frequency,raw,smoothed,error,error_smoothed,equalization,parametric_eq,fixed_band_eq,equalized_raw,equalized_smoothed,target
20.00,-4.11,-4.11,-10.02,-10.01,6.00,6.84,2.76,1.89,1.89,5.90
20.20,-4.05,-4.05,-9.95,-9.95,6.00,6.82,2.84,1.95,1.95,5.90
20.40,-3.99,-3.99,-9.89,-9.89,6.00,6.80,2.92,2.01,2.01,5.90
20.61,-3.93,-3.93,-9.83,-9.84,6.00,6.78,3.01,2.07,2.07,5.90
20.81,-3.87,-3.88,-9.77,-9.78,6.00,6.76,3.09,2.13,2.12,5.90
21.02,-3.82,-3.82,-9.72,-9.72,6.00,6.74,3.18,2.18,2.18,5.90
21.23,-3.77,-3.77,-9.65,-9.65,6.00,6.72,3.27,2.23,2.23,5.88
21.44,-3.71,-3.72,-9.58,-9.58,6.00,6.70,3.37,2.29,2.28,5.87
21.66,-3.66,-3.66,-9.51,-9.51,6.00,6.68,3.47,2.34,2.34,5.85
21.87,-3.60,-3.60,-9.43,-9.44,6.00,6.66,3.57,2.40,2.40,5.83
22.09,-3.55,-3.55,-9.37,-9.36,6.00,6.63,3.67,2.45,2.45,5.82
22.31,-3.50,-3.50,-9.29,-9.29,6.00,6.61,3.77,2.50,2.50,5.79
22.54,-3.45,-3.46,-9.22,-9.22,6.00,6.59,3.88,2.55,2.54,5.77
22.76,-3.41,-3.41,-9.16,-9.15,6.00,6.57,3.99,2.59,2.59,5.75
22.99,-3.37,-3.37,-9.09,-9.08,6.00,6.54,4.11,2.63,2.63,5.71
23.22,-3.33,-3.33,-9.02,-9.02,6.00,6.52,4.22,2.67,2.67,5.68
23.45,-3.29,-3.30,-8.96,-8.96,6.00,6.50,4.34,2.71,2.70,5.66
23.69,-3.26,-3.26,-8.92,-8.91,6.00,6.47,4.46,2.74,2.74,5.65
23.92,-3.22,-3.22,-8.85,-8.86,6.00,6.45,4.59,2.78,2.78,5.63
24.16,-3.18,-3.18,-8.80,-8.80,6.00,6.43,4.71,2.82,2.82,5.62
24.40,-3.14,-3.14,-8.74,-8.74,6.00,6.40,4.84,2.86,2.86,5.60
24.65,-3.10,-3.10,-8.68,-8.68,6.00,6.38,4.97,2.90,2.90,5.58
24.89,-3.06,-3.06,-8.62,-8.62,6.00,6.35,5.10,2.94,2.94,5.56
25.14,-3.02,-3.02,-8.57,-8.56,6.00,6.33,5.24,2.98,2.98,5.55
25.39,-2.97,-2.98,-8.50,-8.50,6.00,6.30,5.37,3.03,3.02,5.53
25.65,-2.93,-2.93,-8.45,-8.44,6.00,6.28,5.51,3.07,3.07,5.52
25.91,-2.89,-2.89,-8.38,-8.38,6.00,6.26,5.64,3.11,3.11,5.48
26.16,-2.85,-2.85,-8.32,-8.33,6.00,6.23,5.78,3.15,3.15,5.47
26.43,-2.81,-2.82,-8.28,-8.27,6.00,6.21,5.91,3.19,3.18,5.46
26.69,-2.78,-2.78,-8.22,-8.23,6.00,6.18,6.05,3.22,3.22,5.44
26.96,-2.75,-2.75,-8.18,-8.18,6.00,6.16,6.18,3.25,3.25,5.43
27.23,-2.71,-2.72,-8.13,-8.13,6.00,6.14,6.31,3.29,3.28,5.42
27.50,-2.68,-2.68,-8.09,-8.09,6.00,6.11,6.43,3.32,3.32,5.41
27.77,-2.65,-2.65,-8.04,-8.04,6.00,6.09,6.55,3.35,3.35,5.39
28.05,-2.62,-2.62,-8.00,-7.99,6.00,6.07,6.67,3.38,3.38,5.37
28.33,-2.59,-2.59,-7.94,-7.95,6.00,6.04,6.78,3.41,3.41,5.35
28.62,-2.56,-2.56,-7.90,-7.90,6.00,6.02,6.88,3.44,3.44,5.34
28.90,-2.53,-2.53,-7.86,-7.86,6.00,6.00,6.98,3.47,3.47,5.33
29.19,-2.50,-2.50,-7.81,-7.82,6.00,5.98,7.07,3.50,3.50,5.31
29.48,-2.47,-2.47,-7.78,-7.78,6.00,5.96,7.14,3.53,3.53,5.31
29.78,-2.44,-2.44,-7.74,-7.74,6.00,5.94,7.21,3.56,3.56,5.29
30.08,-2.41,-2.41,-7.70,-7.69,6.00,5.93,7.26,3.59,3.59,5.28
30.38,-2.38,-2.38,-7.64,-7.65,6.00,5.91,7.31,3.62,3.62,5.26
30.68,-2.35,-2.35,-7.60,-7.60,6.00,5.90,7.34,3.65,3.65,5.25
30.99,-2.32,-2.32,-7.55,-7.55,6.00,5.89,7.36,3.68,3.68,5.23
31.30,-2.29,-2.29,-7.51,-7.51,6.00,5.88,7.36,3.71,3.71,5.21
31.61,-2.26,-2.26,-7.46,-7.46,6.00,5.87,7.36,3.74,3.74,5.20
31.93,-2.22,-2.23,-7.40,-7.40,6.00,5.86,7.33,3.78,3.77,5.18
32.24,-2.19,-2.19,-7.34,-7.35,6.00,5.86,7.30,3.81,3.81,5.15
32.57,-2.15,-2.15,-7.29,-7.28,6.00,5.86,7.25,3.85,3.85,5.13
32.89,-2.10,-2.11,-7.22,-7.22,6.00,5.86,7.20,3.90,3.89,5.12
33.22,-2.06,-2.06,-7.15,-7.16,6.00,5.87,7.13,3.94,3.94,5.09
33.55,-2.01,-2.01,-7.09,-7.09,6.00,5.87,7.05,3.99,3.99,5.08
33.89,-1.96,-1.96,-7.02,-7.01,6.00,5.89,6.96,4.04,4.04,5.05
34.23,-1.90,-1.91,-6.93,-6.94,6.00,5.90,6.86,4.10,4.09,5.03
34.57,-1.85,-1.85,-6.86,-6.86,6.00,5.91,6.76,4.15,4.15,5.01
34.92,-1.78,-1.79,-6.77,-6.77,6.00,5.93,6.65,4.22,4.21,4.98
35.27,-1.72,-1.72,-6.69,-6.69,6.00,5.95,6.53,4.28,4.28,4.97
35.62,-1.65,-1.65,-6.60,-6.60,6.01,5.96,6.41,4.35,4.35,4.95
35.97,-1.58,-1.58,-6.51,-6.51,6.01,5.97,6.28,4.43,4.43,4.92
36.33,-1.51,-1.51,-6.42,-6.42,6.02,5.97,6.16,4.51,4.51,4.91
36.70,-1.43,-1.44,-6.32,-6.32,6.02,5.96,6.03,4.59,4.58,4.89
37.06,-1.36,-1.36,-6.22,-6.23,6.01,5.95,5.89,4.64,4.65,4.86
37.43,-1.28,-1.28,-6.13,-6.13,5.98,5.92,5.76,4.70,4.70,4.85
37.81,-1.20,-1.20,-6.03,-6.02,5.93,5.88,5.63,4.73,4.73,4.82
38.19,-1.11,-1.11,-5.91,-5.92,5.87,5.82,5.49,4.76,4.76,4.80
38.57,-1.02,-1.02,-5.81,-5.80,5.80,5.75,5.36,4.78,4.77,4.78
38.95,-0.93,-0.93,-5.69,-5.69,5.71,5.66,5.23,4.78,4.77,4.76
39.34,-0.84,-0.84,-5.58,-5.58,5.60,5.56,5.10,4.76,4.76,4.73
39.74,-0.75,-0.75,-5.46,-5.47,5.49,5.45,4.97,4.73,4.73,4.71
40.14,-0.66,-0.66,-5.37,-5.36,5.37,5.34,4.84,4.70,4.70,4.70
40.54,-0.56,-0.57,-5.24,-5.25,5.25,5.22,4.72,4.68,4.68,4.68
40.94,-0.47,-0.47,-5.13,-5.13,5.13,5.10,4.60,4.66,4.66,4.66
41.35,-0.37,-0.37,-5.01,-5.01,5.02,4.97,4.48,4.64,4.65,4.64
41.76,-0.27,-0.28,-4.90,-4.90,4.90,4.85,4.36,4.63,4.63,4.63
42.18,-0.18,-0.18,-4.80,-4.79,4.79,4.73,4.25,4.61,4.61,4.61
42.60,-0.08,-0.08,-4.67,-4.68,4.67,4.61,4.14,4.59,4.59,4.59
43.03,0.02,0.01,-4.56,-4.56,4.56,4.49,4.03,4.57,4.57,4.58
43.46,0.11,0.11,-4.44,-4.44,4.44,4.38,3.92,4.55,4.55,4.55
43.90,0.21,0.21,-4.32,-4.33,4.32,4.27,3.82,4.53,4.53,4.53
44.33,0.30,0.30,-4.21,-4.21,4.21,4.16,3.72,4.51,4.51,4.51
44.78,0.40,0.39,-4.09,-4.09,4.09,4.05,3.62,4.49,4.49,4.49
45.23,0.49,0.49,-3.97,-3.98,3.98,3.94,3.53,4.47,4.47,4.46
45.68,0.58,0.58,-3.87,-3.86,3.87,3.84,3.44,4.45,4.45,4.44
46.13,0.67,0.67,-3.76,-3.76,3.76,3.73,3.35,4.43,4.43,4.42
46.60,0.76,0.76,-3.66,-3.65,3.66,3.63,3.26,4.41,4.41,4.41
47.06,0.84,0.84,-3.56,-3.55,3.55,3.53,3.18,4.39,4.39,4.39
47.53,0.93,0.92,-3.45,-3.45,3.45,3.43,3.10,4.37,4.37,4.37
48.01,1.01,1.01,-3.36,-3.35,3.34,3.33,3.02,4.35,4.35,4.36
48.49,1.09,1.09,-3.25,-3.25,3.24,3.24,2.95,4.33,4.33,4.33
48.97,1.17,1.17,-3.13,-3.13,3.13,3.14,2.87,4.30,4.30,4.30
49.46,1.25,1.25,-3.02,-3.02,3.03,3.04,2.80,4.28,4.28,4.27
49.96,1.33,1.33,-2.91,-2.92,2.93,2.95,2.73,4.26,4.26,4.24
50.46,1.41,1.40,-2.83,-2.82,2.83,2.85,2.66,4.23,4.23,4.24
50.96,1.48,1.48,-2.74,-2.73,2.73,2.75,2.60,4.21,4.21,4.21
51.47,1.56,1.55,-2.62,-2.63,2.63,2.66,2.53,4.19,4.19,4.18
51.99,1.63,1.63,-2.53,-2.54,2.54,2.56,2.47,4.16,4.16,4.16
52.51,1.70,1.70,-2.45,-2.44,2.44,2.46,2.41,4.14,4.14,4.14
53.03,1.77,1.77,-2.35,-2.35,2.35,2.37,2.35,4.12,4.12,4.12
53.56,1.84,1.84,-2.26,-2.26,2.25,2.27,2.29,4.09,4.09,4.09
54.10,1.91,1.91,-2.16,-2.16,2.16,2.18,2.23,4.07,4.07,4.07
54.64,1.98,1.98,-2.07,-2.07,2.07,2.08,2.18,4.04,4.04,4.04
55.18,2.05,2.04,-1.97,-1.97,1.97,1.99,2.12,4.02,4.02,4.02
55.74,2.11,2.11,-1.88,-1.88,1.88,1.90,2.06,3.99,3.99,3.99
56.29,2.18,2.18,-1.79,-1.79,1.79,1.81,2.01,3.97,3.97,3.97
56.86,2.25,2.24,-1.70,-1.70,1.70,1.72,1.95,3.95,3.94,3.94
57.42,2.31,2.31,-1.61,-1.61,1.61,1.63,1.89,3.92,3.92,3.92
58.00,2.37,2.37,-1.53,-1.52,1.53,1.55,1.84,3.89,3.90,3.90
58.58,2.43,2.43,-1.44,-1.44,1.44,1.46,1.78,3.87,3.87,3.87
59.16,2.49,2.49,-1.36,-1.36,1.36,1.38,1.72,3.84,3.84,3.85
59.76,2.55,2.55,-1.28,-1.28,1.27,1.30,1.66,3.82,3.82,3.82
60.35,2.61,2.61,-1.19,-1.19,1.19,1.22,1.60,3.79,3.79,3.79
60.96,2.67,2.67,-1.11,-1.10,1.10,1.14,1.54,3.77,3.77,3.78
61.57,2.73,2.73,-1.01,-1.02,1.01,1.06,1.48,3.74,3.74,3.74
62.18,2.78,2.78,-0.93,-0.93,0.93,0.99,1.41,3.71,3.71,3.70
62.80,2.84,2.84,-0.84,-0.84,0.84,0.92,1.35,3.68,3.68,3.68
63.43,2.89,2.89,-0.76,-0.76,0.76,0.84,1.28,3.65,3.65,3.64
64.07,2.95,2.95,-0.67,-0.68,0.68,0.77,1.21,3.63,3.62,3.62
64.71,3.00,3.00,-0.60,-0.60,0.60,0.70,1.14,3.60,3.60,3.60
65.35,3.06,3.05,-0.52,-0.52,0.52,0.63,1.07,3.58,3.58,3.57
66.01,3.11,3.11,-0.45,-0.45,0.44,0.56,0.99,3.55,3.55,3.56
66.67,3.16,3.16,-0.37,-0.37,0.37,0.49,0.92,3.53,3.53,3.53
67.33,3.21,3.21,-0.30,-0.30,0.29,0.41,0.84,3.50,3.50,3.51
68.01,3.26,3.26,-0.22,-0.22,0.22,0.34,0.76,3.48,3.48,3.48
68.69,3.31,3.31,-0.15,-0.14,0.15,0.27,0.68,3.45,3.46,3.46
69.37,3.36,3.36,-0.07,-0.07,0.07,0.20,0.60,3.43,3.43,3.42
70.07,3.41,3.40,0.01,0.00,-0.00,0.12,0.52,3.40,3.40,3.40
70.77,3.45,3.45,0.07,0.08,-0.08,0.05,0.44,3.37,3.37,3.38
71.48,3.50,3.50,0.15,0.15,-0.16,-0.03,0.35,3.34,3.34,3.34
72.19,3.55,3.54,0.23,0.23,-0.23,-0.11,0.27,3.31,3.31,3.32
72.91,3.59,3.59,0.31,0.31,-0.31,-0.18,0.18,3.28,3.28,3.28
73.64,3.64,3.64,0.39,0.39,-0.39,-0.26,0.09,3.25,3.25,3.24
74.38,3.68,3.68,0.46,0.47,-0.47,-0.34,-0.00,3.21,3.21,3.22
75.12,3.73,3.73,0.56,0.55,-0.55,-0.43,-0.09,3.18,3.18,3.17
75.87,3.77,3.77,0.63,0.63,-0.63,-0.51,-0.19,3.14,3.14,3.14
76.63,3.81,3.81,0.70,0.71,-0.70,-0.59,-0.28,3.10,3.10,3.11
77.40,3.85,3.85,0.78,0.78,-0.78,-0.68,-0.37,3.07,3.07,3.07
78.17,3.88,3.88,0.86,0.86,-0.85,-0.77,-0.47,3.02,3.03,3.02
78.95,3.92,3.91,0.92,0.93,-0.93,-0.85,-0.57,2.99,2.99,2.99
79.74,3.95,3.94,1.00,1.00,-1.00,-0.94,-0.66,2.95,2.95,2.95
80.54,3.97,3.97,1.06,1.07,-1.07,-1.03,-0.76,2.90,2.91,2.91
81.35,4.00,4.00,1.14,1.14,-1.14,-1.13,-0.86,2.86,2.86,2.86
82.16,4.03,4.02,1.21,1.21,-1.21,-1.22,-0.97,2.82,2.82,2.82
82.98,4.05,4.05,1.27,1.28,-1.28,-1.31,-1.07,2.77,2.77,2.78
83.81,4.08,4.07,1.36,1.35,-1.35,-1.40,-1.17,2.73,2.73,2.72
84.65,4.10,4.10,1.42,1.42,-1.42,-1.50,-1.28,2.68,2.68,2.67
85.50,4.13,4.13,1.49,1.50,-1.50,-1.59,-1.38,2.63,2.63,2.64
86.35,4.16,4.16,1.57,1.57,-1.57,-1.69,-1.49,2.58,2.58,2.59
87.22,4.19,4.19,1.65,1.65,-1.66,-1.79,-1.60,2.53,2.54,2.54
88.09,4.23,4.23,1.74,1.74,-1.74,-1.89,-1.71,2.49,2.49,2.49
88.97,4.27,4.26,1.82,1.82,-1.82,-1.98,-1.82,2.44,2.44,2.45
89.86,4.30,4.30,1.90,1.91,-1.91,-2.08,-1.94,2.39,2.39,2.39
90.76,4.34,4.34,2.01,2.00,-2.00,-2.18,-2.05,2.34,2.34,2.33
91.66,4.38,4.38,2.09,2.09,-2.09,-2.28,-2.17,2.29,2.29,2.29
92.58,4.42,4.42,2.19,2.18,-2.18,-2.38,-2.28,2.24,2.24,2.23
93.51,4.46,4.46,2.27,2.27,-2.27,-2.48,-2.40,2.19,2.19,2.19
94.44,4.50,4.50,2.36,2.36,-2.36,-2.58,-2.52,2.13,2.13,2.14
95.39,4.54,4.54,2.45,2.45,-2.46,-2.68,-2.64,2.08,2.08,2.08
96.34,4.58,4.57,2.56,2.55,-2.55,-2.78,-2.76,2.03,2.02,2.02
97.30,4.61,4.61,2.64,2.65,-2.65,-2.88,-2.89,1.96,1.97,1.96
98.28,4.65,4.65,2.74,2.74,-2.74,-2.98,-3.01,1.91,1.91,1.91
99.26,4.69,4.68,2.84,2.84,-2.84,-3.08,-3.14,1.85,1.85,1.84
100.25,4.72,4.72,2.93,2.93,-2.93,-3.18,-3.26,1.78,1.79,1.79
101.25,4.76,4.75,3.03,3.03,-3.03,-3.28,-3.39,1.73,1.72,1.73
102.27,4.79,4.79,3.12,3.13,-3.13,-3.37,-3.51,1.66,1.66,1.66
103.29,4.83,4.83,3.23,3.23,-3.22,-3.47,-3.64,1.60,1.61,1.60
104.32,4.87,4.86,3.33,3.32,-3.32,-3.57,-3.77,1.55,1.54,1.54
105.37,4.90,4.90,3.41,3.42,-3.42,-3.67,-3.89,1.48,1.48,1.49
106.42,4.93,4.93,3.51,3.51,-3.51,-3.76,-4.01,1.41,1.42,1.42
107.48,4.97,4.96,3.61,3.61,-3.61,-3.86,-4.14,1.36,1.35,1.35
108.56,5.00,5.00,3.71,3.71,-3.71,-3.95,-4.26,1.29,1.29,1.29
109.64,5.03,5.03,3.81,3.81,-3.81,-4.05,-4.38,1.22,1.22,1.22
110.74,5.07,5.06,3.90,3.90,-3.91,-4.14,-4.49,1.16,1.16,1.17
111.85,5.10,5.10,4.00,4.00,-4.00,-4.23,-4.61,1.09,1.09,1.10
112.97,5.13,5.13,4.11,4.10,-4.10,-4.32,-4.71,1.02,1.03,1.01
114.10,5.16,5.16,4.20,4.20,-4.20,-4.41,-4.82,0.96,0.96,0.96
115.24,5.19,5.18,4.29,4.30,-4.30,-4.50,-4.92,0.89,0.89,0.89
116.39,5.21,5.21,4.39,4.39,-4.39,-4.59,-5.02,0.82,0.82,0.82
117.55,5.24,5.24,4.48,4.48,-4.48,-4.68,-5.10,0.76,0.76,0.76
118.73,5.27,5.26,4.58,4.57,-4.57,-4.76,-5.19,0.70,0.70,0.69
119.92,5.29,5.29,4.65,4.66,-4.65,-4.84,-5.27,0.63,0.64,0.64
121.12,5.32,5.31,4.74,4.74,-4.74,-4.93,-5.34,0.58,0.58,0.58
122.33,5.34,5.34,4.82,4.82,-4.82,-5.01,-5.40,0.52,0.52,0.51
123.55,5.36,5.36,4.90,4.90,-4.90,-5.09,-5.46,0.46,0.46,0.46
124.79,5.38,5.38,4.98,4.97,-4.98,-5.16,-5.51,0.40,0.40,0.40
126.03,5.40,5.40,5.05,5.05,-5.06,-5.24,-5.55,0.34,0.34,0.35
127.29,5.42,5.42,5.13,5.13,-5.13,-5.31,-5.59,0.28,0.29,0.29
128.57,5.44,5.44,5.22,5.21,-5.21,-5.39,-5.62,0.23,0.23,0.22
129.85,5.46,5.45,5.29,5.28,-5.28,-5.46,-5.64,0.18,0.18,0.17
131.15,5.47,5.47,5.34,5.35,-5.35,-5.53,-5.66,0.12,0.12,0.12
132.46,5.49,5.49,5.42,5.42,-5.42,-5.60,-5.67,0.07,0.07,0.07
133.79,5.51,5.50,5.48,5.48,-5.48,-5.66,-5.68,0.03,0.02,0.03
135.12,5.52,5.52,5.54,5.54,-5.54,-5.72,-5.67,-0.02,-0.02,-0.03
136.48,5.54,5.54,5.60,5.60,-5.60,-5.79,-5.67,-0.06,-0.06,-0.06
137.84,5.55,5.55,5.64,5.66,-5.65,-5.85,-5.66,-0.11,-0.10,-0.10
139.22,5.57,5.56,5.72,5.71,-5.71,-5.91,-5.65,-0.14,-0.14,-0.15
140.61,5.58,5.58,5.77,5.76,-5.75,-5.96,-5.63,-0.18,-0.18,-0.19
142.02,5.59,5.59,5.79,5.80,-5.80,-6.02,-5.62,-0.21,-0.21,-0.20
143.44,5.61,5.60,5.84,5.85,-5.85,-6.07,-5.60,-0.24,-0.24,-0.24
144.87,5.62,5.62,5.89,5.89,-5.89,-6.12,-5.58,-0.27,-0.27,-0.28
146.32,5.63,5.63,5.93,5.93,-5.93,-6.17,-5.56,-0.30,-0.30,-0.31
147.78,5.64,5.64,5.96,5.97,-5.97,-6.21,-5.54,-0.33,-0.33,-0.32
149.26,5.66,5.65,6.01,6.01,-6.01,-6.26,-5.52,-0.35,-0.36,-0.35
150.75,5.67,5.67,6.06,6.05,-6.05,-6.30,-5.50,-0.38,-0.38,-0.39
152.26,5.68,5.68,6.09,6.09,-6.09,-6.34,-5.48,-0.41,-0.41,-0.42
153.78,5.69,5.68,6.13,6.13,-6.12,-6.38,-5.46,-0.44,-0.44,-0.44
155.32,5.69,5.69,6.15,6.16,-6.16,-6.41,-5.45,-0.47,-0.47,-0.47
156.88,5.70,5.70,6.19,6.19,-6.20,-6.45,-5.44,-0.50,-0.50,-0.49
158.44,5.71,5.70,6.23,6.23,-6.23,-6.48,-5.43,-0.52,-0.53,-0.52
160.03,5.71,5.71,6.26,6.26,-6.26,-6.51,-5.42,-0.55,-0.55,-0.55
161.63,5.71,5.71,6.29,6.30,-6.29,-6.54,-5.42,-0.58,-0.58,-0.59
163.24,5.72,5.71,6.32,6.32,-6.32,-6.56,-5.42,-0.60,-0.60,-0.61
164.88,5.72,5.71,6.34,6.34,-6.35,-6.59,-5.42,-0.63,-0.63,-0.63
166.53,5.71,5.71,6.36,6.37,-6.37,-6.61,-5.43,-0.67,-0.66,-0.66
168.19,5.71,5.71,6.40,6.40,-6.40,-6.63,-5.44,-0.69,-0.69,-0.69
169.87,5.71,5.70,6.43,6.42,-6.43,-6.65,-5.46,-0.72,-0.72,-0.72
171.57,5.70,5.70,6.45,6.45,-6.45,-6.66,-5.48,-0.75,-0.75,-0.75
173.29,5.70,5.70,6.47,6.47,-6.48,-6.68,-5.50,-0.78,-0.78,-0.78
175.02,5.69,5.69,6.50,6.50,-6.50,-6.69,-5.53,-0.81,-0.82,-0.81
176.77,5.68,5.68,6.53,6.53,-6.53,-6.70,-5.56,-0.85,-0.85,-0.86
178.54,5.67,5.67,6.56,6.55,-6.55,-6.71,-5.60,-0.89,-0.89,-0.89
180.32,5.66,5.65,6.58,6.58,-6.58,-6.71,-5.64,-0.92,-0.92,-0.92
182.13,5.64,5.64,6.59,6.60,-6.60,-6.72,-5.68,-0.96,-0.96,-0.96
183.95,5.63,5.63,6.62,6.62,-6.62,-6.72,-5.73,-1.00,-1.00,-1.00
185.79,5.62,5.61,6.65,6.65,-6.64,-6.72,-5.79,-1.03,-1.03,-1.03
187.65,5.60,5.60,6.67,6.67,-6.66,-6.72,-5.84,-1.06,-1.06,-1.07
189.52,5.59,5.59,6.69,6.68,-6.68,-6.71,-5.91,-1.09,-1.09,-1.10
191.42,5.57,5.57,6.70,6.70,-6.70,-6.71,-5.97,-1.13,-1.13,-1.13
193.33,5.56,5.55,6.71,6.70,-6.71,-6.70,-6.04,-1.15,-1.16,-1.15
195.27,5.54,5.54,6.71,6.72,-6.72,-6.69,-6.11,-1.19,-1.19,-1.18
197.22,5.52,5.52,6.72,6.73,-6.73,-6.68,-6.19,-1.22,-1.21,-1.20
199.19,5.51,5.50,6.76,6.74,-6.74,-6.67,-6.27,-1.23,-1.24,-1.25
201.18,5.49,5.49,6.75,6.76,-6.75,-6.66,-6.35,-1.26,-1.26,-1.27
203.19,5.47,5.47,6.75,6.76,-6.75,-6.64,-6.43,-1.29,-1.28,-1.28
205.23,5.45,5.45,6.76,6.75,-6.76,-6.62,-6.52,-1.31,-1.31,-1.31
207.28,5.43,5.43,6.74,6.75,-6.76,-6.61,-6.60,-1.33,-1.33,-1.31
209.35,5.41,5.41,6.76,6.75,-6.75,-6.58,-6.69,-1.34,-1.35,-1.35
211.44,5.38,5.38,6.75,6.75,-6.75,-6.56,-6.78,-1.37,-1.36,-1.37
213.56,5.36,5.35,6.74,6.74,-6.74,-6.54,-6.87,-1.38,-1.38,-1.39
215.69,5.33,5.33,6.72,6.72,-6.73,-6.51,-6.95,-1.40,-1.40,-1.39
217.85,5.30,5.30,6.70,6.71,-6.71,-6.49,-7.04,-1.41,-1.41,-1.40
220.03,5.28,5.27,6.70,6.69,-6.69,-6.46,-7.12,-1.42,-1.42,-1.42
222.23,5.25,5.25,6.68,6.68,-6.67,-6.43,-7.20,-1.43,-1.43,-1.44
224.45,5.22,5.22,6.65,6.66,-6.65,-6.40,-7.27,-1.43,-1.43,-1.43
226.70,5.19,5.19,6.63,6.63,-6.62,-6.36,-7.34,-1.44,-1.44,-1.44
228.96,5.16,5.16,6.60,6.59,-6.59,-6.33,-7.40,-1.44,-1.44,-1.44
231.25,5.13,5.13,6.56,6.56,-6.56,-6.29,-7.45,-1.43,-1.43,-1.43
233.57,5.10,5.10,6.52,6.52,-6.53,-6.26,-7.50,-1.43,-1.43,-1.42
235.90,5.07,5.07,6.49,6.49,-6.49,-6.22,-7.53,-1.42,-1.42,-1.42
238.26,5.04,5.04,6.46,6.45,-6.45,-6.18,-7.56,-1.41,-1.41,-1.42
240.64,5.01,5.01,6.41,6.41,-6.41,-6.14,-7.57,-1.40,-1.40,-1.40
243.05,4.98,4.98,6.36,6.36,-6.36,-6.10,-7.57,-1.39,-1.39,-1.39
245.48,4.95,4.95,6.31,6.32,-6.32,-6.05,-7.55,-1.37,-1.37,-1.37
247.93,4.92,4.92,6.27,6.27,-6.27,-6.01,-7.53,-1.35,-1.35,-1.35
250.41,4.89,4.89,6.23,6.22,-6.22,-5.96,-7.49,-1.33,-1.33,-1.34
252.92,4.85,4.85,6.16,6.16,-6.16,-5.91,-7.44,-1.31,-1.31,-1.31
255.45,4.82,4.82,6.10,6.10,-6.11,-5.86,-7.38,-1.29,-1.29,-1.29
258.00,4.78,4.78,6.04,6.04,-6.05,-5.81,-7.30,-1.27,-1.27,-1.26
260.58,4.74,4.74,5.99,5.99,-5.99,-5.76,-7.21,-1.25,-1.25,-1.25
263.19,4.70,4.70,5.92,5.93,-5.92,-5.71,-7.11,-1.22,-1.22,-1.23
265.82,4.66,4.66,5.86,5.86,-5.86,-5.65,-6.99,-1.20,-1.20,-1.20
268.48,4.62,4.62,5.80,5.80,-5.80,-5.60,-6.87,-1.18,-1.18,-1.18
271.16,4.58,4.58,5.72,5.73,-5.73,-5.54,-6.73,-1.15,-1.15,-1.15
273.87,4.54,4.54,5.67,5.66,-5.67,-5.48,-6.59,-1.13,-1.13,-1.13
276.61,4.50,4.50,5.59,5.60,-5.60,-5.42,-6.43,-1.10,-1.10,-1.10
279.38,4.46,4.46,5.54,5.54,-5.54,-5.36,-6.27,-1.08,-1.08,-1.08
282.17,4.42,4.42,5.47,5.47,-5.47,-5.30,-6.11,-1.05,-1.05,-1.06
284.99,4.38,4.37,5.41,5.41,-5.40,-5.23,-5.93,-1.03,-1.03,-1.03
287.84,4.33,4.33,5.33,5.34,-5.34,-5.17,-5.76,-1.01,-1.01,-1.01
290.72,4.29,4.29,5.26,5.26,-5.27,-5.10,-5.58,-0.98,-0.98,-0.97
293.63,4.25,4.24,5.20,5.19,-5.20,-5.03,-5.39,-0.95,-0.95,-0.96
296.57,4.20,4.20,5.12,5.12,-5.12,-4.97,-5.21,-0.92,-0.92,-0.92
299.53,4.16,4.16,5.05,5.05,-5.04,-4.90,-5.02,-0.89,-0.89,-0.89
302.53,4.11,4.11,4.98,4.97,-4.96,-4.82,-4.83,-0.86,-0.86,-0.87
305.55,4.06,4.06,4.88,4.88,-4.88,-4.75,-4.64,-0.82,-0.83,-0.82
308.61,4.00,4.00,4.79,4.79,-4.80,-4.68,-4.45,-0.80,-0.79,-0.80
311.69,3.95,3.95,4.71,4.70,-4.71,-4.60,-4.26,-0.76,-0.76,-0.76
314.81,3.89,3.89,4.61,4.61,-4.62,-4.52,-4.07,-0.73,-0.73,-0.72
317.96,3.83,3.83,4.52,4.52,-4.52,-4.44,-3.88,-0.70,-0.69,-0.70
321.14,3.77,3.76,4.44,4.43,-4.43,-4.37,-3.69,-0.66,-0.66,-0.67
324.35,3.70,3.70,4.34,4.34,-4.33,-4.28,-3.50,-0.64,-0.64,-0.64
327.59,3.63,3.63,4.23,4.24,-4.24,-4.20,-3.32,-0.61,-0.61,-0.60
330.87,3.56,3.56,4.13,4.14,-4.14,-4.12,-3.13,-0.59,-0.59,-0.58
334.18,3.49,3.49,4.05,4.04,-4.05,-4.03,-2.95,-0.56,-0.56,-0.56
337.52,3.41,3.41,3.94,3.94,-3.95,-3.94,-2.76,-0.54,-0.54,-0.53
340.90,3.34,3.34,3.84,3.84,-3.85,-3.85,-2.58,-0.51,-0.51,-0.51
344.30,3.26,3.26,3.75,3.74,-3.75,-3.76,-2.40,-0.49,-0.49,-0.49
347.75,3.18,3.18,3.64,3.64,-3.64,-3.67,-2.22,-0.46,-0.46,-0.46
351.23,3.09,3.09,3.53,3.53,-3.52,-3.57,-2.04,-0.43,-0.43,-0.44
354.74,3.00,2.99,3.42,3.41,-3.40,-3.48,-1.87,-0.40,-0.41,-0.42
358.28,2.88,2.88,3.28,3.28,-3.27,-3.38,-1.69,-0.40,-0.40,-0.41
361.87,2.75,2.75,3.14,3.14,-3.14,-3.28,-1.52,-0.39,-0.39,-0.39
365.49,2.62,2.62,2.98,2.99,-3.00,-3.17,-1.34,-0.38,-0.37,-0.36
369.14,2.50,2.50,2.85,2.85,-2.85,-3.07,-1.17,-0.35,-0.35,-0.35
372.83,2.37,2.37,2.70,2.70,-2.70,-2.96,-1.00,-0.33,-0.33,-0.33
376.56,2.24,2.24,2.55,2.55,-2.55,-2.86,-0.83,-0.31,-0.31,-0.32
380.33,2.10,2.10,2.39,2.39,-2.39,-2.74,-0.67,-0.30,-0.29,-0.29
384.13,1.97,1.97,2.24,2.24,-2.24,-2.63,-0.50,-0.27,-0.27,-0.27
387.97,1.84,1.84,2.09,2.09,-2.09,-2.52,-0.34,-0.25,-0.25,-0.25
391.85,1.71,1.71,1.94,1.94,-1.94,-2.40,-0.17,-0.23,-0.23,-0.23
395.77,1.58,1.58,1.78,1.78,-1.78,-2.28,-0.01,-0.21,-0.21,-0.20
399.73,1.45,1.45,1.63,1.63,-1.63,-2.15,0.15,-0.19,-0.19,-0.19
403.72,1.32,1.32,1.48,1.48,-1.48,-2.03,0.31,-0.16,-0.16,-0.17
407.76,1.19,1.19,1.34,1.33,-1.33,-1.90,0.46,-0.14,-0.15,-0.15
411.84,1.06,1.06,1.18,1.18,-1.18,-1.77,0.62,-0.12,-0.12,-0.12
415.96,0.93,0.93,1.03,1.03,-1.03,-1.63,0.77,-0.10,-0.10,-0.10
420.12,0.81,0.80,0.89,0.88,-0.88,-1.50,0.92,-0.07,-0.08,-0.08
424.32,0.68,0.68,0.73,0.73,-0.73,-1.36,1.06,-0.05,-0.05,-0.05
428.56,0.55,0.55,0.58,0.59,-0.58,-1.21,1.20,-0.03,-0.03,-0.03
432.85,0.43,0.42,0.44,0.43,-0.43,-1.07,1.34,-0.01,-0.01,-0.01
437.18,0.30,0.30,0.28,0.28,-0.29,-0.92,1.48,0.01,0.01,0.01
441.55,0.18,0.18,0.13,0.14,-0.15,-0.76,1.61,0.03,0.03,0.04
445.96,0.06,0.06,-0.00,-0.00,-0.01,-0.61,1.74,0.05,0.05,0.06
450.42,-0.04,-0.04,-0.12,-0.13,0.13,-0.44,1.86,0.08,0.08,0.08
454.93,-0.14,-0.14,-0.26,-0.26,0.26,-0.28,1.98,0.12,0.12,0.12
459.48,-0.24,-0.24,-0.38,-0.39,0.39,-0.11,2.09,0.15,0.15,0.14
464.07,-0.34,-0.34,-0.51,-0.52,0.52,0.06,2.19,0.18,0.18,0.17
468.71,-0.45,-0.45,-0.66,-0.65,0.65,0.23,2.29,0.20,0.20,0.21
473.40,-0.55,-0.55,-0.78,-0.79,0.78,0.41,2.38,0.23,0.23,0.23
478.13,-0.66,-0.66,-0.92,-0.92,0.92,0.59,2.47,0.26,0.26,0.26
482.91,-0.77,-0.77,-1.06,-1.06,1.06,0.78,2.54,0.28,0.29,0.29
487.74,-0.88,-0.88,-1.20,-1.20,1.20,0.97,2.61,0.31,0.31,0.32
492.62,-0.99,-1.00,-1.34,-1.34,1.34,1.16,2.68,0.35,0.34,0.34
497.55,-1.11,-1.11,-1.48,-1.48,1.48,1.36,2.73,0.37,0.37,0.36
502.52,-1.23,-1.23,-1.64,-1.63,1.63,1.56,2.78,0.40,0.40,0.40
507.55,-1.35,-1.35,-1.78,-1.78,1.78,1.76,2.82,0.43,0.43,0.42
512.62,-1.48,-1.48,-1.93,-1.94,1.94,1.96,2.85,0.45,0.46,0.45
