frequency,raw
10,-33.219524908697714
11,-32.50194466127036
12,-31.334415911056148
13,-30.174657954203447
14,-29.233027135251568
15,-28.289678605400454
16,-27.48651746470527
17,-26.545433291399217
18,-25.821247421634922
19,-24.971342012664202
20,-24.223212633510066
21,-23.521738589733296
22,-22.821159012114173
23,-22.235295905865012
24,-21.581620362776267
25,-20.91601495349721
26,-20.39070836601146
27,-19.868918602085376
28,-19.361700799942696
29,-18.667617192687626
30,-18.093862802756153
31,-17.648796918433273
32,-17.138116683619554
33,-16.663960717571708
34,-16.321829560852628
35,-15.749593212881361
36,-15.348511195732037
37,-15.010787424192618
38,-14.565090803152401
39,-14.051409131670681
40,-13.694146020560531
41,-13.197726120910595
42,-12.870588974031072
43,-12.366381534298316
44,-12.046537613944093
45,-11.686857781213181
46,-11.332999070528537
47,-10.975411870389316
48,-10.662933407056602
49,-10.21525600890958
50,-9.859646547331074
51,-9.499118142986806
52,-9.142732154671176
53,-8.839124465681696
54,-8.522674111184536
55,-8.260563647098675
56,-7.862277506336317
57,-7.6029767827277865
58,-7.3578102228350355
59,-7.037836522672434
60,-6.739567362538789
61,-6.52606411502482
62,-6.321889296754652
63,-6.059093024165276
64,-5.814256450215607
65,-5.610986434071636
66,-5.423206179647345
67,-5.227853735072714
68,-5.042238036451293
69,-4.805992276449265
70,-4.572114239632542
71,-4.395640274664305
72,-4.2639215077991945
73,-4.167865423109872
74,-3.9449020951222193
75,-3.798715865792894
76,-3.6497750368003765
77,-3.460876602387907
78,-3.3288985741409163
79,-3.1679317688290545
80,-3.0499823005566764
81,-2.974969919546055
82,-2.7856304588707097
83,-2.6439759604804918
84,-2.5248685912132705
85,-2.410398545690276
86,-2.2948318858211634
87,-2.1688161698159876
88,-2.1723826656520364
89,-1.9758647094286714
90,-1.932494548596849
91,-1.9647458986966764
92,-1.9359309766706585
93,-1.8824501260887185
94,-1.794110006735874
95,-1.7911297845551246
96,-1.7914140833041525
97,-1.6823152533269656
98,-1.6695675660820024
99,-1.6594418253438432
100,-1.6576595860394256
101,-1.6658439673993612
102,-1.6109907193384267
104,-1.599382132647845
105,-1.6986461519092333
106,-1.7358937966785448
107,-1.7857319224692438
108,-1.767930963065481
109,-1.806684846564679
110,-1.885792742079905
111,-1.922594355642385
112,-1.9520121824892134
113,-1.9638962910598226
114,-1.9770781242344362
115,-2.0565821004508065
117,-2.141142496176753
118,-2.243294058631985
119,-2.292460376438156
120,-2.35487966886883
121,-2.3424938694007658
123,-2.288584331996053
124,-2.4495636186823355
125,-2.4573569798768724
126,-2.431023379365471
128,-2.5969291962073187
129,-2.612759244951293
130,-2.6772468098879054
131,-2.7834836107187817
133,-2.970885784121661
134,-3.0833133159578665
135,-3.079138092440038
137,-3.193379004509472
138,-3.302197507637636
140,-3.015604378081575
141,-2.987600671775716
142,-3.3190194376021527
144,-3.8435445394872265
145,-3.8625943252168944
147,-3.825178588496521
148,-3.9519103731986003
150,-4.005796701009604
151,-4.058042573813763
153,-3.991019232978224
154,-4.086247576038353
156,-4.550855437005998
157,-4.609455052434151
159,-4.510868917913145
160,-4.305616222424614
162,-4.378321097835395
164,-4.6221208529178766
165,-4.556210446606584
167,-4.5201869964468075
169,-4.193995023202827
170,-3.977963005049463
172,-2.9894398546953793
174,-1.8578707889493034
175,-1.417816472162102
177,-0.8786461225337661
179,-0.055707288231078955
181,0.09530231956697577
183,0.33433063673047414
184,0.38759661627658915
186,-0.01960726706794258
188,0.014456100747303413
190,0.18719185061861765
192,-0.28157775082435776
194,-0.47321570836868254
196,-0.7586394887245098
198,-1.1287296819964094
200,-1.212965047833333
202,-0.9484194606337191
204,-1.039899596185459
206,-0.8368457914743797
208,-0.917565093631016
210,-0.7446020480337787
212,-1.1900013863906156
214,-1.31841963248446
216,-1.2519199895708546
218,-1.3339079913986827
221,-1.5658568021479673
223,-1.4664121715990115
225,-1.0012042795933525
227,-0.8382355890208997
229,-0.6568543411794332
232,-0.24496102777633544
234,-0.2256379202475367
236,-0.29831127388668577
239,-0.29177079474858836
241,-0.28058147730606375
244,-0.31501891086985845
246,-0.3429323501524637
248,-0.3410541499790396
251,-0.335744344061752
253,-0.3343629471119671
256,-0.35900187848122345
259,-0.43956393658817916
261,-0.44417107983858894
264,-0.5175168207740528
266,-0.5554105130764766
269,-0.6565615238839682
272,-0.6650998303092015
274,-0.6560830065375343
277,-0.6459777143655678
280,-0.6692412985869938
283,-0.7289141424038617
286,-0.7870128707836646
288,-0.8133606587235054
291,-0.8071768486725333
294,-0.8984419588717243
297,-0.9379506779727205
300,-0.9849264536789275
303,-0.9739584009148938
306,-0.9697557598357682
309,-1.0394192666145283
312,-1.079345822286363
316,-1.1982979086590935
319,-1.2324658564795472
322,-1.31287872691136
325,-1.347015397517827
328,-1.4693005478404304
332,-1.518783380227768
335,-1.516101206522956
338,-1.6109730241366567
342,-1.715555880777373
345,-1.7387882306809952
349,-1.8021240691766494
352,-1.858879235304641
356,-1.901361168666086
359,-1.9573715477197307
363,-2.006494895183434
366,-2.0280287065195255
370,-2.0146087722438355
374,-2.0019857336947893
377,-2.040706784952288
381,-2.007801039244579
385,-2.0721598785816706
389,-2.0638773952448837
393,-2.0546338847663304
397,-2.064601286418518
401,-2.148865184118295
405,-2.1954421799770043
409,-2.234075257260163
413,-2.2297532333365435
417,-2.3086309880567923
421,-2.357071359959902
425,-2.4316595401600973
430,-2.520199163428556
434,-2.6170703238500947
438,-2.7671896554449034
443,-2.7129298627029397
447,-2.67703070249082
451,-2.7871719559812065
456,-2.8354397079964455
460,-2.875301391015595
465,-2.9437445583988824
470,-2.996771790707508
474,-3.0618520985491906
479,-3.002226540334012
484,-2.9795069591135794
489,-3.1377404950475962
494,-3.2151182064776855
499,-3.271150587239179
504,-3.2885963595514287
509,-3.2586122308172047
514,-3.276476012281841
519,-3.3174005933464974
524,-3.3072538525553514
529,-3.320686440876971
535,-3.404697423100398
540,-3.408287191452591
545,-3.4126123674293263
551,-3.4729289091946156
556,-3.515546754783741
562,-3.606543785856873
568,-3.5982069144650644
573,-3.579308285552689
579,-3.6364507170619618
585,-3.5974286187160054
591,-3.500378161424082
596,-3.4630979190699094
602,-3.3169406553146827
608,-3.314541134344324
615,-3.4602369957012815
621,-3.369344208216174
627,-3.257548165814264
633,-3.123416464921053
639,-2.8978081823583297
646,-2.6887372325295744
652,-2.4247155266387166
659,-2.1073519354545183
665,-1.9098463611408376
672,-1.7764414565071864
679,-1.667235036939383
686,-1.582026423882179
692,-1.6255310924008004
699,-1.5102813988851826
706,-1.4350718357262489
713,-1.4443379266431164
721,-1.3442423195717117
728,-1.2844099505799942
735,-1.1816499957444497
742,-1.1405358680384143
750,-1.0932716015515083
757,-0.985233837200119
765,-0.9148912286679911
773,-0.8899834932639559
780,-0.9094297933782407
788,-0.8359119227462402
796,-0.7123881170205797
804,-0.5848556229627415
812,-0.44224889816521085
820,-0.3257557139744427
828,-0.30866510742317566
837,-0.3034575988767281
845,-0.3043015036766561
853,-0.2970799285925292
862,-0.3315050484763864
871,-0.35281630775661466
879,-0.3621405515705005
888,-0.36303626081091167
897,-0.359681170977062
906,-0.28990028888470887
915,-0.3199442685085847
924,-0.5035029364842156
933,-0.7749434490238638
943,-0.8792715854638193
952,-0.7205177878056879
962,-0.5189251720519743
971,-0.23651754009464776
981,-0.12246744746943783
991,-0.0748365019076469
1001,0.008273556157317508
1011,0.0614495623272564
1021,0.10118983131776416
1031,-0.06544679114465968
1041,-0.45132121287048
1052,-0.9323741138253845
1062,-1.0285679727842165
1073,-1.1721371917991754
1084,-1.30239301637749
1094,-1.3115465260692996
1105,-1.0598925640950059
1116,-0.6860485185867748
1128,-0.5287607194722534
1139,-0.4389720822655452
1150,-0.3414648029342491
1162,-0.333328950549308
1173,-0.49148708771991334
1185,-0.6313278398409929
1197,-0.7949462438297941
1209,-0.8890409608319825
1221,-0.8931714386721601
1233,-1.0802488122422016
1246,-1.4403744232574645
1258,-1.652426067596743
1271,-1.8308496551725941
1283,-2.365343032473094
1296,-2.606997890159042
1309,-2.801534409145331
1322,-2.9167826219204858
1335,-2.884622525900571
1349,-2.8490014784917763
1362,-2.582474036432173
1376,-2.6308798180299884
1390,-2.9496669651781904
1404,-3.2947243756544973
1418,-3.627335203431353
1432,-3.645859834874999
1446,-3.5375944946524687
1461,-3.8525516567022633
1475,-4.174251591225268
1490,-4.521467313926168
1505,-4.991322436981582
1520,-5.081316490963101
1535,-4.964775006888241
1550,-4.798750585736419
1566,-5.036639424749851
1582,-5.139695770593792
1597,-5.284110237792707
1613,-5.342035438508588
1629,-5.305039580941011
1646,-5.139997928761278
1662,-5.1465358215578
1679,-5.5253852340720995
1696,-5.506056405073197
1713,-5.514303828588485
1730,-5.635246012777682
1747,-5.580228878357728
1764,-5.5205359292064395
1782,-5.4966600268366745
1800,-5.356519745251012
1818,-5.3863327034375175
1836,-5.488294972045951
1854,-5.675646182366614
1873,-5.787652066125185
1892,-5.789955706537664
1911,-5.677201149459129
1930,-5.794517769293605
1949,-6.049886540674526
1969,-6.331640292425151
1988,-6.640330290120741
2008,-6.778976945744584
2028,-6.584299309405764
2048,-6.590965546456116
2069,-6.564492086168003
2090,-6.385417428232995
2111,-6.90596754621623
2132,-7.012637903413366
2153,-6.91911828758739
2175,-6.42832270750324
2196,-6.154843901962306
2218,-5.708342475237622
2240,-5.16636766098249
2263,-4.946497941549282
2285,-5.049820597151897
2308,-5.2504153951520935
2331,-5.118783693833152
2355,-4.976762835952797
2378,-4.851282274439822
2402,-4.410691410401623
2426,-4.444393475713489
2450,-4.520957209077596
2475,-4.717269825769221
2500,-4.281470832483165
2525,-3.6603401415247747
2550,-2.859863614169684
2575,-1.9106902106362353
2601,-1.4068300879077364
2627,-0.8199500929838015
2653,-1.1280209108752581
2680,-1.3067825004043288
2707,-1.508580477703597
2734,-1.3921122256584875
2761,-0.8395249602293973
2789,-0.2923232602294945
2817,0.3640326471213129
2845,1.0656950936818923
2873,1.9910679367259867
2902,2.395823041826219
2931,3.0488733862877586
2960,2.7633087696813323
2990,2.4372034293146676
3020,1.9092237628643023
3050,1.9644460683248859
3080,2.4275978645561915
3111,2.9762246411823767
3142,3.206930248894169
3174,3.1628475380303627
3206,2.9296296344963038
3238,2.922008864537556
3270,3.047071182970404
3303,3.036394061923641
3336,2.8671144838501554
3369,2.5513802159855903
3403,2.420315101023645
3437,2.4836422276135632
3471,2.6744019096304825
3506,2.657172547127992
3541,2.49790115989898
3576,2.2804637554320593
3612,2.4376473903800147
3648,2.5665321241460717
3685,2.6136875980456225
3721,2.548298775536459
3759,2.558073746529466
3796,2.736971489481192
3834,2.5337179069492954
3873,2.38065438118986
3911,2.146573510311562
3950,2.159742511006165
3990,1.8386619820206747
4030,1.3437119181955062
4070,0.8236997224287599
4111,0.802656727014746
4152,0.6903421630785456
4193,0.23530947750954923
4235,-0.6542917830448758
4278,-1.474935506895509
4321,-1.9477383773368118
4364,-2.25137317773952
4407,-2.954941847250204
4451,-3.3931947399818387
4496,-3.6361806542169752
4541,-3.412084196251966
4586,-3.85769889308569
4632,-4.333257361995329
4679,-4.840919715333568
4725,-4.914378824935486
4773,-4.505423244561696
4820,-4.243201821585587
4868,-4.214390340734483
4917,-4.734936789254294
4966,-4.745430208231489
5016,-4.126230941908365
5066,-3.5411792158765865
5117,-3.1751649271961666
5168,-2.623426014785381
5220,-1.9667174361970394
5272,-1.6305353141027643
5325,-1.9197692830781987
5378,-1.476330016601925
5432,-1.038575367820684
5486,-0.1972599896882965
5541,0.7888034084197537
5596,1.100809754779939
5652,1.1281292246973385
5709,0.6289115502861824
5766,0.8235613511790598
5823,0.8890293648889438
5882,1.413315907426317
5940,1.1148918559714671
6000,0.6048482672780686
6060,0.030820031600969244
6120,0.2976284318684925
6182,0.256782777846686
6244,-0.0033123627185931426
6306,0.04564608635259315
6369,0.031808243067647624
6433,-0.06746812901997057
6497,-0.23445424228710454
6562,-0.4736417716083867
6628,-0.6809644914775763
6694,-0.8294753113600803
6761,-0.993440024959483
6828,-0.7483901383322058
6897,-1.0750088216657288
6966,-1.5258601969205472
7035,-1.7147728511028624
7106,-1.8522551353608234
7177,-2.432990869950815
7249,-2.916305618904311
7321,-3.2656269308260573
7394,-3.8704341853398136
7468,-4.1563707689992215
7543,-4.477130799105515
7618,-4.850366365655924
7694,-5.2930819090223595
7771,-5.357713270667127
7849,-5.70424614565587
7928,-6.3052592144412705
8007,-7.08755940351215
8087,-7.721427486839769
8168,-8.015015569253869
8250,-8.066290198960228
8332,-7.854906557911925
8415,-7.644236674350087
8499,-7.301040467176513
8584,-6.970205834793806
8670,-6.577486119602882
8757,-6.535665377970627
8845,-6.177524487719891
8933,-5.872427567983577
9022,-5.755009379828776
9113,-6.090276335086433
9204,-5.31511777078014
9296,-4.211469734524931
9389,-3.777533700490219
9483,-3.6260818789361737
9577,-3.17071762192287
9673,-2.7583879390919455
9770,-2.7081002749676975
9868,-2.8096110558547314
9966,-3.0259032774637715
10066,-3.6867435404992936
10167,-4.259573951636275
10268,-4.533712912547917
10371,-5.042626577072016
10475,-5.420610205687516
10579,-5.722917477318389
10685,-6.021138022155407
10792,-6.200101635352925
10900,-6.084244372598463
11009,-5.9897069012857145
11119,-5.902206608219996
11230,-5.657152785909965
11343,-5.362165327921083
11456,-5.663903122340972
11571,-5.799671158358983
11686,-5.156649476786924
11803,-4.3408436034637266
11921,-3.3870324597697605
12040,-2.476577720374713
12161,-2.045329275825021
12282,-1.9212086888726838
12405,-1.264231156429887
12529,-0.9166017560367061
12655,-0.6522444479682799
12781,-0.19471960066703264
12909,0.2061762412928525
13038,0.12497250799292292
13168,-0.31290234744084255
13300,-0.8686609777688727
13433,-1.0631003771230056
13567,-1.1875640791438968
13703,-3.4523499455331956
13840,-5.242573333179862
13978,-6.107350414576673
14118,-6.195796310274277
14259,-6.388391686407441
14402,-6.729927259838536
14546,-7.104645706235666
14692,-7.003525526225572
14838,-7.213975099842763
14987,-7.113932602459789
15137,-6.916662731873074
15288,-6.738584788201234
15441,-6.556362227133593
15595,-7.518558804855245
15751,-7.560901784963075
15909,-7.970189158674906
16068,-8.482481312674292
16229,-8.918107795781529
16391,-9.991706531509337
16555,-13.685059873522075
16720,-16.70859549290101
16888,-17.853896457647195
17056,-17.674872464213397
17227,-15.202958944337816
17399,-13.97409088816967
17573,-12.905362577056522
17749,-12.213702806639478
17926,-11.433477525444623
18106,-11.31435742349148
18287,-12.200202541058125
18470,-13.93522801310094
18654,-15.764133988825735
18841,-17.437185384741056
19029,-17.54642858441432
19220,-10.804701201607152
19412,-8.527452937523412
19606,-9.641673210534712
19802,-10.856769091693149
20000,-11.471293599229863
20200,-10.048718326162518
20402,-9.068091168157743
20606,-8.937621993089456
20812,-11.208658271227275
21020,-11.460246633012382
21230,-11.756915287975522
21443,-11.295928307558611
21657,-9.900792476001214
21874,-9.187712797289793
22092,-9.986559559298367
22313,-10.21199265360394
22537,-9.26439829929689
22762,-9.214191563338755
22989,-9.347112110732546
23219,-9.267718845416368
23452,-11.48196758269652
23686,-12.30815322730641
23923,-13.330075517047693
24162,-13.835716532686387
24404,-14.34389633904409
24648,-14.851667798284268
24894,-15.358802154510084
25143,-15.867703161007789
25395,-16.378066286513203
25649,-16.887038683711715
25905,-17.39450639931625
26164,-17.902959466417045
26426,-18.412305345918227
26690,-18.919982239635175
26957,-19.428491888430813
27227,-19.937789322358928
27499,-20.445393806304565
27774,-20.953709951414915
28052,-21.462654827583506
28332,-21.969783844668758
28615,-22.47740249799167
28902,-22.98774046469193
29191,-23.49608066161803
29482,-24.002418766263762
29777,-24.511230011601494
