frequency,raw
20.00,6.27
20.20,6.31
20.40,6.35
20.61,6.39
20.81,6.42
21.02,6.46
21.23,6.50
21.44,6.55
21.66,6.59
21.87,6.63
22.09,6.66
22.31,6.69
22.54,6.73
22.76,6.76
22.99,6.79
23.22,6.82
23.45,6.84
23.69,6.87
23.92,6.90
24.16,6.94
24.40,7.00
24.65,7.05
24.89,7.10
25.14,7.11
25.39,7.10
25.65,7.09
25.91,7.07
26.16,7.12
26.43,7.19
26.69,7.26
26.96,7.34
27.23,7.34
27.50,7.33
27.77,7.32
28.05,7.32
28.33,7.40
28.62,7.47
28.90,7.54
29.19,7.56
29.48,7.54
29.78,7.52
30.08,7.51
30.38,7.50
30.68,7.49
30.99,7.48
31.30,7.53
31.61,7.59
31.93,7.65
32.24,7.67
32.57,7.68
32.89,7.70
33.22,7.70
33.55,7.70
33.89,7.70
34.23,7.70
34.57,7.70
34.92,7.70
35.27,7.70
35.62,7.70
35.97,7.70
36.33,7.76
36.70,7.83
37.06,7.88
37.43,7.85
37.81,7.83
38.19,7.84
38.57,7.87
38.95,7.90
39.34,7.90
39.74,7.90
40.14,7.90
40.54,7.90
40.94,7.90
41.35,7.90
41.76,7.90
42.18,7.90
42.60,7.90
43.03,7.90
43.46,7.90
43.90,7.90
44.33,7.90
44.78,7.90
45.23,7.90
45.68,7.90
46.13,7.90
46.60,7.90
47.06,7.90
47.53,7.90
48.01,7.90
48.49,7.90
48.97,7.90
49.46,7.90
49.96,7.90
50.46,7.82
50.96,7.74
51.47,7.76
51.99,7.80
52.51,7.80
53.03,7.80
53.56,7.80
54.10,7.81
54.64,7.84
55.18,7.84
55.74,7.74
56.29,7.70
56.86,7.70
57.42,7.70
58.00,7.70
58.58,7.70
59.16,7.70
59.76,7.70
60.35,7.70
60.96,7.70
61.57,7.60
62.18,7.54
62.80,7.59
63.43,7.64
64.07,7.66
64.71,7.61
65.35,7.56
66.01,7.51
66.67,7.51
67.33,7.50
68.01,7.47
68.69,7.39
69.37,7.38
70.07,7.42
70.77,7.42
71.48,7.45
72.19,7.47
72.91,7.42
73.64,7.35
74.38,7.26
75.12,7.16
75.87,7.21
76.63,7.23
77.40,7.25
78.17,7.28
78.95,7.23
79.74,7.14
80.54,7.03
81.35,6.98
82.16,7.02
82.98,7.03
83.81,7.08
84.65,7.08
85.50,7.01
86.35,6.89
87.22,6.80
88.09,6.79
88.97,6.84
89.86,6.89
90.76,6.92
91.66,6.83
92.58,6.68
93.51,6.60
94.44,6.65
95.39,6.70
96.34,6.64
97.30,6.51
98.28,6.40
99.26,6.38
100.25,6.41
101.25,6.42
102.27,6.43
103.29,6.32
104.32,6.19
105.37,6.09
106.42,6.13
107.48,6.06
108.56,5.97
109.64,5.83
110.74,5.75
111.85,5.78
112.97,5.86
114.10,5.77
115.24,5.57
116.39,5.59
117.55,5.62
118.73,5.67
119.92,5.70
121.12,5.54
122.33,5.46
123.55,5.46
124.79,5.48
126.03,5.37
127.29,5.27
128.57,5.25
129.85,5.29
131.15,5.25
132.46,5.20
133.79,5.09
135.12,5.11
136.48,5.04
137.84,4.88
139.22,4.94
140.61,4.96
142.02,4.84
143.44,4.75
144.87,4.72
146.32,4.73
147.78,4.69
149.26,4.59
150.75,4.49
152.26,4.54
153.78,4.62
155.32,4.45
156.88,4.35
158.44,4.36
160.03,4.27
161.63,4.18
163.24,4.13
164.88,4.17
166.53,4.23
168.19,4.05
169.87,3.96
171.57,3.94
173.29,3.86
175.02,3.72
176.77,3.68
178.54,3.78
180.32,3.73
182.13,3.61
183.95,3.57
185.79,3.53
187.65,3.47
189.52,3.37
191.42,3.40
193.33,3.49
195.27,3.48
197.22,3.35
199.19,3.27
201.18,3.23
203.19,3.17
205.23,3.11
207.28,3.11
209.35,3.03
211.44,2.90
213.56,2.94
215.69,2.93
217.85,2.82
220.03,2.75
222.23,2.71
224.45,2.69
226.70,2.55
228.96,2.47
231.25,2.58
233.57,2.48
235.90,2.30
238.26,2.40
240.64,2.46
243.05,2.36
245.48,2.23
247.93,2.24
250.41,2.32
252.92,2.23
255.45,2.22
258.00,2.16
260.58,2.13
263.19,2.03
265.82,1.88
268.48,1.95
271.16,1.94
273.87,1.73
276.61,1.70
279.38,1.70
282.17,1.63
284.99,1.61
287.84,1.64
290.72,1.39
293.63,1.32
296.57,1.40
299.53,1.49
302.53,1.33
305.55,1.21
308.61,1.25
311.69,1.26
314.81,1.20
317.96,1.16
321.14,1.07
324.35,1.00
327.59,0.93
330.87,0.86
334.18,0.73
337.52,0.77
340.90,0.86
344.30,0.81
347.75,0.61
351.23,0.56
354.74,0.64
358.28,0.50
361.87,0.36
365.49,0.43
369.14,0.36
372.83,0.24
376.56,0.24
380.33,0.19
384.13,0.15
387.97,0.10
391.85,0.08
395.77,0.05
399.73,0.00
403.72,-0.07
407.76,-0.16
411.84,-0.29
415.96,-0.28
420.12,-0.14
424.32,-0.14
428.56,-0.39
432.85,-0.47
437.18,-0.31
441.55,-0.32
445.96,-0.50
450.42,-0.45
454.93,-0.36
459.48,-0.48
464.07,-0.35
468.71,-0.25
473.40,-0.43
478.13,-0.45
482.91,-0.24
487.74,-0.15
492.62,-0.36
497.55,-0.49
502.52,-0.41
507.55,-0.34
512.62,-0.32
517.75,-0.39
522.93,-0.42
528.16,-0.48
533.44,-0.69
538.77,-0.70
544.16,-0.59
549.60,-0.78
555.10,-0.89
560.65,-1.02
566.25,-1.19
571.92,-1.20
577.64,-1.06
583.41,-1.13
589.25,-1.27
595.14,-1.32
601.09,-1.37
607.10,-1.45
613.17,-1.40
619.30,-1.43
625.50,-1.43
631.75,-1.41
638.07,-1.37
644.45,-1.34
650.89,-1.20
657.40,-1.12
663.98,-1.16
670.62,-1.23
677.32,-1.17
684.10,-1.06
690.94,-1.00
697.85,-1.14
704.83,-1.15
711.87,-1.15
718.99,-1.16
726.18,-1.17
733.44,-1.27
740.78,-1.28
748.19,-1.14
755.67,-1.13
763.23,-1.25
770.86,-1.24
778.57,-1.15
786.35,-1.15
794.22,-1.13
802.16,-1.04
810.18,-1.00
818.28,-0.96
826.46,-0.94
834.73,-1.00
843.08,-1.01
851.51,-0.88
860.02,-0.78
868.62,-0.77
877.31,-0.70
886.08,-0.74
894.94,-0.77
903.89,-0.64
912.93,-0.61
922.06,-0.58
931.28,-0.51
940.59,-0.44
950.00,-0.45
959.50,-0.24
969.09,-0.19
978.78,-0.25
988.57,-0.15
998.46,-0.02
1008.44,0.01
1018.53,0.10
1028.71,0.17
1039.00,0.28
1049.39,0.32
1059.88,0.40
1070.48,0.61
1081.19,0.67
1092.00,0.71
1102.92,0.77
1113.95,0.83
1125.09,0.89
1136.34,0.96
1147.70,1.04
1159.18,1.13
1170.77,1.22
1182.48,1.32
1194.30,1.43
1206.25,1.53
1218.31,1.52
1230.49,1.61
1242.80,1.79
1255.22,1.95
1267.78,2.02
1280.45,2.05
1293.26,2.03
1306.19,2.18
1319.25,2.34
1332.45,2.46
1345.77,2.53
1359.23,2.64
1372.82,2.72
1386.55,2.80
1400.41,2.90
1414.42,2.89
1428.56,2.96
1442.85,3.13
1457.28,3.37
1471.85,3.52
1486.57,3.48
1501.43,3.53
1516.45,3.67
1531.61,3.79
1546.93,3.82
1562.40,3.99
1578.02,4.09
1593.80,4.22
1609.74,4.29
1625.84,4.50
1642.10,4.75
1658.52,4.74
1675.10,4.84
1691.85,5.15
1708.77,5.22
1725.86,5.36
1743.12,5.54
1760.55,5.60
1778.15,5.72
1795.94,5.93
1813.90,6.17
1832.03,6.35
1850.36,6.37
1868.86,6.44
1887.55,6.73
1906.42,7.03
1925.49,7.15
1944.74,7.18
1964.19,7.39
1983.83,7.66
2003.67,7.96
2023.71,8.15
2043.94,8.26
2064.38,8.54
2085.03,8.75
2105.88,8.96
2126.94,9.19
2148.20,9.47
2169.69,9.79
2191.38,10.15
2213.30,10.43
2235.43,10.74
2257.78,11.04
2280.36,11.33
2303.17,11.64
2326.20,11.92
2349.46,12.21
2372.95,12.55
2396.68,12.88
2420.65,13.18
2444.86,13.48
2469.31,13.79
2494.00,14.15
2518.94,14.49
2544.13,14.78
2569.57,15.05
2595.27,15.24
2621.22,15.43
2647.43,15.60
2673.90,15.86
2700.64,16.06
2727.65,16.21
2754.93,16.29
2782.48,16.32
2810.30,16.30
2838.40,16.20
2866.79,15.94
2895.46,15.78
2924.41,15.58
2953.65,15.23
2983.19,15.00
3013.02,14.84
3043.15,14.55
3073.58,14.27
3104.32,14.08
3135.36,13.91
3166.72,13.56
3198.38,13.24
3230.37,12.96
3262.67,12.69
3295.30,12.37
3328.25,11.99
3361.53,11.70
3395.15,11.52
3429.10,11.25
3463.39,11.00
3498.03,10.77
3533.01,10.53
3568.34,10.27
3604.02,10.04
3640.06,9.84
3676.46,9.65
3713.22,9.38
3750.36,9.03
3787.86,8.74
3825.74,8.45
3864.00,8.24
3902.64,8.04
3941.66,7.92
3981.08,7.88
4020.89,7.82
4061.10,7.79
4101.71,7.78
4142.73,7.74
4184.15,7.66
4226.00,7.56
4268.26,7.55
4310.94,7.55
4354.05,7.55
4397.59,7.53
4441.56,7.56
4485.98,7.56
4530.84,7.59
4576.15,7.65
4621.91,7.68
4668.13,7.73
4714.81,7.78
4761.96,7.89
4809.58,8.04
4857.67,8.17
4906.25,8.28
4955.31,8.47
5004.87,8.67
5054.91,8.77
5105.46,8.84
5156.52,8.97
5208.08,9.15
5260.16,9.41
5312.77,9.75
5365.89,10.05
5419.55,10.35
5473.75,10.66
5528.49,10.85
5583.77,10.93
5639.61,11.12
5696.00,11.37
5752.96,11.72
5810.49,11.85
5868.60,11.99
5927.28,11.86
5986.56,11.48
6046.42,10.92
6106.89,10.33
6167.96,10.15
6229.64,10.06
6291.93,9.79
6354.85,9.54
6418.40,9.06
6482.58,8.31
6547.41,7.68
6612.88,6.93
6679.01,6.28
6745.80,5.71
6813.26,5.12
6881.39,4.56
6950.21,3.98
7019.71,3.63
7089.91,3.42
7160.81,3.13
7232.41,2.76
7304.74,2.48
7377.79,2.30
7451.56,2.02
7526.08,1.66
7601.34,1.42
7677.35,1.17
7754.13,0.92
7831.67,0.85
7909.98,0.71
7989.08,0.72
8068.98,0.88
8149.67,1.10
8231.16,1.28
8313.47,1.66
8396.61,1.99
8480.57,2.21
8565.38,2.36
8651.03,2.42
8737.54,2.47
8824.92,2.63
8913.17,2.72
9002.30,2.63
9092.32,2.46
9183.25,2.21
9275.08,2.00
9367.83,2.45
9461.51,2.78
9556.12,2.64
9651.68,2.43
9748.20,1.70
9845.68,0.90
9944.14,0.27
10043.58,-0.47
10144.02,-1.14
10245.46,-0.95
10347.91,-0.84
10451.39,-0.65
10555.91,-0.22
10661.46,0.31
10768.08,0.66
10875.76,1.04
10984.52,0.07
11094.36,-1.35
11205.31,-0.07
11317.36,1.33
11430.53,1.23
11544.84,1.28
11660.29,0.55
11776.89,-1.14
11894.66,-2.87
12013.60,-4.24
12133.74,-5.11
12255.08,-6.04
12377.63,-6.80
12501.41,-7.51
12626.42,-8.81
12752.68,-10.06
12880.21,-11.16
13009.01,-11.89
13139.10,-12.35
13270.49,-12.48
13403.20,-12.55
13537.23,-12.07
13672.60,-12.04
13809.33,-11.74
13947.42,-11.25
14086.90,-10.90
14227.77,-10.08
14370.04,-9.15
14513.74,-7.84
14658.88,-7.03
14805.47,-6.75
14953.52,-6.39
15103.06,-5.57
15254.09,-4.57
15406.63,-4.43
15560.70,-3.72
15716.30,-1.04
15873.47,-0.84
16032.20,-2.99
16192.52,-5.24
16354.45,-6.63
16517.99,-7.32
16683.17,-7.57
16850.01,-7.37
17018.51,-6.24
17188.69,-5.17
17360.58,-3.46
17534.18,-2.46
17709.53,-2.70
17886.62,-2.72
18065.49,-3.44
18246.14,-4.95
18428.60,-6.41
18612.89,-7.45
18799.02,-8.19
18987.01,-8.25
19176.88,-9.26
19368.65,-9.78
19562.33,-10.48
19757.96,-12.01
19955.54,-13.25
