frequency,raw,error,smoothed,error_smoothed,equalization,parametric_eq,fixed_band_eq,equalized_raw,equalized_smoothed,target
20.00,10.18,4.00,10.18,4.00,-4.01,-4.09,-1.95,6.17,6.17,6.17
20.20,10.19,4.01,10.19,4.01,-4.02,-4.10,-2.00,6.17,6.17,6.17
20.40,10.20,4.03,10.20,4.03,-4.03,-4.10,-2.06,6.17,6.17,6.17
20.61,10.21,4.04,10.21,4.04,-4.04,-4.11,-2.12,6.17,6.17,6.17
20.81,10.22,4.06,10.22,4.06,-4.05,-4.12,-2.18,6.17,6.17,6.16
21.02,10.24,4.08,10.23,4.07,-4.06,-4.13,-2.24,6.17,6.17,6.16
21.23,10.24,4.08,10.24,4.08,-4.07,-4.14,-2.30,6.16,6.16,6.16
21.44,10.25,4.08,10.25,4.08,-4.09,-4.14,-2.37,6.16,6.16,6.17
21.66,10.26,4.10,10.26,4.09,-4.10,-4.15,-2.43,6.16,6.16,6.16
21.87,10.27,4.11,10.27,4.11,-4.11,-4.16,-2.50,6.15,6.15,6.16
22.09,10.28,4.13,10.28,4.13,-4.13,-4.17,-2.57,6.15,6.15,6.15
22.31,10.29,4.14,10.29,4.14,-4.14,-4.18,-2.65,6.15,6.15,6.15
22.54,10.30,4.16,10.30,4.16,-4.15,-4.19,-2.72,6.14,6.14,6.14
22.76,10.31,4.17,10.31,4.17,-4.17,-4.20,-2.80,6.14,6.14,6.14
22.99,10.32,4.18,10.32,4.18,-4.19,-4.21,-2.88,6.13,6.13,6.14
23.22,10.33,4.20,10.33,4.20,-4.20,-4.21,-2.96,6.12,6.12,6.13
23.45,10.34,4.21,10.34,4.21,-4.22,-4.22,-3.04,6.12,6.12,6.12
23.69,10.35,4.23,10.35,4.23,-4.23,-4.23,-3.13,6.12,6.12,6.11
23.92,10.36,4.25,10.36,4.25,-4.24,-4.24,-3.21,6.11,6.11,6.10
24.16,10.37,4.26,10.36,4.26,-4.26,-4.25,-3.30,6.11,6.11,6.10
24.40,10.37,4.26,10.37,4.27,-4.27,-4.26,-3.39,6.10,6.10,6.10
24.65,10.38,4.27,10.38,4.27,-4.28,-4.27,-3.48,6.10,6.10,6.10
24.89,10.39,4.29,10.39,4.28,-4.29,-4.29,-3.57,6.10,6.09,6.10
25.14,10.40,4.30,10.40,4.30,-4.30,-4.30,-3.66,6.10,6.10,6.10
25.39,10.41,4.32,10.41,4.31,-4.31,-4.31,-3.75,6.10,6.10,6.09
25.65,10.42,4.33,10.41,4.32,-4.32,-4.32,-3.85,6.10,6.09,6.09
25.91,10.42,4.33,10.42,4.33,-4.33,-4.33,-3.94,6.09,6.09,6.09
26.16,10.43,4.33,10.43,4.33,-4.34,-4.34,-4.04,6.09,6.09,6.10
26.43,10.44,4.34,10.44,4.34,-4.34,-4.35,-4.13,6.09,6.09,6.10
26.69,10.45,4.35,10.45,4.35,-4.35,-4.36,-4.22,6.10,6.10,6.09
26.96,10.46,4.36,10.45,4.36,-4.36,-4.38,-4.31,6.10,6.10,6.09
27.23,10.46,4.36,10.46,4.36,-4.36,-4.39,-4.40,6.09,6.09,6.09
27.50,10.46,4.36,10.46,4.37,-4.37,-4.40,-4.49,6.09,6.09,6.09
27.77,10.47,4.37,10.47,4.37,-4.38,-4.41,-4.58,6.09,6.09,6.10
28.05,10.49,4.40,10.48,4.39,-4.39,-4.43,-4.66,6.10,6.09,6.09
28.33,10.49,4.40,10.49,4.40,-4.40,-4.44,-4.74,6.09,6.09,6.09
28.62,10.50,4.42,10.50,4.41,-4.41,-4.45,-4.82,6.09,6.09,6.08
28.90,10.50,4.41,10.50,4.42,-4.42,-4.47,-4.90,6.08,6.08,6.09
29.19,10.51,4.43,10.50,4.43,-4.43,-4.48,-4.97,6.07,6.07,6.07
29.48,10.51,4.44,10.51,4.44,-4.44,-4.49,-5.03,6.06,6.07,6.06
29.78,10.52,4.46,10.51,4.45,-4.45,-4.51,-5.09,6.06,6.06,6.06
30.08,10.52,4.46,10.52,4.46,-4.46,-4.52,-5.14,6.05,6.05,6.06
30.38,10.53,4.48,10.52,4.47,-4.47,-4.54,-5.19,6.05,6.05,6.05
30.68,10.53,4.48,10.53,4.48,-4.48,-4.55,-5.23,6.04,6.05,6.05
30.99,10.54,4.49,10.53,4.49,-4.49,-4.56,-5.27,6.05,6.04,6.04
31.30,10.54,4.49,10.54,4.50,-4.50,-4.58,-5.30,6.04,6.04,6.04
31.61,10.55,4.51,10.54,4.50,-4.50,-4.59,-5.33,6.04,6.04,6.04
31.93,10.55,4.51,10.55,4.51,-4.51,-4.61,-5.35,6.04,6.04,6.04
32.24,10.56,4.51,10.55,4.51,-4.51,-4.63,-5.36,6.04,6.04,6.05
32.57,10.56,4.52,10.56,4.52,-4.52,-4.64,-5.37,6.04,6.04,6.03
32.89,10.57,4.52,10.56,4.52,-4.52,-4.66,-5.37,6.04,6.04,6.04
33.22,10.57,4.53,10.57,4.53,-4.53,-4.67,-5.37,6.04,6.04,6.04
33.55,10.57,4.53,10.57,4.54,-4.54,-4.69,-5.36,6.03,6.03,6.04
33.89,10.58,4.55,10.57,4.55,-4.55,-4.71,-5.35,6.03,6.02,6.02
34.23,10.58,4.56,10.58,4.56,-4.56,-4.72,-5.34,6.01,6.02,6.01
34.57,10.59,4.58,10.58,4.58,-4.58,-4.74,-5.32,6.01,6.01,6.01
34.92,10.59,4.60,10.59,4.60,-4.59,-4.76,-5.30,5.99,5.99,5.99
35.27,10.59,4.60,10.59,4.61,-4.61,-4.78,-5.28,5.97,5.98,5.98
35.62,10.60,4.65,10.59,4.63,-4.64,-4.79,-5.25,5.96,5.95,5.95
35.97,10.59,4.65,10.59,4.65,-4.66,-4.81,-5.23,5.93,5.93,5.94
36.33,10.59,4.67,10.59,4.68,-4.68,-4.83,-5.20,5.90,5.91,5.91
36.70,10.60,4.72,10.59,4.71,-4.71,-4.85,-5.17,5.88,5.88,5.88
37.06,10.60,4.74,10.60,4.74,-4.74,-4.87,-5.15,5.85,5.86,5.86
37.43,10.60,4.77,10.60,4.78,-4.77,-4.89,-5.12,5.82,5.83,5.82
37.81,10.61,4.81,10.60,4.81,-4.80,-4.91,-5.09,5.80,5.80,5.80
38.19,10.60,4.83,10.60,4.84,-4.84,-4.93,-5.07,5.76,5.77,5.76
38.57,10.61,4.87,10.60,4.86,-4.86,-4.95,-5.05,5.74,5.74,5.74
38.95,10.61,4.89,10.60,4.89,-4.89,-4.97,-5.03,5.71,5.71,5.71
39.34,10.61,4.93,10.61,4.93,-4.92,-4.99,-5.01,5.69,5.69,5.68
39.74,10.61,4.95,10.60,4.95,-4.95,-5.01,-4.99,5.66,5.66,5.66
40.14,10.61,4.98,10.60,4.97,-4.97,-5.03,-4.98,5.63,5.63,5.63
40.54,10.60,4.98,10.60,4.99,-4.99,-5.05,-4.96,5.60,5.61,5.62
40.94,10.61,5.02,10.60,5.02,-5.02,-5.07,-4.96,5.59,5.59,5.59
41.35,10.61,5.04,10.61,5.04,-5.04,-5.09,-4.95,5.57,5.57,5.56
41.76,10.61,5.07,10.61,5.06,-5.06,-5.11,-4.95,5.55,5.55,5.54
42.18,10.61,5.07,10.60,5.08,-5.08,-5.13,-4.95,5.53,5.52,5.53
42.60,10.60,5.09,10.60,5.10,-5.10,-5.15,-4.96,5.50,5.50,5.51
43.03,10.61,5.13,10.60,5.12,-5.12,-5.18,-4.97,5.49,5.48,5.48
43.46,10.61,5.14,10.60,5.14,-5.14,-5.20,-4.98,5.47,5.47,5.46
43.90,10.61,5.16,10.60,5.16,-5.16,-5.22,-5.00,5.45,5.45,5.45
44.33,10.60,5.18,10.60,5.18,-5.17,-5.24,-5.02,5.42,5.42,5.42
44.78,10.60,5.20,10.59,5.19,-5.19,-5.27,-5.04,5.40,5.40,5.40
45.23,10.59,5.19,10.59,5.21,-5.22,-5.29,-5.07,5.37,5.37,5.39
45.68,10.59,5.23,10.59,5.23,-5.24,-5.31,-5.10,5.35,5.35,5.35
46.13,10.59,5.27,10.59,5.26,-5.26,-5.33,-5.13,5.32,5.32,5.32
46.60,10.59,5.29,10.59,5.29,-5.29,-5.36,-5.17,5.30,5.30,5.30
47.06,10.59,5.32,10.58,5.32,-5.32,-5.38,-5.22,5.27,5.27,5.27
47.53,10.58,5.34,10.58,5.35,-5.35,-5.41,-5.26,5.23,5.23,5.24
48.01,10.58,5.39,10.57,5.38,-5.38,-5.43,-5.31,5.20,5.19,5.19
48.49,10.57,5.41,10.57,5.41,-5.41,-5.45,-5.36,5.15,5.15,5.16
48.97,10.57,5.45,10.56,5.45,-5.45,-5.48,-5.42,5.12,5.12,5.12
49.46,10.56,5.47,10.56,5.48,-5.48,-5.50,-5.48,5.07,5.08,5.09
49.96,10.56,5.53,10.55,5.52,-5.52,-5.53,-5.54,5.04,5.04,5.03
50.46,10.55,5.55,10.55,5.56,-5.55,-5.55,-5.60,4.99,4.99,4.99
50.96,10.55,5.59,10.54,5.59,-5.59,-5.58,-5.67,4.96,4.96,4.95
51.47,10.54,5.62,10.54,5.62,-5.62,-5.60,-5.74,4.91,4.92,4.92
51.99,10.54,5.66,10.54,5.66,-5.66,-5.63,-5.80,4.88,4.88,4.88
52.51,10.54,5.69,10.53,5.68,-5.69,-5.65,-5.87,4.85,4.84,4.84
53.03,10.53,5.71,10.53,5.72,-5.72,-5.68,-5.95,4.81,4.81,4.82
53.56,10.52,5.74,10.52,5.75,-5.75,-5.70,-6.02,4.77,4.77,4.77
54.10,10.52,5.79,10.51,5.78,-5.78,-5.73,-6.09,4.74,4.73,4.73
54.64,10.50,5.80,10.50,5.81,-5.81,-5.75,-6.16,4.69,4.69,4.69
55.18,10.50,5.85,10.49,5.85,-5.84,-5.78,-6.23,4.66,4.65,4.65
55.74,10.49,5.88,10.48,5.87,-5.87,-5.80,-6.30,4.62,4.61,4.61
56.29,10.48,5.89,10.48,5.90,-5.90,-5.83,-6.36,4.58,4.58,4.58
56.86,10.47,5.91,10.47,5.92,-5.92,-5.85,-6.43,4.54,4.55,4.56
57.42,10.47,5.96,10.47,5.95,-5.95,-5.88,-6.48,4.52,4.52,4.51
58.00,10.47,5.99,10.46,5.98,-5.97,-5.90,-6.54,4.50,4.49,4.48
58.58,10.46,6.00,10.45,6.00,-6.00,-5.93,-6.59,4.46,4.46,4.46
59.16,10.44,6.01,10.44,6.02,-6.02,-5.96,-6.64,4.41,4.42,4.43
59.76,10.44,6.04,10.43,6.04,-6.05,-5.98,-6.68,4.38,4.38,4.40
60.35,10.43,6.08,10.43,6.08,-6.09,-6.01,-6.72,4.34,4.34,4.35
60.96,10.42,6.11,10.42,6.12,-6.12,-6.03,-6.75,4.29,4.29,4.30
61.57,10.41,6.17,10.40,6.16,-6.16,-6.06,-6.77,4.25,4.25,4.24
62.18,10.39,6.20,10.39,6.20,-6.20,-6.08,-6.79,4.19,4.20,4.19
62.80,10.39,6.24,10.38,6.24,-6.23,-6.11,-6.80,4.15,4.15,4.14
63.43,10.37,6.28,10.37,6.28,-6.27,-6.13,-6.81,4.10,4.10,4.09
64.07,10.36,6.30,10.36,6.30,-6.30,-6.16,-6.81,4.06,4.06,4.05
64.71,10.35,6.33,10.34,6.33,-6.33,-6.18,-6.80,4.02,4.01,4.01
65.35,10.33,6.35,10.33,6.36,-6.36,-6.21,-6.79,3.97,3.98,3.98
66.01,10.33,6.39,10.32,6.38,-6.38,-6.23,-6.78,3.94,3.94,3.94
66.67,10.32,6.41,10.31,6.40,-6.41,-6.26,-6.75,3.91,3.90,3.91
67.33,10.29,6.43,10.30,6.43,-6.43,-6.28,-6.73,3.85,3.86,3.86
68.01,10.28,6.46,10.28,6.46,-6.46,-6.30,-6.70,3.82,3.82,3.82
68.69,10.28,6.50,10.27,6.49,-6.48,-6.33,-6.66,3.79,3.78,3.78
69.37,10.26,6.51,10.26,6.51,-6.51,-6.35,-6.62,3.75,3.75,3.75
70.07,10.25,6.53,10.25,6.54,-6.54,-6.37,-6.58,3.71,3.71,3.71
70.77,10.23,6.56,10.23,6.56,-6.56,-6.40,-6.54,3.66,3.66,3.67
71.48,10.22,6.59,10.21,6.59,-6.59,-6.42,-6.50,3.63,3.62,3.63
72.19,10.20,6.62,10.20,6.62,-6.62,-6.44,-6.45,3.58,3.58,3.58
72.91,10.19,6.64,10.18,6.64,-6.64,-6.47,-6.41,3.54,3.54,3.54
73.64,10.17,6.67,10.17,6.67,-6.67,-6.49,-6.36,3.50,3.50,3.50
74.38,10.15,6.69,10.15,6.69,-6.69,-6.51,-6.32,3.46,3.46,3.46
75.12,10.14,6.72,10.13,6.71,-6.71,-6.53,-6.28,3.43,3.42,3.42
75.87,10.12,6.72,10.12,6.73,-6.73,-6.55,-6.24,3.39,3.39,3.40
76.63,10.11,6.75,10.10,6.75,-6.74,-6.58,-6.20,3.36,3.36,3.36
77.40,10.09,6.76,10.09,6.76,-6.76,-6.60,-6.16,3.33,3.33,3.33
78.17,10.07,6.78,10.07,6.77,-6.77,-6.62,-6.13,3.30,3.30,3.28
78.95,10.05,6.77,10.05,6.78,-6.78,-6.64,-6.10,3.26,3.26,3.27
79.74,10.03,6.79,10.03,6.79,-6.79,-6.66,-6.07,3.23,3.23,3.24
80.54,10.01,6.80,10.01,6.80,-6.81,-6.68,-6.04,3.20,3.20,3.20
81.35,10.00,6.82,9.99,6.82,-6.82,-6.70,-6.02,3.18,3.17,3.18
82.16,9.98,6.83,9.97,6.83,-6.83,-6.72,-6.00,3.15,3.14,3.15
82.98,9.95,6.83,9.95,6.84,-6.84,-6.74,-5.99,3.11,3.12,3.11
83.81,9.94,6.85,9.93,6.85,-6.85,-6.75,-5.98,3.09,3.08,3.08
84.65,9.92,6.87,9.91,6.86,-6.86,-6.77,-5.97,3.06,3.05,3.05
85.50,9.89,6.87,9.89,6.87,-6.87,-6.79,-5.97,3.02,3.02,3.02
86.35,9.88,6.88,9.87,6.88,-6.88,-6.81,-5.98,3.00,2.99,3.00
87.22,9.85,6.88,9.85,6.88,-6.89,-6.83,-5.98,2.96,2.96,2.97
88.09,9.83,6.89,9.83,6.89,-6.90,-6.84,-6.00,2.93,2.93,2.93
88.97,9.81,6.90,9.81,6.90,-6.91,-6.86,-6.01,2.90,2.90,2.90
89.86,9.79,6.92,9.79,6.92,-6.92,-6.88,-6.03,2.87,2.87,2.87
90.76,9.77,6.93,9.76,6.93,-6.93,-6.89,-6.06,2.84,2.84,2.84
91.66,9.74,6.93,9.74,6.94,-6.94,-6.91,-6.09,2.80,2.80,2.80
92.58,9.72,6.95,9.72,6.95,-6.95,-6.92,-6.12,2.77,2.77,2.77
93.51,9.70,6.96,9.69,6.96,-6.96,-6.94,-6.16,2.73,2.73,2.73
94.44,9.67,6.97,9.67,6.98,-6.98,-6.95,-6.21,2.69,2.69,2.70
95.39,9.65,7.00,9.64,6.99,-6.99,-6.97,-6.25,2.65,2.65,2.65
96.34,9.62,7.01,9.62,7.01,-7.01,-6.98,-6.30,2.60,2.60,2.60
97.30,9.59,7.02,9.59,7.03,-7.03,-7.00,-6.36,2.56,2.56,2.57
98.28,9.57,7.05,9.56,7.05,-7.05,-7.01,-6.42,2.52,2.51,2.51
99.26,9.54,7.07,9.54,7.07,-7.07,-7.02,-6.48,2.47,2.47,2.46
100.25,9.52,7.09,9.51,7.09,-7.08,-7.04,-6.54,2.44,2.43,2.43
101.25,9.49,7.10,9.48,7.10,-7.09,-7.05,-6.61,2.39,2.39,2.39
102.27,9.46,7.10,9.46,7.11,-7.11,-7.06,-6.68,2.35,2.35,2.35
103.29,9.43,7.11,9.43,7.11,-7.11,-7.08,-6.75,2.31,2.31,2.31
104.32,9.41,7.12,9.40,7.12,-7.12,-7.09,-6.82,2.28,2.28,2.29
105.37,9.38,7.13,9.38,7.13,-7.13,-7.10,-6.90,2.25,2.25,2.25
106.42,9.35,7.13,9.35,7.13,-7.13,-7.11,-6.98,2.22,2.22,2.22
107.48,9.32,7.14,9.32,7.14,-7.13,-7.13,-7.05,2.18,2.18,2.17
108.56,9.29,7.14,9.28,7.14,-7.14,-7.14,-7.13,2.15,2.15,2.14
109.64,9.26,7.14,9.25,7.14,-7.14,-7.15,-7.20,2.11,2.11,2.12
110.74,9.22,7.14,9.22,7.14,-7.15,-7.16,-7.28,2.07,2.08,2.08
111.85,9.20,7.15,9.19,7.15,-7.15,-7.17,-7.35,2.04,2.04,2.04
112.97,9.17,7.16,9.16,7.16,-7.16,-7.18,-7.41,2.01,2.00,2.01
114.10,9.14,7.17,9.13,7.17,-7.17,-7.19,-7.48,1.97,1.96,1.97
115.24,9.10,7.17,9.10,7.18,-7.18,-7.20,-7.54,1.92,1.92,1.92
116.39,9.07,7.20,9.07,7.19,-7.19,-7.21,-7.60,1.88,1.88,1.87
117.55,9.04,7.20,9.03,7.21,-7.20,-7.22,-7.65,1.83,1.83,1.83
118.73,9.00,7.22,9.00,7.22,-7.21,-7.23,-7.69,1.78,1.78,1.78
119.92,8.96,7.22,8.96,7.22,-7.22,-7.24,-7.73,1.73,1.74,1.73
121.12,8.93,7.23,8.93,7.24,-7.24,-7.25,-7.76,1.69,1.69,1.70
122.33,8.90,7.25,8.89,7.25,-7.25,-7.26,-7.78,1.65,1.65,1.64
123.55,8.86,7.26,8.86,7.26,-7.26,-7.27,-7.80,1.60,1.60,1.60
124.79,8.83,7.27,8.82,7.27,-7.27,-7.28,-7.81,1.55,1.55,1.56
126.03,8.79,7.28,8.79,7.28,-7.29,-7.29,-7.81,1.50,1.50,1.51
127.29,8.75,7.30,8.75,7.30,-7.30,-7.30,-7.80,1.44,1.45,1.45
128.57,8.72,7.32,8.71,7.32,-7.31,-7.31,-7.79,1.40,1.40,1.40
129.85,8.68,7.33,8.68,7.33,-7.33,-7.32,-7.76,1.35,1.35,1.35
131.15,8.64,7.34,8.64,7.34,-7.34,-7.32,-7.74,1.30,1.30,1.30
132.46,8.60,7.35,8.60,7.35,-7.34,-7.33,-7.70,1.25,1.25,1.25
133.79,8.56,7.35,8.56,7.35,-7.35,-7.34,-7.66,1.21,1.21,1.21
135.12,8.52,7.35,8.52,7.35,-7.35,-7.34,-7.61,1.17,1.17,1.16
136.48,8.48,7.34,8.48,7.35,-7.35,-7.35,-7.56,1.13,1.13,1.14
137.84,8.45,7.34,8.44,7.34,-7.34,-7.36,-7.50,1.10,1.10,1.10
139.22,8.41,7.35,8.40,7.34,-7.33,-7.36,-7.44,1.07,1.07,1.06
140.61,8.36,7.32,8.36,7.33,-7.32,-7.37,-7.37,1.03,1.04,1.04
142.02,8.32,7.31,8.32,7.31,-7.31,-7.37,-7.31,1.00,1.00,1.00
143.44,8.28,7.31,8.27,7.30,-7.30,-7.38,-7.24,0.98,0.97,0.97
144.87,8.23,7.28,8.23,7.28,-7.29,-7.38,-7.17,0.94,0.94,0.95
146.32,8.19,7.27,8.19,7.27,-7.27,-7.38,-7.10,0.91,0.92,0.92
147.78,8.15,7.26,8.14,7.25,-7.26,-7.39,-7.03,0.89,0.89,0.89
149.26,8.11,7.24,8.10,7.24,-7.24,-7.39,-6.97,0.87,0.86,0.86
150.75,8.06,7.23,8.06,7.23,-7.22,-7.39,-6.90,0.83,0.83,0.82
152.26,8.02,7.21,8.01,7.21,-7.21,-7.39,-6.83,0.81,0.80,0.81
153.78,7.97,7.19,7.97,7.19,-7.19,-7.39,-6.77,0.77,0.77,0.77
155.32,7.93,7.18,7.92,7.18,-7.18,-7.39,-6.71,0.75,0.74,0.75
156.88,7.88,7.16,7.88,7.16,-7.16,-7.39,-6.65,0.71,0.71,0.71
158.44,7.83,7.15,7.83,7.15,-7.15,-7.39,-6.60,0.68,0.68,0.68
160.03,7.79,7.14,7.78,7.13,-7.14,-7.38,-6.54,0.65,0.64,0.65
161.63,7.73,7.11,7.73,7.12,-7.12,-7.38,-6.50,0.60,0.61,0.62
163.24,7.69,7.12,7.68,7.11,-7.11,-7.38,-6.45,0.58,0.57,0.57
164.88,7.64,7.10,7.63,7.10,-7.10,-7.37,-6.41,0.54,0.54,0.54
166.53,7.59,7.09,7.59,7.09,-7.09,-7.36,-6.38,0.50,0.50,0.50
168.19,7.54,7.07,7.53,7.07,-7.07,-7.36,-6.35,0.46,0.46,0.47
169.87,7.49,7.06,7.48,7.06,-7.06,-7.35,-6.32,0.43,0.42,0.43
171.57,7.43,7.04,7.43,7.04,-7.05,-7.34,-6.30,0.38,0.39,0.38
173.29,7.39,7.04,7.38,7.03,-7.03,-7.33,-6.28,0.35,0.35,0.35
175.02,7.33,7.01,7.33,7.02,-7.02,-7.32,-6.27,0.31,0.31,0.31
176.77,7.28,7.00,7.28,7.00,-7.00,-7.31,-6.26,0.28,0.28,0.28
178.54,7.23,6.98,7.22,6.98,-6.98,-7.30,-6.26,0.24,0.24,0.24
180.32,7.18,6.98,7.17,6.96,-6.96,-7.28,-6.26,0.21,0.21,0.20
182.13,7.11,6.94,7.11,6.95,-6.94,-7.27,-6.27,0.16,0.17,0.17
183.95,7.06,6.92,7.06,6.92,-6.93,-7.25,-6.28,0.13,0.13,0.14
185.79,7.01,6.91,7.00,6.90,-6.91,-7.24,-6.29,0.10,0.09,0.10
187.65,6.95,6.88,6.95,6.88,-6.89,-7.22,-6.31,0.06,0.06,0.06
189.52,6.89,6.86,6.89,6.87,-6.87,-7.20,-6.34,0.02,0.02,0.02
191.42,6.84,6.85,6.83,6.85,-6.85,-7.18,-6.36,-0.01,-0.02,-0.01
193.33,6.78,6.83,6.78,6.83,-6.83,-7.16,-6.40,-0.05,-0.05,-0.05
195.27,6.72,6.81,6.72,6.81,-6.81,-7.14,-6.43,-0.09,-0.09,-0.09
197.22,6.67,6.79,6.66,6.79,-6.78,-7.12,-6.47,-0.12,-0.12,-0.13
199.19,6.61,6.76,6.61,6.76,-6.76,-7.09,-6.51,-0.15,-0.15,-0.15
201.18,6.55,6.74,6.55,6.74,-6.74,-7.07,-6.56,-0.19,-0.19,-0.19
203.19,6.50,6.71,6.49,6.71,-6.71,-7.04,-6.61,-0.21,-0.22,-0.22
205.23,6.44,6.68,6.44,6.68,-6.68,-7.01,-6.66,-0.25,-0.24,-0.24
207.28,6.39,6.65,6.38,6.65,-6.66,-6.99,-6.71,-0.27,-0.27,-0.27
209.35,6.33,6.63,6.33,6.63,-6.63,-6.96,-6.77,-0.30,-0.30,-0.30
211.44,6.28,6.60,6.28,6.60,-6.61,-6.93,-6.82,-0.33,-0.33,-0.32
213.56,6.23,6.58,6.22,6.58,-6.58,-6.89,-6.88,-0.36,-0.36,-0.36
215.69,6.18,6.56,6.18,6.56,-6.56,-6.86,-6.93,-0.38,-0.38,-0.38
217.85,6.13,6.53,6.13,6.54,-6.53,-6.83,-6.99,-0.41,-0.41,-0.40
220.03,6.09,6.52,6.08,6.51,-6.51,-6.79,-7.04,-0.43,-0.43,-0.44
222.23,6.04,6.49,6.04,6.49,-6.49,-6.76,-7.09,-0.45,-0.45,-0.46
224.45,6.00,6.47,5.99,6.47,-6.47,-6.72,-7.14,-0.47,-0.48,-0.48
226.70,5.95,6.44,5.95,6.44,-6.45,-6.69,-7.18,-0.50,-0.50,-0.50
228.96,5.91,6.41,5.91,6.42,-6.43,-6.65,-7.22,-0.52,-0.52,-0.51
231.25,5.88,6.40,5.87,6.40,-6.41,-6.61,-7.25,-0.53,-0.54,-0.53
233.57,5.84,6.38,5.84,6.39,-6.39,-6.57,-7.28,-0.55,-0.55,-0.55
235.90,5.81,6.38,5.80,6.38,-6.37,-6.53,-7.30,-0.57,-0.57,-0.58
238.26,5.77,6.36,5.77,6.36,-6.36,-6.49,-7.32,-0.59,-0.59,-0.60
240.64,5.74,6.33,5.74,6.34,-6.34,-6.44,-7.33,-0.61,-0.60,-0.60
243.05,5.72,6.33,5.71,6.33,-6.33,-6.40,-7.33,-0.61,-0.62,-0.61
245.48,5.69,6.32,5.68,6.31,-6.31,-6.36,-7.31,-0.62,-0.63,-0.63
247.93,5.65,6.29,5.65,6.30,-6.29,-6.31,-7.30,-0.65,-0.64,-0.65
250.41,5.63,6.27,5.62,6.27,-6.27,-6.27,-7.27,-0.65,-0.65,-0.65
252.92,5.60,6.25,5.59,6.25,-6.25,-6.22,-7.23,-0.66,-0.66,-0.65
255.45,5.56,6.23,5.56,6.23,-6.23,-6.18,-7.18,-0.67,-0.67,-0.67
258.00,5.53,6.20,5.53,6.20,-6.21,-6.13,-7.13,-0.68,-0.68,-0.68
260.58,5.50,6.18,5.49,6.18,-6.18,-6.08,-7.07,-0.68,-0.69,-0.68
263.19,5.46,6.16,5.46,6.15,-6.15,-6.03,-7.00,-0.70,-0.70,-0.70
265.82,5.42,6.12,5.42,6.12,-6.12,-5.99,-6.91,-0.71,-0.70,-0.71
268.48,5.38,6.09,5.38,6.09,-6.09,-5.94,-6.83,-0.71,-0.72,-0.71
271.16,5.34,6.06,5.33,6.05,-6.06,-5.89,-6.73,-0.72,-0.72,-0.73
273.87,5.28,6.01,5.28,6.02,-6.02,-5.84,-6.63,-0.74,-0.73,-0.73
276.61,5.24,5.98,5.23,5.98,-5.98,-5.79,-6.53,-0.74,-0.74,-0.75
279.38,5.18,5.94,5.18,5.94,-5.93,-5.74,-6.42,-0.76,-0.75,-0.76
282.17,5.13,5.89,5.12,5.89,-5.89,-5.69,-6.30,-0.76,-0.76,-0.77
284.99,5.07,5.83,5.07,5.83,-5.84,-5.63,-6.19,-0.77,-0.77,-0.76
287.84,5.01,5.77,5.01,5.78,-5.79,-5.58,-6.07,-0.78,-0.77,-0.77
290.72,4.96,5.75,4.95,5.73,-5.73,-5.53,-5.94,-0.78,-0.78,-0.79
293.63,4.90,5.68,4.89,5.68,-5.67,-5.48,-5.82,-0.78,-0.78,-0.78
296.57,4.83,5.61,4.83,5.62,-5.62,-5.43,-5.69,-0.79,-0.79,-0.79
299.53,4.77,5.56,4.77,5.56,-5.56,-5.37,-5.57,-0.79,-0.79,-0.79
302.53,4.70,5.49,4.70,5.49,-5.49,-5.32,-5.44,-0.80,-0.80,-0.79
305.55,4.64,5.43,4.63,5.43,-5.43,-5.27,-5.32,-0.80,-0.80,-0.80
308.61,4.56,5.36,4.56,5.36,-5.37,-5.21,-5.19,-0.81,-0.80,-0.80
311.69,4.50,5.30,4.49,5.30,-5.30,-5.16,-5.07,-0.80,-0.80,-0.80
314.81,4.43,5.23,4.42,5.23,-5.23,-5.10,-4.95,-0.80,-0.81,-0.81
317.96,4.36,5.17,4.36,5.17,-5.16,-5.05,-4.83,-0.81,-0.80,-0.81
321.14,4.29,5.09,4.29,5.09,-5.09,-4.99,-4.71,-0.81,-0.81,-0.80
324.35,4.22,5.03,4.21,5.02,-5.02,-4.93,-4.59,-0.81,-0.81,-0.82
327.59,4.14,4.93,4.14,4.95,-4.95,-4.87,-4.48,-0.81,-0.81,-0.80
330.87,4.07,4.87,4.07,4.88,-4.88,-4.82,-4.37,-0.81,-0.81,-0.80
334.18,4.01,4.82,4.00,4.81,-4.80,-4.76,-4.26,-0.80,-0.81,-0.81
337.52,3.93,4.73,3.93,4.74,-4.73,-4.70,-4.15,-0.81,-0.80,-0.81
340.90,3.86,4.66,3.85,4.66,-4.66,-4.64,-4.05,-0.80,-0.80,-0.81
344.30,3.78,4.58,3.78,4.58,-4.58,-4.57,-3.95,-0.81,-0.80,-0.80
347.75,3.71,4.50,3.71,4.51,-4.51,-4.51,-3.85,-0.80,-0.80,-0.79
351.23,3.65,4.45,3.64,4.43,-4.44,-4.44,-3.76,-0.79,-0.80,-0.80
354.74,3.57,4.35,3.57,4.36,-4.36,-4.38,-3.66,-0.79,-0.79,-0.79
358.28,3.49,4.28,3.49,4.29,-4.29,-4.31,-3.57,-0.80,-0.79,-0.80
361.87,3.43,4.22,3.42,4.21,-4.21,-4.24,-3.49,-0.79,-0.79,-0.79
365.49,3.35,4.14,3.35,4.14,-4.14,-4.17,-3.40,-0.79,-0.79,-0.79
369.14,3.28,4.06,3.28,4.06,-4.06,-4.10,-3.32,-0.79,-0.79,-0.78
372.83,3.21,3.99,3.20,3.99,-3.99,-4.03,-3.24,-0.78,-0.79,-0.78
376.56,3.13,3.91,3.13,3.92,-3.92,-3.96,-3.17,-0.79,-0.78,-0.79
380.33,3.06,3.84,3.06,3.84,-3.84,-3.88,-3.09,-0.78,-0.78,-0.79
384.13,2.99,3.78,2.98,3.77,-3.77,-3.81,-3.02,-0.78,-0.78,-0.79
387.97,2.91,3.69,2.91,3.69,-3.69,-3.73,-2.95,-0.78,-0.78,-0.78
391.85,2.83,3.61,2.83,3.61,-3.62,-3.65,-2.88,-0.79,-0.79,-0.78
395.77,2.76,3.54,2.76,3.54,-3.54,-3.57,-2.82,-0.78,-0.78,-0.78
399.73,2.69,3.47,2.68,3.47,-3.47,-3.50,-2.76,-0.78,-0.78,-0.78
403.72,2.62,3.39,2.61,3.39,-3.39,-3.42,-2.70,-0.77,-0.78,-0.78
407.76,2.54,3.31,2.54,3.32,-3.32,-3.34,-2.64,-0.78,-0.77,-0.78
411.84,2.47,3.24,2.47,3.24,-3.24,-3.26,-2.58,-0.77,-0.77,-0.78
415.96,2.40,3.16,2.39,3.17,-3.17,-3.18,-2.52,-0.77,-0.77,-0.77
420.12,2.32,3.10,2.32,3.09,-3.09,-3.10,-2.47,-0.78,-0.78,-0.78
424.32,2.24,3.02,2.24,3.02,-3.02,-3.02,-2.42,-0.78,-0.78,-0.78
428.56,2.17,2.94,2.17,2.94,-2.94,-2.94,-2.37,-0.78,-0.78,-0.77
432.85,2.10,2.87,2.09,2.87,-2.87,-2.86,-2.32,-0.78,-0.78,-0.77
437.18,2.02,2.80,2.02,2.80,-2.80,-2.78,-2.27,-0.78,-0.78,-0.78
441.55,1.95,2.73,1.94,2.73,-2.72,-2.70,-2.22,-0.78,-0.78,-0.78
445.96,1.87,2.65,1.87,2.65,-2.65,-2.62,-2.17,-0.78,-0.78,-0.78
450.42,1.80,2.58,1.79,2.58,-2.58,-2.55,-2.12,-0.78,-0.78,-0.79
454.93,1.72,2.50,1.72,2.50,-2.50,-2.47,-2.08,-0.78,-0.79,-0.79
459.48,1.64,2.42,1.64,2.42,-2.43,-2.39,-2.03,-0.79,-0.78,-0.79
464.07,1.57,2.34,1.57,2.35,-2.35,-2.31,-1.99,-0.78,-0.78,-0.78
468.71,1.50,2.27,1.49,2.27,-2.27,-2.23,-1.94,-0.78,-0.78,-0.78
473.40,1.42,2.19,1.42,2.20,-2.20,-2.15,-1.90,-0.78,-0.78,-0.78
478.13,1.34,2.11,1.34,2.12,-2.12,-2.08,-1.85,-0.78,-0.78,-0.78
482.91,1.28,2.06,1.27,2.04,-2.04,-2.00,-1.80,-0.77,-0.78,-0.78
487.74,1.20,1.97,1.20,1.97,-1.97,-1.92,-1.76,-0.77,-0.77,-0.77
492.62,1.12,1.89,1.12,1.89,-1.89,-1.85,-1.71,-0.77,-0.77,-0.77
497.55,1.05,1.82,1.04,1.81,-1.81,-1.77,-1.66,-0.77,-0.77,-0.77
