frequency,raw,smoothed,error,error_smoothed,equalization,parametric_eq,fixed_band_eq,equalized_raw,equalized_smoothed,target
20.00,2.16,2.16,-4.22,-4.22,4.22,4.06,2.73,6.38,6.38,6.38
20.20,2.10,2.09,-4.28,-4.29,4.29,4.10,2.81,6.38,6.38,6.38
20.40,2.03,2.03,-4.35,-4.35,4.35,4.14,2.89,6.38,6.38,6.38
20.61,1.97,1.97,-4.41,-4.42,4.42,4.19,2.98,6.38,6.38,6.38
20.81,1.90,1.90,-4.48,-4.48,4.48,4.23,3.06,6.37,6.37,6.38
21.02,1.84,1.83,-4.54,-4.54,4.53,4.28,3.15,6.37,6.37,6.38
21.23,1.77,1.77,-4.59,-4.59,4.59,4.32,3.24,6.36,6.36,6.36
21.44,1.71,1.70,-4.64,-4.64,4.64,4.37,3.34,6.35,6.35,6.35
21.66,1.64,1.64,-4.69,-4.69,4.69,4.42,3.43,6.33,6.33,6.33
21.87,1.57,1.57,-4.74,-4.74,4.74,4.47,3.53,6.31,6.31,6.31
22.09,1.50,1.50,-4.80,-4.79,4.79,4.52,3.63,6.28,6.29,6.29
22.31,1.44,1.43,-4.83,-4.83,4.83,4.57,3.74,6.27,6.26,6.26
22.54,1.37,1.37,-4.88,-4.88,4.87,4.63,3.84,6.24,6.24,6.24
22.76,1.31,1.30,-4.92,-4.91,4.91,4.68,3.95,6.22,6.21,6.22
22.99,1.24,1.24,-4.96,-4.95,4.95,4.74,4.06,6.19,6.19,6.19
23.22,1.18,1.18,-4.98,-4.99,4.99,4.80,4.18,6.17,6.17,6.16
23.45,1.12,1.12,-5.02,-5.03,5.03,4.86,4.30,6.15,6.15,6.14
23.69,1.06,1.05,-5.07,-5.07,5.08,4.92,4.42,6.14,6.13,6.13
23.92,0.99,0.99,-5.12,-5.12,5.13,4.99,4.54,6.11,6.12,6.11
24.16,0.92,0.91,-5.18,-5.18,5.18,5.05,4.66,6.10,6.10,6.10
24.40,0.84,0.84,-5.24,-5.24,5.24,5.11,4.79,6.08,6.08,6.08
24.65,0.75,0.75,-5.31,-5.31,5.31,5.18,4.92,6.06,6.06,6.06
24.89,0.67,0.66,-5.37,-5.38,5.38,5.25,5.05,6.04,6.04,6.04
25.14,0.57,0.57,-5.46,-5.45,5.45,5.31,5.18,6.02,6.02,6.02
25.39,0.48,0.48,-5.53,-5.53,5.53,5.38,5.32,6.00,6.00,6.00
25.65,0.39,0.39,-5.61,-5.60,5.60,5.45,5.45,5.99,5.99,5.99
25.91,0.30,0.30,-5.66,-5.67,5.68,5.52,5.58,5.98,5.98,5.96
26.16,0.21,0.21,-5.74,-5.74,5.76,5.59,5.72,5.96,5.96,5.95
26.43,0.12,0.12,-5.82,-5.82,5.82,5.66,5.85,5.94,5.94,5.94
26.69,0.03,0.03,-5.89,-5.89,5.88,5.73,5.98,5.91,5.91,5.92
26.96,-0.05,-0.05,-5.96,-5.96,5.93,5.80,6.11,5.88,5.87,5.91
27.23,-0.14,-0.14,-6.04,-6.04,5.97,5.86,6.24,5.82,5.82,5.90
27.50,-0.23,-0.23,-6.12,-6.12,5.99,5.93,6.36,5.76,5.76,5.88
27.77,-0.33,-0.33,-6.20,-6.20,6.01,5.99,6.48,5.67,5.68,5.86
28.05,-0.42,-0.43,-6.27,-6.28,6.01,6.06,6.59,5.59,5.59,5.85
28.33,-0.52,-0.52,-6.35,-6.36,6.01,6.12,6.70,5.49,5.49,5.83
28.62,-0.62,-0.62,-6.44,-6.44,6.01,6.17,6.80,5.39,5.39,5.82
28.90,-0.71,-0.72,-6.52,-6.52,6.00,6.23,6.89,5.29,5.29,5.81
29.19,-0.81,-0.81,-6.60,-6.60,6.00,6.28,6.97,5.19,5.19,5.79
29.48,-0.90,-0.91,-6.69,-6.69,6.00,6.32,7.04,5.10,5.09,5.78
29.78,-1.00,-1.00,-6.77,-6.77,6.00,6.37,7.11,5.00,5.00,5.77
30.08,-1.09,-1.09,-6.85,-6.85,6.00,6.40,7.15,4.91,4.91,5.76
30.38,-1.18,-1.18,-6.92,-6.92,6.00,6.44,7.19,4.82,4.82,5.74
30.68,-1.27,-1.27,-7.00,-7.00,6.00,6.46,7.21,4.73,4.73,5.73
30.99,-1.36,-1.36,-7.07,-7.07,6.00,6.48,7.23,4.64,4.64,5.70
31.30,-1.45,-1.45,-7.14,-7.15,6.00,6.50,7.22,4.55,4.55,5.69
31.61,-1.54,-1.54,-7.22,-7.21,6.00,6.50,7.21,4.46,4.46,5.68
31.93,-1.62,-1.62,-7.28,-7.28,6.00,6.50,7.17,4.38,4.38,5.66
32.24,-1.70,-1.70,-7.33,-7.33,6.00,6.50,7.13,4.30,4.30,5.62
32.57,-1.77,-1.78,-7.38,-7.39,6.00,6.48,7.07,4.23,4.22,5.61
32.89,-1.84,-1.85,-7.44,-7.44,6.00,6.46,7.01,4.16,4.15,5.60
33.22,-1.91,-1.91,-7.48,-7.48,6.00,6.43,6.92,4.09,4.09,5.57
33.55,-1.96,-1.97,-7.52,-7.52,6.00,6.39,6.83,4.04,4.03,5.55
33.89,-2.01,-2.01,-7.54,-7.54,6.00,6.34,6.73,3.99,3.99,5.53
34.23,-2.04,-2.04,-7.55,-7.55,6.00,6.29,6.62,3.96,3.96,5.51
34.57,-2.06,-2.06,-7.55,-7.55,6.00,6.23,6.50,3.94,3.94,5.48
34.92,-2.06,-2.06,-7.52,-7.53,6.00,6.16,6.38,3.94,3.94,5.46
35.27,-2.05,-2.05,-7.50,-7.50,6.00,6.08,6.24,3.95,3.95,5.45
35.62,-2.02,-2.02,-7.45,-7.45,6.00,6.00,6.11,3.98,3.98,5.42
35.97,-1.98,-1.98,-7.38,-7.39,6.00,5.92,5.96,4.02,4.02,5.40
36.33,-1.92,-1.92,-7.31,-7.31,6.00,5.82,5.82,4.08,4.08,5.39
36.70,-1.85,-1.85,-7.22,-7.21,6.00,5.72,5.67,4.15,4.15,5.36
37.06,-1.76,-1.77,-7.10,-7.11,6.00,5.62,5.52,4.24,4.23,5.34
37.43,-1.67,-1.67,-7.00,-6.99,6.01,5.51,5.37,4.34,4.34,5.32
37.81,-1.56,-1.56,-6.86,-6.86,6.03,5.40,5.22,4.47,4.47,5.30
38.19,-1.44,-1.44,-6.72,-6.72,6.04,5.29,5.06,4.60,4.60,5.28
38.57,-1.30,-1.31,-6.57,-6.56,6.04,5.17,4.91,4.73,4.73,5.26
38.95,-1.16,-1.16,-6.40,-6.39,6.01,5.05,4.76,4.85,4.85,5.24
39.34,-1.00,-1.00,-6.21,-6.22,5.96,4.92,4.61,4.96,4.95,5.21
39.74,-0.83,-0.83,-6.02,-6.03,5.87,4.80,4.45,5.04,5.04,5.19
40.14,-0.66,-0.65,-5.84,-5.83,5.75,4.67,4.31,5.10,5.10,5.18
40.54,-0.45,-0.46,-5.61,-5.62,5.60,4.54,4.16,5.15,5.14,5.16
40.94,-0.26,-0.26,-5.40,-5.40,5.42,4.42,4.01,5.16,5.16,5.14
41.35,-0.05,-0.05,-5.17,-5.17,5.21,4.29,3.87,5.16,5.16,5.11
41.76,0.15,0.15,-4.96,-4.95,4.99,4.16,3.73,5.14,5.14,5.11
42.18,0.36,0.36,-4.73,-4.73,4.75,4.03,3.59,5.11,5.11,5.09
42.60,0.56,0.56,-4.51,-4.51,4.51,3.90,3.45,5.07,5.07,5.06
43.03,0.76,0.76,-4.30,-4.29,4.29,3.77,3.31,5.05,5.05,5.06
43.46,0.96,0.96,-4.07,-4.07,4.07,3.64,3.18,5.03,5.03,5.03
43.90,1.14,1.15,-3.86,-3.86,3.86,3.51,3.05,5.00,5.01,5.00
44.33,1.35,1.34,-3.64,-3.64,3.65,3.38,2.92,4.99,4.99,4.98
44.78,1.53,1.53,-3.44,-3.44,3.44,3.26,2.79,4.96,4.96,4.97
45.23,1.71,1.71,-3.23,-3.23,3.23,3.13,2.67,4.94,4.94,4.94
45.68,1.89,1.89,-3.03,-3.03,3.04,3.01,2.55,4.92,4.92,4.92
46.13,2.07,2.06,-2.83,-2.84,2.84,2.89,2.42,4.91,4.91,4.90
46.60,2.24,2.24,-2.66,-2.65,2.65,2.77,2.31,4.89,4.89,4.89
47.06,2.41,2.41,-2.46,-2.47,2.46,2.65,2.19,4.87,4.87,4.87
47.53,2.57,2.57,-2.28,-2.29,2.28,2.53,2.08,4.85,4.85,4.85
48.01,2.73,2.73,-2.12,-2.11,2.10,2.41,1.96,4.82,4.83,4.84
48.49,2.89,2.88,-1.92,-1.93,1.92,2.30,1.85,4.80,4.80,4.81
48.97,3.04,3.04,-1.74,-1.74,1.74,2.18,1.75,4.78,4.78,4.78
49.46,3.19,3.19,-1.56,-1.56,1.57,2.07,1.64,4.76,4.76,4.75
49.96,3.33,3.33,-1.39,-1.40,1.40,1.96,1.54,4.73,4.73,4.72
50.46,3.47,3.47,-1.25,-1.24,1.24,1.85,1.43,4.71,4.71,4.71
50.96,3.60,3.60,-1.09,-1.09,1.09,1.74,1.33,4.69,4.69,4.69
51.47,3.72,3.72,-0.94,-0.95,0.94,1.64,1.23,4.66,4.66,4.66
51.99,3.84,3.84,-0.80,-0.80,0.81,1.53,1.14,4.64,4.64,4.64
52.51,3.95,3.94,-0.68,-0.67,0.67,1.43,1.04,4.62,4.62,4.62
53.03,4.05,4.05,-0.55,-0.55,0.55,1.33,0.95,4.60,4.60,4.60
53.56,4.14,4.14,-0.43,-0.43,0.43,1.23,0.86,4.57,4.57,4.57
54.10,4.23,4.23,-0.32,-0.32,0.32,1.13,0.77,4.54,4.54,4.55
54.64,4.31,4.31,-0.21,-0.21,0.21,1.04,0.68,4.52,4.52,4.52
55.18,4.39,4.39,-0.11,-0.11,0.11,0.94,0.59,4.50,4.50,4.49
55.74,4.46,4.45,-0.01,-0.02,0.02,0.85,0.51,4.47,4.47,4.47
56.29,4.52,4.52,0.07,0.07,-0.07,0.75,0.43,4.45,4.45,4.45
56.86,4.57,4.57,0.14,0.15,-0.15,0.66,0.35,4.41,4.42,4.42
57.42,4.63,4.63,0.23,0.23,-0.23,0.57,0.27,4.40,4.39,4.39
58.00,4.68,4.67,0.30,0.30,-0.30,0.49,0.20,4.38,4.37,4.37
58.58,4.72,4.72,0.37,0.37,-0.37,0.40,0.12,4.35,4.35,4.34
59.16,4.76,4.75,0.43,0.43,-0.43,0.31,0.05,4.33,4.32,4.32
59.76,4.79,4.79,0.48,0.49,-0.49,0.23,-0.02,4.30,4.30,4.30
60.35,4.82,4.82,0.55,0.54,-0.55,0.15,-0.08,4.27,4.27,4.27
60.96,4.85,4.84,0.59,0.60,-0.60,0.06,-0.15,4.24,4.24,4.26
61.57,4.87,4.87,0.65,0.65,-0.65,-0.02,-0.21,4.21,4.21,4.21
62.18,4.89,4.89,0.71,0.70,-0.70,-0.10,-0.27,4.18,4.19,4.18
62.80,4.91,4.90,0.75,0.75,-0.75,-0.17,-0.33,4.16,4.16,4.16
63.43,4.92,4.92,0.80,0.80,-0.79,-0.25,-0.38,4.12,4.13,4.12
64.07,4.94,4.93,0.84,0.84,-0.83,-0.33,-0.44,4.10,4.10,4.10
64.71,4.95,4.95,0.87,0.87,-0.87,-0.40,-0.49,4.08,4.07,4.08
65.35,4.96,4.96,0.91,0.91,-0.91,-0.48,-0.54,4.05,4.05,4.05
66.01,4.97,4.97,0.93,0.94,-0.94,-0.55,-0.59,4.03,4.03,4.03
66.67,4.98,4.97,0.97,0.97,-0.97,-0.62,-0.63,4.01,4.01,4.00
67.33,4.98,4.98,0.99,0.99,-1.00,-0.69,-0.68,3.98,3.98,3.98
68.01,4.98,4.98,1.02,1.02,-1.02,-0.76,-0.72,3.95,3.96,3.95
68.69,4.98,4.98,1.04,1.05,-1.05,-0.83,-0.77,3.93,3.93,3.93
69.37,4.98,4.98,1.08,1.07,-1.07,-0.90,-0.81,3.91,3.90,3.90
70.07,4.98,4.97,1.10,1.10,-1.10,-0.96,-0.85,3.88,3.88,3.88
70.77,4.97,4.97,1.11,1.12,-1.12,-1.03,-0.89,3.85,3.85,3.85
71.48,4.97,4.96,1.15,1.14,-1.14,-1.10,-0.93,3.82,3.82,3.82
72.19,4.96,4.96,1.16,1.17,-1.17,-1.16,-0.97,3.79,3.79,3.79
72.91,4.95,4.95,1.19,1.19,-1.19,-1.22,-1.01,3.76,3.76,3.76
73.64,4.94,4.94,1.22,1.21,-1.22,-1.28,-1.05,3.72,3.72,3.72
74.38,4.93,4.93,1.23,1.24,-1.24,-1.34,-1.09,3.69,3.69,3.69
75.12,4.92,4.92,1.27,1.26,-1.27,-1.40,-1.13,3.65,3.65,3.65
75.87,4.91,4.91,1.29,1.29,-1.29,-1.46,-1.17,3.62,3.62,3.62
76.63,4.90,4.90,1.31,1.32,-1.31,-1.52,-1.21,3.58,3.58,3.59
77.40,4.89,4.88,1.34,1.34,-1.34,-1.58,-1.25,3.55,3.55,3.54
78.17,4.87,4.87,1.37,1.36,-1.36,-1.64,-1.29,3.51,3.51,3.49
78.95,4.85,4.85,1.38,1.38,-1.38,-1.69,-1.34,3.46,3.46,3.47
79.74,4.83,4.83,1.40,1.40,-1.41,-1.74,-1.38,3.42,3.42,3.43
80.54,4.81,4.81,1.42,1.42,-1.43,-1.80,-1.42,3.38,3.38,3.38
81.35,4.79,4.79,1.45,1.45,-1.45,-1.85,-1.47,3.34,3.34,3.34
82.16,4.77,4.77,1.47,1.47,-1.47,-1.90,-1.52,3.30,3.30,3.29
82.98,4.75,4.74,1.49,1.50,-1.49,-1.95,-1.57,3.26,3.25,3.26
83.81,4.72,4.72,1.52,1.51,-1.51,-2.00,-1.62,3.20,3.21,3.20
84.65,4.69,4.69,1.54,1.53,-1.53,-2.05,-1.67,3.16,3.16,3.15
85.50,4.66,4.66,1.54,1.55,-1.55,-2.10,-1.72,3.11,3.11,3.11
86.35,4.63,4.63,1.56,1.57,-1.57,-2.15,-1.78,3.06,3.06,3.06
87.22,4.60,4.60,1.58,1.58,-1.58,-2.19,-1.83,3.01,3.02,3.01
88.09,4.57,4.56,1.60,1.60,-1.60,-2.24,-1.89,2.97,2.97,2.96
88.97,4.53,4.53,1.60,1.61,-1.61,-2.28,-1.95,2.92,2.92,2.92
89.86,4.49,4.49,1.62,1.62,-1.62,-2.32,-2.01,2.87,2.87,2.87
90.76,4.45,4.45,1.64,1.63,-1.63,-2.36,-2.07,2.82,2.82,2.81
91.66,4.41,4.41,1.64,1.65,-1.64,-2.41,-2.14,2.77,2.77,2.77
92.58,4.37,4.36,1.66,1.65,-1.65,-2.44,-2.20,2.72,2.72,2.70
93.51,4.32,4.32,1.65,1.66,-1.66,-2.48,-2.27,2.66,2.66,2.67
94.44,4.28,4.28,1.66,1.66,-1.67,-2.52,-2.34,2.61,2.61,2.62
95.39,4.24,4.23,1.68,1.67,-1.68,-2.56,-2.41,2.56,2.56,2.56
96.34,4.19,4.19,1.69,1.69,-1.69,-2.59,-2.48,2.50,2.50,2.50
97.30,4.15,4.15,1.71,1.71,-1.71,-2.63,-2.56,2.44,2.44,2.44
98.28,4.11,4.11,1.72,1.73,-1.73,-2.66,-2.63,2.38,2.38,2.39
99.26,4.08,4.08,1.76,1.75,-1.75,-2.69,-2.70,2.33,2.33,2.32
100.25,4.05,4.04,1.78,1.78,-1.78,-2.72,-2.78,2.27,2.27,2.26
101.25,4.02,4.02,1.81,1.82,-1.81,-2.75,-2.85,2.20,2.20,2.21
102.27,4.00,4.00,1.85,1.86,-1.86,-2.78,-2.93,2.14,2.14,2.14
103.29,3.99,3.98,1.91,1.90,-1.91,-2.81,-3.01,2.08,2.08,2.08
104.32,3.98,3.98,1.96,1.96,-1.96,-2.83,-3.08,2.01,2.02,2.02
105.37,3.99,3.98,2.02,2.03,-2.03,-2.86,-3.16,1.96,1.96,1.96
106.42,4.00,4.00,2.10,2.10,-2.10,-2.88,-3.23,1.89,1.89,1.90
107.48,4.02,4.02,2.19,2.19,-2.19,-2.90,-3.31,1.83,1.83,1.83
108.56,4.05,4.05,2.28,2.28,-2.28,-2.92,-3.38,1.76,1.76,1.76
109.64,4.09,4.08,2.39,2.38,-2.39,-2.94,-3.45,1.70,1.70,1.70
110.74,4.13,4.13,2.48,2.49,-2.50,-2.96,-3.51,1.63,1.63,1.64
111.85,4.18,4.18,2.60,2.61,-2.61,-2.98,-3.58,1.56,1.56,1.58
112.97,4.24,4.24,2.75,2.73,-2.74,-2.99,-3.63,1.50,1.50,1.49
114.10,4.30,4.30,2.86,2.86,-2.86,-3.01,-3.69,1.44,1.43,1.44
115.24,4.36,4.36,2.99,2.99,-2.99,-3.02,-3.74,1.37,1.37,1.37
116.39,4.41,4.41,3.11,3.11,-3.11,-3.03,-3.79,1.30,1.30,1.30
117.55,4.47,4.46,3.23,3.23,-3.22,-3.04,-3.83,1.24,1.24,1.23
118.73,4.51,4.51,3.34,3.34,-3.34,-3.05,-3.87,1.17,1.18,1.17
119.92,4.56,4.55,3.44,3.44,-3.44,-3.06,-3.90,1.12,1.12,1.12
121.12,4.59,4.59,3.53,3.53,-3.53,-3.07,-3.93,1.06,1.06,1.05
122.33,4.61,4.61,3.62,3.62,-3.61,-3.07,-3.94,0.99,1.00,0.99
123.55,4.63,4.62,3.69,3.69,-3.69,-3.07,-3.96,0.94,0.94,0.94
124.79,4.63,4.63,3.75,3.75,-3.75,-3.08,-3.96,0.88,0.88,0.88
126.03,4.63,4.62,3.80,3.80,-3.80,-3.08,-3.96,0.82,0.82,0.83
127.29,4.61,4.61,3.84,3.85,-3.85,-3.08,-3.95,0.76,0.76,0.77
128.57,4.59,4.59,3.89,3.88,-3.88,-3.07,-3.93,0.71,0.71,0.70
129.85,4.56,4.55,3.91,3.91,-3.90,-3.07,-3.91,0.65,0.65,0.65
131.15,4.52,4.52,3.92,3.92,-3.91,-3.07,-3.88,0.60,0.60,0.60
132.46,4.47,4.47,3.92,3.92,-3.92,-3.06,-3.85,0.55,0.55,0.54
133.79,4.42,4.41,3.91,3.91,-3.91,-3.05,-3.81,0.50,0.50,0.51
135.12,4.36,4.36,3.91,3.90,-3.90,-3.04,-3.76,0.46,0.46,0.45
136.48,4.29,4.29,3.87,3.87,-3.88,-3.03,-3.71,0.41,0.41,0.42
137.84,4.23,4.22,3.85,3.85,-3.85,-3.02,-3.66,0.38,0.37,0.38
139.22,4.15,4.15,3.82,3.82,-3.82,-3.01,-3.60,0.33,0.33,0.33
140.61,4.08,4.08,3.79,3.78,-3.78,-2.99,-3.54,0.30,0.30,0.29
142.02,4.00,4.00,3.72,3.74,-3.73,-2.98,-3.47,0.26,0.26,0.27
143.44,3.93,3.92,3.68,3.69,-3.69,-2.96,-3.40,0.24,0.24,0.24
144.87,3.85,3.85,3.65,3.64,-3.64,-2.94,-3.33,0.21,0.20,0.20
146.32,3.77,3.77,3.59,3.59,-3.59,-2.92,-3.26,0.18,0.18,0.17
147.78,3.69,3.69,3.53,3.54,-3.54,-2.90,-3.19,0.15,0.15,0.15
149.26,3.61,3.61,3.48,3.49,-3.49,-2.88,-3.11,0.12,0.12,0.13
150.75,3.53,3.53,3.44,3.43,-3.43,-2.86,-3.03,0.09,0.09,0.09
152.26,3.45,3.45,3.38,3.38,-3.38,-2.83,-2.96,0.06,0.06,0.06
153.78,3.37,3.37,3.33,3.33,-3.33,-2.81,-2.88,0.04,0.04,0.04
155.32,3.29,3.29,3.28,3.27,-3.28,-2.78,-2.81,0.01,0.01,0.01
156.88,3.21,3.21,3.22,3.22,-3.23,-2.76,-2.73,-0.02,-0.02,-0.01
158.44,3.13,3.13,3.17,3.18,-3.18,-2.73,-2.65,-0.05,-0.05,-0.05
160.03,3.06,3.05,3.13,3.13,-3.13,-2.70,-2.58,-0.07,-0.07,-0.08
161.63,2.98,2.98,3.09,3.08,-3.07,-2.67,-2.50,-0.10,-0.10,-0.11
163.24,2.90,2.90,3.03,3.03,-3.02,-2.64,-2.43,-0.13,-0.13,-0.13
164.88,2.82,2.82,2.97,2.97,-2.97,-2.60,-2.36,-0.16,-0.16,-0.15
166.53,2.74,2.74,2.92,2.92,-2.92,-2.57,-2.29,-0.18,-0.18,-0.18
168.19,2.66,2.66,2.87,2.87,-2.87,-2.53,-2.22,-0.21,-0.21,-0.22
169.87,2.58,2.58,2.82,2.82,-2.82,-2.50,-2.15,-0.24,-0.24,-0.24
171.57,2.50,2.50,2.77,2.77,-2.77,-2.46,-2.08,-0.27,-0.27,-0.27
173.29,2.42,2.42,2.71,2.72,-2.72,-2.43,-2.02,-0.31,-0.31,-0.30
175.02,2.34,2.34,2.67,2.67,-2.68,-2.39,-1.95,-0.34,-0.34,-0.33
176.77,2.26,2.26,2.63,2.63,-2.63,-2.35,-1.89,-0.38,-0.38,-0.38
178.54,2.18,2.18,2.59,2.59,-2.59,-2.31,-1.83,-0.41,-0.41,-0.41
180.32,2.11,2.10,2.55,2.55,-2.55,-2.27,-1.77,-0.44,-0.44,-0.45
182.13,2.03,2.03,2.50,2.51,-2.51,-2.23,-1.72,-0.48,-0.48,-0.48
183.95,1.95,1.95,2.47,2.46,-2.46,-2.18,-1.66,-0.52,-0.52,-0.52
185.79,1.87,1.87,2.42,2.42,-2.42,-2.14,-1.61,-0.55,-0.55,-0.55
187.65,1.79,1.79,2.38,2.38,-2.37,-2.10,-1.55,-0.59,-0.59,-0.59
189.52,1.71,1.71,2.33,2.33,-2.33,-2.05,-1.50,-0.62,-0.62,-0.62
191.42,1.64,1.63,2.29,2.28,-2.28,-2.01,-1.45,-0.65,-0.65,-0.65
193.33,1.56,1.56,2.23,2.23,-2.24,-1.96,-1.40,-0.68,-0.68,-0.67
195.27,1.48,1.48,2.18,2.18,-2.19,-1.92,-1.35,-0.71,-0.71,-0.70
197.22,1.41,1.40,2.13,2.14,-2.14,-1.87,-1.31,-0.73,-0.73,-0.73
199.19,1.33,1.33,2.10,2.09,-2.08,-1.82,-1.26,-0.76,-0.76,-0.77
201.18,1.25,1.25,2.04,2.04,-2.03,-1.77,-1.22,-0.79,-0.78,-0.79
203.19,1.18,1.17,1.98,1.98,-1.98,-1.72,-1.18,-0.80,-0.81,-0.81
205.23,1.10,1.10,1.93,1.92,-1.93,-1.67,-1.13,-0.83,-0.83,-0.83
207.28,1.02,1.02,1.85,1.87,-1.87,-1.62,-1.09,-0.86,-0.85,-0.84
209.35,0.95,0.94,1.82,1.81,-1.82,-1.57,-1.06,-0.87,-0.87,-0.87
211.44,0.87,0.87,1.76,1.76,-1.76,-1.52,-1.02,-0.89,-0.89,-0.90
213.56,0.80,0.80,1.71,1.70,-1.70,-1.47,-0.98,-0.90,-0.90,-0.91
215.69,0.73,0.72,1.64,1.64,-1.64,-1.42,-0.94,-0.91,-0.92,-0.91
217.85,0.65,0.65,1.57,1.58,-1.58,-1.37,-0.91,-0.93,-0.93,-0.93
220.03,0.58,0.58,1.52,1.52,-1.52,-1.31,-0.87,-0.94,-0.94,-0.95
222.23,0.51,0.51,1.47,1.46,-1.46,-1.26,-0.84,-0.95,-0.95,-0.96
224.45,0.44,0.44,1.39,1.40,-1.39,-1.21,-0.80,-0.96,-0.96,-0.95
226.70,0.37,0.37,1.33,1.33,-1.33,-1.15,-0.77,-0.96,-0.96,-0.96
228.96,0.31,0.30,1.27,1.26,-1.26,-1.10,-0.74,-0.95,-0.96,-0.96
231.25,0.24,0.24,1.19,1.19,-1.19,-1.04,-0.71,-0.96,-0.95,-0.95
233.57,0.18,0.17,1.12,1.12,-1.12,-0.99,-0.68,-0.95,-0.95,-0.94
235.90,0.11,0.11,1.05,1.05,-1.05,-0.93,-0.65,-0.95,-0.94,-0.94
238.26,0.05,0.05,0.99,0.98,-0.98,-0.87,-0.61,-0.93,-0.93,-0.94
240.64,-0.01,-0.01,0.91,0.91,-0.91,-0.82,-0.58,-0.92,-0.92,-0.92
243.05,-0.07,-0.07,0.84,0.83,-0.83,-0.76,-0.56,-0.91,-0.91,-0.91
245.48,-0.13,-0.13,0.76,0.76,-0.76,-0.70,-0.53,-0.89,-0.89,-0.89
247.93,-0.19,-0.19,0.68,0.69,-0.68,-0.64,-0.50,-0.88,-0.88,-0.88
250.41,-0.24,-0.25,0.62,0.61,-0.61,-0.59,-0.47,-0.85,-0.86,-0.86
252.92,-0.30,-0.30,0.53,0.53,-0.53,-0.53,-0.44,-0.84,-0.84,-0.83
255.45,-0.35,-0.36,0.46,0.46,-0.46,-0.47,-0.41,-0.81,-0.81,-0.81
258.00,-0.41,-0.41,0.37,0.38,-0.38,-0.41,-0.38,-0.80,-0.79,-0.79
260.58,-0.46,-0.46,0.31,0.31,-0.31,-0.35,-0.35,-0.77,-0.77,-0.77
263.19,-0.51,-0.51,0.24,0.24,-0.23,-0.29,-0.33,-0.75,-0.75,-0.75
265.82,-0.56,-0.56,0.16,0.16,-0.16,-0.23,-0.30,-0.72,-0.72,-0.73
268.48,-0.61,-0.61,0.09,0.09,-0.09,-0.16,-0.27,-0.70,-0.70,-0.70
271.16,-0.66,-0.66,0.00,0.01,-0.01,-0.10,-0.24,-0.68,-0.68,-0.67
273.87,-0.71,-0.71,-0.06,-0.06,0.06,-0.04,-0.21,-0.66,-0.65,-0.65
276.61,-0.75,-0.75,-0.13,-0.13,0.13,0.03,-0.19,-0.63,-0.63,-0.62
279.38,-0.79,-0.80,-0.19,-0.19,0.20,0.09,-0.16,-0.60,-0.60,-0.60
282.17,-0.84,-0.84,-0.26,-0.26,0.26,0.15,-0.13,-0.58,-0.58,-0.58
284.99,-0.88,-0.88,-0.33,-0.33,0.33,0.22,-0.10,-0.55,-0.55,-0.55
287.84,-0.92,-0.92,-0.39,-0.40,0.40,0.28,-0.07,-0.53,-0.53,-0.53
290.72,-0.96,-0.96,-0.47,-0.46,0.46,0.35,-0.04,-0.50,-0.50,-0.49
293.63,-1.00,-1.00,-0.52,-0.53,0.53,0.42,-0.02,-0.47,-0.47,-0.48
296.57,-1.04,-1.04,-0.60,-0.59,0.60,0.49,0.01,-0.45,-0.44,-0.44
299.53,-1.07,-1.08,-0.66,-0.66,0.67,0.55,0.04,-0.41,-0.41,-0.42
302.53,-1.11,-1.11,-0.72,-0.73,0.73,0.62,0.07,-0.38,-0.38,-0.39
305.55,-1.15,-1.15,-0.81,-0.80,0.80,0.69,0.10,-0.35,-0.35,-0.34
308.61,-1.18,-1.19,-0.87,-0.87,0.87,0.76,0.13,-0.31,-0.32,-0.32
311.69,-1.22,-1.22,-0.94,-0.94,0.93,0.83,0.16,-0.29,-0.29,-0.28
314.81,-1.25,-1.25,-1.01,-1.00,1.00,0.90,0.19,-0.25,-0.25,-0.24
317.96,-1.28,-1.28,-1.06,-1.07,1.06,0.96,0.22,-0.22,-0.22,-0.22
321.14,-1.31,-1.31,-1.12,-1.12,1.12,1.03,0.25,-0.19,-0.19,-0.19
324.35,-1.33,-1.34,-1.17,-1.18,1.18,1.10,0.28,-0.15,-0.16,-0.16
327.59,-1.36,-1.36,-1.24,-1.23,1.23,1.16,0.31,-0.13,-0.13,-0.13
330.87,-1.39,-1.39,-1.29,-1.29,1.29,1.23,0.34,-0.11,-0.10,-0.10
334.18,-1.41,-1.42,-1.33,-1.34,1.34,1.29,0.37,-0.08,-0.08,-0.08
337.52,-1.44,-1.44,-1.39,-1.39,1.39,1.35,0.41,-0.06,-0.06,-0.06
340.90,-1.46,-1.47,-1.44,-1.43,1.44,1.41,0.44,-0.03,-0.03,-0.03
344.30,-1.49,-1.49,-1.48,-1.48,1.48,1.47,0.47,-0.01,-0.01,-0.01
347.75,-1.51,-1.51,-1.53,-1.53,1.53,1.52,0.51,0.02,0.02,0.02
351.23,-1.54,-1.54,-1.58,-1.58,1.58,1.57,0.54,0.04,0.04,0.03
354.74,-1.56,-1.57,-1.62,-1.62,1.63,1.61,0.57,0.06,0.06,0.05
358.28,-1.60,-1.60,-1.67,-1.67,1.67,1.65,0.61,0.07,0.07,0.07
361.87,-1.62,-1.63,-1.71,-1.72,1.71,1.69,0.64,0.09,0.09,0.09
365.49,-1.65,-1.65,-1.77,-1.76,1.75,1.73,0.68,0.10,0.10,0.12
369.14,-1.66,-1.66,-1.79,-1.79,1.79,1.75,0.72,0.12,0.12,0.12
372.83,-1.67,-1.67,-1.82,-1.82,1.82,1.78,0.75,0.14,0.14,0.14
376.56,-1.67,-1.67,-1.83,-1.84,1.84,1.80,0.79,0.17,0.17,0.16
380.33,-1.67,-1.67,-1.86,-1.86,1.86,1.82,0.83,0.19,0.19,0.19
384.13,-1.67,-1.67,-1.88,-1.88,1.88,1.83,0.86,0.21,0.21,0.21
387.97,-1.66,-1.66,-1.89,-1.89,1.89,1.84,0.90,0.23,0.23,0.23
391.85,-1.65,-1.65,-1.90,-1.90,1.90,1.85,0.94,0.25,0.25,0.24
395.77,-1.63,-1.64,-1.91,-1.91,1.91,1.85,0.98,0.28,0.27,0.27
399.73,-1.62,-1.62,-1.92,-1.91,1.91,1.86,1.02,0.29,0.29,0.29
403.72,-1.60,-1.60,-1.91,-1.91,1.91,1.85,1.06,0.31,0.31,0.31
407.76,-1.57,-1.58,-1.90,-1.91,1.91,1.85,1.10,0.34,0.33,0.33
411.84,-1.55,-1.55,-1.91,-1.90,1.90,1.85,1.14,0.35,0.36,0.36
415.96,-1.51,-1.52,-1.89,-1.89,1.89,1.84,1.18,0.38,0.38,0.38
420.12,-1.48,-1.48,-1.88,-1.88,1.88,1.83,1.22,0.39,0.40,0.40
424.32,-1.44,-1.44,-1.87,-1.86,1.86,1.82,1.26,0.42,0.42,0.42
428.56,-1.39,-1.39,-1.84,-1.84,1.84,1.81,1.29,0.44,0.44,0.44
432.85,-1.34,-1.34,-1.81,-1.81,1.81,1.80,1.33,0.46,0.47,0.46
437.18,-1.28,-1.29,-1.77,-1.78,1.78,1.78,1.37,0.49,0.49,0.49
441.55,-1.23,-1.23,-1.75,-1.74,1.74,1.77,1.41,0.51,0.52,0.52
445.96,-1.16,-1.17,-1.70,-1.71,1.71,1.75,1.45,0.55,0.54,0.54
450.42,-1.10,-1.11,-1.66,-1.67,1.67,1.72,1.48,0.57,0.57,0.56
454.93,-1.04,-1.04,-1.64,-1.63,1.63,1.70,1.52,0.59,0.60,0.60
459.48,-0.97,-0.97,-1.59,-1.59,1.60,1.67,1.55,0.62,0.62,0.62
464.07,-0.90,-0.91,-1.55,-1.56,1.56,1.64,1.58,0.65,0.65,0.65
468.71,-0.84,-0.84,-1.53,-1.52,1.52,1.61,1.61,0.68,0.68,0.69
473.40,-0.77,-0.77,-1.48,-1.48,1.48,1.58,1.64,0.70,0.70,0.70
478.13,-0.70,-0.70,-1.44,-1.44,1.43,1.54,1.67,0.73,0.73,0.73
482.91,-0.63,-0.63,-1.40,-1.39,1.39,1.49,1.70,0.76,0.76,0.76
487.74,-0.55,-0.56,-1.35,-1.35,1.35,1.45,1.72,0.79,0.79,0.79
492.62,-0.48,-0.48,-1.30,-1.30,1.30,1.39,1.75,0.82,0.82,0.82
497.55,-0.40,-0.41,-1.24,-1.25,1.25,1.34,1.77,0.85,0.85,0.84
502.52,-0.33,-0.33,-1.21,-1.20,1.21,1.28,1.79,0.87,0.87,0.88
507.55,-0.25,-0.26,-1.15,-1.16,1.16,1.22,1.81,0.91,0.90,0.90
512.62,-0.18,-0.18,-1.11,-1.11,1.11,1.16,1.83,0.93,0.93,0.93
517.75,-0.11,-0.11,-1.07,-1.07,1.07,1.11,1.84,0.96,0.96,0.96
