frequency,raw,error,smoothed,error_smoothed,equalization,parametric_eq,fixed_band_eq,equalized_raw,equalized_smoothed,target
20.00,-5.76,-4.55,-5.74,-4.53,4.68,3.76,1.01,-1.07,-1.06,-1.20
20.20,-5.74,-4.58,-5.75,-4.59,4.64,3.73,1.04,-1.09,-1.10,-1.15
20.40,-5.72,-4.61,-5.73,-4.63,4.60,3.71,1.07,-1.12,-1.13,-1.10
20.61,-5.69,-4.61,-5.70,-4.64,4.55,3.68,1.11,-1.13,-1.15,-1.08
20.81,-5.66,-4.64,-5.67,-4.64,4.50,3.66,1.14,-1.16,-1.17,-1.02
21.02,-5.63,-4.64,-5.59,-4.59,4.45,3.63,1.18,-1.18,-1.14,-0.99
21.23,-5.45,-4.49,-5.46,-4.50,4.39,3.61,1.22,-1.07,-1.07,-0.97
21.44,-5.27,-4.33,-5.28,-4.34,4.32,3.58,1.26,-0.95,-0.96,-0.95
21.66,-5.11,-4.18,-5.09,-4.16,4.21,3.55,1.29,-0.89,-0.88,-0.93
21.87,-4.92,-4.01,-4.94,-4.03,4.11,3.53,1.34,-0.81,-0.83,-0.92
22.09,-4.83,-3.93,-4.85,-3.95,4.02,3.50,1.38,-0.81,-0.83,-0.90
22.31,-4.82,-3.93,-4.80,-3.91,3.95,3.47,1.42,-0.86,-0.85,-0.89
22.54,-4.81,-3.92,-4.80,-3.91,3.92,3.44,1.46,-0.88,-0.87,-0.89
22.76,-4.81,-3.92,-4.80,-3.91,3.92,3.41,1.51,-0.88,-0.88,-0.89
22.99,-4.80,-3.90,-4.81,-3.91,3.95,3.38,1.56,-0.84,-0.86,-0.90
23.22,-4.84,-3.94,-4.83,-3.94,3.98,3.35,1.60,-0.86,-0.85,-0.90
23.45,-4.88,-3.98,-4.89,-3.99,3.98,3.32,1.65,-0.89,-0.90,-0.90
23.69,-4.91,-4.03,-4.93,-4.04,3.96,3.29,1.70,-0.95,-0.97,-0.89
23.92,-4.96,-4.07,-4.92,-4.03,3.90,3.26,1.75,-1.06,-1.01,-0.89
24.16,-4.83,-3.95,-4.82,-3.94,3.82,3.22,1.80,-1.01,-1.00,-0.88
24.40,-4.63,-3.76,-4.64,-3.77,3.72,3.19,1.85,-0.92,-0.93,-0.87
24.65,-4.43,-3.55,-4.42,-3.55,3.60,3.16,1.91,-0.83,-0.83,-0.88
24.89,-4.22,-3.34,-4.24,-3.37,3.47,3.12,1.96,-0.76,-0.78,-0.88
25.14,-4.10,-3.22,-4.12,-3.24,3.33,3.09,2.01,-0.77,-0.79,-0.88
25.39,-4.04,-3.17,-4.03,-3.16,3.20,3.05,2.06,-0.84,-0.83,-0.87
25.65,-3.99,-3.11,-3.98,-3.10,3.09,3.02,2.12,-0.89,-0.89,-0.87
25.91,-3.93,-3.04,-3.93,-3.05,3.01,2.98,2.17,-0.92,-0.92,-0.88
26.16,-3.86,-2.98,-3.86,-2.98,2.95,2.94,2.22,-0.92,-0.92,-0.88
26.43,-3.80,-2.91,-3.79,-2.91,2.90,2.90,2.27,-0.89,-0.89,-0.88
26.69,-3.73,-2.84,-3.72,-2.84,2.87,2.86,2.32,-0.86,-0.86,-0.89
26.96,-3.66,-2.78,-3.67,-2.79,2.83,2.82,2.37,-0.83,-0.84,-0.88
27.23,-3.64,-2.76,-3.63,-2.76,2.79,2.78,2.42,-0.85,-0.85,-0.88
27.50,-3.62,-2.74,-3.62,-2.74,2.74,2.74,2.47,-0.88,-0.88,-0.88
27.77,-3.60,-2.72,-3.60,-2.72,2.69,2.70,2.51,-0.92,-0.91,-0.89
28.05,-3.57,-2.69,-3.55,-2.66,2.63,2.65,2.55,-0.95,-0.93,-0.89
28.33,-3.47,-2.58,-3.48,-2.59,2.55,2.61,2.59,-0.92,-0.93,-0.90
28.62,-3.37,-2.47,-3.38,-2.48,2.46,2.56,2.62,-0.91,-0.92,-0.90
28.90,-3.26,-2.37,-3.25,-2.36,2.34,2.52,2.65,-0.92,-0.91,-0.89
29.19,-3.13,-2.22,-3.12,-2.23,2.21,2.47,2.68,-0.92,-0.92,-0.90
29.48,-2.97,-2.09,-2.98,-2.08,2.06,2.42,2.70,-0.92,-0.92,-0.88
29.78,-2.83,-1.93,-2.83,-1.94,1.92,2.37,2.72,-0.91,-0.91,-0.89
30.08,-2.69,-1.80,-2.70,-1.81,1.81,2.32,2.73,-0.88,-0.89,-0.89
30.38,-2.59,-1.69,-2.56,-1.67,1.73,2.27,2.74,-0.86,-0.83,-0.90
30.68,-2.49,-1.59,-2.47,-1.57,1.68,2.21,2.74,-0.80,-0.78,-0.90
30.99,-2.38,-1.48,-2.44,-1.55,1.67,2.15,2.74,-0.71,-0.77,-0.90
31.30,-2.50,-1.60,-2.51,-1.62,1.68,2.10,2.73,-0.83,-0.84,-0.90
31.61,-2.65,-1.75,-2.64,-1.74,1.71,2.04,2.72,-0.95,-0.93,-0.90
31.93,-2.79,-1.89,-2.76,-1.85,1.76,1.97,2.70,-1.04,-1.00,-0.90
32.24,-2.79,-1.88,-2.79,-1.88,1.80,1.91,2.68,-0.99,-0.98,-0.91
32.57,-2.75,-1.84,-2.76,-1.85,1.83,1.84,2.65,-0.92,-0.93,-0.91
32.89,-2.70,-1.79,-2.71,-1.80,1.81,1.77,2.62,-0.89,-0.90,-0.91
33.22,-2.67,-1.75,-2.68,-1.76,1.73,1.70,2.58,-0.93,-0.94,-0.92
33.55,-2.62,-1.71,-2.64,-1.72,1.62,1.63,2.54,-1.01,-1.02,-0.92
33.89,-2.59,-1.65,-2.54,-1.62,1.49,1.55,2.49,-1.09,-1.05,-0.93
34.23,-2.38,-1.45,-2.33,-1.40,1.38,1.47,2.44,-1.00,-0.96,-0.92
34.57,-2.08,-1.15,-2.08,-1.15,1.27,1.38,2.38,-0.82,-0.81,-0.93
34.92,-1.80,-0.86,-1.89,-0.96,1.17,1.30,2.33,-0.63,-0.72,-0.94
35.27,-1.82,-0.89,-1.87,-0.93,1.07,1.21,2.27,-0.76,-0.80,-0.94
35.62,-1.96,-1.02,-1.95,-1.01,0.99,1.11,2.20,-0.97,-0.96,-0.94
35.97,-2.10,-1.16,-2.01,-1.07,0.94,1.02,2.14,-1.17,-1.07,-0.94
36.33,-1.95,-1.02,-1.94,-1.00,0.90,0.92,2.07,-1.05,-1.04,-0.93
36.70,-1.78,-0.83,-1.81,-0.87,0.88,0.82,2.00,-0.90,-0.93,-0.95
37.06,-1.65,-0.70,-1.70,-0.76,0.83,0.71,1.93,-0.81,-0.87,-0.95
37.43,-1.68,-0.74,-1.69,-0.75,0.75,0.61,1.86,-0.92,-0.93,-0.93
37.81,-1.72,-0.78,-1.67,-0.73,0.64,0.51,1.78,-1.08,-1.03,-0.93
38.19,-1.62,-0.68,-1.56,-0.63,0.51,0.41,1.71,-1.10,-1.05,-0.94
38.57,-1.36,-0.43,-1.37,-0.44,0.39,0.31,1.64,-0.96,-0.98,-0.93
38.95,-1.10,-0.18,-1.16,-0.23,0.30,0.22,1.56,-0.80,-0.86,-0.92
39.34,-1.01,-0.09,-1.00,-0.08,0.22,0.14,1.49,-0.79,-0.78,-0.93
39.74,-0.95,-0.02,-0.94,-0.01,0.15,0.06,1.41,-0.80,-0.79,-0.93
40.14,-0.92,0.01,-0.95,-0.02,0.06,-0.00,1.34,-0.85,-0.88,-0.92
40.54,-0.96,-0.04,-0.97,-0.04,-0.02,-0.05,1.26,-0.98,-0.98,-0.93
40.94,-1.01,-0.09,-0.97,-0.04,-0.09,-0.09,1.19,-1.10,-1.06,-0.93
41.35,-0.92,0.01,-0.92,0.01,-0.15,-0.12,1.12,-1.07,-1.07,-0.93
41.76,-0.80,0.13,-0.81,0.12,-0.20,-0.14,1.05,-1.00,-1.01,-0.94
42.18,-0.67,0.26,-0.65,0.28,-0.24,-0.14,0.97,-0.92,-0.90,-0.93
42.60,-0.54,0.40,-0.54,0.40,-0.28,-0.14,0.90,-0.83,-0.82,-0.94
43.03,-0.44,0.51,-0.51,0.44,-0.32,-0.13,0.83,-0.75,-0.83,-0.95
43.46,-0.57,0.39,-0.56,0.40,-0.33,-0.12,0.76,-0.90,-0.89,-0.95
43.90,-0.70,0.27,-0.66,0.31,-0.32,-0.10,0.69,-1.03,-0.99,-0.98
44.33,-0.79,0.21,-0.78,0.21,-0.28,-0.08,0.62,-1.07,-1.06,-0.99
44.78,-0.85,0.16,-0.85,0.15,-0.20,-0.06,0.55,-1.05,-1.06,-1.01
45.23,-0.91,0.10,-0.91,0.10,-0.10,-0.04,0.49,-1.01,-1.01,-1.01
45.68,-0.98,0.04,-0.99,0.04,0.01,-0.02,0.42,-0.98,-0.98,-1.03
46.13,-1.07,-0.02,-1.07,-0.03,0.09,-0.00,0.35,-0.97,-0.98,-1.04
46.60,-1.17,-0.14,-1.17,-0.13,0.15,0.01,0.29,-1.02,-1.02,-1.04
47.06,-1.29,-0.23,-1.33,-0.28,0.20,0.03,0.22,-1.08,-1.13,-1.05
47.53,-1.45,-0.39,-1.46,-0.40,0.26,0.04,0.16,-1.19,-1.20,-1.06
48.01,-1.59,-0.54,-1.44,-0.37,0.32,0.06,0.10,-1.28,-1.12,-1.06
48.49,-1.37,-0.29,-1.36,-0.29,0.37,0.07,0.03,-1.00,-0.99,-1.07
48.97,-1.14,-0.05,-1.34,-0.25,0.40,0.08,-0.03,-0.74,-0.95,-1.09
49.46,-1.39,-0.28,-1.39,-0.29,0.39,0.09,-0.09,-0.99,-1.00,-1.11
49.96,-1.67,-0.55,-1.53,-0.41,0.36,0.10,-0.16,-1.32,-1.17,-1.12
50.46,-1.60,-0.47,-1.60,-0.48,0.29,0.11,-0.22,-1.31,-1.32,-1.12
50.96,-1.50,-0.36,-1.52,-0.39,0.21,0.11,-0.28,-1.28,-1.31,-1.13
51.47,-1.37,-0.22,-1.37,-0.22,0.16,0.12,-0.34,-1.21,-1.21,-1.15
51.99,-1.24,-0.08,-1.20,-0.05,0.12,0.13,-0.40,-1.12,-1.09,-1.16
52.51,-1.09,0.07,-1.08,0.08,0.09,0.13,-0.46,-1.00,-0.99,-1.16
53.03,-0.95,0.21,-1.03,0.13,0.07,0.14,-0.52,-0.88,-0.96,-1.15
53.56,-1.11,0.06,-1.10,0.07,0.07,0.14,-0.58,-1.04,-1.03,-1.16
54.10,-1.26,-0.09,-1.25,-0.08,0.09,0.14,-0.64,-1.17,-1.16,-1.17
54.64,-1.42,-0.24,-1.41,-0.23,0.14,0.13,-0.70,-1.29,-1.27,-1.18
55.18,-1.52,-0.33,-1.49,-0.31,0.19,0.12,-0.76,-1.32,-1.30,-1.18
55.74,-1.51,-0.31,-1.51,-0.32,0.23,0.09,-0.82,-1.28,-1.28,-1.20
56.29,-1.47,-0.27,-1.47,-0.27,0.23,0.06,-0.88,-1.23,-1.24,-1.20
56.86,-1.41,-0.20,-1.41,-0.20,0.19,0.03,-0.94,-1.22,-1.22,-1.21
57.42,-1.32,-0.09,-1.33,-0.11,0.11,-0.02,-1.00,-1.22,-1.22,-1.23
58.00,-1.24,-0.00,-1.21,0.02,-0.02,-0.09,-1.06,-1.25,-1.23,-1.23
58.58,-1.07,0.17,-1.07,0.17,-0.17,-0.16,-1.12,-1.23,-1.24,-1.24
59.16,-0.90,0.34,-0.93,0.32,-0.33,-0.24,-1.18,-1.23,-1.25,-1.25
59.76,-0.80,0.47,-0.78,0.48,-0.49,-0.34,-1.25,-1.28,-1.27,-1.26
60.35,-0.66,0.63,-0.66,0.63,-0.64,-0.44,-1.31,-1.31,-1.30,-1.30
60.96,-0.54,0.78,-0.54,0.78,-0.78,-0.55,-1.37,-1.31,-1.32,-1.32
61.57,-0.44,0.92,-0.43,0.93,-0.89,-0.67,-1.43,-1.32,-1.32,-1.36
62.18,-0.36,1.04,-0.35,1.04,-0.97,-0.80,-1.49,-1.32,-1.32,-1.39
62.80,-0.31,1.12,-0.33,1.10,-1.02,-0.93,-1.55,-1.32,-1.34,-1.43
63.43,-0.35,1.12,-0.36,1.11,-1.04,-1.06,-1.62,-1.39,-1.40,-1.46
64.07,-0.43,1.07,-0.42,1.08,-1.06,-1.19,-1.68,-1.50,-1.48,-1.50
64.71,-0.51,1.03,-0.50,1.03,-1.08,-1.33,-1.74,-1.58,-1.58,-1.54
65.35,-0.55,1.02,-0.55,1.02,-1.10,-1.46,-1.81,-1.65,-1.65,-1.57
66.01,-0.57,1.04,-0.54,1.07,-1.14,-1.59,-1.87,-1.71,-1.68,-1.60
66.67,-0.48,1.17,-0.48,1.16,-1.22,-1.73,-1.94,-1.69,-1.70,-1.64
67.33,-0.37,1.31,-0.38,1.30,-1.32,-1.86,-2.01,-1.70,-1.70,-1.68
68.01,-0.26,1.46,-0.27,1.45,-1.45,-1.99,-2.08,-1.70,-1.72,-1.71
68.69,-0.16,1.60,-0.14,1.62,-1.59,-2.11,-2.15,-1.75,-1.73,-1.75
69.37,-0.01,1.78,-0.00,1.79,-1.75,-2.24,-2.22,-1.76,-1.75,-1.80
70.07,0.15,1.99,0.13,1.96,-1.90,-2.36,-2.29,-1.75,-1.78,-1.84
70.77,0.24,2.11,0.23,2.11,-2.06,-2.49,-2.36,-1.82,-1.83,-1.87
71.48,0.30,2.22,0.30,2.22,-2.22,-2.61,-2.44,-1.91,-1.91,-1.91
72.19,0.36,2.33,0.37,2.33,-2.37,-2.73,-2.51,-2.01,-2.00,-1.97
72.91,0.46,2.47,0.48,2.49,-2.54,-2.84,-2.59,-2.08,-2.05,-2.01
73.64,0.64,2.69,0.63,2.69,-2.71,-2.96,-2.67,-2.07,-2.08,-2.06
74.38,0.80,2.90,0.79,2.89,-2.90,-3.08,-2.75,-2.09,-2.11,-2.10
75.12,0.97,3.11,0.95,3.10,-3.10,-3.19,-2.84,-2.13,-2.15,-2.15
75.87,1.09,3.28,1.10,3.29,-3.31,-3.31,-2.92,-2.22,-2.21,-2.19
76.63,1.27,3.50,1.29,3.52,-3.53,-3.42,-3.01,-2.26,-2.24,-2.23
77.40,1.48,3.75,1.49,3.76,-3.75,-3.53,-3.10,-2.26,-2.26,-2.27
78.17,1.72,4.03,1.68,3.99,-3.95,-3.65,-3.19,-2.24,-2.27,-2.32
78.95,1.85,4.18,1.84,4.18,-4.15,-3.76,-3.29,-2.30,-2.30,-2.34
79.74,1.96,4.33,1.97,4.35,-4.32,-3.87,-3.39,-2.37,-2.35,-2.37
80.54,2.08,4.49,2.09,4.50,-4.50,-3.98,-3.49,-2.41,-2.41,-2.40
81.35,2.22,4.67,2.23,4.68,-4.67,-4.09,-3.59,-2.45,-2.44,-2.45
82.16,2.36,4.84,2.35,4.82,-4.84,-4.20,-3.69,-2.48,-2.49,-2.48
82.98,2.48,4.98,2.43,4.94,-5.00,-4.31,-3.80,-2.52,-2.57,-2.50
83.81,2.50,5.04,2.54,5.08,-5.14,-4.42,-3.91,-2.64,-2.60,-2.54
84.65,2.63,5.21,2.71,5.28,-5.26,-4.53,-4.03,-2.63,-2.56,-2.57
85.50,2.91,5.51,2.89,5.49,-5.40,-4.64,-4.15,-2.48,-2.51,-2.60
86.35,3.10,5.74,3.02,5.65,-5.54,-4.74,-4.27,-2.43,-2.52,-2.63
87.22,3.04,5.71,3.02,5.68,-5.67,-4.85,-4.39,-2.63,-2.65,-2.67
88.09,2.93,5.64,2.98,5.68,-5.80,-4.96,-4.52,-2.86,-2.82,-2.70
88.97,2.93,5.67,3.04,5.78,-5.91,-5.07,-4.65,-2.98,-2.87,-2.74
89.86,3.22,6.00,3.24,6.01,-6.02,-5.17,-4.78,-2.80,-2.78,-2.77
90.76,3.53,6.34,3.43,6.24,-6.12,-5.28,-4.92,-2.59,-2.69,-2.81
91.66,3.59,6.43,3.49,6.33,-6.23,-5.39,-5.06,-2.64,-2.74,-2.83
92.58,3.39,6.28,3.45,6.33,-6.34,-5.49,-5.20,-2.95,-2.89,-2.88
93.51,3.32,6.23,3.46,6.37,-6.45,-5.60,-5.35,-3.12,-2.98,-2.91
94.44,3.58,6.51,3.57,6.51,-6.54,-5.70,-5.50,-2.97,-2.97,-2.94
95.39,3.83,6.80,3.70,6.66,-6.62,-5.81,-5.65,-2.79,-2.93,-2.96
96.34,3.78,6.79,3.76,6.76,-6.70,-5.91,-5.81,-2.91,-2.93,-3.00
97.30,3.66,6.69,3.77,6.80,-6.78,-6.02,-5.97,-3.13,-3.02,-3.03
98.28,3.77,6.83,3.76,6.82,-6.89,-6.12,-6.13,-3.12,-3.14,-3.06
99.26,3.88,6.97,3.84,6.93,-7.01,-6.22,-6.30,-3.13,-3.17,-3.09
100.25,3.92,7.04,3.98,7.10,-7.13,-6.32,-6.47,-3.21,-3.15,-3.12
101.25,4.11,7.25,4.09,7.24,-7.24,-6.42,-6.64,-3.13,-3.14,-3.15
102.27,4.23,7.41,4.20,7.38,-7.33,-6.52,-6.81,-3.10,-3.13,-3.18
103.29,4.27,7.49,4.29,7.50,-7.42,-6.62,-6.98,-3.15,-3.13,-3.22
104.32,4.32,7.56,4.33,7.57,-7.51,-6.72,-7.15,-3.18,-3.17,-3.23
105.37,4.36,7.63,4.36,7.63,-7.59,-6.82,-7.33,-3.22,-3.23,-3.26
106.42,4.36,7.66,4.37,7.66,-7.66,-6.91,-7.50,-3.30,-3.30,-3.29
107.48,4.37,7.71,4.31,7.65,-7.73,-7.01,-7.67,-3.36,-3.42,-3.33
108.56,4.28,7.66,4.33,7.70,-7.80,-7.10,-7.84,-3.51,-3.47,-3.37
109.64,4.29,7.69,4.40,7.80,-7.86,-7.19,-8.01,-3.58,-3.46,-3.40
110.74,4.61,8.05,4.52,7.96,-7.94,-7.28,-8.17,-3.32,-3.41,-3.44
111.85,4.64,8.10,4.63,8.09,-8.02,-7.37,-8.33,-3.38,-3.40,-3.46
112.97,4.69,8.20,4.65,8.15,-8.10,-7.46,-8.48,-3.40,-3.45,-3.51
114.10,4.55,8.08,4.60,8.14,-8.16,-7.55,-8.63,-3.62,-3.56,-3.54
115.24,4.57,8.14,4.63,8.20,-8.21,-7.63,-8.77,-3.63,-3.57,-3.56
116.39,4.69,8.30,4.67,8.26,-8.23,-7.72,-8.90,-3.54,-3.57,-3.60
117.55,4.76,8.38,4.69,8.31,-8.24,-7.80,-9.02,-3.48,-3.55,-3.62
118.73,4.61,8.26,4.62,8.26,-8.24,-7.88,-9.14,-3.62,-3.62,-3.65
119.92,4.50,8.15,4.53,8.19,-8.24,-7.96,-9.23,-3.74,-3.71,-3.65
121.12,4.43,8.12,4.50,8.18,-8.25,-8.04,-9.32,-3.81,-3.75,-3.68
122.33,4.57,8.27,4.53,8.22,-8.26,-8.11,-9.39,-3.69,-3.73,-3.70
123.55,4.61,8.32,4.56,8.27,-8.29,-8.19,-9.46,-3.67,-3.72,-3.70
124.79,4.57,8.29,4.60,8.32,-8.32,-8.26,-9.50,-3.74,-3.72,-3.72
126.03,4.57,8.31,4.64,8.37,-8.36,-8.33,-9.53,-3.79,-3.72,-3.73
127.29,4.71,8.45,4.67,8.41,-8.42,-8.39,-9.55,-3.71,-3.76,-3.74
128.57,4.77,8.54,4.72,8.48,-8.47,-8.46,-9.56,-3.70,-3.76,-3.76
129.85,4.67,8.45,4.77,8.54,-8.51,-8.52,-9.54,-3.84,-3.74,-3.78
131.15,4.80,8.59,4.78,8.57,-8.54,-8.58,-9.53,-3.73,-3.76,-3.79
132.46,4.82,8.63,4.78,8.58,-8.56,-8.64,-9.49,-3.73,-3.78,-3.80
133.79,4.76,8.58,4.78,8.60,-8.57,-8.70,-9.45,-3.80,-3.78,-3.81
135.12,4.71,8.55,4.73,8.56,-8.57,-8.75,-9.39,-3.86,-3.84,-3.84
136.48,4.71,8.55,4.69,8.54,-8.58,-8.80,-9.34,-3.86,-3.88,-3.84
137.84,4.66,8.52,4.69,8.55,-8.58,-8.85,-9.27,-3.91,-3.89,-3.86
139.22,4.69,8.57,4.70,8.57,-8.58,-8.90,-9.19,-3.89,-3.89,-3.88
140.61,4.72,8.62,4.71,8.60,-8.59,-8.94,-9.11,-3.87,-3.88,-3.90
142.02,4.72,8.62,4.73,8.63,-8.61,-8.99,-9.03,-3.88,-3.88,-3.89
143.44,4.72,8.64,4.73,8.64,-8.63,-9.03,-8.94,-3.90,-3.90,-3.91
144.87,4.72,8.66,4.72,8.66,-8.66,-9.06,-8.85,-3.94,-3.94,-3.94
146.32,4.72,8.69,4.72,8.68,-8.70,-9.10,-8.76,-3.97,-3.97,-3.97
147.78,4.72,8.71,4.72,8.71,-8.73,-9.13,-8.67,-4.01,-4.01,-3.98
149.26,4.72,8.74,4.72,8.75,-8.77,-9.16,-8.59,-4.05,-4.05,-4.02
150.75,4.72,8.80,4.73,8.80,-8.81,-9.19,-8.50,-4.08,-4.08,-4.07
152.26,4.72,8.85,4.73,8.85,-8.84,-9.21,-8.41,-4.11,-4.11,-4.13
153.78,4.72,8.91,4.72,8.90,-8.86,-9.23,-8.33,-4.14,-4.15,-4.18
155.32,4.67,8.92,4.68,8.92,-8.88,-9.25,-8.25,-4.21,-4.20,-4.24
156.88,4.62,8.93,4.61,8.92,-8.89,-9.27,-8.17,-4.26,-4.28,-4.31
158.44,4.51,8.89,4.53,8.91,-8.89,-9.28,-8.10,-4.37,-4.36,-4.38
160.03,4.44,8.89,4.45,8.89,-8.89,-9.30,-8.03,-4.45,-4.44,-4.45
161.63,4.38,8.90,4.37,8.88,-8.91,-9.31,-7.97,-4.53,-4.54,-4.51
163.24,4.31,8.88,4.32,8.88,-8.94,-9.31,-7.90,-4.63,-4.62,-4.56
164.88,4.29,8.90,4.31,8.91,-8.99,-9.32,-7.85,-4.69,-4.68,-4.60
166.53,4.34,8.98,4.35,8.99,-9.05,-9.32,-7.80,-4.71,-4.70,-4.64
168.19,4.42,9.09,4.44,9.11,-9.12,-9.32,-7.76,-4.70,-4.69,-4.67
169.87,4.56,9.26,4.54,9.24,-9.20,-9.32,-7.72,-4.63,-4.65,-4.70
171.57,4.60,9.31,4.62,9.32,-9.26,-9.31,-7.69,-4.65,-4.64,-4.70
173.29,4.67,9.39,4.63,9.34,-9.29,-9.30,-7.66,-4.62,-4.66,-4.71
175.02,4.60,9.31,4.63,9.34,-9.30,-9.29,-7.64,-4.69,-4.67,-4.71
176.77,4.54,9.26,4.61,9.32,-9.27,-9.28,-7.62,-4.72,-4.66,-4.71
178.54,4.62,9.33,4.54,9.25,-9.21,-9.26,-7.61,-4.59,-4.67,-4.71
180.32,4.46,9.16,4.45,9.14,-9.14,-9.24,-7.61,-4.68,-4.70,-4.70
182.13,4.29,8.97,4.34,9.02,-9.07,-9.22,-7.61,-4.77,-4.73,-4.68
183.95,4.19,8.88,4.23,8.91,-8.99,-9.20,-7.61,-4.80,-4.77,-4.68
185.79,4.19,8.87,4.17,8.85,-8.93,-9.17,-7.63,-4.73,-4.76,-4.68
187.65,4.16,8.86,4.14,8.82,-8.86,-9.15,-7.64,-4.70,-4.73,-4.69
189.52,4.07,8.77,4.13,8.82,-8.80,-9.11,-7.67,-4.73,-4.67,-4.69
191.42,4.08,8.79,4.09,8.80,-8.74,-9.08,-7.69,-4.66,-4.65,-4.71
193.33,4.08,8.80,4.01,8.73,-8.68,-9.05,-7.73,-4.59,-4.67,-4.72
195.27,3.90,8.63,3.91,8.64,-8.60,-9.01,-7.76,-4.71,-4.70,-4.73
197.22,3.71,8.46,3.77,8.51,-8.50,-8.97,-7.80,-4.79,-4.74,-4.74
199.19,3.62,8.39,3.62,8.38,-8.38,-8.93,-7.85,-4.76,-4.76,-4.76
201.18,3.51,8.29,3.48,8.26,-8.24,-8.88,-7.90,-4.73,-4.76,-4.77
203.19,3.33,8.12,3.34,8.12,-8.10,-8.84,-7.95,-4.76,-4.76,-4.78
205.23,3.15,7.95,3.17,7.96,-7.96,-8.79,-8.01,-4.81,-4.79,-4.80
207.28,3.01,7.82,3.00,7.81,-7.83,-8.74,-8.06,-4.81,-4.83,-4.80
209.35,2.86,7.69,2.86,7.68,-7.72,-8.69,-8.12,-4.86,-4.86,-4.82
211.44,2.73,7.59,2.76,7.60,-7.64,-8.63,-8.18,-4.90,-4.88,-4.85
213.56,2.69,7.54,2.70,7.55,-7.58,-8.58,-8.24,-4.89,-4.88,-4.85
215.69,2.69,7.55,2.68,7.54,-7.55,-8.52,-8.31,-4.86,-4.87,-4.86
217.85,2.69,7.56,2.68,7.55,-7.56,-8.45,-8.36,-4.86,-4.87,-4.87
220.03,2.69,7.57,2.70,7.58,-7.58,-8.39,-8.42,-4.89,-4.88,-4.87
222.23,2.72,7.62,2.75,7.63,-7.63,-8.33,-8.48,-4.91,-4.88,-4.89
224.45,2.83,7.71,2.83,7.71,-7.70,-8.26,-8.53,-4.86,-4.87,-4.88
226.70,2.93,7.81,2.92,7.79,-7.78,-8.19,-8.57,-4.84,-4.86,-4.87
228.96,3.00,7.87,3.01,7.87,-7.86,-8.12,-8.62,-4.85,-4.85,-4.86
231.25,3.08,7.93,3.08,7.93,-7.94,-8.04,-8.65,-4.85,-4.85,-4.85
233.57,3.15,7.99,3.17,8.01,-8.01,-7.97,-8.68,-4.86,-4.84,-4.83
235.90,3.27,8.09,3.28,8.10,-8.09,-7.89,-8.69,-4.81,-4.81,-4.82
238.26,3.40,8.21,3.38,8.18,-8.16,-7.81,-8.70,-4.76,-4.78,-4.81
240.64,3.46,8.25,3.46,8.24,-8.23,-7.72,-8.70,-4.77,-4.77,-4.78
243.05,3.51,8.26,3.52,8.27,-8.29,-7.64,-8.69,-4.78,-4.77,-4.75
245.48,3.57,8.30,3.60,8.32,-8.35,-7.55,-8.66,-4.78,-4.75,-4.72
247.93,3.69,8.38,3.70,8.39,-8.40,-7.46,-8.62,-4.70,-4.70,-4.69
250.41,3.81,8.49,3.79,8.45,-8.44,-7.37,-8.57,-4.62,-4.65,-4.67
252.92,3.85,8.49,3.85,8.49,-8.47,-7.28,-8.51,-4.61,-4.62,-4.64
255.45,3.86,8.48,3.87,8.49,-8.48,-7.18,-8.43,-4.62,-4.61,-4.61
258.00,3.87,8.46,3.88,8.46,-8.48,-7.09,-8.35,-4.60,-4.60,-4.58
260.58,3.88,8.45,3.89,8.46,-8.46,-6.99,-8.25,-4.57,-4.56,-4.57
263.19,3.88,8.42,3.89,8.43,-8.41,-6.88,-8.14,-4.53,-4.52,-4.53
265.82,3.88,8.40,3.85,8.36,-8.35,-6.78,-8.02,-4.46,-4.50,-4.52
268.48,3.76,8.26,3.77,8.26,-8.26,-6.67,-7.89,-4.50,-4.49,-4.49
271.16,3.65,8.11,3.68,8.14,-8.16,-6.56,-7.74,-4.50,-4.48,-4.45
273.87,3.57,8.01,3.57,8.00,-8.02,-6.45,-7.60,-4.45,-4.46,-4.44
276.61,3.47,7.87,3.47,7.87,-7.86,-6.33,-7.44,-4.39,-4.40,-4.40
279.38,3.32,7.70,3.34,7.72,-7.68,-6.22,-7.28,-4.35,-4.33,-4.37
282.17,3.19,7.54,3.16,7.50,-7.46,-6.10,-7.11,-4.27,-4.30,-4.35
284.99,2.94,7.25,2.93,7.25,-7.22,-5.98,-6.93,-4.28,-4.29,-4.31
287.84,2.65,6.95,2.71,7.00,-6.98,-5.85,-6.76,-4.32,-4.27,-4.29
290.72,2.46,6.72,2.44,6.70,-6.73,-5.72,-6.58,-4.26,-4.28,-4.25
293.63,2.25,6.48,2.19,6.42,-6.47,-5.59,-6.39,-4.21,-4.28,-4.23
296.57,1.89,6.08,1.96,6.16,-6.20,-5.46,-6.21,-4.31,-4.24,-4.19
299.53,1.73,5.90,1.72,5.89,-5.92,-5.32,-6.02,-4.19,-4.20,-4.16
302.53,1.55,5.70,1.53,5.67,-5.66,-5.18,-5.84,-4.10,-4.13,-4.14
305.55,1.32,5.42,1.37,5.47,-5.41,-5.04,-5.65,-4.08,-4.04,-4.10
308.61,1.18,5.26,1.13,5.20,-5.16,-4.90,-5.46,-3.98,-4.04,-4.08
311.69,0.86,4.92,0.83,4.87,-4.92,-4.75,-5.28,-4.06,-4.09,-4.05
314.81,0.51,4.54,0.57,4.59,-4.68,-4.60,-5.09,-4.16,-4.11,-4.02
317.96,0.26,4.27,0.37,4.38,-4.43,-4.44,-4.91,-4.16,-4.06,-4.00
321.14,0.26,4.26,0.20,4.19,-4.16,-4.28,-4.72,-3.90,-3.97,-4.00
324.35,0.08,4.06,-0.03,3.95,-3.88,-4.12,-4.54,-3.79,-3.91,-3.98
327.59,-0.37,3.59,-0.31,3.65,-3.57,-3.96,-4.36,-3.94,-3.88,-3.96
330.87,-0.74,3.22,-0.65,3.30,-3.26,-3.79,-4.18,-4.00,-3.91,-3.95
334.18,-0.93,3.01,-0.96,2.97,-2.94,-3.62,-4.01,-3.87,-3.91,-3.93
337.52,-1.23,2.70,-1.28,2.64,-2.61,-3.45,-3.84,-3.83,-3.89,-3.92
340.90,-1.63,2.27,-1.66,2.25,-2.27,-3.27,-3.66,-3.90,-3.93,-3.91
344.30,-2.09,1.81,-2.02,1.88,-1.93,-3.09,-3.49,-4.02,-3.95,-3.90
347.75,-2.36,1.54,-2.27,1.63,-1.63,-2.91,-3.33,-3.99,-3.90,-3.90
351.23,-2.42,1.47,-2.52,1.38,-1.39,-2.72,-3.16,-3.80,-3.90,-3.89
354.74,-2.62,1.28,-2.74,1.15,-1.20,-2.54,-3.00,-3.81,-3.94,-3.89
358.28,-3.08,0.81,-2.88,1.00,-1.07,-2.35,-2.84,-4.15,-3.96,-3.88
361.87,-3.05,0.84,-2.98,0.90,-1.00,-2.16,-2.68,-4.05,-3.98,-3.88
365.49,-2.83,1.05,-3.03,0.85,-0.97,-1.96,-2.52,-3.80,-4.00,-3.87
369.14,-2.97,0.92,-2.91,0.98,-0.96,-1.77,-2.36,-3.92,-3.87,-3.89
372.83,-3.03,0.86,-2.84,1.05,-0.95,-1.58,-2.21,-3.97,-3.78,-3.89
376.56,-2.64,1.25,-2.84,1.05,-0.93,-1.38,-2.06,-3.56,-3.77,-3.89
380.33,-2.84,1.04,-2.85,1.03,-0.90,-1.19,-1.91,-3.73,-3.75,-3.88
384.13,-3.03,0.85,-2.96,0.92,-0.85,-1.00,-1.76,-3.87,-3.81,-3.88
387.97,-3.18,0.71,-3.17,0.71,-0.77,-0.81,-1.62,-3.94,-3.94,-3.89
391.85,-3.32,0.59,-3.31,0.59,-0.66,-0.62,-1.48,-3.97,-3.96,-3.90
395.77,-3.42,0.48,-3.43,0.47,-0.52,-0.44,-1.34,-3.93,-3.95,-3.89
399.73,-3.55,0.36,-3.55,0.35,-0.36,-0.26,-1.20,-3.91,-3.91,-3.90
403.72,-3.69,0.22,-3.67,0.24,-0.21,-0.09,-1.06,-3.89,-3.87,-3.90
407.76,-3.80,0.12,-3.80,0.11,-0.06,0.08,-0.93,-3.85,-3.86,-3.91
411.84,-3.93,-0.01,-3.95,-0.03,0.08,0.24,-0.80,-3.85,-3.87,-3.91
415.96,-4.11,-0.19,-4.11,-0.19,0.19,0.38,-0.67,-3.91,-3.91,-3.92
420.12,-4.28,-0.36,-4.28,-0.36,0.30,0.52,-0.55,-3.98,-3.98,-3.92
424.32,-4.40,-0.48,-4.37,-0.46,0.37,0.64,-0.43,-4.03,-4.00,-3.92
428.56,-4.45,-0.54,-4.39,-0.48,0.41,0.76,-0.31,-4.04,-3.98,-3.91
432.85,-4.31,-0.41,-4.40,-0.51,0.43,0.86,-0.20,-3.87,-3.97,-3.90
437.18,-4.35,-0.46,-4.35,-0.47,0.46,0.94,-0.09,-3.89,-3.89,-3.89
441.55,-4.42,-0.57,-4.28,-0.43,0.48,1.01,0.02,-3.94,-3.80,-3.85
445.96,-4.14,-0.32,-4.24,-0.42,0.51,1.07,0.12,-3.63,-3.73,-3.82
450.42,-4.19,-0.40,-4.15,-0.37,0.54,1.11,0.21,-3.64,-3.61,-3.79
