frequency,raw,smoothed,error,error_smoothed,equalization,parametric_eq,fixed_band_eq,equalized_raw,equalized_smoothed,target
20.00,-15.05,-15.04,-19.38,-19.37,6.00,6.00,2.65,-9.05,-9.04,4.33
20.20,-14.96,-14.96,-19.31,-19.32,6.00,6.00,2.72,-8.96,-8.96,4.36
20.40,-14.87,-14.87,-19.25,-19.26,6.00,6.01,2.80,-8.87,-8.87,4.39
20.61,-14.77,-14.78,-19.18,-19.19,6.00,6.01,2.88,-8.77,-8.78,4.41
20.81,-14.68,-14.68,-19.11,-19.12,6.00,6.01,2.96,-8.68,-8.68,4.44
21.02,-14.59,-14.57,-19.05,-19.03,6.00,6.01,3.04,-8.59,-8.57,4.47
21.23,-14.44,-14.44,-18.91,-18.92,6.00,6.01,3.13,-8.44,-8.44,4.48
21.44,-14.28,-14.29,-18.77,-18.78,6.00,6.02,3.22,-8.28,-8.29,4.49
21.66,-14.14,-14.14,-18.63,-18.63,6.00,6.02,3.31,-8.14,-8.14,4.49
21.87,-13.99,-13.99,-18.49,-18.49,6.00,6.02,3.40,-7.99,-7.99,4.49
22.09,-13.85,-13.86,-18.36,-18.36,6.00,6.02,3.50,-7.85,-7.86,4.50
22.31,-13.74,-13.74,-18.25,-18.25,6.00,6.02,3.60,-7.74,-7.74,4.50
22.54,-13.64,-13.64,-18.14,-18.14,6.00,6.03,3.70,-7.64,-7.64,4.50
22.76,-13.53,-13.53,-18.03,-18.03,6.00,6.03,3.80,-7.53,-7.53,4.50
22.99,-13.42,-13.40,-17.91,-17.90,6.00,6.03,3.91,-7.42,-7.40,4.49
23.22,-13.27,-13.27,-17.76,-17.76,6.00,6.03,4.02,-7.27,-7.27,4.49
23.45,-13.12,-13.12,-17.60,-17.61,6.00,6.03,4.13,-7.12,-7.12,4.49
23.69,-12.97,-12.96,-17.46,-17.45,6.00,6.04,4.25,-6.97,-6.96,4.49
23.92,-12.81,-12.82,-17.30,-17.32,6.00,6.04,4.36,-6.81,-6.82,4.49
24.16,-12.70,-12.70,-17.19,-17.19,6.00,6.04,4.48,-6.70,-6.70,4.50
24.40,-12.59,-12.59,-17.09,-17.08,6.00,6.04,4.60,-6.59,-6.59,4.50
24.65,-12.50,-12.49,-16.98,-16.98,6.00,6.04,4.73,-6.50,-6.49,4.49
24.89,-12.38,-12.39,-16.87,-16.88,6.00,6.05,4.85,-6.38,-6.39,4.48
25.14,-12.30,-12.30,-16.78,-16.78,6.00,6.05,4.98,-6.30,-6.30,4.48
25.39,-12.20,-12.21,-16.69,-16.69,6.00,6.05,5.10,-6.20,-6.21,4.48
25.65,-12.12,-12.12,-16.60,-16.60,6.00,6.05,5.23,-6.12,-6.12,4.48
25.91,-12.03,-12.02,-16.50,-16.49,6.00,6.06,5.36,-6.03,-6.02,4.47
26.16,-11.90,-11.90,-16.37,-16.37,6.00,6.06,5.49,-5.90,-5.90,4.47
26.43,-11.77,-11.76,-16.24,-16.23,6.00,6.06,5.61,-5.77,-5.76,4.47
26.69,-11.63,-11.63,-16.09,-16.09,6.00,6.06,5.74,-5.63,-5.63,4.47
26.96,-11.49,-11.50,-15.95,-15.97,6.00,6.07,5.87,-5.49,-5.50,4.47
27.23,-11.41,-11.40,-15.87,-15.87,6.00,6.07,5.99,-5.41,-5.40,4.46
27.50,-11.33,-11.32,-15.79,-15.78,6.00,6.07,6.11,-5.33,-5.32,4.46
27.77,-11.25,-11.25,-15.70,-15.70,6.00,6.07,6.23,-5.25,-5.25,4.45
28.05,-11.18,-11.18,-15.63,-15.62,6.00,6.08,6.34,-5.18,-5.18,4.45
28.33,-11.11,-11.11,-15.54,-15.55,6.00,6.08,6.45,-5.11,-5.11,4.44
28.62,-11.04,-11.04,-15.47,-15.48,6.00,6.08,6.56,-5.04,-5.04,4.44
28.90,-10.97,-10.96,-15.40,-15.39,6.00,6.08,6.65,-4.97,-4.96,4.44
29.19,-10.86,-10.85,-15.28,-15.28,6.00,6.09,6.75,-4.86,-4.85,4.42
29.48,-10.73,-10.73,-15.16,-15.15,6.00,6.09,6.83,-4.73,-4.73,4.43
29.78,-10.59,-10.59,-15.01,-15.01,6.00,6.09,6.91,-4.59,-4.59,4.42
30.08,-10.46,-10.46,-14.88,-14.88,6.00,6.09,6.97,-4.46,-4.46,4.42
30.38,-10.35,-10.34,-14.75,-14.75,6.00,6.10,7.03,-4.35,-4.34,4.41
30.68,-10.23,-10.23,-14.63,-14.63,6.00,6.10,7.08,-4.23,-4.23,4.40
30.99,-10.12,-10.12,-14.51,-14.52,6.00,6.10,7.12,-4.12,-4.12,4.39
31.30,-10.02,-10.02,-14.41,-14.41,6.00,6.11,7.15,-4.02,-4.02,4.39
31.61,-9.93,-9.92,-14.31,-14.30,6.00,6.11,7.17,-3.93,-3.92,4.39
31.93,-9.83,-9.83,-14.20,-14.21,6.00,6.11,7.18,-3.83,-3.83,4.38
32.24,-9.76,-9.76,-14.12,-14.13,6.00,6.11,7.18,-3.76,-3.76,4.36
32.57,-9.69,-9.68,-14.05,-14.04,6.00,6.12,7.17,-3.69,-3.68,4.36
32.89,-9.62,-9.61,-13.97,-13.97,6.00,6.12,7.16,-3.62,-3.61,4.36
33.22,-9.54,-9.54,-13.88,-13.89,6.00,6.12,7.13,-3.54,-3.54,4.35
33.55,-9.46,-9.46,-13.80,-13.80,6.00,6.12,7.10,-3.46,-3.46,4.34
33.89,-9.38,-9.37,-13.71,-13.70,6.00,6.13,7.06,-3.38,-3.37,4.33
34.23,-9.26,-9.25,-13.58,-13.58,6.00,6.13,7.02,-3.26,-3.25,4.33
34.57,-9.13,-9.13,-13.44,-13.44,6.00,6.13,6.97,-3.13,-3.13,4.31
34.92,-9.00,-9.00,-13.30,-13.31,6.00,6.13,6.92,-3.00,-3.00,4.30
35.27,-8.89,-8.89,-13.19,-13.18,6.00,6.14,6.86,-2.89,-2.89,4.30
35.62,-8.79,-8.78,-13.07,-13.07,6.00,6.14,6.80,-2.79,-2.78,4.28
35.97,-8.69,-8.69,-12.96,-12.96,6.00,6.14,6.73,-2.69,-2.69,4.27
36.33,-8.60,-8.60,-12.86,-12.86,6.00,6.14,6.67,-2.60,-2.60,4.27
36.70,-8.51,-8.50,-12.76,-12.76,6.00,6.15,6.60,-2.51,-2.50,4.25
37.06,-8.42,-8.41,-12.65,-12.65,6.00,6.15,6.54,-2.42,-2.41,4.24
37.43,-8.31,-8.31,-12.55,-12.54,6.00,6.15,6.47,-2.31,-2.31,4.23
37.81,-8.22,-8.22,-12.44,-12.44,6.00,6.15,6.40,-2.22,-2.22,4.22
38.19,-8.14,-8.13,-12.34,-12.34,6.00,6.16,6.34,-2.14,-2.13,4.21
38.57,-8.07,-8.06,-12.27,-12.26,6.00,6.16,6.28,-2.07,-2.06,4.20
38.95,-8.00,-8.01,-12.18,-12.20,6.00,6.16,6.22,-2.00,-2.01,4.19
39.34,-7.98,-7.98,-12.15,-12.15,6.00,6.16,6.16,-1.98,-1.98,4.17
39.74,-7.97,-7.95,-12.12,-12.11,6.00,6.16,6.10,-1.97,-1.95,4.16
40.14,-7.93,-7.92,-12.08,-12.06,6.00,6.17,6.05,-1.93,-1.92,4.15
40.54,-7.85,-7.85,-11.98,-11.99,6.00,6.17,6.00,-1.85,-1.85,4.13
40.94,-7.77,-7.76,-11.89,-11.89,6.00,6.17,5.96,-1.77,-1.76,4.13
41.35,-7.68,-7.67,-11.79,-11.78,6.00,6.17,5.92,-1.68,-1.67,4.11
41.76,-7.58,-7.59,-11.68,-11.70,6.00,6.17,5.88,-1.58,-1.59,4.11
42.18,-7.53,-7.55,-11.63,-11.64,6.00,6.17,5.85,-1.53,-1.55,4.10
42.60,-7.53,-7.52,-11.61,-11.61,6.00,6.18,5.82,-1.53,-1.52,4.08
43.03,-7.52,-7.49,-11.59,-11.56,6.00,6.18,5.79,-1.52,-1.49,4.08
43.46,-7.42,-7.42,-11.48,-11.48,6.00,6.18,5.77,-1.42,-1.42,4.06
43.90,-7.32,-7.33,-11.35,-11.36,6.00,6.18,5.76,-1.32,-1.33,4.03
44.33,-7.23,-7.22,-11.24,-11.23,6.00,6.18,5.74,-1.23,-1.22,4.01
44.78,-7.13,-7.13,-11.12,-11.13,6.00,6.18,5.74,-1.13,-1.13,4.00
45.23,-7.06,-7.07,-11.03,-11.05,6.00,6.18,5.73,-1.06,-1.07,3.98
45.68,-7.03,-7.02,-10.99,-10.98,6.00,6.18,5.73,-1.03,-1.02,3.96
46.13,-6.99,-6.97,-10.93,-10.92,6.00,6.18,5.74,-0.99,-0.97,3.94
46.60,-6.91,-6.91,-10.84,-10.84,6.00,6.18,5.75,-0.91,-0.91,3.93
47.06,-6.84,-6.82,-10.75,-10.73,6.00,6.18,5.76,-0.84,-0.82,3.91
47.53,-6.73,-6.72,-10.62,-10.62,6.00,6.18,5.78,-0.73,-0.72,3.89
48.01,-6.62,-6.65,-10.50,-10.53,6.00,6.18,5.80,-0.62,-0.65,3.88
48.49,-6.62,-6.61,-10.47,-10.46,6.00,6.18,5.82,-0.62,-0.61,3.85
48.97,-6.62,-6.61,-10.44,-10.43,6.00,6.18,5.85,-0.62,-0.61,3.82
49.46,-6.62,-6.62,-10.40,-10.41,6.00,6.17,5.88,-0.62,-0.62,3.79
49.96,-6.62,-6.62,-10.37,-10.38,6.00,6.17,5.92,-0.62,-0.62,3.76
50.46,-6.60,-6.60,-10.34,-10.34,6.00,6.17,5.96,-0.60,-0.60,3.74
50.96,-6.57,-6.54,-10.29,-10.26,6.00,6.17,6.00,-0.57,-0.54,3.72
51.47,-6.48,-6.48,-10.16,-10.17,6.00,6.17,6.04,-0.48,-0.48,3.69
51.99,-6.39,-6.43,-10.05,-10.10,6.00,6.16,6.08,-0.39,-0.43,3.66
52.51,-6.39,-6.38,-10.04,-10.03,6.00,6.16,6.13,-0.39,-0.38,3.65
53.03,-6.38,-6.33,-10.00,-9.95,6.00,6.16,6.17,-0.38,-0.33,3.63
53.56,-6.26,-6.26,-9.86,-9.87,6.00,6.15,6.22,-0.26,-0.26,3.60
54.10,-6.16,-6.19,-9.73,-9.77,6.00,6.15,6.27,-0.16,-0.19,3.58
54.64,-6.16,-6.16,-9.71,-9.70,6.00,6.14,6.31,-0.16,-0.16,3.55
55.18,-6.16,-6.16,-9.68,-9.68,6.00,6.14,6.36,-0.16,-0.16,3.52
55.74,-6.16,-6.14,-9.65,-9.64,6.00,6.13,6.40,-0.16,-0.14,3.50
56.29,-6.10,-6.08,-9.57,-9.55,6.00,6.13,6.44,-0.10,-0.08,3.48
56.86,-5.97,-5.96,-9.42,-9.41,6.00,6.12,6.48,0.03,0.04,3.45
57.42,-5.84,-5.84,-9.26,-9.27,6.00,6.11,6.52,0.16,0.16,3.42
58.00,-5.71,-5.75,-9.11,-9.16,6.00,6.11,6.55,0.29,0.25,3.40
58.58,-5.71,-5.68,-9.09,-9.07,6.00,6.10,6.58,0.29,0.32,3.38
59.16,-5.67,-5.62,-9.03,-8.98,6.00,6.09,6.60,0.33,0.38,3.36
59.76,-5.54,-5.56,-8.88,-8.90,6.00,6.08,6.62,0.46,0.44,3.34
60.35,-5.49,-5.50,-8.80,-8.81,6.00,6.07,6.63,0.51,0.50,3.31
60.96,-5.48,-5.47,-8.76,-8.75,6.00,6.06,6.64,0.52,0.53,3.29
61.57,-5.48,-5.47,-8.72,-8.72,6.00,6.05,6.64,0.52,0.53,3.24
62.18,-5.48,-5.48,-8.69,-8.69,6.00,6.04,6.63,0.52,0.52,3.21
62.80,-5.48,-5.48,-8.66,-8.66,6.00,6.03,6.62,0.52,0.52,3.19
63.43,-5.48,-5.48,-8.63,-8.63,6.00,6.02,6.60,0.52,0.52,3.15
64.07,-5.48,-5.48,-8.60,-8.60,6.00,6.01,6.57,0.52,0.52,3.12
64.71,-5.48,-5.49,-8.57,-8.59,6.00,6.00,6.54,0.52,0.51,3.10
65.35,-5.48,-5.48,-8.55,-8.55,6.00,5.98,6.50,0.52,0.52,3.07
66.01,-5.48,-5.43,-8.52,-8.47,6.00,5.97,6.45,0.52,0.57,3.04
66.67,-5.33,-5.34,-8.34,-8.36,6.00,5.95,6.41,0.67,0.66,3.01
67.33,-5.22,-5.24,-8.20,-8.22,6.00,5.94,6.35,0.78,0.76,2.98
68.01,-5.15,-5.13,-8.10,-8.08,6.00,5.92,6.29,0.85,0.87,2.95
68.69,-5.06,-5.08,-7.98,-8.00,6.00,5.91,6.23,0.94,0.92,2.92
69.37,-5.02,-5.03,-7.91,-7.92,6.00,5.89,6.16,0.98,0.97,2.89
70.07,-5.00,-4.95,-7.85,-7.81,6.00,5.87,6.09,1.00,1.05,2.86
70.77,-4.85,-4.83,-7.68,-7.66,6.00,5.85,6.02,1.15,1.17,2.83
71.48,-4.69,-4.72,-7.49,-7.52,6.00,5.83,5.95,1.31,1.28,2.80
72.19,-4.57,-4.60,-7.33,-7.36,6.00,5.81,5.87,1.43,1.40,2.76
72.91,-4.57,-4.50,-7.29,-7.23,6.00,5.79,5.79,1.43,1.50,2.73
73.64,-4.42,-4.43,-7.11,-7.12,6.00,5.77,5.72,1.58,1.57,2.69
74.38,-4.34,-4.37,-7.00,-7.03,6.00,5.75,5.64,1.66,1.63,2.66
75.12,-4.34,-4.33,-6.96,-6.95,6.00,5.73,5.56,1.66,1.67,2.62
75.87,-4.34,-4.33,-6.93,-6.93,6.00,5.70,5.49,1.66,1.67,2.60
76.63,-4.34,-4.34,-6.90,-6.90,6.00,5.68,5.42,1.66,1.66,2.57
77.40,-4.34,-4.34,-6.87,-6.87,6.00,5.65,5.34,1.66,1.66,2.53
78.17,-4.34,-4.34,-6.83,-6.84,6.00,5.63,5.27,1.66,1.66,2.49
78.95,-4.34,-4.34,-6.81,-6.80,6.00,5.60,5.21,1.66,1.66,2.47
79.74,-4.34,-4.34,-6.77,-6.77,6.00,5.57,5.14,1.66,1.66,2.44
80.54,-4.34,-4.34,-6.74,-6.74,6.00,5.55,5.08,1.66,1.66,2.40
81.35,-4.34,-4.34,-6.70,-6.71,6.00,5.52,5.02,1.66,1.66,2.37
82.16,-4.34,-4.34,-6.67,-6.67,6.00,5.49,4.96,1.66,1.66,2.33
82.98,-4.34,-4.34,-6.64,-6.63,6.00,5.46,4.90,1.66,1.66,2.31
83.81,-4.34,-4.34,-6.59,-6.60,6.00,5.43,4.85,1.66,1.66,2.26
84.65,-4.34,-4.34,-6.56,-6.56,6.00,5.40,4.80,1.66,1.66,2.22
85.50,-4.34,-4.34,-6.53,-6.52,6.00,5.37,4.76,1.66,1.66,2.19
86.35,-4.34,-4.34,-6.49,-6.49,6.00,5.34,4.72,1.67,1.67,2.15
87.22,-4.34,-4.35,-6.45,-6.46,6.00,5.30,4.68,1.67,1.65,2.11
88.09,-4.34,-4.34,-6.41,-6.41,6.01,5.27,4.65,1.67,1.67,2.07
88.97,-4.34,-4.28,-6.38,-6.32,6.01,5.24,4.62,1.67,1.72,2.04
89.86,-4.19,-4.21,-6.19,-6.21,6.01,5.20,4.59,1.82,1.80,2.00
90.76,-4.12,-4.14,-6.06,-6.10,6.00,5.17,4.57,1.89,1.86,1.95
91.66,-4.11,-4.10,-6.02,-6.01,5.99,5.13,4.55,1.89,1.89,1.92
92.58,-4.11,-4.10,-5.97,-5.97,5.97,5.10,4.53,1.86,1.87,1.86
93.51,-4.11,-4.11,-5.93,-5.94,5.92,5.06,4.51,1.82,1.81,1.83
94.44,-4.11,-4.12,-5.89,-5.90,5.86,5.03,4.50,1.76,1.75,1.78
95.39,-4.11,-4.10,-5.85,-5.84,5.79,4.99,4.50,1.69,1.69,1.74
96.34,-4.08,-4.05,-5.76,-5.73,5.71,4.95,4.49,1.64,1.67,1.69
97.30,-3.97,-3.97,-5.61,-5.62,5.63,4.91,4.49,1.66,1.66,1.64
98.28,-3.88,-3.91,-5.47,-5.50,5.55,4.88,4.49,1.67,1.64,1.59
99.26,-3.88,-3.87,-5.43,-5.42,5.47,4.84,4.50,1.59,1.60,1.55
100.25,-3.88,-3.87,-5.38,-5.37,5.40,4.80,4.50,1.53,1.53,1.50
101.25,-3.88,-3.88,-5.33,-5.33,5.34,4.76,4.51,1.47,1.47,1.46
102.27,-3.88,-3.88,-5.29,-5.28,5.29,4.73,4.52,1.41,1.41,1.41
103.29,-3.88,-3.88,-5.23,-5.24,5.23,4.69,4.53,1.35,1.35,1.36
104.32,-3.88,-3.88,-5.19,-5.20,5.17,4.65,4.55,1.29,1.28,1.32
105.37,-3.88,-3.88,-5.15,-5.16,5.10,4.61,4.56,1.23,1.22,1.27
106.42,-3.88,-3.84,-5.10,-5.07,5.03,4.57,4.57,1.15,1.19,1.23
107.48,-3.79,-3.78,-4.97,-4.95,4.95,4.53,4.59,1.16,1.17,1.18
108.56,-3.67,-3.71,-4.79,-4.83,4.87,4.50,4.61,1.20,1.16,1.12
109.64,-3.66,-3.66,-4.73,-4.74,4.79,4.46,4.62,1.13,1.13,1.08
110.74,-3.66,-3.65,-4.69,-4.67,4.71,4.42,4.64,1.05,1.06,1.03
111.85,-3.66,-3.66,-4.64,-4.64,4.64,4.38,4.65,0.98,0.98,0.99
112.97,-3.66,-3.66,-4.58,-4.58,4.57,4.34,4.66,0.91,0.91,0.92
114.10,-3.66,-3.66,-4.53,-4.53,4.51,4.31,4.67,0.86,0.86,0.88
115.24,-3.66,-3.66,-4.48,-4.48,4.47,4.27,4.68,0.81,0.81,0.82
116.39,-3.66,-3.66,-4.42,-4.42,4.42,4.23,4.69,0.76,0.76,0.77
117.55,-3.66,-3.66,-4.37,-4.37,4.37,4.20,4.69,0.71,0.71,0.71
118.73,-3.66,-3.66,-4.31,-4.32,4.32,4.16,4.70,0.66,0.66,0.66
119.92,-3.66,-3.66,-4.27,-4.27,4.27,4.12,4.69,0.61,0.61,0.61
121.12,-3.66,-3.66,-4.22,-4.22,4.22,4.09,4.69,0.56,0.56,0.56
122.33,-3.66,-3.66,-4.17,-4.17,4.17,4.05,4.68,0.51,0.51,0.51
123.55,-3.66,-3.66,-4.12,-4.12,4.12,4.02,4.67,0.47,0.47,0.47
124.79,-3.66,-3.66,-4.07,-4.07,4.08,3.98,4.65,0.42,0.42,0.42
126.03,-3.66,-3.66,-4.02,-4.02,4.03,3.95,4.63,0.38,0.38,0.37
127.29,-3.66,-3.66,-3.97,-3.97,3.98,3.92,4.60,0.32,0.32,0.32
128.57,-3.66,-3.66,-3.91,-3.92,3.92,3.88,4.57,0.26,0.26,0.26
129.85,-3.66,-3.67,-3.86,-3.88,3.85,3.85,4.54,0.19,0.18,0.21
131.15,-3.66,-3.66,-3.82,-3.82,3.77,3.82,4.50,0.11,0.11,0.16
132.46,-3.66,-3.61,-3.77,-3.72,3.69,3.79,4.46,0.03,0.08,0.11
133.79,-3.52,-3.53,-3.59,-3.60,3.61,3.76,4.42,0.09,0.07,0.08
135.12,-3.43,-3.46,-3.45,-3.49,3.53,3.73,4.37,0.10,0.06,0.02
136.48,-3.43,-3.42,-3.41,-3.40,3.45,3.70,4.32,0.02,0.03,-0.01
137.84,-3.43,-3.42,-3.37,-3.35,3.38,3.67,4.27,-0.05,-0.04,-0.06
139.22,-3.43,-3.43,-3.31,-3.32,3.32,3.64,4.22,-0.11,-0.11,-0.11
140.61,-3.43,-3.43,-3.27,-3.28,3.27,3.61,4.16,-0.16,-0.16,-0.16
142.02,-3.43,-3.43,-3.25,-3.24,3.22,3.58,4.10,-0.20,-0.20,-0.18
143.44,-3.43,-3.43,-3.21,-3.21,3.19,3.56,4.04,-0.24,-0.24,-0.22
144.87,-3.43,-3.43,-3.17,-3.17,3.15,3.53,3.99,-0.28,-0.28,-0.26
146.32,-3.43,-3.43,-3.13,-3.13,3.12,3.50,3.93,-0.31,-0.31,-0.30
147.78,-3.43,-3.43,-3.10,-3.09,3.10,3.48,3.87,-0.33,-0.33,-0.33
149.26,-3.43,-3.41,-3.06,-3.04,3.08,3.45,3.81,-0.35,-0.33,-0.37
150.75,-3.43,-3.43,-3.01,-3.02,3.07,3.43,3.75,-0.35,-0.36,-0.41
152.26,-3.44,-3.48,-2.99,-3.03,3.07,3.40,3.69,-0.37,-0.42,-0.45
153.78,-3.58,-3.55,-3.09,-3.07,3.06,3.38,3.63,-0.52,-0.49,-0.48
155.32,-3.65,-3.62,-3.12,-3.10,3.05,3.36,3.57,-0.60,-0.57,-0.53
156.88,-3.66,-3.66,-3.09,-3.10,3.03,3.33,3.51,-0.62,-0.63,-0.56
158.44,-3.66,-3.66,-3.05,-3.06,3.01,3.31,3.46,-0.65,-0.65,-0.61
160.03,-3.66,-3.66,-3.01,-3.01,2.99,3.29,3.40,-0.67,-0.67,-0.65
161.63,-3.66,-3.65,-2.97,-2.96,2.96,3.26,3.35,-0.69,-0.69,-0.69
163.24,-3.66,-3.65,-2.93,-2.92,2.95,3.24,3.30,-0.71,-0.70,-0.73
164.88,-3.66,-3.66,-2.90,-2.90,2.95,3.22,3.25,-0.71,-0.71,-0.76
166.53,-3.70,-3.71,-2.90,-2.91,2.97,3.20,3.21,-0.73,-0.74,-0.80
168.19,-3.81,-3.80,-2.97,-2.96,3.02,3.18,3.16,-0.79,-0.78,-0.84
169.87,-3.94,-3.94,-3.06,-3.06,3.10,3.16,3.12,-0.84,-0.84,-0.88
171.57,-4.08,-4.08,-3.16,-3.17,3.18,3.13,3.08,-0.89,-0.89,-0.91
173.29,-4.25,-4.23,-3.30,-3.28,3.27,3.11,3.04,-0.97,-0.96,-0.95
175.02,-4.34,-4.38,-3.35,-3.39,3.35,3.09,3.01,-0.98,-1.02,-0.98
176.77,-4.53,-4.49,-3.50,-3.46,3.41,3.07,2.97,-1.12,-1.08,-1.03
178.54,-4.57,-4.56,-3.49,-3.49,3.43,3.05,2.94,-1.13,-1.13,-1.07
180.32,-4.57,-4.59,-3.46,-3.48,3.41,3.02,2.91,-1.15,-1.18,-1.11
182.13,-4.57,-4.53,-3.43,-3.39,3.36,3.00,2.89,-1.21,-1.18,-1.14
183.95,-4.48,-4.48,-3.30,-3.30,3.28,2.98,2.86,-1.20,-1.20,-1.18
185.79,-4.35,-4.39,-3.13,-3.17,3.17,2.95,2.84,-1.17,-1.21,-1.21
187.65,-4.34,-4.27,-3.08,-3.02,3.07,2.93,2.82,-1.27,-1.21,-1.25
189.52,-4.16,-4.19,-2.87,-2.91,2.97,2.90,2.80,-1.19,-1.22,-1.28
191.42,-4.11,-4.13,-2.79,-2.82,2.88,2.87,2.78,-1.23,-1.25,-1.31
193.33,-4.11,-4.09,-2.77,-2.75,2.80,2.85,2.77,-1.30,-1.29,-1.34
195.27,-4.11,-4.10,-2.74,-2.73,2.74,2.82,2.75,-1.37,-1.36,-1.37
197.22,-4.11,-4.11,-2.71,-2.71,2.68,2.79,2.74,-1.42,-1.43,-1.40
199.19,-4.11,-4.12,-2.67,-2.69,2.63,2.76,2.73,-1.48,-1.49,-1.43
201.18,-4.11,-4.09,-2.66,-2.64,2.58,2.73,2.73,-1.52,-1.51,-1.45
203.19,-4.07,-4.03,-2.60,-2.56,2.53,2.69,2.72,-1.53,-1.50,-1.47
205.23,-3.94,-3.96,-2.44,-2.48,2.49,2.66,2.72,-1.45,-1.48,-1.49
207.28,-3.88,-3.90,-2.38,-2.39,2.44,2.63,2.71,-1.44,-1.46,-1.50
209.35,-3.88,-3.87,-2.35,-2.34,2.39,2.59,2.71,-1.49,-1.48,-1.52
211.44,-3.88,-3.87,-2.33,-2.33,2.35,2.55,2.71,-1.53,-1.52,-1.55
213.56,-3.88,-3.88,-2.33,-2.33,2.31,2.52,2.71,-1.57,-1.57,-1.55
215.69,-3.88,-3.88,-2.32,-2.32,2.29,2.48,2.71,-1.59,-1.59,-1.55
217.85,-3.88,-3.88,-2.31,-2.31,2.28,2.44,2.71,-1.59,-1.59,-1.57
220.03,-3.88,-3.88,-2.30,-2.30,2.30,2.41,2.71,-1.58,-1.58,-1.58
222.23,-3.88,-3.86,-2.29,-2.28,2.33,2.37,2.71,-1.55,-1.53,-1.59
224.45,-3.88,-3.88,-2.29,-2.29,2.36,2.34,2.71,-1.52,-1.52,-1.58
226.70,-3.88,-3.93,-2.29,-2.35,2.39,2.31,2.72,-1.49,-1.54,-1.58
228.96,-4.04,-4.00,-2.45,-2.42,2.41,2.29,2.72,-1.62,-1.59,-1.58
231.25,-4.09,-4.08,-2.51,-2.50,2.43,2.27,2.72,-1.66,-1.65,-1.57
233.57,-4.11,-4.12,-2.53,-2.54,2.44,2.25,2.72,-1.67,-1.68,-1.57
235.90,-4.11,-4.07,-2.53,-2.50,2.44,2.25,2.72,-1.67,-1.63,-1.57
238.26,-4.00,-4.00,-2.42,-2.43,2.43,2.24,2.72,-1.57,-1.57,-1.57
240.64,-3.90,-3.93,-2.33,-2.37,2.41,2.24,2.72,-1.48,-1.52,-1.56
243.05,-3.88,-3.88,-2.33,-2.33,2.39,2.25,2.72,-1.49,-1.49,-1.55
245.48,-3.88,-3.87,-2.34,-2.33,2.37,2.27,2.72,-1.51,-1.50,-1.54
247.93,-3.88,-3.87,-2.35,-2.34,2.35,2.29,2.71,-1.53,-1.52,-1.53
250.41,-3.88,-3.88,-2.35,-2.36,2.35,2.32,2.71,-1.53,-1.53,-1.53
252.92,-3.88,-3.88,-2.37,-2.37,2.36,2.34,2.70,-1.52,-1.52,-1.50
255.45,-3.88,-3.88,-2.40,-2.39,2.38,2.38,2.70,-1.50,-1.50,-1.48
258.00,-3.88,-3.88,-2.41,-2.41,2.40,2.42,2.69,-1.47,-1.47,-1.47
260.58,-3.88,-3.88,-2.42,-2.43,2.43,2.46,2.68,-1.45,-1.45,-1.45
263.19,-3.88,-3.88,-2.45,-2.44,2.44,2.50,2.67,-1.43,-1.43,-1.43
265.82,-3.88,-3.88,-2.46,-2.46,2.46,2.54,2.66,-1.42,-1.42,-1.42
268.48,-3.88,-3.88,-2.48,-2.48,2.47,2.58,2.65,-1.41,-1.41,-1.39
271.16,-3.88,-3.88,-2.51,-2.50,2.49,2.62,2.64,-1.39,-1.39,-1.37
273.87,-3.88,-3.88,-2.52,-2.53,2.52,2.67,2.63,-1.36,-1.36,-1.35
276.61,-3.88,-3.87,-2.55,-2.54,2.56,2.71,2.62,-1.32,-1.32,-1.33
279.38,-3.88,-3.86,-2.56,-2.55,2.60,2.75,2.61,-1.27,-1.26,-1.32
282.17,-3.88,-3.90,-2.58,-2.61,2.65,2.78,2.60,-1.22,-1.25,-1.30
284.99,-3.94,-3.97,-2.66,-2.69,2.70,2.82,2.58,-1.23,-1.27,-1.28
287.84,-4.10,-4.04,-2.84,-2.79,2.76,2.86,2.57,-1.34,-1.29,-1.26
290.72,-4.11,-4.10,-2.87,-2.86,2.81,2.89,2.56,-1.30,-1.29,-1.23
293.63,-4.11,-4.12,-2.89,-2.90,2.86,2.93,2.55,-1.25,-1.26,-1.22
296.57,-4.11,-4.11,-2.91,-2.91,2.90,2.96,2.54,-1.20,-1.20,-1.19
299.53,-4.11,-4.11,-2.93,-2.93,2.94,2.99,2.53,-1.17,-1.17,-1.18
302.53,-4.11,-4.11,-2.94,-2.95,2.96,3.02,2.53,-1.15,-1.15,-1.16
305.55,-4.11,-4.11,-2.98,-2.97,2.97,3.05,2.52,-1.13,-1.13,-1.13
308.61,-4.11,-4.11,-3.00,-3.00,3.00,3.07,2.51,-1.11,-1.11,-1.11
311.69,-4.11,-4.11,-3.02,-3.03,3.03,3.10,2.51,-1.08,-1.07,-1.08
314.81,-4.11,-4.09,-3.06,-3.04,3.08,3.13,2.51,-1.03,-1.01,-1.05
317.96,-4.11,-4.11,-3.08,-3.08,3.13,3.15,2.51,-0.98,-0.98,-1.03
321.14,-4.12,-4.17,-3.10,-3.16,3.19,3.17,2.51,-0.93,-0.99,-1.01
324.35,-4.29,-4.25,-3.29,-3.25,3.24,3.20,2.51,-1.04,-1.00,-1.00
327.59,-4.34,-4.31,-3.37,-3.34,3.30,3.22,2.51,-1.04,-1.02,-0.97
330.87,-4.34,-4.35,-3.39,-3.40,3.35,3.24,2.52,-0.99,-1.00,-0.95
334.18,-4.34,-4.34,-3.40,-3.41,3.39,3.26,2.53,-0.94,-0.95,-0.93
337.52,-4.34,-4.34,-3.42,-3.42,3.44,3.28,2.54,-0.90,-0.90,-0.92
340.90,-4.34,-4.34,-3.45,-3.44,3.47,3.29,2.55,-0.87,-0.87,-0.89
344.30,-4.34,-4.34,-3.46,-3.46,3.49,3.31,2.56,-0.84,-0.84,-0.87
347.75,-4.34,-4.34,-3.48,-3.48,3.50,3.33,2.58,-0.83,-0.83,-0.85
351.23,-4.34,-4.34,-3.50,-3.50,3.50,3.35,2.59,-0.84,-0.84,-0.84
354.74,-4.34,-4.35,-3.52,-3.53,3.49,3.36,2.61,-0.84,-0.86,-0.82
358.28,-4.34,-4.33,-3.54,-3.53,3.48,3.38,2.64,-0.86,-0.86,-0.80
361.87,-4.34,-4.28,-3.55,-3.50,3.46,3.39,2.66,-0.87,-0.82,-0.78
365.49,-4.18,-4.21,-3.40,-3.44,3.44,3.40,2.68,-0.73,-0.77,-0.77
369.14,-4.12,-4.14,-3.35,-3.38,3.42,3.42,2.71,-0.69,-0.72,-0.77
372.83,-4.11,-4.10,-3.36,-3.35,3.40,3.43,2.74,-0.70,-0.69,-0.75
376.56,-4.11,-4.10,-3.37,-3.37,3.39,3.44,2.77,-0.72,-0.71,-0.74
380.33,-4.11,-4.11,-3.39,-3.39,3.38,3.45,2.80,-0.72,-0.72,-0.71
384.13,-4.11,-4.11,-3.40,-3.40,3.39,3.46,2.84,-0.72,-0.72,-0.70
387.97,-4.11,-4.11,-3.41,-3.41,3.40,3.46,2.87,-0.71,-0.71,-0.69
391.85,-4.11,-4.11,-3.42,-3.42,3.42,3.47,2.91,-0.69,-0.69,-0.69
395.77,-4.11,-4.11,-3.44,-3.44,3.44,3.47,2.95,-0.67,-0.67,-0.67
399.73,-4.11,-4.11,-3.45,-3.45,3.46,3.48,2.99,-0.65,-0.65,-0.66
403.72,-4.11,-4.11,-3.46,-3.46,3.47,3.48,3.03,-0.63,-0.63,-0.65
407.76,-4.11,-4.11,-3.46,-3.47,3.48,3.48,3.07,-0.63,-0.63,-0.64
411.84,-4.11,-4.11,-3.48,-3.48,3.47,3.48,3.11,-0.63,-0.63,-0.62
415.96,-4.11,-4.12,-3.49,-3.51,3.46,3.48,3.15,-0.65,-0.66,-0.61
420.12,-4.11,-4.10,-3.50,-3.49,3.44,3.48,3.20,-0.67,-0.66,-0.61
424.32,-4.09,-4.04,-3.49,-3.44,3.42,3.47,3.24,-0.67,-0.62,-0.60
428.56,-3.94,-3.97,-3.35,-3.38,3.39,3.47,3.28,-0.54,-0.57,-0.59
432.85,-3.88,-3.90,-3.30,-3.32,3.37,3.46,3.32,-0.51,-0.53,-0.58
437.18,-3.88,-3.86,-3.31,-3.30,3.35,3.45,3.36,-0.52,-0.51,-0.57
441.55,-3.88,-3.87,-3.33,-3.32,3.34,3.44,3.40,-0.53,-0.53,-0.55
445.96,-3.88,-3.88,-3.33,-3.33,3.34,3.43,3.43,-0.53,-0.53,-0.54
450.42,-3.88,-3.88,-3.34,-3.35,3.34,3.42,3.47,-0.53,-0.53,-0.53
