frequency,raw
20.00,-2.85
20.20,-2.77
20.40,-2.70
20.61,-2.62
20.81,-2.55
21.02,-2.47
21.23,-2.40
21.44,-2.32
21.66,-2.24
21.87,-2.16
22.09,-2.09
22.31,-2.01
22.54,-1.94
22.76,-1.86
22.99,-1.78
23.22,-1.71
23.45,-1.63
23.69,-1.55
23.92,-1.47
24.16,-1.40
24.40,-1.32
24.65,-1.24
24.89,-1.16
25.14,-1.09
25.39,-1.01
25.65,-0.93
25.91,-0.86
26.16,-0.78
26.43,-0.71
26.69,-0.63
26.96,-0.55
27.23,-0.48
27.50,-0.40
27.77,-0.33
28.05,-0.26
28.33,-0.18
28.62,-0.10
28.90,-0.03
29.19,0.05
29.48,0.12
29.78,0.19
30.08,0.26
30.38,0.33
30.68,0.40
30.99,0.47
31.30,0.53
31.61,0.60
31.93,0.66
32.24,0.73
32.57,0.79
32.89,0.86
33.22,0.92
33.55,0.99
33.89,1.05
34.23,1.11
34.57,1.17
34.92,1.24
35.27,1.30
35.62,1.36
35.97,1.42
36.33,1.47
36.70,1.53
37.06,1.59
37.43,1.65
37.81,1.72
38.19,1.78
38.57,1.84
38.95,1.89
39.34,1.96
39.74,2.03
40.14,2.09
40.54,2.15
40.94,2.21
41.35,2.27
41.76,2.34
42.18,2.40
42.60,2.46
43.03,2.51
43.46,2.57
43.90,2.63
44.33,2.69
44.78,2.76
45.23,2.82
45.68,2.87
46.13,2.93
46.60,2.98
47.06,3.04
47.53,3.09
48.01,3.14
48.49,3.19
48.97,3.25
49.46,3.30
49.96,3.35
50.46,3.40
50.96,3.45
51.47,3.49
51.99,3.53
52.51,3.57
53.03,3.61
53.56,3.66
54.10,3.70
54.64,3.75
55.18,3.79
55.74,3.83
56.29,3.87
56.86,3.90
57.42,3.94
58.00,3.99
58.58,4.03
59.16,4.07
59.76,4.11
60.35,4.16
60.96,4.21
61.57,4.25
62.18,4.29
62.80,4.33
63.43,4.37
64.07,4.40
64.71,4.44
65.35,4.48
66.01,4.52
66.67,4.55
67.33,4.59
68.01,4.64
68.69,4.68
69.37,4.72
70.07,4.75
70.77,4.78
71.48,4.80
72.19,4.83
72.91,4.86
73.64,4.89
74.38,4.93
75.12,4.95
75.87,4.98
76.63,5.02
77.40,5.06
78.17,5.10
78.95,5.14
79.74,5.18
80.54,5.21
81.35,5.23
82.16,5.25
82.98,5.27
83.81,5.29
84.65,5.30
85.50,5.31
86.35,5.33
87.22,5.34
88.09,5.35
88.97,5.37
89.86,5.39
90.76,5.40
91.66,5.42
92.58,5.45
93.51,5.48
94.44,5.51
95.39,5.54
96.34,5.57
97.30,5.60
98.28,5.63
99.26,5.66
100.25,5.67
101.25,5.68
102.27,5.69
103.29,5.69
104.32,5.69
105.37,5.67
106.42,5.66
107.48,5.65
108.56,5.65
109.64,5.66
110.74,5.67
111.85,5.70
112.97,5.73
114.10,5.76
115.24,5.79
116.39,5.81
117.55,5.84
118.73,5.88
119.92,5.92
121.12,5.95
122.33,5.97
123.55,5.99
124.79,6.01
126.03,6.02
127.29,6.01
128.57,6.00
129.85,6.00
131.15,5.99
132.46,5.99
133.79,5.99
135.12,5.99
136.48,5.99
137.84,5.99
139.22,5.99
140.61,5.99
142.02,5.99
143.44,5.99
144.87,5.99
146.32,5.99
147.78,5.99
149.26,5.99
150.75,5.99
152.26,5.99
153.78,5.99
155.32,5.99
156.88,5.99
158.44,5.99
160.03,5.99
161.63,5.99
163.24,5.99
164.88,5.99
166.53,5.99
168.19,5.99
169.87,5.99
171.57,5.99
173.29,5.99
175.02,5.99
176.77,5.99
178.54,5.99
180.32,5.99
182.13,5.99
183.95,5.99
185.79,5.99
187.65,5.99
189.52,5.99
191.42,5.99
193.33,5.99
195.27,5.99
197.22,5.99
199.19,5.99
201.18,5.99
203.19,6.00
205.23,6.01
207.28,6.01
209.35,6.02
211.44,6.01
213.56,6.00
215.69,5.98
217.85,5.95
220.03,5.93
222.23,5.90
224.45,5.87
226.70,5.83
228.96,5.79
231.25,5.77
233.57,5.74
235.90,5.70
238.26,5.68
240.64,5.67
243.05,5.66
245.48,5.67
247.93,5.67
250.41,5.67
252.92,5.66
255.45,5.64
258.00,5.62
260.58,5.59
263.19,5.56
265.82,5.52
268.48,5.49
271.16,5.46
273.87,5.42
276.61,5.40
279.38,5.38
282.17,5.37
284.99,5.35
287.84,5.34
290.72,5.33
293.63,5.31
296.57,5.29
299.53,5.27
302.53,5.24
305.55,5.21
308.61,5.18
311.69,5.16
314.81,5.14
317.96,5.11
321.14,5.08
324.35,5.04
327.59,5.00
330.87,4.96
334.18,4.93
337.52,4.90
340.90,4.89
344.30,4.86
347.75,4.84
351.23,4.79
354.74,4.75
358.28,4.70
361.87,4.65
365.49,4.60
369.14,4.56
372.83,4.53
376.56,4.50
380.33,4.48
384.13,4.46
387.97,4.45
391.85,4.41
395.77,4.38
399.73,4.35
403.72,4.32
407.76,4.29
411.84,4.27
415.96,4.25
420.12,4.23
424.32,4.20
428.56,4.16
432.85,4.11
437.18,4.06
441.55,4.02
445.96,3.98
450.42,3.94
454.93,3.91
459.48,3.87
464.07,3.83
468.71,3.79
473.40,3.74
478.13,3.69
482.91,3.65
487.74,3.60
492.62,3.55
497.55,3.50
502.52,3.46
507.55,3.42
512.62,3.38
517.75,3.34
522.93,3.28
528.16,3.23
533.44,3.18
538.77,3.13
544.16,3.09
549.60,3.05
555.10,3.00
560.65,2.94
566.25,2.89
571.92,2.82
577.64,2.78
583.41,2.74
589.25,2.70
595.14,2.65
601.09,2.59
607.10,2.53
613.17,2.48
619.30,2.45
625.50,2.41
631.75,2.35
638.07,2.29
644.45,2.23
650.89,2.17
657.40,2.13
663.98,2.08
670.62,2.02
677.32,1.96
684.10,1.90
690.94,1.83
697.85,1.78
704.83,1.74
711.87,1.68
718.99,1.62
726.18,1.56
733.44,1.49
740.78,1.45
748.19,1.40
755.67,1.35
763.23,1.29
770.86,1.24
778.57,1.17
786.35,1.12
794.22,1.08
802.16,1.04
810.18,0.99
818.28,0.94
826.46,0.89
834.73,0.84
843.08,0.81
851.51,0.77
860.02,0.71
868.62,0.66
877.31,0.60
886.08,0.54
894.94,0.49
903.89,0.45
912.93,0.40
922.06,0.35
931.28,0.31
940.59,0.26
950.00,0.21
959.50,0.17
969.09,0.13
978.78,0.09
988.57,0.05
998.46,0.01
1008.44,-0.03
1018.53,-0.06
1028.71,-0.08
1039.00,-0.11
1049.39,-0.13
1059.88,-0.16
1070.48,-0.18
1081.19,-0.19
1092.00,-0.19
1102.92,-0.19
1113.95,-0.18
1125.09,-0.18
1136.34,-0.18
1147.70,-0.19
1159.18,-0.19
1170.77,-0.18
1182.48,-0.17
1194.30,-0.15
1206.25,-0.13
1218.31,-0.10
1230.49,-0.07
1242.80,-0.03
1255.22,0.00
1267.78,0.04
1280.45,0.07
1293.26,0.09
1306.19,0.11
1319.25,0.13
1332.45,0.15
1345.77,0.18
1359.23,0.20
1372.82,0.22
1386.55,0.24
1400.41,0.26
1414.42,0.29
1428.56,0.32
1442.85,0.35
1457.28,0.38
1471.85,0.40
1486.57,0.43
1501.43,0.46
1516.45,0.49
1531.61,0.52
1546.93,0.54
1562.40,0.56
1578.02,0.59
1593.80,0.63
1609.74,0.67
1625.84,0.72
1642.10,0.78
1658.52,0.84
1675.10,0.90
1691.85,0.96
1708.77,1.02
1725.86,1.09
1743.12,1.16
1760.55,1.22
1778.15,1.29
1795.94,1.35
1813.90,1.42
1832.03,1.50
1850.36,1.58
1868.86,1.64
1887.55,1.73
1906.42,1.82
1925.49,1.91
1944.74,2.01
1964.19,2.11
1983.83,2.21
2003.67,2.32
2023.71,2.43
2043.94,2.54
2064.38,2.64
2085.03,2.74
2105.88,2.85
2126.94,2.96
2148.20,3.05
2169.69,3.15
2191.38,3.24
2213.30,3.34
2235.43,3.45
2257.78,3.55
2280.36,3.64
2303.17,3.74
2326.20,3.85
2349.46,3.95
2372.95,4.05
2396.68,4.15
2420.65,4.24
2444.86,4.33
2469.31,4.42
2494.00,4.50
2518.94,4.57
2544.13,4.65
2569.57,4.72
2595.27,4.78
2621.22,4.83
2647.43,4.88
2673.90,4.92
2700.64,4.96
2727.65,4.99
2754.93,5.01
2782.48,5.02
2810.30,5.03
2838.40,5.04
2866.79,5.04
2895.46,5.03
2924.41,5.03
2953.65,5.02
2983.19,5.02
3013.02,5.02
3043.15,5.02
3073.58,5.02
3104.32,5.02
3135.36,5.02
3166.72,5.01
3198.38,5.00
3230.37,4.99
3262.67,5.00
3295.30,5.01
3328.25,5.02
3361.53,5.04
3395.15,5.06
3429.10,5.10
3463.39,5.15
3498.03,5.19
3533.01,5.24
3568.34,5.30
3604.02,5.36
3640.06,5.43
3676.46,5.50
3713.22,5.57
3750.36,5.63
3787.86,5.70
3825.74,5.77
3864.00,5.84
3902.64,5.90
3941.66,5.98
3981.08,6.05
4020.89,6.11
4061.10,6.15
4101.71,6.21
4142.73,6.27
4184.15,6.30
4226.00,6.33
4268.26,6.35
4310.94,6.36
4354.05,6.35
4397.59,6.33
4441.56,6.29
4485.98,6.22
4530.84,6.12
4576.15,6.01
4621.91,5.88
4668.13,5.73
4714.81,5.54
4761.96,5.34
4809.58,5.10
4857.67,4.84
4906.25,4.55
4955.31,4.26
5004.87,3.94
5054.91,3.58
5105.46,3.21
5156.52,2.80
5208.08,2.38
5260.16,1.93
5312.77,1.47
5365.89,0.98
5419.55,0.48
5473.75,-0.05
5528.49,-0.59
5583.77,-1.13
5639.61,-1.68
5696.00,-2.22
5752.96,-2.75
5810.49,-3.29
5868.60,-3.82
5927.28,-4.34
5986.56,-4.84
6046.42,-5.31
6106.89,-5.79
6167.96,-6.24
6229.64,-6.67
6291.93,-7.10
6354.85,-7.49
6418.40,-7.87
6482.58,-8.21
6547.41,-8.54
6612.88,-8.88
6679.01,-9.22
6745.80,-9.55
6813.26,-9.90
6881.39,-10.22
6950.21,-10.54
7019.71,-10.85
7089.91,-11.16
7160.81,-11.45
7232.41,-11.73
7304.74,-11.97
7377.79,-12.19
7451.56,-12.38
7526.08,-12.54
7601.34,-12.68
7677.35,-12.79
7754.13,-12.86
7831.67,-12.89
7909.98,-12.90
7989.08,-12.89
8068.98,-12.87
8149.67,-12.83
8231.16,-12.77
8313.47,-12.66
8396.61,-12.51
8480.57,-12.33
8565.38,-12.13
8651.03,-11.88
8737.54,-11.59
8824.92,-11.28
8913.17,-10.93
9002.30,-10.55
9092.32,-10.13
9183.25,-9.68
9275.08,-9.20
9367.83,-8.70
9461.51,-8.19
9556.12,-7.66
9651.68,-7.12
9748.20,-6.57
9845.68,-6.03
9944.14,-5.49
10043.58,-4.96
10144.02,-4.45
10245.46,-3.97
10347.91,-3.54
10451.39,-3.16
10555.91,-2.80
10661.46,-2.47
10768.08,-2.19
10875.76,-1.94
10984.52,-1.73
11094.36,-1.53
11205.31,-1.36
11317.36,-1.20
11430.53,-1.08
11544.84,-0.97
11660.29,-0.88
11776.89,-0.82
11894.66,-0.80
12013.60,-0.82
12133.74,-0.87
12255.08,-0.97
12377.63,-1.11
12501.41,-1.30
12626.42,-1.52
12752.68,-1.77
12880.21,-2.03
13009.01,-2.32
13139.10,-2.63
13270.49,-2.97
13403.20,-3.35
13537.23,-3.76
13672.60,-4.21
13809.33,-4.72
13947.42,-5.31
14086.90,-5.98
14227.77,-6.74
14370.04,-7.59
14513.74,-8.53
14658.88,-9.55
14805.47,-10.64
14953.52,-11.74
15103.06,-12.86
15254.09,-13.97
15406.63,-15.06
15560.70,-16.10
15716.30,-17.07
15873.47,-17.96
16032.20,-18.76
16192.52,-19.49
16354.45,-20.14
16517.99,-20.71
16683.17,-21.24
16850.01,-21.76
17018.51,-22.28
17188.69,-22.83
17360.58,-23.42
17534.18,-24.06
17709.53,-24.74
17886.62,-25.44
18065.49,-26.17
18246.14,-26.81
18428.60,-27.44
18612.89,-28.06
18799.02,-28.67
18987.01,-29.28
19176.88,-29.89
19368.65,-30.50
19562.33,-31.11
19757.96,-31.71
19955.54,-32.31
