frequency,raw
20,-2.85
21,-2.48
22,-2.12
23,-1.78
24,-1.45
25,-1.13
26,-0.83
27,-0.54
28,-0.27
29,-0.00
30,0.24
31,0.47
32,0.68
33,0.88
34,1.07
35,1.25
36,1.42
37,1.58
38,1.75
39,1.90
40,2.07
41,2.22
42,2.37
43,2.51
44,2.64
45,2.79
46,2.91
47,3.03
48,3.14
49,3.25
50,3.35
51,3.45
52,3.53
53,3.61
54,3.69
55,3.78
56,3.85
57,3.91
58,3.99
59,4.06
60,4.13
61,4.21
62,4.28
63,4.34
64,4.40
65,4.46
66,4.52
67,4.57
68,4.64
69,4.70
70,4.75
71,4.79
72,4.82
73,4.86
74,4.91
75,4.95
76,4.99
77,5.04
78,5.09
79,5.14
80,5.19
81,5.22
82,5.25
83,5.27
84,5.29
85,5.30
86,5.32
87,5.34
88,5.35
89,5.37
90,5.39
91,5.40
92,5.43
93,5.46
94,5.49
95,5.53
96,5.56
97,5.59
98,5.62
99,5.65
100,5.67
101,5.68
102,5.69
104,5.69
105,5.68
106,5.66
107,5.65
108,5.64
109,5.65
110,5.66
111,5.68
112,5.70
113,5.73
114,5.76
115,5.79
117,5.82
118,5.86
119,5.89
120,5.92
121,5.95
123,5.98
124,6.00
125,6.01
126,6.02
128,6.01
129,6.00
130,6.00
131,5.99
133,5.99
134,5.99
135,5.99
137,5.99
138,5.99
140,5.99
141,5.99
142,5.99
144,5.99
145,5.99
147,5.99
148,5.99
150,5.99
151,5.99
153,5.99
154,5.99
156,5.99
157,5.99
159,5.99
160,5.99
162,5.99
164,5.99
165,5.99
167,5.99
169,5.99
170,5.99
172,5.99
174,5.99
175,5.99
177,5.99
179,5.99
181,5.99
183,5.99
184,5.99
186,5.99
188,5.99
190,5.99
192,5.99
194,5.99
196,5.99
198,5.99
200,5.99
202,5.99
204,6.00
206,6.01
208,6.01
210,6.02
212,6.01
214,6.00
216,5.98
218,5.95
221,5.92
223,5.89
225,5.86
227,5.82
229,5.79
232,5.76
234,5.73
236,5.70
239,5.68
241,5.67
244,5.66
246,5.67
248,5.67
251,5.67
253,5.66
256,5.64
259,5.61
261,5.58
264,5.55
266,5.52
269,5.48
272,5.45
274,5.42
277,5.40
280,5.38
283,5.36
286,5.35
288,5.34
291,5.33
294,5.31
297,5.29
300,5.27
303,5.24
306,5.21
309,5.18
312,5.16
316,5.13
319,5.10
322,5.07
325,5.03
328,4.99
332,4.95
335,4.92
338,4.90
342,4.88
345,4.86
349,4.83
352,4.78
356,4.74
359,4.69
363,4.64
366,4.59
370,4.55
374,4.52
377,4.50
381,4.48
385,4.46
389,4.44
393,4.40
397,4.37
401,4.34
405,4.31
409,4.28
413,4.26
417,4.25
421,4.22
425,4.19
430,4.15
434,4.10
438,4.05
443,4.01
447,3.97
451,3.94
456,3.90
460,3.86
465,3.82
470,3.78
474,3.73
479,3.68
484,3.64
489,3.59
494,3.54
499,3.49
504,3.45
509,3.41
514,3.37
519,3.33
524,3.27
529,3.22
535,3.17
540,3.12
545,3.08
551,3.04
556,2.99
562,2.93
568,2.87
573,2.81
579,2.77
585,2.73
591,2.69
596,2.64
602,2.58
608,2.52
615,2.47
621,2.44
627,2.40
633,2.34
639,2.28
646,2.21
652,2.16
659,2.12
665,2.07
672,2.01
679,1.94
686,1.88
692,1.82
699,1.77
706,1.73
713,1.67
721,1.61
728,1.54
735,1.48
742,1.44
750,1.39
757,1.34
765,1.28
773,1.22
780,1.16
788,1.11
796,1.07
804,1.03
812,0.98
820,0.93
828,0.88
837,0.83
845,0.80
853,0.76
862,0.70
871,0.65
879,0.59
888,0.53
897,0.48
906,0.44
915,0.39
924,0.34
933,0.30
943,0.25
952,0.20
962,0.16
971,0.12
981,0.08
991,0.04
1001,-0.00
1011,-0.04
1021,-0.06
1031,-0.09
1041,-0.11
1052,-0.14
1062,-0.16
1073,-0.18
1084,-0.19
1094,-0.19
1105,-0.19
1116,-0.18
1128,-0.18
1139,-0.18
1150,-0.19
1162,-0.19
1173,-0.18
1185,-0.17
1197,-0.15
1209,-0.12
1221,-0.09
1233,-0.06
1246,-0.02
1258,0.01
1271,0.05
1283,0.07
1296,0.09
1309,0.11
1322,0.13
1335,0.16
1349,0.18
1362,0.20
1376,0.22
1390,0.24
1404,0.27
1418,0.30
1432,0.33
1446,0.36
1461,0.38
1475,0.41
1490,0.44
1505,0.47
1520,0.50
1535,0.53
1550,0.54
1566,0.57
1582,0.60
1597,0.64
1613,0.68
1629,0.73
1646,0.79
1662,0.85
1679,0.92
1696,0.97
1713,1.04
1730,1.11
1747,1.18
1764,1.23
1782,1.30
1800,1.37
1818,1.44
1836,1.52
1854,1.59
1873,1.66
1892,1.75
1911,1.84
1930,1.93
1949,2.03
1969,2.13
1988,2.23
2008,2.34
2028,2.45
2048,2.56
2069,2.66
2090,2.77
2111,2.88
2132,2.98
2153,3.07
2175,3.17
2196,3.26
2218,3.36
2240,3.47
2263,3.57
2285,3.66
2308,3.76
2331,3.87
2355,3.97
2378,4.07
2402,4.17
2426,4.26
2450,4.35
2475,4.44
2500,4.52
2525,4.59
2550,4.67
2575,4.73
2601,4.79
2627,4.84
2653,4.89
2680,4.93
2707,4.97
2734,5.00
2761,5.01
2789,5.02
2817,5.03
2845,5.04
2873,5.04
2902,5.03
2931,5.03
2960,5.02
2990,5.02
3020,5.02
3050,5.02
3080,5.02
3111,5.02
3142,5.02
3174,5.01
3206,5.00
3238,4.99
3270,5.00
3303,5.01
3336,5.02
3369,5.04
3403,5.07
3437,5.11
3471,5.16
3506,5.20
3541,5.25
3576,5.31
3612,5.38
3648,5.45
3685,5.52
3721,5.58
3759,5.65
3796,5.72
3834,5.79
3873,5.85
3911,5.92
3950,6.00
3990,6.06
4030,6.12
4070,6.16
4111,6.22
4152,6.28
4193,6.31
4235,6.34
4278,6.35
4321,6.36
4364,6.35
4407,6.33
4451,6.28
4496,6.20
4541,6.10
4586,5.99
4632,5.85
4679,5.69
4725,5.50
4773,5.29
4820,5.05
4868,4.78
4917,4.49
4966,4.19
5016,3.87
5066,3.50
5117,3.12
5168,2.71
5220,2.28
5272,1.83
5325,1.36
5378,0.87
5432,0.36
5486,-0.17
5541,-0.71
5596,-1.25
5652,-1.80
5709,-2.34
5766,-2.87
5823,-3.41
5882,-3.94
5940,-4.45
6000,-4.95
6060,-5.42
6120,-5.89
6182,-6.34
6244,-6.77
6306,-7.19
6369,-7.58
6433,-7.95
6497,-8.28
6562,-8.62
6628,-8.96
6694,-9.29
6761,-9.63
6828,-9.97
6897,-10.29
6966,-10.61
7035,-10.92
7106,-11.23
7177,-11.52
7249,-11.79
7321,-12.02
7394,-12.24
7468,-12.42
7543,-12.58
7618,-12.71
7694,-12.81
7771,-12.87
7849,-12.90
7928,-12.90
8007,-12.89
8087,-12.87
8168,-12.82
8250,-12.75
8332,-12.63
8415,-12.47
8499,-12.29
8584,-12.08
8670,-11.82
8757,-11.53
8845,-11.20
8933,-10.85
9022,-10.46
9113,-10.03
9204,-9.58
9296,-9.09
9389,-8.59
9483,-8.07
9577,-7.54
9673,-7.00
9770,-6.45
9868,-5.91
9966,-5.37
10066,-4.84
10167,-4.33
10268,-3.87
10371,-3.45
10475,-3.07
10579,-2.72
10685,-2.40
10792,-2.13
10900,-1.89
11009,-1.68
11119,-1.49
11230,-1.32
11343,-1.17
11456,-1.05
11571,-0.95
11686,-0.86
11803,-0.81
11921,-0.80
12040,-0.82
12161,-0.88
12282,-0.99
12405,-1.14
12529,-1.34
12655,-1.57
12781,-1.83
12909,-2.09
13038,-2.39
13168,-2.70
13300,-3.05
13433,-3.44
13567,-3.85
13703,-4.31
13840,-4.84
13978,-5.44
14118,-6.13
14259,-6.91
14402,-7.78
14546,-8.75
14692,-9.79
14838,-10.88
14987,-11.99
15137,-13.11
15288,-14.22
15441,-15.30
15595,-16.33
15751,-17.28
15909,-18.15
16068,-18.94
16229,-19.65
16391,-20.28
16555,-20.84
16720,-21.36
16888,-21.88
17056,-22.40
17227,-22.95
17399,-23.55
17573,-24.20
17749,-24.89
17926,-25.60
18106,-26.33
18287,-26.95
18470,-27.58
18654,-28.20
18841,-28.81
19029,-29.42
19220,-30.03
19412,-30.64
19606,-31.24
19802,-31.84
20000,-32.44
