frequency,raw,error,smoothed,error_smoothed,equalization,parametric_eq,fixed_band_eq,equalized_raw,equalized_smoothed,target
20.00,-1.79,-4.30,-1.79,-4.30,4.30,4.45,1.41,2.52,2.52,2.51
20.20,-1.77,-4.28,-1.77,-4.28,4.29,4.42,1.45,2.52,2.52,2.51
20.40,-1.76,-4.27,-1.75,-4.27,4.27,4.39,1.50,2.51,2.51,2.51
20.61,-1.74,-4.25,-1.74,-4.25,4.25,4.35,1.54,2.51,2.51,2.51
20.81,-1.72,-4.23,-1.72,-4.23,4.22,4.32,1.59,2.51,2.50,2.51
21.02,-1.70,-4.21,-1.70,-4.20,4.20,4.28,1.64,2.50,2.50,2.51
21.23,-1.68,-4.17,-1.68,-4.17,4.17,4.25,1.69,2.49,2.49,2.49
21.44,-1.66,-4.14,-1.66,-4.14,4.14,4.22,1.74,2.48,2.48,2.48
21.66,-1.65,-4.11,-1.64,-4.10,4.11,4.18,1.79,2.46,2.46,2.46
21.87,-1.63,-4.07,-1.63,-4.07,4.07,4.15,1.84,2.45,2.45,2.44
22.09,-1.61,-4.04,-1.61,-4.04,4.04,4.11,1.90,2.43,2.42,2.43
22.31,-1.60,-4.00,-1.60,-4.00,4.00,4.08,1.96,2.40,2.40,2.40
22.54,-1.59,-3.97,-1.58,-3.96,3.96,4.04,2.01,2.37,2.38,2.38
22.76,-1.57,-3.93,-1.57,-3.93,3.92,4.01,2.07,2.36,2.35,2.36
22.99,-1.56,-3.89,-1.56,-3.89,3.89,3.97,2.13,2.33,2.33,2.33
23.22,-1.55,-3.85,-1.54,-3.85,3.85,3.94,2.20,2.30,2.31,2.30
23.45,-1.53,-3.81,-1.53,-3.81,3.82,3.90,2.26,2.29,2.29,2.28
23.69,-1.52,-3.79,-1.51,-3.78,3.78,3.86,2.33,2.27,2.27,2.27
23.92,-1.50,-3.74,-1.50,-3.75,3.75,3.83,2.39,2.26,2.25,2.25
24.16,-1.49,-3.72,-1.49,-3.72,3.72,3.79,2.46,2.23,2.23,2.24
24.40,-1.49,-3.70,-1.48,-3.70,3.69,3.76,2.53,2.21,2.21,2.22
24.65,-1.47,-3.66,-1.47,-3.67,3.66,3.72,2.60,2.19,2.19,2.20
24.89,-1.46,-3.63,-1.46,-3.63,3.63,3.68,2.67,2.18,2.18,2.18
25.14,-1.44,-3.60,-1.44,-3.60,3.60,3.65,2.74,2.16,2.16,2.17
25.39,-1.43,-3.57,-1.42,-3.57,3.57,3.61,2.81,2.14,2.15,2.14
25.65,-1.41,-3.54,-1.41,-3.54,3.54,3.57,2.88,2.13,2.13,2.13
25.91,-1.40,-3.50,-1.40,-3.51,3.51,3.53,2.95,2.11,2.11,2.10
26.16,-1.39,-3.48,-1.38,-3.48,3.48,3.50,3.02,2.09,2.10,2.09
26.43,-1.37,-3.45,-1.37,-3.45,3.45,3.46,3.09,2.08,2.08,2.08
26.69,-1.36,-3.42,-1.36,-3.42,3.42,3.42,3.16,2.07,2.07,2.06
26.96,-1.35,-3.40,-1.34,-3.40,3.40,3.38,3.22,2.05,2.05,2.05
27.23,-1.33,-3.37,-1.33,-3.37,3.37,3.35,3.29,2.04,2.04,2.04
27.50,-1.33,-3.36,-1.32,-3.35,3.34,3.31,3.35,2.02,2.02,2.03
27.77,-1.31,-3.32,-1.31,-3.32,3.32,3.27,3.41,2.01,2.01,2.01
28.05,-1.29,-3.29,-1.29,-3.29,3.29,3.23,3.47,2.00,2.00,2.00
28.33,-1.28,-3.25,-1.28,-3.26,3.26,3.20,3.52,1.98,1.98,1.98
28.62,-1.27,-3.23,-1.26,-3.23,3.23,3.16,3.57,1.97,1.97,1.97
28.90,-1.25,-3.20,-1.25,-3.20,3.20,3.12,3.62,1.96,1.95,1.96
29.19,-1.24,-3.17,-1.23,-3.18,3.18,3.08,3.66,1.94,1.94,1.94
29.48,-1.22,-3.15,-1.22,-3.15,3.15,3.04,3.70,1.93,1.93,1.93
29.78,-1.20,-3.12,-1.20,-3.12,3.12,3.01,3.73,1.92,1.92,1.92
30.08,-1.18,-3.09,-1.18,-3.09,3.09,2.97,3.75,1.91,1.91,1.91
30.38,-1.17,-3.06,-1.16,-3.06,3.06,2.93,3.77,1.89,1.89,1.89
30.68,-1.15,-3.03,-1.15,-3.02,3.02,2.89,3.79,1.88,1.88,1.88
30.99,-1.13,-2.99,-1.13,-2.99,2.99,2.85,3.79,1.86,1.86,1.86
31.30,-1.11,-2.95,-1.11,-2.96,2.95,2.82,3.79,1.85,1.85,1.85
31.61,-1.09,-2.92,-1.09,-2.92,2.92,2.78,3.79,1.83,1.83,1.84
31.93,-1.07,-2.88,-1.07,-2.88,2.88,2.74,3.78,1.81,1.81,1.82
32.24,-1.05,-2.83,-1.05,-2.84,2.84,2.70,3.76,1.79,1.79,1.78
32.57,-1.03,-2.80,-1.03,-2.80,2.80,2.66,3.74,1.77,1.77,1.77
32.89,-1.01,-2.77,-1.00,-2.76,2.76,2.63,3.71,1.75,1.75,1.76
33.22,-0.98,-2.71,-0.98,-2.72,2.72,2.59,3.67,1.74,1.74,1.73
33.55,-0.96,-2.67,-0.96,-2.67,2.67,2.55,3.64,1.72,1.71,1.72
33.89,-0.94,-2.63,-0.94,-2.63,2.63,2.52,3.59,1.69,1.69,1.70
34.23,-0.92,-2.59,-0.91,-2.59,2.59,2.48,3.54,1.67,1.67,1.67
34.57,-0.89,-2.54,-0.89,-2.54,2.54,2.44,3.49,1.66,1.65,1.65
34.92,-0.87,-2.50,-0.87,-2.50,2.50,2.40,3.43,1.64,1.64,1.63
35.27,-0.85,-2.47,-0.84,-2.46,2.46,2.37,3.37,1.61,1.62,1.62
35.62,-0.82,-2.41,-0.82,-2.42,2.42,2.33,3.31,1.60,1.60,1.60
35.97,-0.80,-2.37,-0.80,-2.38,2.38,2.29,3.24,1.58,1.58,1.57
36.33,-0.78,-2.34,-0.78,-2.33,2.33,2.26,3.18,1.56,1.56,1.56
36.70,-0.76,-2.30,-0.75,-2.29,2.29,2.22,3.11,1.54,1.54,1.54
37.06,-0.73,-2.24,-0.73,-2.25,2.25,2.19,3.04,1.52,1.52,1.52
37.43,-0.71,-2.21,-0.71,-2.21,2.21,2.15,2.96,1.50,1.50,1.51
37.81,-0.69,-2.17,-0.68,-2.17,2.17,2.12,2.89,1.48,1.48,1.48
38.19,-0.66,-2.12,-0.66,-2.13,2.12,2.08,2.82,1.46,1.46,1.46
38.57,-0.64,-2.08,-0.64,-2.08,2.08,2.04,2.75,1.44,1.44,1.45
38.95,-0.62,-2.04,-0.61,-2.03,2.04,2.01,2.67,1.42,1.42,1.42
39.34,-0.59,-1.99,-0.59,-1.99,2.00,1.98,2.60,1.41,1.41,1.40
39.74,-0.57,-1.95,-0.57,-1.95,1.95,1.94,2.53,1.39,1.39,1.38
40.14,-0.55,-1.92,-0.55,-1.92,1.92,1.91,2.46,1.37,1.37,1.38
40.54,-0.53,-1.88,-0.53,-1.88,1.88,1.87,2.39,1.35,1.35,1.35
40.94,-0.51,-1.85,-0.51,-1.84,1.84,1.84,2.32,1.34,1.34,1.34
41.35,-0.49,-1.80,-0.49,-1.81,1.81,1.81,2.25,1.32,1.32,1.31
41.76,-0.47,-1.78,-0.47,-1.77,1.78,1.77,2.19,1.31,1.31,1.31
42.18,-0.45,-1.74,-0.45,-1.74,1.74,1.74,2.12,1.30,1.29,1.30
42.60,-0.44,-1.71,-0.43,-1.71,1.71,1.71,2.06,1.27,1.28,1.27
43.03,-0.42,-1.69,-0.42,-1.68,1.67,1.67,1.99,1.26,1.26,1.27
43.46,-0.40,-1.64,-0.40,-1.64,1.64,1.64,1.93,1.24,1.24,1.24
43.90,-0.38,-1.60,-0.38,-1.61,1.61,1.61,1.87,1.23,1.22,1.22
44.33,-0.37,-1.57,-0.37,-1.57,1.57,1.58,1.81,1.20,1.21,1.21
44.78,-0.36,-1.55,-0.35,-1.54,1.54,1.55,1.76,1.18,1.19,1.19
45.23,-0.33,-1.49,-0.33,-1.50,1.50,1.52,1.70,1.18,1.17,1.17
45.68,-0.32,-1.47,-0.32,-1.47,1.47,1.49,1.65,1.15,1.16,1.15
46.13,-0.30,-1.43,-0.30,-1.43,1.44,1.46,1.59,1.14,1.14,1.13
46.60,-0.29,-1.42,-0.28,-1.41,1.41,1.43,1.54,1.12,1.13,1.13
47.06,-0.27,-1.38,-0.27,-1.38,1.38,1.40,1.49,1.11,1.11,1.11
47.53,-0.26,-1.35,-0.25,-1.36,1.35,1.37,1.44,1.09,1.09,1.10
48.01,-0.24,-1.33,-0.24,-1.32,1.32,1.34,1.40,1.08,1.08,1.09
48.49,-0.23,-1.29,-0.23,-1.29,1.29,1.31,1.35,1.06,1.06,1.06
48.97,-0.22,-1.25,-0.22,-1.25,1.26,1.28,1.31,1.04,1.04,1.04
49.46,-0.21,-1.22,-0.21,-1.22,1.22,1.25,1.26,1.02,1.02,1.01
49.96,-0.20,-1.18,-0.19,-1.19,1.19,1.22,1.22,1.00,1.00,0.98
50.46,-0.18,-1.16,-0.18,-1.16,1.16,1.19,1.18,0.99,0.98,0.98
50.96,-0.18,-1.14,-0.17,-1.13,1.13,1.17,1.14,0.96,0.96,0.97
51.47,-0.17,-1.11,-0.17,-1.11,1.11,1.14,1.10,0.94,0.94,0.94
51.99,-0.16,-1.08,-0.16,-1.08,1.08,1.11,1.06,0.92,0.92,0.92
52.51,-0.15,-1.06,-0.15,-1.06,1.05,1.08,1.03,0.91,0.91,0.91
53.03,-0.14,-1.03,-0.14,-1.03,1.03,1.06,0.99,0.89,0.89,0.89
53.56,-0.13,-1.00,-0.12,-1.00,1.00,1.03,0.95,0.87,0.87,0.87
54.10,-0.11,-0.96,-0.11,-0.97,0.97,1.00,0.92,0.86,0.85,0.85
54.64,-0.11,-0.94,-0.10,-0.94,0.94,0.98,0.89,0.83,0.83,0.83
55.18,-0.10,-0.91,-0.09,-0.91,0.91,0.95,0.85,0.81,0.81,0.81
55.74,-0.08,-0.87,-0.08,-0.88,0.87,0.93,0.82,0.80,0.79,0.79
56.29,-0.07,-0.85,-0.07,-0.84,0.84,0.90,0.79,0.78,0.78,0.78
56.86,-0.06,-0.82,-0.05,-0.81,0.81,0.87,0.76,0.76,0.76,0.76
57.42,-0.04,-0.77,-0.04,-0.78,0.78,0.85,0.73,0.75,0.74,0.74
58.00,-0.03,-0.75,-0.03,-0.75,0.75,0.82,0.70,0.73,0.73,0.72
58.58,-0.02,-0.72,-0.02,-0.72,0.73,0.80,0.67,0.71,0.71,0.70
59.16,-0.01,-0.70,-0.01,-0.69,0.70,0.77,0.64,0.69,0.69,0.69
59.76,0.00,-0.67,0.00,-0.67,0.67,0.75,0.62,0.67,0.67,0.68
60.35,0.01,-0.64,0.01,-0.65,0.64,0.72,0.59,0.65,0.65,0.65
60.96,0.01,-0.63,0.02,-0.62,0.61,0.70,0.56,0.62,0.63,0.65
61.57,0.03,-0.58,0.03,-0.58,0.58,0.67,0.54,0.62,0.61,0.61
62.18,0.04,-0.54,0.04,-0.55,0.56,0.65,0.51,0.60,0.59,0.59
62.80,0.04,-0.53,0.04,-0.52,0.53,0.62,0.48,0.57,0.57,0.57
63.43,0.04,-0.50,0.04,-0.50,0.51,0.60,0.46,0.55,0.55,0.54
64.07,0.04,-0.48,0.05,-0.48,0.49,0.57,0.43,0.53,0.53,0.53
64.71,0.05,-0.47,0.05,-0.47,0.47,0.55,0.41,0.52,0.52,0.52
65.35,0.05,-0.45,0.05,-0.45,0.45,0.52,0.38,0.50,0.50,0.50
66.01,0.04,-0.45,0.05,-0.44,0.44,0.50,0.36,0.48,0.49,0.49
66.67,0.05,-0.42,0.05,-0.43,0.42,0.47,0.33,0.48,0.47,0.47
67.33,0.05,-0.41,0.05,-0.41,0.41,0.45,0.31,0.47,0.46,0.46
68.01,0.04,-0.40,0.05,-0.40,0.40,0.42,0.28,0.44,0.45,0.44
68.69,0.04,-0.39,0.04,-0.39,0.39,0.40,0.26,0.43,0.43,0.43
69.37,0.04,-0.37,0.04,-0.37,0.37,0.37,0.24,0.42,0.42,0.41
70.07,0.04,-0.36,0.04,-0.36,0.36,0.34,0.21,0.40,0.40,0.40
70.77,0.04,-0.34,0.04,-0.34,0.34,0.32,0.19,0.39,0.38,0.39
71.48,0.04,-0.32,0.04,-0.33,0.33,0.29,0.16,0.37,0.37,0.36
72.19,0.03,-0.32,0.04,-0.31,0.31,0.27,0.14,0.34,0.35,0.35
72.91,0.04,-0.28,0.04,-0.29,0.29,0.24,0.11,0.33,0.32,0.33
73.64,0.03,-0.27,0.04,-0.27,0.27,0.21,0.09,0.30,0.30,0.30
74.38,0.03,-0.25,0.04,-0.24,0.25,0.19,0.07,0.28,0.28,0.29
75.12,0.04,-0.21,0.04,-0.22,0.22,0.16,0.04,0.27,0.26,0.25
75.87,0.04,-0.19,0.04,-0.20,0.20,0.13,0.02,0.24,0.24,0.23
76.63,0.03,-0.18,0.04,-0.17,0.17,0.10,-0.01,0.21,0.21,0.22
77.40,0.03,-0.16,0.04,-0.15,0.15,0.08,-0.03,0.18,0.18,0.19
78.17,0.04,-0.11,0.04,-0.12,0.12,0.05,-0.06,0.16,0.16,0.15
78.95,0.04,-0.10,0.05,-0.09,0.09,0.02,-0.08,0.13,0.13,0.14
79.74,0.05,-0.06,0.05,-0.06,0.06,-0.01,-0.11,0.11,0.11,0.11
80.54,0.05,-0.03,0.06,-0.03,0.02,-0.04,-0.13,0.08,0.08,0.08
81.35,0.06,0.01,0.06,0.01,-0.01,-0.07,-0.16,0.05,0.05,0.05
82.16,0.07,0.05,0.07,0.05,-0.05,-0.10,-0.18,0.03,0.02,0.02
82.98,0.08,0.08,0.08,0.09,-0.09,-0.13,-0.21,-0.00,-0.01,-0.00
83.81,0.08,0.13,0.08,0.12,-0.12,-0.16,-0.23,-0.04,-0.04,-0.04
84.65,0.08,0.16,0.09,0.16,-0.16,-0.19,-0.26,-0.08,-0.07,-0.08
85.50,0.09,0.19,0.09,0.20,-0.20,-0.22,-0.29,-0.10,-0.10,-0.10
86.35,0.10,0.24,0.10,0.23,-0.23,-0.25,-0.31,-0.13,-0.13,-0.13
87.22,0.10,0.27,0.10,0.27,-0.27,-0.28,-0.34,-0.17,-0.17,-0.17
88.09,0.10,0.31,0.10,0.30,-0.31,-0.31,-0.37,-0.20,-0.20,-0.20
88.97,0.10,0.33,0.10,0.34,-0.34,-0.34,-0.40,-0.24,-0.24,-0.23
89.86,0.10,0.37,0.10,0.37,-0.37,-0.37,-0.43,-0.27,-0.27,-0.26
90.76,0.10,0.41,0.10,0.41,-0.40,-0.40,-0.45,-0.30,-0.30,-0.31
91.66,0.09,0.43,0.09,0.44,-0.43,-0.43,-0.48,-0.34,-0.34,-0.34
92.58,0.08,0.47,0.08,0.46,-0.46,-0.46,-0.51,-0.37,-0.37,-0.38
93.51,0.07,0.47,0.07,0.48,-0.48,-0.49,-0.54,-0.41,-0.41,-0.40
94.44,0.06,0.50,0.06,0.50,-0.50,-0.53,-0.57,-0.44,-0.44,-0.44
95.39,0.04,0.52,0.04,0.52,-0.53,-0.56,-0.60,-0.48,-0.48,-0.48
96.34,0.02,0.55,0.02,0.54,-0.55,-0.59,-0.63,-0.52,-0.52,-0.52
97.30,0.00,0.57,0.00,0.57,-0.57,-0.62,-0.66,-0.56,-0.56,-0.56
98.28,-0.02,0.59,-0.02,0.59,-0.59,-0.65,-0.69,-0.61,-0.61,-0.60
99.26,-0.04,0.61,-0.04,0.61,-0.61,-0.68,-0.73,-0.65,-0.65,-0.65
100.25,-0.06,0.63,-0.06,0.63,-0.63,-0.71,-0.76,-0.69,-0.69,-0.69
101.25,-0.08,0.65,-0.08,0.66,-0.66,-0.75,-0.79,-0.73,-0.73,-0.73
102.27,-0.10,0.68,-0.10,0.68,-0.68,-0.78,-0.82,-0.78,-0.78,-0.78
103.29,-0.12,0.71,-0.12,0.71,-0.70,-0.81,-0.85,-0.82,-0.82,-0.83
104.32,-0.14,0.73,-0.14,0.73,-0.73,-0.84,-0.88,-0.86,-0.86,-0.87
105.37,-0.16,0.75,-0.16,0.75,-0.75,-0.87,-0.91,-0.91,-0.91,-0.91
106.42,-0.19,0.77,-0.19,0.77,-0.77,-0.90,-0.94,-0.96,-0.96,-0.96
107.48,-0.22,0.79,-0.21,0.79,-0.79,-0.93,-0.97,-1.01,-1.01,-1.01
108.56,-0.24,0.82,-0.24,0.82,-0.82,-0.96,-1.00,-1.05,-1.05,-1.05
109.64,-0.26,0.85,-0.26,0.84,-0.84,-0.99,-1.03,-1.09,-1.10,-1.10
110.74,-0.29,0.86,-0.29,0.86,-0.86,-1.02,-1.06,-1.15,-1.14,-1.14
111.85,-0.32,0.88,-0.32,0.88,-0.88,-1.04,-1.09,-1.20,-1.20,-1.19
112.97,-0.35,0.91,-0.35,0.90,-0.91,-1.07,-1.11,-1.25,-1.25,-1.26
114.10,-0.38,0.92,-0.37,0.93,-0.93,-1.10,-1.14,-1.31,-1.31,-1.30
115.24,-0.40,0.95,-0.40,0.96,-0.96,-1.13,-1.16,-1.35,-1.35,-1.35
116.39,-0.42,0.99,-0.42,0.98,-0.98,-1.15,-1.19,-1.40,-1.40,-1.41
117.55,-0.44,1.02,-0.44,1.02,-1.01,-1.18,-1.21,-1.45,-1.45,-1.45
118.73,-0.46,1.04,-0.45,1.04,-1.04,-1.20,-1.23,-1.50,-1.49,-1.50
119.92,-0.47,1.07,-0.47,1.07,-1.07,-1.23,-1.25,-1.54,-1.54,-1.54
121.12,-0.49,1.10,-0.48,1.10,-1.10,-1.25,-1.27,-1.59,-1.58,-1.58
122.33,-0.50,1.13,-0.50,1.13,-1.13,-1.28,-1.28,-1.63,-1.63,-1.63
123.55,-0.51,1.16,-0.51,1.16,-1.16,-1.30,-1.30,-1.67,-1.67,-1.67
124.79,-0.52,1.20,-0.52,1.19,-1.20,-1.32,-1.31,-1.71,-1.71,-1.71
126.03,-0.53,1.22,-0.52,1.23,-1.23,-1.34,-1.32,-1.76,-1.76,-1.75
127.29,-0.53,1.26,-0.53,1.27,-1.27,-1.36,-1.33,-1.79,-1.79,-1.79
128.57,-0.54,1.31,-0.54,1.30,-1.30,-1.38,-1.34,-1.84,-1.83,-1.85
129.85,-0.54,1.34,-0.54,1.34,-1.33,-1.40,-1.34,-1.87,-1.87,-1.88
131.15,-0.56,1.36,-0.55,1.37,-1.36,-1.42,-1.35,-1.92,-1.91,-1.91
132.46,-0.56,1.40,-0.56,1.39,-1.39,-1.44,-1.35,-1.95,-1.95,-1.95
133.79,-0.57,1.41,-0.57,1.41,-1.41,-1.46,-1.35,-1.98,-1.98,-1.98
135.12,-0.58,1.44,-0.58,1.43,-1.44,-1.47,-1.35,-2.01,-2.01,-2.02
136.48,-0.59,1.45,-0.59,1.45,-1.46,-1.49,-1.35,-2.04,-2.04,-2.04
137.84,-0.60,1.46,-0.59,1.48,-1.48,-1.50,-1.35,-2.07,-2.07,-2.06
139.22,-0.60,1.50,-0.60,1.50,-1.49,-1.52,-1.35,-2.09,-2.09,-2.10
140.61,-0.61,1.52,-0.61,1.51,-1.51,-1.53,-1.35,-2.11,-2.11,-2.13
142.02,-0.61,1.52,-0.61,1.52,-1.52,-1.54,-1.34,-2.13,-2.13,-2.13
143.44,-0.63,1.52,-0.62,1.53,-1.53,-1.55,-1.34,-2.16,-2.15,-2.14
144.87,-0.63,1.54,-0.63,1.54,-1.54,-1.56,-1.33,-2.17,-2.17,-2.17
146.32,-0.64,1.55,-0.64,1.55,-1.55,-1.57,-1.33,-2.19,-2.19,-2.19
147.78,-0.65,1.55,-0.65,1.55,-1.55,-1.58,-1.33,-2.20,-2.20,-2.19
149.26,-0.66,1.55,-0.66,1.56,-1.56,-1.59,-1.32,-2.22,-2.21,-2.21
150.75,-0.67,1.57,-0.67,1.56,-1.56,-1.60,-1.32,-2.23,-2.23,-2.24
152.26,-0.68,1.57,-0.68,1.57,-1.57,-1.61,-1.31,-2.24,-2.25,-2.25
153.78,-0.70,1.57,-0.69,1.57,-1.57,-1.61,-1.31,-2.27,-2.26,-2.26
155.32,-0.71,1.57,-0.71,1.57,-1.57,-1.62,-1.31,-2.28,-2.28,-2.28
156.88,-0.73,1.56,-0.73,1.57,-1.57,-1.62,-1.30,-2.30,-2.30,-2.29
158.44,-0.75,1.56,-0.74,1.57,-1.57,-1.63,-1.30,-2.32,-2.31,-2.31
160.03,-0.76,1.58,-0.76,1.57,-1.57,-1.63,-1.30,-2.32,-2.33,-2.33
161.63,-0.79,1.57,-0.78,1.57,-1.56,-1.63,-1.30,-2.35,-2.35,-2.35
163.24,-0.81,1.56,-0.80,1.56,-1.56,-1.63,-1.30,-2.36,-2.36,-2.36
164.88,-0.83,1.55,-0.83,1.55,-1.55,-1.63,-1.30,-2.38,-2.38,-2.37
166.53,-0.85,1.55,-0.85,1.55,-1.55,-1.64,-1.30,-2.39,-2.40,-2.39
168.19,-0.88,1.54,-0.88,1.54,-1.54,-1.63,-1.31,-2.42,-2.42,-2.42
169.87,-0.91,1.53,-0.90,1.53,-1.53,-1.63,-1.31,-2.44,-2.44,-2.44
171.57,-0.93,1.53,-0.93,1.53,-1.53,-1.63,-1.32,-2.46,-2.46,-2.46
173.29,-0.96,1.52,-0.95,1.52,-1.53,-1.63,-1.32,-2.48,-2.48,-2.47
175.02,-0.98,1.52,-0.98,1.52,-1.53,-1.63,-1.33,-2.50,-2.51,-2.50
176.77,-1.01,1.53,-1.01,1.53,-1.53,-1.63,-1.34,-2.53,-2.53,-2.54
178.54,-1.04,1.53,-1.03,1.53,-1.53,-1.62,-1.35,-2.56,-2.56,-2.56
180.32,-1.06,1.53,-1.06,1.53,-1.53,-1.62,-1.36,-2.58,-2.59,-2.59
182.13,-1.09,1.53,-1.09,1.53,-1.53,-1.61,-1.37,-2.62,-2.62,-2.61
183.95,-1.12,1.53,-1.11,1.53,-1.53,-1.61,-1.39,-2.65,-2.64,-2.65
185.79,-1.14,1.53,-1.14,1.53,-1.53,-1.60,-1.40,-2.67,-2.67,-2.67
187.65,-1.17,1.54,-1.17,1.54,-1.53,-1.60,-1.42,-2.70,-2.70,-2.70
189.52,-1.20,1.53,-1.19,1.54,-1.53,-1.59,-1.43,-2.73,-2.72,-2.73
191.42,-1.21,1.54,-1.21,1.53,-1.53,-1.59,-1.45,-2.74,-2.75,-2.75
193.33,-1.24,1.52,-1.24,1.53,-1.53,-1.58,-1.47,-2.77,-2.77,-2.76
195.27,-1.26,1.53,-1.26,1.53,-1.53,-1.57,-1.49,-2.79,-2.79,-2.78
197.22,-1.29,1.52,-1.28,1.53,-1.53,-1.57,-1.51,-2.82,-2.81,-2.80
199.19,-1.30,1.55,-1.30,1.54,-1.53,-1.56,-1.53,-2.83,-2.83,-2.85
201.18,-1.32,1.54,-1.32,1.54,-1.53,-1.55,-1.55,-2.85,-2.85,-2.86
203.19,-1.34,1.53,-1.34,1.53,-1.53,-1.54,-1.57,-2.87,-2.87,-2.87
205.23,-1.36,1.53,-1.36,1.52,-1.53,-1.54,-1.59,-2.89,-2.89,-2.89
207.28,-1.37,1.52,-1.37,1.53,-1.53,-1.53,-1.61,-2.90,-2.90,-2.89
209.35,-1.39,1.53,-1.38,1.53,-1.53,-1.52,-1.63,-2.92,-2.91,-2.91
211.44,-1.39,1.55,-1.39,1.54,-1.53,-1.51,-1.65,-2.92,-2.93,-2.93
213.56,-1.41,1.54,-1.40,1.54,-1.53,-1.51,-1.67,-2.94,-2.94,-2.94
215.69,-1.41,1.53,-1.41,1.54,-1.54,-1.50,-1.69,-2.94,-2.95,-2.94
217.85,-1.42,1.53,-1.42,1.54,-1.54,-1.49,-1.71,-2.96,-2.96,-2.95
220.03,-1.42,1.55,-1.42,1.54,-1.55,-1.48,-1.73,-2.96,-2.96,-2.97
222.23,-1.42,1.56,-1.42,1.55,-1.55,-1.47,-1.75,-2.96,-2.97,-2.97
224.45,-1.42,1.54,-1.42,1.55,-1.55,-1.47,-1.77,-2.97,-2.97,-2.96
226.70,-1.42,1.55,-1.41,1.55,-1.55,-1.46,-1.78,-2.97,-2.96,-2.97
228.96,-1.40,1.57,-1.40,1.55,-1.56,-1.45,-1.79,-2.95,-2.96,-2.96
231.25,-1.40,1.55,-1.39,1.56,-1.56,-1.45,-1.81,-2.95,-2.95,-2.95
233.57,-1.39,1.55,-1.39,1.56,-1.56,-1.44,-1.82,-2.94,-2.94,-2.94
235.90,-1.38,1.56,-1.38,1.55,-1.56,-1.43,-1.82,-2.93,-2.94,-2.93
238.26,-1.37,1.56,-1.37,1.56,-1.55,-1.43,-1.83,-2.92,-2.92,-2.93
240.64,-1.36,1.55,-1.35,1.55,-1.55,-1.42,-1.83,-2.91,-2.90,-2.90
243.05,-1.34,1.55,-1.34,1.54,-1.54,-1.42,-1.83,-2.88,-2.89,-2.89
245.48,-1.34,1.53,-1.33,1.54,-1.54,-1.41,-1.83,-2.87,-2.87,-2.86
247.93,-1.33,1.52,-1.32,1.53,-1.52,-1.41,-1.82,-2.85,-2.85,-2.85
250.41,-1.31,1.53,-1.31,1.51,-1.51,-1.41,-1.81,-2.82,-2.83,-2.83
252.92,-1.31,1.49,-1.31,1.50,-1.49,-1.40,-1.80,-2.80,-2.80,-2.80
255.45,-1.31,1.47,-1.30,1.47,-1.47,-1.40,-1.79,-2.78,-2.78,-2.77
258.00,-1.30,1.45,-1.30,1.45,-1.45,-1.40,-1.77,-2.75,-2.75,-2.75
260.58,-1.30,1.43,-1.30,1.43,-1.43,-1.40,-1.75,-2.73,-2.73,-2.73
263.19,-1.30,1.41,-1.30,1.41,-1.40,-1.40,-1.73,-2.70,-2.70,-2.71
265.82,-1.30,1.38,-1.30,1.38,-1.38,-1.40,-1.71,-2.68,-2.68,-2.68
268.48,-1.30,1.36,-1.29,1.36,-1.36,-1.40,-1.68,-2.65,-2.65,-2.65
271.16,-1.29,1.33,-1.29,1.33,-1.34,-1.40,-1.65,-2.62,-2.63,-2.62
273.87,-1.29,1.31,-1.28,1.31,-1.32,-1.39,-1.62,-2.60,-2.60,-2.60
276.61,-1.28,1.29,-1.27,1.30,-1.30,-1.39,-1.59,-2.58,-2.57,-2.56
279.38,-1.25,1.30,-1.25,1.29,-1.29,-1.39,-1.55,-2.54,-2.55,-2.55
282.17,-1.23,1.29,-1.23,1.29,-1.29,-1.39,-1.51,-2.52,-2.52,-2.52
284.99,-1.21,1.29,-1.20,1.29,-1.29,-1.39,-1.48,-2.50,-2.49,-2.49
287.84,-1.18,1.29,-1.17,1.29,-1.29,-1.38,-1.44,-2.47,-2.47,-2.47
290.72,-1.13,1.30,-1.13,1.30,-1.30,-1.37,-1.40,-2.43,-2.43,-2.43
293.63,-1.10,1.31,-1.09,1.31,-1.31,-1.36,-1.36,-2.40,-2.40,-2.41
296.57,-1.06,1.32,-1.06,1.32,-1.31,-1.35,-1.31,-2.37,-2.37,-2.37
299.53,-1.03,1.32,-1.03,1.32,-1.31,-1.34,-1.27,-2.34,-2.34,-2.35
302.53,-1.00,1.32,-1.00,1.32,-1.32,-1.32,-1.23,-2.31,-2.31,-2.32
305.55,-0.97,1.30,-0.96,1.31,-1.32,-1.30,-1.18,-2.28,-2.28,-2.27
308.61,-0.93,1.31,-0.93,1.31,-1.31,-1.28,-1.14,-2.24,-2.24,-2.24
311.69,-0.90,1.31,-0.90,1.30,-1.30,-1.25,-1.10,-2.20,-2.20,-2.20
314.81,-0.88,1.29,-0.88,1.29,-1.29,-1.22,-1.05,-2.17,-2.17,-2.17
317.96,-0.87,1.27,-0.86,1.28,-1.28,-1.19,-1.01,-2.14,-2.14,-2.14
321.14,-0.85,1.26,-0.85,1.26,-1.26,-1.15,-0.97,-2.10,-2.11,-2.11
324.35,-0.85,1.23,-0.85,1.23,-1.23,-1.11,-0.92,-2.08,-2.08,-2.08
327.59,-0.85,1.20,-0.85,1.20,-1.20,-1.07,-0.88,-2.05,-2.05,-2.04
330.87,-0.86,1.16,-0.85,1.16,-1.17,-1.02,-0.84,-2.02,-2.02,-2.01
334.18,-0.87,1.13,-0.87,1.12,-1.12,-0.97,-0.79,-1.99,-1.99,-2.00
337.52,-0.89,1.08,-0.89,1.08,-1.07,-0.92,-0.75,-1.95,-1.96,-1.97
340.90,-0.93,1.01,-0.93,1.02,-1.01,-0.87,-0.71,-1.93,-1.93,-1.94
344.30,-0.98,0.94,-0.98,0.94,-0.93,-0.81,-0.67,-1.91,-1.91,-1.92
347.75,-1.04,0.85,-1.04,0.86,-0.85,-0.75,-0.63,-1.89,-1.89,-1.89
351.23,-1.11,0.77,-1.10,0.77,-0.77,-0.69,-0.59,-1.87,-1.87,-1.87
354.74,-1.18,0.68,-1.18,0.68,-0.67,-0.63,-0.55,-1.85,-1.85,-1.85
358.28,-1.26,0.58,-1.26,0.58,-0.58,-0.57,-0.51,-1.83,-1.83,-1.84
361.87,-1.34,0.48,-1.34,0.48,-0.48,-0.50,-0.47,-1.82,-1.82,-1.82
365.49,-1.42,0.37,-1.42,0.38,-0.38,-0.44,-0.43,-1.80,-1.80,-1.79
369.14,-1.49,0.29,-1.49,0.29,-0.29,-0.37,-0.39,-1.78,-1.78,-1.78
372.83,-1.57,0.19,-1.56,0.20,-0.20,-0.30,-0.35,-1.77,-1.76,-1.76
376.56,-1.62,0.12,-1.62,0.11,-0.11,-0.23,-0.32,-1.73,-1.74,-1.74
380.33,-1.69,0.02,-1.68,0.03,-0.04,-0.16,-0.28,-1.72,-1.72,-1.71
384.13,-1.73,-0.03,-1.73,-0.04,0.03,-0.09,-0.24,-1.69,-1.70,-1.69
387.97,-1.78,-0.10,-1.78,-0.10,0.10,-0.02,-0.21,-1.68,-1.68,-1.67
391.85,-1.81,-0.15,-1.81,-0.16,0.15,0.04,-0.17,-1.65,-1.65,-1.65
395.77,-1.84,-0.21,-1.83,-0.21,0.20,0.11,-0.14,-1.63,-1.63,-1.62
399.73,-1.85,-0.24,-1.85,-0.24,0.25,0.17,-0.10,-1.60,-1.61,-1.61
403.72,-1.87,-0.28,-1.87,-0.28,0.28,0.22,-0.07,-1.58,-1.59,-1.59
407.76,-1.88,-0.31,-1.88,-0.31,0.31,0.27,-0.04,-1.56,-1.56,-1.57
411.84,-1.89,-0.35,-1.88,-0.34,0.34,0.31,-0.00,-1.54,-1.54,-1.54
415.96,-1.88,-0.36,-1.88,-0.36,0.37,0.34,0.03,-1.51,-1.51,-1.52
420.12,-1.88,-0.38,-1.88,-0.38,0.39,0.37,0.06,-1.49,-1.49,-1.50
424.32,-1.88,-0.41,-1.88,-0.40,0.41,0.39,0.09,-1.47,-1.47,-1.47
428.56,-1.88,-0.43,-1.87,-0.42,0.42,0.39,0.12,-1.45,-1.45,-1.45
432.85,-1.87,-0.44,-1.86,-0.44,0.44,0.40,0.15,-1.43,-1.43,-1.43
437.18,-1.85,-0.45,-1.85,-0.45,0.44,0.39,0.18,-1.40,-1.41,-1.40
441.55,-1.83,-0.46,-1.83,-0.45,0.45,0.39,0.21,-1.38,-1.38,-1.37
445.96,-1.81,-0.45,-1.80,-0.45,0.45,0.37,0.24,-1.36,-1.35,-1.35
450.42,-1.77,-0.43,-1.77,-0.45,0.45,0.36,0.26,-1.32,-1.33,-1.33
454.93,-1.74,-0.44,-1.74,-0.43,0.44,0.35,0.29,-1.30,-1.30,-1.29
459.48,-1.70,-0.42,-1.69,-0.42,0.42,0.33,0.31,-1.27,-1.27,-1.27
464.07,-1.65,-0.40,-1.65,-0.41,0.41,0.32,0.34,-1.24,-1.24,-1.24
468.71,-1.61,-0.40,-1.60,-0.39,0.39,0.30,0.36,-1.22,-1.21,-1.20
