frequency,raw,error,smoothed,error_smoothed,equalization,parametric_eq,equalized_raw,equalized_smoothed,target
20.00,-6.95,-9.22,-6.96,-9.23,6.00,2.56,-0.95,-0.96,2.27
20.20,-6.85,-9.13,-6.85,-9.13,6.00,2.63,-0.85,-0.85,2.28
20.40,-6.75,-9.04,-6.75,-9.04,6.00,2.71,-0.75,-0.75,2.29
20.61,-6.65,-8.95,-6.65,-8.95,6.00,2.78,-0.65,-0.65,2.30
20.81,-6.54,-8.85,-6.55,-8.86,6.00,2.86,-0.54,-0.55,2.31
21.02,-6.44,-8.77,-6.45,-8.77,6.00,2.95,-0.44,-0.45,2.32
21.23,-6.34,-8.68,-6.34,-8.67,6.00,3.03,-0.34,-0.34,2.33
21.44,-6.24,-8.59,-6.24,-8.58,6.00,3.12,-0.24,-0.24,2.34
21.66,-6.15,-8.50,-6.14,-8.49,6.00,3.21,-0.15,-0.14,2.35
21.87,-6.04,-8.41,-6.04,-8.40,6.00,3.30,-0.04,-0.04,2.36
22.09,-5.94,-8.32,-5.94,-8.31,6.00,3.40,0.06,0.06,2.37
22.31,-5.83,-8.22,-5.83,-8.22,6.00,3.49,0.17,0.17,2.39
22.54,-5.74,-8.13,-5.73,-8.13,6.00,3.59,0.26,0.27,2.40
22.76,-5.63,-8.04,-5.63,-8.04,6.00,3.70,0.37,0.37,2.41
22.99,-5.52,-7.94,-5.53,-7.95,6.00,3.80,0.48,0.47,2.42
23.22,-5.42,-7.85,-5.43,-7.86,6.00,3.91,0.58,0.57,2.43
23.45,-5.32,-7.76,-5.33,-7.77,6.00,4.02,0.68,0.67,2.44
23.69,-5.23,-7.68,-5.22,-7.68,6.00,4.13,0.77,0.78,2.45
23.92,-5.12,-7.59,-5.12,-7.59,6.00,4.25,0.88,0.88,2.46
24.16,-5.02,-7.50,-5.02,-7.50,6.00,4.36,0.98,0.98,2.48
24.40,-4.92,-7.41,-4.92,-7.41,6.00,4.48,1.08,1.08,2.49
24.65,-4.82,-7.32,-4.82,-7.32,6.00,4.60,1.18,1.18,2.50
24.89,-4.72,-7.23,-4.72,-7.23,6.00,4.72,1.28,1.28,2.51
25.14,-4.62,-7.14,-4.63,-7.14,6.00,4.85,1.38,1.37,2.52
25.39,-4.52,-7.05,-4.53,-7.06,6.00,4.97,1.48,1.47,2.53
25.65,-4.43,-6.97,-4.43,-6.97,6.00,5.09,1.57,1.57,2.54
25.91,-4.34,-6.89,-4.33,-6.88,6.00,5.22,1.66,1.67,2.55
26.16,-4.23,-6.79,-4.24,-6.79,6.00,5.34,1.77,1.76,2.56
26.43,-4.15,-6.72,-4.14,-6.71,6.00,5.46,1.85,1.86,2.57
26.69,-4.04,-6.62,-4.04,-6.62,6.00,5.59,1.96,1.96,2.58
26.96,-3.95,-6.55,-3.95,-6.54,6.00,5.71,2.05,2.05,2.59
27.23,-3.86,-6.46,-3.85,-6.45,6.00,5.82,2.14,2.15,2.60
27.50,-3.75,-6.37,-3.76,-6.37,6.00,5.93,2.25,2.24,2.61
27.77,-3.66,-6.28,-3.67,-6.28,6.00,6.04,2.34,2.33,2.62
28.05,-3.56,-6.19,-3.57,-6.20,5.99,6.15,2.43,2.42,2.63
28.33,-3.47,-6.12,-3.48,-6.12,5.97,6.24,2.49,2.49,2.64
28.62,-3.39,-6.04,-3.39,-6.04,5.93,6.34,2.55,2.55,2.65
28.90,-3.29,-5.96,-3.29,-5.95,5.89,6.42,2.59,2.59,2.66
29.19,-3.20,-5.88,-3.20,-5.87,5.83,6.49,2.63,2.63,2.67
29.48,-3.11,-5.80,-3.11,-5.79,5.77,6.56,2.66,2.66,2.68
29.78,-3.03,-5.73,-3.02,-5.71,5.70,6.61,2.67,2.69,2.70
30.08,-2.95,-5.65,-2.93,-5.63,5.63,6.66,2.68,2.70,2.71
30.38,-2.85,-5.56,-2.84,-5.55,5.55,6.69,2.71,2.71,2.72
30.68,-2.74,-5.47,-2.75,-5.47,5.47,6.72,2.73,2.72,2.73
30.99,-2.64,-5.38,-2.66,-5.39,5.39,6.73,2.75,2.73,2.74
31.30,-2.56,-5.31,-2.58,-5.32,5.32,6.73,2.75,2.74,2.75
31.61,-2.48,-5.24,-2.49,-5.24,5.24,6.72,2.76,2.75,2.76
31.93,-2.40,-5.17,-2.41,-5.17,5.17,6.69,2.76,2.76,2.77
32.24,-2.32,-5.10,-2.32,-5.10,5.10,6.66,2.77,2.77,2.78
32.57,-2.24,-5.03,-2.24,-5.03,5.03,6.61,2.78,2.78,2.78
32.89,-2.17,-4.97,-2.16,-4.96,4.96,6.55,2.78,2.79,2.79
33.22,-2.09,-4.90,-2.09,-4.89,4.89,6.49,2.80,2.80,2.80
33.55,-2.02,-4.83,-2.02,-4.83,4.83,6.41,2.80,2.81,2.81
33.89,-1.94,-4.76,-1.95,-4.76,4.76,6.33,2.82,2.82,2.82
34.23,-1.87,-4.70,-1.88,-4.71,4.71,6.24,2.83,2.83,2.83
34.57,-1.81,-4.65,-1.81,-4.65,4.65,6.14,2.83,2.83,2.83
34.92,-1.74,-4.59,-1.75,-4.59,4.59,6.03,2.85,2.84,2.84
35.27,-1.68,-4.54,-1.69,-4.54,4.54,5.92,2.86,2.85,2.85
35.62,-1.62,-4.48,-1.63,-4.49,4.49,5.81,2.87,2.86,2.86
35.97,-1.56,-4.43,-1.58,-4.45,4.45,5.69,2.88,2.87,2.87
36.33,-1.52,-4.40,-1.53,-4.40,4.40,5.57,2.88,2.87,2.87
36.70,-1.47,-4.36,-1.48,-4.36,4.36,5.45,2.88,2.88,2.88
37.06,-1.42,-4.31,-1.43,-4.31,4.31,5.33,2.89,2.89,2.89
37.43,-1.37,-4.27,-1.38,-4.27,4.27,5.20,2.90,2.89,2.89
37.81,-1.32,-4.22,-1.33,-4.23,4.23,5.08,2.90,2.89,2.90
38.19,-1.28,-4.19,-1.28,-4.18,4.18,4.95,2.90,2.90,2.91
38.57,-1.23,-4.15,-1.23,-4.13,4.13,4.83,2.90,2.90,2.91
38.95,-1.19,-4.11,-1.17,-4.08,4.08,4.70,2.89,2.91,2.92
39.34,-1.12,-4.05,-1.11,-4.02,4.02,4.58,2.90,2.91,2.92
39.74,-1.06,-3.99,-1.05,-3.97,3.97,4.46,2.90,2.92,2.93
40.14,-0.99,-3.93,-0.98,-3.90,3.90,4.34,2.91,2.92,2.93
40.54,-0.92,-3.86,-0.91,-3.84,3.84,4.23,2.91,2.93,2.94
40.94,-0.84,-3.79,-0.83,-3.77,3.77,4.11,2.92,2.94,2.94
41.35,-0.76,-3.71,-0.75,-3.69,3.69,4.00,2.93,2.94,2.95
41.76,-0.67,-3.63,-0.67,-3.62,3.62,3.89,2.95,2.95,2.95
42.18,-0.58,-3.54,-0.59,-3.54,3.54,3.78,2.96,2.95,2.96
42.60,-0.49,-3.45,-0.51,-3.47,3.47,3.68,2.97,2.96,2.96
43.03,-0.40,-3.37,-0.42,-3.39,3.39,3.57,2.98,2.96,2.96
43.46,-0.33,-3.30,-0.34,-3.31,3.31,3.47,2.98,2.97,2.97
43.90,-0.25,-3.23,-0.26,-3.23,3.23,3.38,2.98,2.98,2.97
44.33,-0.17,-3.15,-0.18,-3.16,3.16,3.28,2.99,2.98,2.98
44.78,-0.10,-3.09,-0.10,-3.09,3.09,3.19,2.98,2.98,2.98
45.23,-0.02,-3.01,-0.02,-3.01,3.01,3.10,2.99,2.99,2.99
45.68,0.05,-2.95,0.05,-2.94,2.94,3.01,2.99,2.99,2.99
46.13,0.12,-2.88,0.12,-2.88,2.88,2.93,2.99,3.00,3.00
46.60,0.19,-2.81,0.19,-2.81,2.81,2.85,3.00,3.00,3.00
47.06,0.26,-2.75,0.25,-2.75,2.75,2.77,3.01,3.00,3.00
47.53,0.32,-2.69,0.32,-2.69,2.69,2.69,3.01,3.01,3.01
48.01,0.38,-2.63,0.38,-2.63,2.63,2.61,3.01,3.01,3.01
48.49,0.44,-2.58,0.44,-2.57,2.57,2.54,3.01,3.01,3.01
48.97,0.50,-2.52,0.49,-2.52,2.52,2.47,3.02,3.01,3.01
49.46,0.55,-2.47,0.54,-2.47,2.47,2.40,3.02,3.01,3.02
49.96,0.61,-2.41,0.59,-2.42,2.42,2.34,3.03,3.02,3.02
50.46,0.65,-2.37,0.64,-2.37,2.37,2.27,3.02,3.01,3.01
50.96,0.69,-2.33,0.68,-2.33,2.33,2.21,3.02,3.01,3.01
51.47,0.72,-2.29,0.72,-2.29,2.29,2.15,3.00,3.01,3.01
51.99,0.76,-2.25,0.76,-2.25,2.25,2.09,3.00,3.01,3.01
52.51,0.80,-2.21,0.79,-2.21,2.21,2.03,3.01,3.00,3.00
53.03,0.83,-2.17,0.82,-2.18,2.18,1.97,3.00,3.00,3.00
53.56,0.86,-2.14,0.85,-2.14,2.14,1.92,3.00,2.99,2.99
54.10,0.88,-2.11,0.88,-2.11,2.11,1.86,2.98,2.98,2.98
54.64,0.91,-2.07,0.90,-2.08,2.08,1.81,2.98,2.97,2.98
55.18,0.93,-2.04,0.92,-2.04,2.04,1.76,2.97,2.96,2.97
55.74,0.94,-2.02,0.94,-2.01,2.01,1.71,2.95,2.95,2.96
56.29,0.96,-1.99,0.96,-1.98,1.98,1.66,2.94,2.94,2.94
56.86,0.98,-1.95,0.98,-1.95,1.95,1.61,2.92,2.93,2.93
57.42,1.00,-1.92,1.00,-1.91,1.91,1.56,2.91,2.91,2.92
58.00,1.02,-1.88,1.02,-1.88,1.88,1.51,2.90,2.90,2.90
58.58,1.03,-1.86,1.04,-1.84,1.84,1.46,2.87,2.88,2.88
59.16,1.05,-1.82,1.06,-1.81,1.81,1.42,2.85,2.86,2.87
59.76,1.07,-1.78,1.08,-1.77,1.77,1.37,2.83,2.84,2.85
60.35,1.10,-1.73,1.10,-1.72,1.72,1.32,2.82,2.82,2.83
60.96,1.13,-1.68,1.12,-1.68,1.68,1.28,2.81,2.80,2.81
61.57,1.16,-1.63,1.15,-1.63,1.63,1.23,2.79,2.78,2.78
62.18,1.19,-1.57,1.17,-1.58,1.58,1.19,2.77,2.76,2.76
62.80,1.21,-1.53,1.20,-1.53,1.53,1.14,2.74,2.73,2.73
63.43,1.24,-1.47,1.22,-1.48,1.48,1.09,2.72,2.70,2.71
64.07,1.26,-1.43,1.25,-1.42,1.42,1.05,2.68,2.68,2.68
64.71,1.28,-1.38,1.29,-1.37,1.37,1.00,2.64,2.65,2.66
65.35,1.31,-1.32,1.32,-1.30,1.30,0.96,2.61,2.63,2.63
66.01,1.35,-1.25,1.36,-1.24,1.24,0.91,2.59,2.60,2.60
66.67,1.39,-1.18,1.39,-1.17,1.17,0.86,2.56,2.57,2.57
67.33,1.43,-1.11,1.43,-1.10,1.10,0.81,2.53,2.54,2.54
68.01,1.47,-1.04,1.47,-1.03,1.03,0.77,2.50,2.50,2.51
68.69,1.53,-0.95,1.52,-0.96,0.96,0.72,2.48,2.47,2.48
69.37,1.58,-0.87,1.57,-0.88,0.88,0.67,2.45,2.44,2.45
70.07,1.63,-0.79,1.62,-0.80,0.80,0.62,2.42,2.42,2.42
70.77,1.68,-0.71,1.67,-0.71,0.71,0.58,2.39,2.39,2.39
71.48,1.73,-0.63,1.73,-0.63,0.63,0.53,2.35,2.36,2.36
72.19,1.79,-0.54,1.79,-0.54,0.54,0.48,2.33,2.33,2.33
72.91,1.84,-0.47,1.85,-0.45,0.45,0.43,2.29,2.30,2.30
73.64,1.90,-0.38,1.91,-0.36,0.36,0.38,2.26,2.27,2.27
74.38,1.97,-0.28,1.97,-0.27,0.27,0.33,2.24,2.24,2.25
75.12,2.04,-0.18,2.04,-0.18,0.18,0.28,2.22,2.22,2.22
75.87,2.12,-0.08,2.10,-0.09,0.09,0.23,2.21,2.19,2.19
76.63,2.18,0.01,2.17,-0.00,0.00,0.18,2.18,2.17,2.17
77.40,2.24,0.09,2.23,0.09,-0.09,0.13,2.15,2.14,2.14
78.17,2.30,0.18,2.29,0.17,-0.17,0.08,2.12,2.12,2.12
78.95,2.36,0.26,2.36,0.26,-0.26,0.02,2.10,2.10,2.10
79.74,2.41,0.33,2.42,0.34,-0.34,-0.03,2.07,2.08,2.08
80.54,2.47,0.41,2.48,0.42,-0.42,-0.08,2.05,2.06,2.06
81.35,2.54,0.50,2.53,0.49,-0.49,-0.13,2.04,2.04,2.04
82.16,2.60,0.58,2.59,0.57,-0.57,-0.19,2.03,2.02,2.02
82.98,2.65,0.64,2.64,0.64,-0.64,-0.24,2.01,2.00,2.00
83.81,2.69,0.70,2.69,0.70,-0.70,-0.30,1.99,1.99,1.99
84.65,2.74,0.76,2.73,0.76,-0.76,-0.35,1.98,1.97,1.97
85.50,2.78,0.82,2.77,0.81,-0.81,-0.41,1.96,1.96,1.96
86.35,2.82,0.87,2.81,0.86,-0.86,-0.46,1.95,1.95,1.95
87.22,2.85,0.91,2.84,0.91,-0.91,-0.52,1.94,1.94,1.93
88.09,2.88,0.95,2.87,0.95,-0.95,-0.57,1.93,1.93,1.92
88.97,2.92,1.00,2.90,0.98,-0.98,-0.63,1.94,1.92,1.91
89.86,2.94,1.03,2.92,1.01,-1.01,-0.69,1.93,1.91,1.90
90.76,2.95,1.05,2.94,1.04,-1.04,-0.75,1.91,1.90,1.90
91.66,2.96,1.07,2.95,1.06,-1.06,-0.81,1.89,1.89,1.89
92.58,2.97,1.08,2.96,1.08,-1.08,-0.87,1.88,1.88,1.88
93.51,2.98,1.10,2.98,1.11,-1.11,-0.93,1.87,1.87,1.88
94.44,2.99,1.12,2.99,1.13,-1.13,-0.99,1.86,1.86,1.87
95.39,3.00,1.14,3.00,1.15,-1.15,-1.05,1.85,1.85,1.86
96.34,3.02,1.16,3.02,1.17,-1.17,-1.11,1.84,1.84,1.85
97.30,3.03,1.19,3.03,1.20,-1.20,-1.17,1.82,1.83,1.84
98.28,3.04,1.21,3.05,1.24,-1.24,-1.23,1.80,1.82,1.83
99.26,3.06,1.24,3.07,1.27,-1.27,-1.30,1.78,1.80,1.82
100.25,3.09,1.29,3.10,1.32,-1.32,-1.36,1.77,1.79,1.80
101.25,3.13,1.34,3.14,1.36,-1.36,-1.42,1.76,1.77,1.78
102.27,3.18,1.41,3.17,1.42,-1.42,-1.48,1.76,1.75,1.77
103.29,3.20,1.45,3.21,1.48,-1.48,-1.54,1.72,1.73,1.74
104.32,3.24,1.51,3.25,1.54,-1.54,-1.60,1.69,1.71,1.72
105.37,3.30,1.60,3.30,1.61,-1.61,-1.66,1.68,1.69,1.70
106.42,3.36,1.69,3.35,1.69,-1.69,-1.72,1.67,1.66,1.67
107.48,3.41,1.77,3.39,1.76,-1.76,-1.78,1.64,1.63,1.64
108.56,3.46,1.85,3.45,1.84,-1.84,-1.84,1.61,1.60,1.61
109.64,3.51,1.93,3.50,1.92,-1.92,-1.89,1.58,1.57,1.58
110.74,3.55,2.00,3.55,2.00,-2.00,-1.94,1.54,1.54,1.54
111.85,3.59,2.08,3.59,2.09,-2.09,-1.99,1.50,1.51,1.51
112.97,3.63,2.15,3.64,2.17,-2.17,-2.04,1.46,1.47,1.47
114.10,3.68,2.24,3.69,2.25,-2.25,-2.09,1.43,1.44,1.44
115.24,3.74,2.33,3.73,2.33,-2.33,-2.13,1.41,1.40,1.40
116.39,3.76,2.39,3.76,2.40,-2.40,-2.17,1.36,1.36,1.37
117.55,3.80,2.47,3.80,2.47,-2.47,-2.20,1.33,1.33,1.33
118.73,3.84,2.54,3.83,2.53,-2.53,-2.23,1.30,1.29,1.29
119.92,3.86,2.60,3.85,2.59,-2.59,-2.26,1.27,1.26,1.26
121.12,3.87,2.64,3.86,2.64,-2.64,-2.28,1.23,1.23,1.22
122.33,3.87,2.67,3.87,2.68,-2.68,-2.30,1.19,1.20,1.19
123.55,3.88,2.72,3.87,2.71,-2.71,-2.32,1.17,1.16,1.16
124.79,3.89,2.76,3.86,2.73,-2.73,-2.33,1.16,1.13,1.13
126.03,3.87,2.76,3.85,2.74,-2.74,-2.33,1.12,1.10,1.10
127.29,3.84,2.76,3.82,2.74,-2.74,-2.33,1.09,1.08,1.08
128.57,3.81,2.76,3.79,2.74,-2.74,-2.33,1.07,1.05,1.05
129.85,3.76,2.73,3.75,2.72,-2.72,-2.32,1.03,1.03,1.03
131.15,3.69,2.68,3.70,2.70,-2.70,-2.31,0.98,1.00,1.00
132.46,3.65,2.67,3.65,2.67,-2.67,-2.30,0.98,0.98,0.98
133.79,3.58,2.62,3.59,2.63,-2.63,-2.28,0.94,0.96,0.96
135.12,3.51,2.57,3.52,2.59,-2.59,-2.25,0.92,0.94,0.94
136.48,3.46,2.54,3.45,2.54,-2.54,-2.23,0.92,0.91,0.92
137.84,3.38,2.48,3.37,2.48,-2.48,-2.20,0.90,0.89,0.90
139.22,3.32,2.44,3.29,2.42,-2.42,-2.17,0.90,0.87,0.88
140.61,3.23,2.37,3.21,2.36,-2.36,-2.13,0.87,0.85,0.85
142.02,3.11,2.27,3.12,2.29,-2.29,-2.09,0.82,0.83,0.83
143.44,3.04,2.22,3.03,2.22,-2.22,-2.06,0.82,0.81,0.81
144.87,2.91,2.12,2.93,2.15,-2.15,-2.01,0.76,0.79,0.79
146.32,2.84,2.07,2.84,2.08,-2.08,-1.97,0.76,0.76,0.77
147.78,2.73,1.98,2.74,2.00,-2.00,-1.93,0.72,0.74,0.75
149.26,2.65,1.92,2.64,1.93,-1.93,-1.89,0.72,0.72,0.72
150.75,2.55,1.85,2.55,1.85,-1.85,-1.84,0.69,0.69,0.70
152.26,2.46,1.78,2.45,1.78,-1.78,-1.80,0.68,0.67,0.68
153.78,2.33,1.67,2.35,1.70,-1.70,-1.75,0.63,0.65,0.65
155.32,2.25,1.62,2.25,1.63,-1.63,-1.70,0.62,0.63,0.63
156.88,2.14,1.53,2.15,1.55,-1.55,-1.66,0.59,0.60,0.61
158.44,2.06,1.47,2.05,1.47,-1.47,-1.61,0.58,0.58,0.58
160.03,1.94,1.38,1.95,1.40,-1.40,-1.57,0.54,0.55,0.56
161.63,1.86,1.32,1.85,1.32,-1.32,-1.52,0.54,0.53,0.53
163.24,1.78,1.27,1.74,1.24,-1.24,-1.48,0.54,0.50,0.51
164.88,1.65,1.16,1.64,1.16,-1.16,-1.44,0.49,0.48,0.48
166.53,1.55,1.09,1.53,1.08,-1.08,-1.39,0.47,0.45,0.46
168.19,1.45,1.02,1.43,1.00,-1.00,-1.35,0.45,0.43,0.43
169.87,1.30,0.89,1.32,0.92,-0.92,-1.31,0.38,0.40,0.40
171.57,1.19,0.81,1.21,0.83,-0.83,-1.27,0.35,0.37,0.37
173.29,1.09,0.74,1.09,0.75,-0.75,-1.23,0.34,0.34,0.34
175.02,0.95,0.63,0.97,0.66,-0.66,-1.19,0.28,0.31,0.31
176.77,0.85,0.56,0.85,0.57,-0.57,-1.15,0.27,0.28,0.28
178.54,0.76,0.51,0.73,0.48,-0.48,-1.12,0.28,0.25,0.25
180.32,0.64,0.42,0.60,0.39,-0.39,-1.08,0.25,0.22,0.22
182.13,0.53,0.34,0.48,0.29,-0.29,-1.04,0.23,0.19,0.19
183.95,0.36,0.20,0.35,0.20,-0.20,-1.01,0.16,0.16,0.15
185.79,0.23,0.11,0.23,0.10,-0.10,-0.98,0.12,0.12,0.12
187.65,0.10,0.01,0.10,0.01,-0.01,-0.95,0.09,0.09,0.09
189.52,-0.01,-0.07,-0.03,-0.08,0.08,-0.91,0.07,0.06,0.05
191.42,-0.14,-0.16,-0.15,-0.17,0.17,-0.88,0.03,0.02,0.02
193.33,-0.27,-0.26,-0.28,-0.26,0.26,-0.85,-0.02,-0.02,-0.02
195.27,-0.38,-0.33,-0.39,-0.33,0.33,-0.83,-0.05,-0.06,-0.05
197.22,-0.49,-0.41,-0.50,-0.40,0.40,-0.80,-0.09,-0.10,-0.08
199.19,-0.59,-0.47,-0.60,-0.46,0.46,-0.77,-0.13,-0.14,-0.12
201.18,-0.69,-0.54,-0.68,-0.51,0.51,-0.75,-0.18,-0.17,-0.15
203.19,-0.78,-0.59,-0.75,-0.54,0.54,-0.72,-0.24,-0.21,-0.19
205.23,-0.85,-0.63,-0.81,-0.56,0.56,-0.70,-0.29,-0.25,-0.22
207.28,-0.88,-0.62,-0.85,-0.57,0.57,-0.67,-0.32,-0.28,-0.26
209.35,-0.91,-0.62,-0.88,-0.56,0.56,-0.65,-0.36,-0.32,-0.30
211.44,-0.92,-0.59,-0.89,-0.53,0.53,-0.63,-0.39,-0.36,-0.34
213.56,-0.90,-0.53,-0.89,-0.49,0.49,-0.61,-0.41,-0.40,-0.37
215.69,-0.86,-0.45,-0.87,-0.44,0.44,-0.59,-0.42,-0.43,-0.41
217.85,-0.83,-0.39,-0.83,-0.37,0.37,-0.57,-0.46,-0.46,-0.45
220.03,-0.80,-0.32,-0.79,-0.30,0.30,-0.55,-0.51,-0.49,-0.48
222.23,-0.74,-0.23,-0.73,-0.21,0.21,-0.54,-0.53,-0.52,-0.51
224.45,-0.65,-0.11,-0.66,-0.12,0.12,-0.52,-0.53,-0.54,-0.54
226.70,-0.58,-0.01,-0.59,-0.02,0.02,-0.51,-0.56,-0.57,-0.57
228.96,-0.49,0.10,-0.51,0.08,-0.08,-0.50,-0.58,-0.59,-0.60
231.25,-0.42,0.20,-0.42,0.19,-0.19,-0.48,-0.61,-0.61,-0.62
233.57,-0.33,0.30,-0.34,0.30,-0.30,-0.47,-0.63,-0.63,-0.64
235.90,-0.21,0.44,-0.25,0.40,-0.40,-0.46,-0.62,-0.65,-0.65
238.26,-0.15,0.51,-0.16,0.51,-0.51,-0.45,-0.66,-0.66,-0.67
240.64,-0.06,0.61,-0.06,0.61,-0.61,-0.44,-0.67,-0.67,-0.68
243.05,0.01,0.69,0.03,0.71,-0.71,-0.44,-0.70,-0.68,-0.69
245.48,0.10,0.79,0.11,0.80,-0.80,-0.43,-0.71,-0.69,-0.69
247.93,0.21,0.90,0.20,0.89,-0.89,-0.43,-0.68,-0.69,-0.69
250.41,0.28,0.97,0.27,0.97,-0.97,-0.42,-0.69,-0.70,-0.70
252.92,0.38,1.07,0.34,1.04,-1.04,-0.42,-0.67,-0.70,-0.70
255.45,0.43,1.12,0.41,1.11,-1.11,-0.42,-0.69,-0.70,-0.70
258.00,0.49,1.18,0.47,1.17,-1.17,-0.42,-0.69,-0.70,-0.70
260.58,0.55,1.24,0.52,1.23,-1.23,-0.42,-0.68,-0.70,-0.70
263.19,0.60,1.29,0.57,1.27,-1.27,-0.43,-0.68,-0.70,-0.70
265.82,0.64,1.33,0.62,1.31,-1.31,-0.43,-0.68,-0.69,-0.69
268.48,0.66,1.35,0.66,1.35,-1.35,-0.43,-0.69,-0.69,-0.69
271.16,0.68,1.36,0.69,1.38,-1.38,-0.44,-0.70,-0.68,-0.69
273.87,0.70,1.38,0.72,1.40,-1.40,-0.44,-0.70,-0.68,-0.68
276.61,0.73,1.40,0.74,1.41,-1.41,-0.45,-0.69,-0.67,-0.67
279.38,0.75,1.41,0.76,1.43,-1.43,-0.46,-0.68,-0.66,-0.66
282.17,0.78,1.43,0.78,1.43,-1.43,-0.47,-0.66,-0.65,-0.65
284.99,0.80,1.44,0.80,1.44,-1.44,-0.48,-0.64,-0.64,-0.64
287.84,0.82,1.45,0.81,1.44,-1.44,-0.49,-0.62,-0.63,-0.63
290.72,0.83,1.44,0.82,1.44,-1.44,-0.50,-0.61,-0.62,-0.62
293.63,0.83,1.43,0.83,1.44,-1.44,-0.52,-0.61,-0.61,-0.60
296.57,0.84,1.43,0.83,1.43,-1.43,-0.53,-0.59,-0.60,-0.59
299.53,0.84,1.42,0.83,1.42,-1.42,-0.54,-0.59,-0.59,-0.59
302.53,0.84,1.41,0.83,1.41,-1.41,-0.56,-0.58,-0.58,-0.58
305.55,0.84,1.41,0.82,1.40,-1.40,-0.57,-0.56,-0.58,-0.57
308.61,0.83,1.39,0.82,1.39,-1.39,-0.59,-0.56,-0.57,-0.56
311.69,0.81,1.37,0.81,1.37,-1.37,-0.61,-0.57,-0.57,-0.56
314.81,0.80,1.35,0.80,1.36,-1.36,-0.63,-0.56,-0.56,-0.56
317.96,0.79,1.34,0.79,1.34,-1.34,-0.64,-0.56,-0.56,-0.55
321.14,0.77,1.32,0.77,1.33,-1.33,-0.66,-0.56,-0.56,-0.55
324.35,0.74,1.29,0.76,1.32,-1.32,-0.68,-0.58,-0.55,-0.55
327.59,0.72,1.26,0.75,1.30,-1.30,-0.70,-0.58,-0.55,-0.55
330.87,0.72,1.26,0.74,1.28,-1.28,-0.73,-0.57,-0.55,-0.55
334.18,0.72,1.26,0.72,1.27,-1.27,-0.75,-0.55,-0.54,-0.54
337.52,0.72,1.26,0.71,1.25,-1.25,-0.77,-0.53,-0.54,-0.54
340.90,0.71,1.25,0.69,1.23,-1.23,-0.79,-0.52,-0.54,-0.54
344.30,0.70,1.23,0.67,1.21,-1.21,-0.82,-0.52,-0.54,-0.54
347.75,0.68,1.21,0.65,1.19,-1.19,-0.84,-0.52,-0.54,-0.54
351.23,0.65,1.19,0.63,1.17,-1.17,-0.87,-0.53,-0.55,-0.54
354.74,0.62,1.16,0.60,1.15,-1.15,-0.90,-0.54,-0.55,-0.54
358.28,0.59,1.13,0.58,1.13,-1.13,-0.92,-0.55,-0.55,-0.54
361.87,0.55,1.09,0.55,1.11,-1.11,-0.95,-0.57,-0.56,-0.55
365.49,0.52,1.07,0.53,1.09,-1.09,-0.98,-0.58,-0.56,-0.56
369.14,0.49,1.05,0.50,1.08,-1.08,-1.01,-0.59,-0.57,-0.56
372.83,0.46,1.03,0.48,1.06,-1.06,-1.04,-0.60,-0.58,-0.57
376.56,0.43,1.01,0.46,1.04,-1.04,-1.07,-0.62,-0.59,-0.58
380.33,0.41,0.99,0.43,1.03,-1.03,-1.10,-0.62,-0.60,-0.59
384.13,0.41,1.00,0.41,1.02,-1.02,-1.13,-0.61,-0.61,-0.60
387.97,0.40,1.00,0.39,1.01,-1.01,-1.16,-0.61,-0.62,-0.61
391.85,0.39,1.01,0.37,1.00,-1.00,-1.19,-0.61,-0.63,-0.62
395.77,0.38,1.01,0.35,0.99,-0.99,-1.22,-0.61,-0.64,-0.63
399.73,0.37,1.01,0.33,0.98,-0.98,-1.26,-0.61,-0.65,-0.64
403.72,0.35,1.00,0.31,0.97,-0.97,-1.29,-0.62,-0.66,-0.65
407.76,0.31,0.97,0.29,0.96,-0.96,-1.32,-0.65,-0.67,-0.67
411.84,0.28,0.95,0.28,0.95,-0.95,-1.35,-0.68,-0.68,-0.68
415.96,0.26,0.94,0.26,0.95,-0.95,-1.39,-0.69,-0.69,-0.69
420.12,0.23,0.92,0.24,0.94,-0.94,-1.42,-0.72,-0.70,-0.70
424.32,0.21,0.91,0.23,0.94,-0.94,-1.45,-0.74,-0.71,-0.71
428.56,0.21,0.92,0.22,0.94,-0.94,-1.48,-0.74,-0.72,-0.72
432.85,0.21,0.93,0.22,0.94,-0.94,-1.51,-0.74,-0.73,-0.72
437.18,0.21,0.94,0.22,0.95,-0.95,-1.54,-0.74,-0.73,-0.73
441.55,0.22,0.95,0.22,0.96,-0.96,-1.57,-0.74,-0.74,-0.73
445.96,0.23,0.96,0.24,0.97,-0.97,-1.60,-0.75,-0.74,-0.74
450.42,0.24,0.97,0.25,0.99,-0.99,-1.63,-0.76,-0.74,-0.74
454.93,0.26,0.99,0.28,1.01,-1.01,-1.65,-0.76,-0.74,-0.74
459.48,0.31,1.04,0.30,1.04,-1.04,-1.68,-0.73,-0.74,-0.73
464.07,0.35,1.08,0.33,1.07,-1.07,-1.70,-0.72,-0.74,-0.73
468.71,0.40,1.12,0.37,1.10,-1.10,-1.72,-0.71,-0.73,-0.73
473.40,0.44,1.16,0.41,1.14,-1.14,-1.74,-0.70,-0.73,-0.72
478.13,0.46,1.17,0.45,1.18,-1.18,-1.75,-0.72,-0.73,-0.72
482.91,0.50,1.21,0.49,1.22,-1.22,-1.77,-0.73,-0.73,-0.71
487.74,0.53,1.24,0.54,1.27,-1.27,-1.78,-0.74,-0.72,-0.71
492.62,0.57,1.28,0.59,1.31,-1.31,-1.79,-0.75,-0.72,-0.71
497.55,0.62,1.32,0.64,1.36,-1.36,-1.80,-0.74,-0.71,-0.71
502.52,0.67,1.37,0.69,1.40,-1.40,-1.80,-0.74,-0.71,-0.71
507.55,0.73,1.43,0.74,1.45,-1.45,-1.80,-0.72,-0.71,-0.71
512.62,0.79,1.49,0.78,1.49,-1.49,-1.80,-0.70,-0.70,-0.70
517.75,0.86,1.56,0.83,1.53,-1.53,-1.80,-0.67,-0.70,-0.70
522.93,0.91,1.60,0.87,1.56,-1.56,-1.79,-0.66,-0.70,-0.70
528.16,0.95,1.64,0.91,1.60,-1.60,-1.78,-0.65,-0.69,-0.69
533.44,0.98,1.66,0.94,1.63,-1.63,-1.77,-0.65,-0.69,-0.69
538.77,1.00,1.68,0.97,1.66,-1.66,-1.76,-0.66,-0.68,-0.68
544.16,1.01,1.69,1.00,1.68,-1.68,-1.75,-0.68,-0.68,-0.68
549.60,1.02,1.69,1.03,1.71,-1.71,-1.73,-0.69,-0.68,-0.68
555.10,1.04,1.71,1.05,1.73,-1.73,-1.72,-0.70,-0.68,-0.67
560.65,1.07,1.73,1.07,1.75,-1.75,-1.70,-0.69,-0.68,-0.67
566.25,1.08,1.74,1.10,1.78,-1.78,-1.68,-0.70,-0.68,-0.66
571.92,1.11,1.77,1.12,1.80,-1.80,-1.66,-0.70,-0.68,-0.66
577.64,1.13,1.78,1.15,1.83,-1.83,-1.64,-0.70,-0.68,-0.66
583.41,1.15,1.80,1.17,1.85,-1.85,-1.62,-0.71,-0.68,-0.66
589.25,1.18,1.83,1.21,1.88,-1.88,-1.60,-0.70,-0.67,-0.65
595.14,1.22,1.87,1.24,1.90,-1.90,-1.57,-0.69,-0.67,-0.65
601.09,1.26,1.91,1.27,1.93,-1.93,-1.55,-0.67,-0.66,-0.65
607.10,1.29,1.94,1.29,1.95,-1.95,-1.53,-0.66,-0.65,-0.65
613.17,1.33,1.97,1.32,1.96,-1.96,-1.51,-0.63,-0.65,-0.65
619.30,1.36,2.00,1.33,1.97,-1.97,-1.49,-0.62,-0.64,-0.65
625.50,1.39,2.03,1.34,1.98,-1.98,-1.46,-0.59,-0.63,-0.64
631.75,1.40,2.03,1.35,1.97,-1.97,-1.44,-0.58,-0.62,-0.64
638.07,1.39,2.02,1.35,1.96,-1.96,-1.42,-0.58,-0.62,-0.63
644.45,1.37,1.99,1.34,1.95,-1.95,-1.40,-0.58,-0.61,-0.62
650.89,1.34,1.95,1.32,1.93,-1.93,-1.38,-0.59,-0.61,-0.61
657.40,1.30,1.90,1.30,1.90,-1.90,-1.36,-0.61,-0.60,-0.60
663.98,1.27,1.86,1.27,1.87,-1.87,-1.35,-0.60,-0.60,-0.59
670.62,1.23,1.81,1.24,1.84,-1.84,-1.33,-0.61,-0.60,-0.58
677.32,1.20,1.77,1.21,1.80,-1.80,-1.31,-0.61,-0.59,-0.57
684.10,1.16,1.72,1.18,1.77,-1.77,-1.30,-0.61,-0.59,-0.57
690.94,1.13,1.69,1.15,1.74,-1.74,-1.29,-0.61,-0.59,-0.56
697.85,1.10,1.66,1.12,1.71,-1.71,-1.27,-0.61,-0.58,-0.56
704.83,1.08,1.64,1.10,1.68,-1.68,-1.26,-0.60,-0.58,-0.56
