frequency,raw,error,smoothed,error_smoothed,equalization,parametric_eq,fixed_band_eq,equalized_raw,equalized_smoothed,target
20.00,14.04,6.83,14.04,6.83,-6.83,-6.74,-3.00,7.21,7.21,7.21
20.20,14.04,6.84,14.04,6.84,-6.84,-6.74,-3.09,7.19,7.19,7.20
20.40,14.04,6.85,14.04,6.85,-6.85,-6.75,-3.18,7.18,7.18,7.19
20.61,14.04,6.86,14.04,6.86,-6.86,-6.75,-3.26,7.17,7.17,7.18
20.81,14.04,6.88,14.04,6.88,-6.88,-6.75,-3.36,7.16,7.16,7.15
21.02,14.04,6.89,14.04,6.89,-6.89,-6.76,-3.45,7.15,7.15,7.14
21.23,14.04,6.90,14.04,6.90,-6.90,-6.76,-3.55,7.14,7.14,7.13
21.44,14.04,6.89,14.04,6.90,-6.90,-6.76,-3.65,7.13,7.13,7.14
21.66,14.04,6.91,14.04,6.91,-6.91,-6.76,-3.75,7.12,7.12,7.12
21.87,14.04,6.91,14.04,6.92,-6.92,-6.76,-3.86,7.12,7.12,7.12
22.09,14.04,6.93,14.04,6.93,-6.93,-6.77,-3.97,7.11,7.11,7.10
22.31,14.04,6.93,14.04,6.94,-6.94,-6.77,-4.08,7.10,7.10,7.10
22.54,14.04,6.94,14.04,6.94,-6.94,-6.77,-4.19,7.09,7.09,7.09
22.76,14.04,6.95,14.04,6.95,-6.95,-6.77,-4.31,7.09,7.09,7.09
22.99,14.04,6.96,14.04,6.96,-6.95,-6.77,-4.43,7.08,7.08,7.08
23.22,14.04,6.97,14.04,6.96,-6.96,-6.78,-4.55,7.08,7.08,7.07
23.45,14.04,6.96,14.04,6.97,-6.96,-6.78,-4.68,7.07,7.07,7.08
23.69,14.04,6.97,14.04,6.97,-6.97,-6.78,-4.81,7.07,7.07,7.07
23.92,14.04,6.98,14.04,6.97,-6.98,-6.78,-4.94,7.06,7.06,7.06
24.16,14.04,6.97,14.04,6.98,-6.98,-6.78,-5.07,7.05,7.06,7.07
24.40,14.05,6.98,14.05,6.98,-6.99,-6.78,-5.21,7.06,7.06,7.07
24.65,14.06,6.99,14.05,6.99,-6.99,-6.79,-5.35,7.07,7.06,7.07
24.89,14.06,6.99,14.05,6.99,-6.99,-6.79,-5.49,7.07,7.07,7.06
25.14,14.05,6.99,14.05,6.99,-6.98,-6.79,-5.63,7.06,7.07,7.05
25.39,14.04,6.98,14.04,6.98,-6.97,-6.79,-5.78,7.06,7.06,7.05
25.65,14.02,6.96,14.02,6.96,-6.96,-6.79,-5.92,7.06,7.06,7.05
25.91,14.00,6.94,13.99,6.94,-6.94,-6.79,-6.07,7.06,7.06,7.05
26.16,13.97,6.90,13.97,6.91,-6.91,-6.79,-6.21,7.05,7.06,7.06
26.43,13.95,6.89,13.94,6.88,-6.89,-6.80,-6.36,7.06,7.06,7.06
26.69,13.92,6.86,13.91,6.85,-6.86,-6.80,-6.50,7.06,7.06,7.06
26.96,13.88,6.82,13.88,6.82,-6.82,-6.80,-6.65,7.05,7.06,7.06
27.23,13.85,6.79,13.85,6.79,-6.79,-6.80,-6.79,7.06,7.06,7.06
27.50,13.82,6.76,13.82,6.76,-6.76,-6.80,-6.93,7.06,7.06,7.06
27.77,13.79,6.72,13.79,6.73,-6.72,-6.80,-7.06,7.06,7.06,7.06
28.05,13.77,6.70,13.76,6.70,-6.69,-6.80,-7.19,7.07,7.07,7.06
28.33,13.74,6.66,13.74,6.67,-6.67,-6.80,-7.32,7.07,7.07,7.07
28.62,13.72,6.65,13.72,6.64,-6.65,-6.80,-7.44,7.07,7.07,7.07
28.90,13.70,6.62,13.70,6.62,-6.63,-6.81,-7.55,7.07,7.07,7.08
29.19,13.69,6.61,13.69,6.61,-6.62,-6.81,-7.66,7.07,7.07,7.08
29.48,13.69,6.61,13.68,6.61,-6.62,-6.81,-7.75,7.07,7.07,7.08
29.78,13.69,6.61,13.69,6.61,-6.62,-6.81,-7.84,7.07,7.07,7.08
30.08,13.70,6.62,13.70,6.63,-6.62,-6.81,-7.92,7.08,7.08,7.07
30.38,13.71,6.64,13.70,6.64,-6.63,-6.81,-7.99,7.08,7.08,7.06
30.68,13.71,6.65,13.71,6.65,-6.64,-6.81,-8.04,7.07,7.07,7.06
30.99,13.71,6.65,13.71,6.65,-6.65,-6.81,-8.09,7.06,7.06,7.06
31.30,13.71,6.65,13.71,6.65,-6.66,-6.81,-8.12,7.04,7.05,7.06
31.61,13.72,6.66,13.71,6.66,-6.67,-6.81,-8.15,7.04,7.04,7.05
31.93,13.72,6.68,13.72,6.68,-6.68,-6.81,-8.16,7.03,7.04,7.03
32.24,13.73,6.69,13.73,6.69,-6.69,-6.81,-8.16,7.04,7.04,7.04
32.57,13.74,6.71,13.73,6.70,-6.69,-6.81,-8.15,7.04,7.04,7.03
32.89,13.73,6.70,13.73,6.70,-6.69,-6.81,-8.13,7.03,7.03,7.03
33.22,13.72,6.69,13.72,6.70,-6.69,-6.82,-8.10,7.02,7.03,7.02
33.55,13.71,6.69,13.70,6.68,-6.68,-6.82,-8.06,7.02,7.02,7.02
33.89,13.68,6.67,13.68,6.67,-6.67,-6.82,-8.02,7.01,7.01,7.01
34.23,13.66,6.66,13.65,6.66,-6.65,-6.82,-7.97,7.00,7.00,7.00
34.57,13.63,6.63,13.63,6.63,-6.63,-6.82,-7.91,7.00,7.00,6.99
34.92,13.60,6.62,13.60,6.61,-6.61,-6.82,-7.84,6.99,6.99,6.98
35.27,13.57,6.57,13.57,6.58,-6.58,-6.82,-7.78,6.98,6.98,7.00
35.62,13.54,6.56,13.54,6.56,-6.56,-6.82,-7.71,6.97,6.97,6.97
35.97,13.51,6.54,13.51,6.54,-6.54,-6.82,-7.63,6.96,6.96,6.97
36.33,13.48,6.52,13.48,6.52,-6.52,-6.82,-7.56,6.95,6.95,6.96
36.70,13.45,6.51,13.45,6.51,-6.51,-6.82,-7.48,6.94,6.94,6.93
37.06,13.43,6.51,13.42,6.50,-6.50,-6.82,-7.40,6.93,6.92,6.92
37.43,13.40,6.49,13.40,6.50,-6.49,-6.82,-7.33,6.90,6.91,6.91
37.81,13.39,6.49,13.38,6.49,-6.50,-6.82,-7.25,6.89,6.89,6.89
38.19,13.37,6.50,13.37,6.50,-6.50,-6.82,-7.18,6.86,6.87,6.87
38.57,13.37,6.51,13.36,6.51,-6.52,-6.82,-7.10,6.85,6.85,6.85
38.95,13.36,6.52,13.36,6.53,-6.53,-6.82,-7.03,6.82,6.83,6.84
39.34,13.37,6.55,13.37,6.55,-6.56,-6.82,-6.97,6.81,6.81,6.81
39.74,13.38,6.59,13.38,6.58,-6.58,-6.82,-6.90,6.80,6.79,6.79
40.14,13.39,6.61,13.39,6.61,-6.61,-6.82,-6.84,6.78,6.78,6.77
40.54,13.40,6.64,13.39,6.64,-6.64,-6.82,-6.79,6.76,6.76,6.76
40.94,13.40,6.66,13.40,6.67,-6.66,-6.82,-6.73,6.74,6.74,6.73
41.35,13.41,6.69,13.40,6.69,-6.68,-6.82,-6.69,6.72,6.72,6.72
41.76,13.41,6.71,13.40,6.71,-6.70,-6.82,-6.64,6.71,6.70,6.69
42.18,13.40,6.71,13.40,6.72,-6.71,-6.82,-6.60,6.68,6.68,6.69
42.60,13.39,6.73,13.39,6.72,-6.72,-6.82,-6.57,6.66,6.66,6.66
43.03,13.37,6.72,13.37,6.72,-6.72,-6.83,-6.54,6.64,6.64,6.64
43.46,13.35,6.73,13.34,6.73,-6.72,-6.83,-6.51,6.62,6.62,6.62
43.90,13.32,6.72,13.32,6.72,-6.72,-6.83,-6.49,6.60,6.60,6.60
44.33,13.30,6.72,13.29,6.72,-6.71,-6.83,-6.48,6.58,6.58,6.57
44.78,13.27,6.71,13.26,6.71,-6.71,-6.83,-6.46,6.56,6.56,6.55
45.23,13.23,6.69,13.23,6.70,-6.70,-6.83,-6.46,6.53,6.53,6.54
45.68,13.20,6.70,13.20,6.69,-6.70,-6.83,-6.46,6.50,6.50,6.50
46.13,13.17,6.70,13.16,6.69,-6.70,-6.83,-6.46,6.47,6.47,6.47
46.60,13.14,6.69,13.14,6.70,-6.70,-6.83,-6.47,6.43,6.44,6.44
47.06,13.12,6.70,13.12,6.70,-6.71,-6.83,-6.48,6.40,6.40,6.41
47.53,13.10,6.71,13.10,6.72,-6.73,-6.83,-6.50,6.37,6.37,6.38
48.01,13.09,6.75,13.09,6.75,-6.75,-6.83,-6.52,6.34,6.34,6.33
48.49,13.08,6.77,13.07,6.77,-6.77,-6.83,-6.54,6.30,6.30,6.30
48.97,13.07,6.80,13.06,6.80,-6.80,-6.83,-6.57,6.27,6.27,6.26
49.46,13.05,6.82,13.05,6.82,-6.82,-6.83,-6.61,6.22,6.23,6.23
49.96,13.04,6.86,13.04,6.85,-6.85,-6.83,-6.64,6.19,6.19,6.18
50.46,13.03,6.87,13.03,6.87,-6.87,-6.83,-6.68,6.16,6.16,6.16
50.96,13.02,6.89,13.01,6.89,-6.88,-6.83,-6.72,6.13,6.13,6.13
51.47,13.00,6.90,12.99,6.90,-6.90,-6.83,-6.77,6.10,6.10,6.09
51.99,12.97,6.92,12.97,6.91,-6.91,-6.84,-6.82,6.06,6.06,6.05
52.51,12.94,6.91,12.94,6.91,-6.92,-6.84,-6.87,6.02,6.02,6.03
53.03,12.91,6.90,12.91,6.91,-6.92,-6.84,-6.92,5.98,5.99,6.00
53.56,12.89,6.92,12.89,6.92,-6.93,-6.84,-6.97,5.96,5.96,5.97
54.10,12.87,6.94,12.86,6.93,-6.93,-6.84,-7.02,5.93,5.93,5.92
54.64,12.84,6.94,12.84,6.94,-6.93,-6.84,-7.07,5.90,5.90,5.90
55.18,12.81,6.95,12.80,6.95,-6.93,-6.84,-7.13,5.87,5.87,5.86
55.74,12.77,6.94,12.77,6.94,-6.93,-6.84,-7.18,5.83,5.84,5.82
56.29,12.74,6.93,12.73,6.93,-6.93,-6.84,-7.22,5.81,5.80,5.81
56.86,12.70,6.92,12.70,6.92,-6.93,-6.85,-7.27,5.77,5.77,5.78
57.42,12.67,6.93,12.67,6.92,-6.92,-6.85,-7.32,5.74,5.74,5.74
58.00,12.64,6.92,12.63,6.92,-6.92,-6.85,-7.36,5.72,5.72,5.71
58.58,12.61,6.91,12.61,6.92,-6.92,-6.85,-7.39,5.68,5.69,5.69
59.16,12.59,6.91,12.59,6.92,-6.93,-6.85,-7.43,5.66,5.66,5.67
59.76,12.57,6.92,12.57,6.93,-6.94,-6.85,-7.45,5.63,5.63,5.64
60.35,12.55,6.95,12.55,6.95,-6.95,-6.85,-7.47,5.60,5.60,5.60
60.96,12.53,6.97,12.52,6.97,-6.96,-6.86,-7.49,5.56,5.56,5.56
61.57,12.50,6.99,12.50,6.99,-6.98,-6.86,-7.50,5.52,5.52,5.50
62.18,12.47,7.01,12.46,7.00,-6.99,-6.86,-7.51,5.47,5.47,5.46
62.80,12.43,7.01,12.43,7.01,-7.00,-6.86,-7.51,5.42,5.43,5.42
63.43,12.40,7.02,12.39,7.02,-7.02,-6.86,-7.50,5.38,5.38,5.37
64.07,12.36,7.02,12.36,7.02,-7.03,-6.87,-7.48,5.33,5.33,5.34
64.71,12.33,7.03,12.33,7.03,-7.04,-6.87,-7.46,5.29,5.29,5.30
65.35,12.30,7.03,12.30,7.04,-7.05,-6.87,-7.44,5.25,5.25,5.26
66.01,12.28,7.05,12.28,7.05,-7.06,-6.87,-7.41,5.21,5.22,5.22
66.67,12.27,7.07,12.26,7.07,-7.07,-6.88,-7.37,5.19,5.19,5.19
67.33,12.25,7.10,12.24,7.09,-7.08,-6.88,-7.33,5.16,5.16,5.15
68.01,12.22,7.10,12.22,7.11,-7.09,-6.88,-7.29,5.13,5.13,5.11
68.69,12.19,7.11,12.18,7.11,-7.10,-6.89,-7.24,5.09,5.09,5.07
69.37,12.15,7.10,12.14,7.11,-7.10,-6.89,-7.19,5.04,5.04,5.04
70.07,12.10,7.10,12.10,7.10,-7.11,-6.89,-7.14,4.99,4.99,5.00
70.77,12.06,7.10,12.06,7.10,-7.11,-6.89,-7.09,4.94,4.94,4.95
71.48,12.02,7.10,12.02,7.10,-7.12,-6.90,-7.03,4.90,4.90,4.92
72.19,11.99,7.11,11.99,7.12,-7.13,-6.90,-6.98,4.86,4.86,4.87
72.91,11.97,7.14,11.96,7.13,-7.13,-6.91,-6.92,4.83,4.83,4.83
73.64,11.94,7.15,11.94,7.15,-7.14,-6.91,-6.86,4.80,4.80,4.79
74.38,11.92,7.16,11.92,7.16,-7.15,-6.91,-6.81,4.77,4.77,4.75
75.12,11.89,7.16,11.88,7.16,-7.15,-6.92,-6.76,4.74,4.73,4.72
75.87,11.85,7.15,11.84,7.15,-7.15,-6.92,-6.71,4.70,4.69,4.69
76.63,11.80,7.14,11.80,7.14,-7.14,-6.93,-6.66,4.65,4.66,4.65
77.40,11.76,7.13,11.76,7.13,-7.13,-6.93,-6.61,4.62,4.62,4.63
78.17,11.72,7.13,11.72,7.12,-7.12,-6.93,-6.57,4.59,4.59,4.59
78.95,11.68,7.10,11.68,7.11,-7.11,-6.94,-6.53,4.57,4.57,4.58
79.74,11.64,7.09,11.64,7.09,-7.09,-6.94,-6.49,4.54,4.54,4.54
80.54,11.60,7.08,11.59,7.08,-7.08,-6.95,-6.45,4.52,4.51,4.52
81.35,11.55,7.07,11.55,7.06,-7.07,-6.95,-6.42,4.48,4.48,4.48
82.16,11.51,7.04,11.51,7.05,-7.06,-6.96,-6.40,4.45,4.45,4.46
82.98,11.48,7.05,11.47,7.04,-7.04,-6.96,-6.38,4.43,4.43,4.43
83.81,11.44,7.04,11.43,7.04,-7.03,-6.97,-6.36,4.41,4.40,4.40
84.65,11.39,7.03,11.39,7.02,-7.02,-6.97,-6.35,4.37,4.37,4.36
85.50,11.34,7.01,11.34,7.01,-7.00,-6.98,-6.34,4.34,4.34,4.33
86.35,11.29,6.99,11.29,6.99,-6.99,-6.99,-6.34,4.30,4.30,4.30
87.22,11.24,6.97,11.24,6.97,-6.97,-6.99,-6.34,4.27,4.27,4.27
88.09,11.19,6.95,11.19,6.95,-6.95,-7.00,-6.34,4.23,4.23,4.24
88.97,11.14,6.93,11.14,6.93,-6.94,-7.00,-6.35,4.20,4.20,4.21
89.86,11.10,6.92,11.09,6.92,-6.92,-7.01,-6.37,4.18,4.17,4.17
90.76,11.05,6.91,11.05,6.91,-6.90,-7.02,-6.39,4.14,4.14,4.14
91.66,11.01,6.91,11.00,6.90,-6.90,-7.02,-6.41,4.11,4.11,4.10
92.58,10.96,6.88,10.96,6.89,-6.89,-7.03,-6.44,4.07,4.07,4.07
93.51,10.92,6.88,10.92,6.88,-6.89,-7.04,-6.48,4.03,4.03,4.04
94.44,10.88,6.88,10.88,6.88,-6.89,-7.04,-6.51,3.98,3.99,4.00
95.39,10.86,6.90,10.86,6.90,-6.90,-7.05,-6.56,3.95,3.95,3.96
96.34,10.84,6.92,10.83,6.91,-6.91,-7.06,-6.60,3.92,3.92,3.92
97.30,10.82,6.93,10.82,6.94,-6.93,-7.07,-6.65,3.88,3.89,3.88
98.28,10.80,6.96,10.80,6.96,-6.95,-7.07,-6.71,3.84,3.84,3.84
99.26,10.79,6.99,10.78,6.98,-6.98,-7.08,-6.77,3.81,3.80,3.80
100.25,10.77,7.00,10.77,7.01,-7.01,-7.09,-6.83,3.76,3.76,3.76
101.25,10.77,7.03,10.77,7.03,-7.04,-7.10,-6.89,3.73,3.73,3.73
102.27,10.77,7.06,10.77,7.07,-7.07,-7.10,-6.96,3.69,3.70,3.71
103.29,10.78,7.11,10.78,7.11,-7.11,-7.11,-7.03,3.67,3.67,3.67
104.32,10.79,7.15,10.78,7.14,-7.14,-7.12,-7.10,3.64,3.64,3.64
105.37,10.80,7.18,10.79,7.18,-7.18,-7.13,-7.17,3.61,3.61,3.61
106.42,10.80,7.21,10.80,7.22,-7.22,-7.13,-7.24,3.58,3.58,3.58
107.48,10.81,7.26,10.81,7.26,-7.25,-7.14,-7.32,3.55,3.55,3.55
108.56,10.82,7.30,10.81,7.29,-7.29,-7.15,-7.39,3.53,3.52,3.52
109.64,10.81,7.31,10.81,7.32,-7.32,-7.16,-7.46,3.49,3.49,3.49
110.74,10.81,7.35,10.80,7.35,-7.34,-7.17,-7.53,3.46,3.46,3.45
111.85,10.79,7.37,10.79,7.36,-7.37,-7.17,-7.60,3.42,3.42,3.42
112.97,10.77,7.38,10.77,7.38,-7.39,-7.18,-7.67,3.38,3.38,3.39
114.10,10.75,7.39,10.75,7.40,-7.41,-7.19,-7.73,3.34,3.34,3.35
115.24,10.73,7.42,10.73,7.42,-7.42,-7.20,-7.79,3.31,3.31,3.31
116.39,10.71,7.44,10.70,7.43,-7.43,-7.20,-7.84,3.28,3.27,3.27
117.55,10.68,7.44,10.68,7.44,-7.43,-7.21,-7.89,3.24,3.24,3.24
118.73,10.65,7.45,10.65,7.44,-7.43,-7.22,-7.94,3.21,3.22,3.20
119.92,10.62,7.44,10.61,7.44,-7.43,-7.22,-7.97,3.19,3.18,3.18
121.12,10.58,7.42,10.57,7.42,-7.42,-7.23,-8.00,3.15,3.15,3.15
122.33,10.53,7.41,10.53,7.41,-7.41,-7.24,-8.02,3.11,3.12,3.12
123.55,10.49,7.39,10.49,7.39,-7.40,-7.24,-8.04,3.08,3.08,3.10
124.79,10.45,7.38,10.45,7.38,-7.39,-7.25,-8.05,3.06,3.05,3.06
126.03,10.41,7.37,10.41,7.38,-7.38,-7.25,-8.04,3.03,3.03,3.03
127.29,10.37,7.37,10.37,7.37,-7.37,-7.26,-8.04,3.00,3.00,3.00
128.57,10.33,7.37,10.32,7.36,-7.36,-7.26,-8.02,2.97,2.96,2.96
129.85,10.28,7.35,10.28,7.35,-7.35,-7.27,-8.00,2.93,2.93,2.93
131.15,10.24,7.35,10.24,7.34,-7.34,-7.27,-7.96,2.90,2.90,2.89
132.46,10.20,7.33,10.19,7.33,-7.33,-7.27,-7.93,2.86,2.86,2.86
133.79,10.15,7.32,10.15,7.32,-7.32,-7.27,-7.88,2.83,2.83,2.83
135.12,10.11,7.31,10.11,7.31,-7.31,-7.27,-7.83,2.80,2.80,2.80
136.48,10.07,7.29,10.06,7.30,-7.30,-7.27,-7.78,2.77,2.77,2.77
137.84,10.03,7.29,10.02,7.28,-7.29,-7.27,-7.72,2.74,2.74,2.74
139.22,9.98,7.27,9.98,7.27,-7.27,-7.27,-7.66,2.70,2.71,2.70
140.61,9.94,7.26,9.94,7.26,-7.26,-7.26,-7.60,2.68,2.68,2.68
142.02,9.90,7.25,9.90,7.24,-7.24,-7.26,-7.53,2.65,2.65,2.65
143.44,9.86,7.23,9.86,7.23,-7.23,-7.25,-7.46,2.63,2.63,2.63
144.87,9.82,7.21,9.82,7.22,-7.21,-7.25,-7.39,2.60,2.60,2.60
146.32,9.78,7.20,9.78,7.20,-7.20,-7.24,-7.32,2.58,2.57,2.57
147.78,9.74,7.18,9.74,7.18,-7.19,-7.23,-7.25,2.55,2.55,2.55
149.26,9.70,7.17,9.70,7.17,-7.18,-7.22,-7.18,2.52,2.52,2.53
150.75,9.67,7.17,9.67,7.16,-7.17,-7.21,-7.12,2.50,2.50,2.50
152.26,9.64,7.15,9.64,7.16,-7.16,-7.20,-7.05,2.48,2.48,2.48
153.78,9.61,7.15,9.61,7.15,-7.15,-7.19,-6.99,2.46,2.46,2.46
155.32,9.58,7.14,9.58,7.14,-7.14,-7.18,-6.93,2.44,2.44,2.43
156.88,9.55,7.14,9.54,7.14,-7.13,-7.17,-6.87,2.42,2.42,2.41
158.44,9.50,7.12,9.50,7.12,-7.11,-7.16,-6.81,2.38,2.38,2.37
160.03,9.46,7.10,9.45,7.10,-7.10,-7.16,-6.76,2.35,2.35,2.35
161.63,9.41,7.09,9.41,7.09,-7.10,-7.16,-6.72,2.31,2.31,2.32
163.24,9.37,7.08,9.37,7.08,-7.09,-7.17,-6.67,2.28,2.28,2.29
164.88,9.34,7.08,9.33,7.08,-7.08,-7.17,-6.64,2.25,2.25,2.26
166.53,9.31,7.09,9.30,7.08,-7.08,-7.18,-6.60,2.23,2.22,2.22
168.19,9.28,7.07,9.28,7.08,-7.08,-7.19,-6.57,2.20,2.20,2.20
169.87,9.26,7.09,9.26,7.09,-7.08,-7.20,-6.55,2.17,2.17,2.16
171.57,9.24,7.11,9.23,7.10,-7.09,-7.22,-6.53,2.14,2.14,2.13
173.29,9.21,7.10,9.21,7.11,-7.11,-7.23,-6.51,2.10,2.10,2.10
175.02,9.19,7.12,9.19,7.12,-7.12,-7.24,-6.50,2.06,2.06,2.07
176.77,9.17,7.13,9.17,7.14,-7.15,-7.25,-6.50,2.02,2.02,2.03
178.54,9.16,7.16,9.16,7.16,-7.18,-7.26,-6.49,1.98,1.98,2.00
180.32,9.16,7.20,9.16,7.20,-7.21,-7.27,-6.50,1.95,1.95,1.95
182.13,9.17,7.23,9.17,7.24,-7.24,-7.28,-6.51,1.93,1.93,1.93
183.95,9.18,7.28,9.18,7.28,-7.27,-7.28,-6.52,1.90,1.90,1.90
185.79,9.19,7.33,9.18,7.32,-7.31,-7.29,-6.54,1.88,1.87,1.86
187.65,9.18,7.35,9.18,7.35,-7.34,-7.29,-6.56,1.84,1.84,1.83
189.52,9.18,7.38,9.17,7.37,-7.36,-7.29,-6.59,1.81,1.81,1.80
191.42,9.16,7.39,9.16,7.39,-7.38,-7.29,-6.62,1.77,1.77,1.77
193.33,9.14,7.39,9.13,7.40,-7.40,-7.28,-6.66,1.74,1.73,1.74
195.27,9.11,7.40,9.11,7.40,-7.41,-7.28,-6.70,1.70,1.70,1.70
197.22,9.08,7.41,9.08,7.41,-7.41,-7.27,-6.74,1.66,1.67,1.67
199.19,9.06,7.41,9.06,7.41,-7.41,-7.26,-6.79,1.64,1.64,1.65
201.18,9.04,7.42,9.03,7.41,-7.41,-7.25,-6.84,1.63,1.62,1.61
203.19,9.01,7.41,9.01,7.41,-7.40,-7.24,-6.89,1.60,1.60,1.60
205.23,8.98,7.39,8.98,7.40,-7.40,-7.22,-6.94,1.58,1.58,1.58
207.28,8.95,7.39,8.94,7.39,-7.39,-7.21,-7.00,1.56,1.55,1.56
209.35,8.91,7.37,8.91,7.37,-7.38,-7.19,-7.06,1.53,1.53,1.53
211.44,8.87,7.36,8.87,7.36,-7.36,-7.17,-7.12,1.50,1.51,1.51
213.56,8.84,7.34,8.84,7.34,-7.35,-7.15,-7.18,1.49,1.49,1.50
215.69,8.81,7.33,8.80,7.33,-7.33,-7.13,-7.24,1.48,1.47,1.47
217.85,8.77,7.31,8.76,7.31,-7.31,-7.11,-7.30,1.46,1.45,1.45
220.03,8.72,7.29,8.72,7.29,-7.29,-7.08,-7.36,1.43,1.43,1.43
222.23,8.68,7.27,8.68,7.27,-7.26,-7.06,-7.41,1.41,1.41,1.41
224.45,8.64,7.24,8.63,7.24,-7.24,-7.03,-7.46,1.40,1.39,1.40
226.70,8.59,7.21,8.59,7.21,-7.21,-7.00,-7.51,1.38,1.38,1.38
228.96,8.55,7.17,8.54,7.17,-7.17,-6.97,-7.55,1.37,1.37,1.38
231.25,8.50,7.14,8.50,7.14,-7.14,-6.94,-7.59,1.36,1.36,1.36
233.57,8.45,7.10,8.45,7.10,-7.10,-6.91,-7.62,1.35,1.35,1.35
235.90,8.40,7.06,8.40,7.06,-7.06,-6.87,-7.65,1.34,1.34,1.34
238.26,8.35,7.03,8.35,7.02,-7.02,-6.84,-7.66,1.33,1.33,1.32
240.64,8.30,6.97,8.29,6.97,-6.98,-6.80,-7.67,1.32,1.32,1.33
243.05,8.25,6.93,8.25,6.93,-6.94,-6.76,-7.67,1.31,1.31,1.32
245.48,8.21,6.89,8.21,6.89,-6.90,-6.72,-7.66,1.31,1.31,1.31
247.93,8.18,6.87,8.18,6.86,-6.86,-6.68,-7.64,1.32,1.32,1.31
250.41,8.15,6.83,8.14,6.83,-6.82,-6.64,-7.61,1.32,1.32,1.32
252.92,8.11,6.79,8.10,6.79,-6.78,-6.59,-7.58,1.32,1.32,1.32
255.45,8.06,6.74,8.06,6.74,-6.75,-6.55,-7.53,1.31,1.31,1.31
258.00,8.02,6.70,8.02,6.70,-6.70,-6.50,-7.47,1.31,1.31,1.32
260.58,7.98,6.66,7.98,6.66,-6.66,-6.46,-7.40,1.32,1.32,1.32
263.19,7.95,6.62,7.94,6.62,-6.61,-6.41,-7.33,1.33,1.33,1.32
265.82,7.90,6.58,7.90,6.57,-6.57,-6.36,-7.24,1.33,1.33,1.32
268.48,7.85,6.52,7.84,6.52,-6.51,-6.31,-7.15,1.33,1.33,1.32
271.16,7.78,6.45,7.78,6.46,-6.46,-6.26,-7.05,1.32,1.32,1.33
273.87,7.73,6.40,7.73,6.40,-6.41,-6.21,-6.94,1.32,1.32,1.32
276.61,7.67,6.34,7.66,6.34,-6.35,-6.15,-6.83,1.32,1.32,1.33
279.38,7.61,6.29,7.60,6.29,-6.29,-6.10,-6.71,1.32,1.32,1.31
282.17,7.54,6.22,7.54,6.22,-6.22,-6.04,-6.59,1.31,1.32,1.32
284.99,7.49,6.15,7.48,6.16,-6.16,-5.98,-6.47,1.33,1.33,1.33
287.84,7.43,6.09,7.43,6.09,-6.09,-5.93,-6.34,1.34,1.34,1.34
290.72,7.37,6.03,7.36,6.02,-6.02,-5.87,-6.21,1.35,1.35,1.33
293.63,7.30,5.95,7.29,5.95,-5.94,-5.81,-6.08,1.35,1.35,1.35
296.57,7.22,5.86,7.22,5.87,-5.87,-5.75,-5.95,1.35,1.35,1.36
299.53,7.16,5.79,7.15,5.79,-5.79,-5.68,-5.81,1.36,1.36,1.36
302.53,7.09,5.71,7.08,5.71,-5.72,-5.62,-5.68,1.37,1.37,1.38
305.55,7.02,5.64,7.02,5.63,-5.64,-5.56,-5.55,1.38,1.38,1.38
308.61,6.95,5.55,6.95,5.56,-5.56,-5.49,-5.42,1.39,1.39,1.39
311.69,6.88,5.48,6.88,5.48,-5.47,-5.43,-5.28,1.40,1.40,1.40
314.81,6.81,5.40,6.80,5.39,-5.39,-5.36,-5.16,1.41,1.41,1.41
317.96,6.73,5.31,6.73,5.31,-5.31,-5.29,-5.03,1.42,1.42,1.41
321.14,6.65,5.22,6.65,5.23,-5.23,-5.23,-4.90,1.42,1.42,1.43
324.35,6.58,5.15,6.58,5.14,-5.14,-5.16,-4.78,1.43,1.43,1.43
327.59,6.51,5.05,6.50,5.06,-5.06,-5.09,-4.66,1.45,1.45,1.46
330.87,6.43,4.97,6.42,4.97,-4.97,-5.02,-4.54,1.46,1.45,1.45
334.18,6.35,4.89,6.35,4.88,-4.89,-4.95,-4.43,1.46,1.46,1.46
337.52,6.27,4.80,6.27,4.80,-4.80,-4.88,-4.31,1.46,1.47,1.47
340.90,6.21,4.72,6.20,4.72,-4.72,-4.80,-4.20,1.49,1.48,1.49
344.30,6.13,4.63,6.12,4.63,-4.63,-4.73,-4.10,1.49,1.49,1.49
347.75,6.05,4.54,6.05,4.55,-4.55,-4.66,-3.99,1.50,1.50,1.50
351.23,5.97,4.47,5.97,4.46,-4.46,-4.58,-3.89,1.50,1.51,1.50
354.74,5.91,4.38,5.90,4.38,-4.38,-4.51,-3.79,1.53,1.52,1.53
358.28,5.83,4.30,5.82,4.30,-4.29,-4.43,-3.70,1.53,1.53,1.53
361.87,5.75,4.21,5.75,4.21,-4.21,-4.36,-3.61,1.54,1.54,1.53
365.49,5.67,4.12,5.67,4.12,-4.13,-4.28,-3.52,1.54,1.54,1.54
369.14,5.60,4.04,5.60,4.04,-4.04,-4.21,-3.43,1.56,1.56,1.56
372.83,5.53,3.96,5.52,3.96,-3.96,-4.13,-3.34,1.57,1.56,1.57
376.56,5.45,3.88,5.45,3.87,-3.87,-4.05,-3.26,1.57,1.57,1.57
380.33,5.37,3.79,5.37,3.79,-3.79,-3.97,-3.18,1.58,1.58,1.58
384.13,5.30,3.70,5.30,3.71,-3.71,-3.90,-3.11,1.59,1.59,1.60
387.97,5.24,3.63,5.23,3.63,-3.63,-3.82,-3.03,1.61,1.60,1.60
391.85,5.16,3.54,5.16,3.55,-3.54,-3.74,-2.96,1.61,1.62,1.61
395.77,5.09,3.46,5.09,3.46,-3.46,-3.66,-2.89,1.63,1.63,1.62
399.73,5.02,3.39,5.02,3.38,-3.38,-3.58,-2.82,1.64,1.64,1.63
403.72,4.95,3.29,4.95,3.30,-3.30,-3.50,-2.76,1.65,1.65,1.66
407.76,4.88,3.22,4.88,3.21,-3.22,-3.42,-2.69,1.66,1.66,1.66
411.84,4.81,3.14,4.81,3.13,-3.14,-3.33,-2.63,1.67,1.67,1.67
415.96,4.74,3.05,4.74,3.06,-3.06,-3.25,-2.57,1.67,1.68,1.69
420.12,4.68,2.99,4.67,2.99,-2.99,-3.17,-2.51,1.69,1.69,1.68
424.32,4.61,2.91,4.61,2.91,-2.91,-3.09,-2.45,1.70,1.70,1.69
428.56,4.55,2.83,4.54,2.84,-2.83,-3.01,-2.40,1.71,1.71,1.71
432.85,4.48,2.75,4.48,2.76,-2.76,-2.92,-2.34,1.72,1.72,1.72
437.18,4.41,2.68,4.41,2.68,-2.68,-2.84,-2.29,1.73,1.73,1.72
441.55,4.34,2.61,4.33,2.60,-2.60,-2.76,-2.24,1.74,1.73,1.73
445.96,4.26,2.52,4.26,2.52,-2.52,-2.67,-2.19,1.74,1.74,1.74
450.42,4.19,2.44,4.19,2.44,-2.44,-2.59,-2.14,1.75,1.75,1.75
454.93,4.12,2.36,4.12,2.36,-2.36,-2.50,-2.09,1.76,1.76,1.76
459.48,4.05,2.28,4.05,2.27,-2.28,-2.42,-2.04,1.77,1.77,1.77
464.07,3.98,2.19,3.98,2.19,-2.20,-2.33,-1.99,1.78,1.78,1.79
468.71,3.91,2.11,3.91,2.11,-2.12,-2.25,-1.94,1.79,1.79,1.80
473.40,3.85,2.04,3.84,2.04,-2.04,-2.16,-1.89,1.81,1.81,1.81
478.13,3.78,1.96,3.78,1.96,-1.96,-2.08,-1.84,1.82,1.82,1.82
482.91,3.72,1.89,3.71,1.89,-1.88,-1.99,-1.79,1.84,1.83,1.82
487.74,3.64,1.80,3.64,1.80,-1.80,-1.91,-1.74,1.83,1.83,1.83
492.62,3.57,1.72,3.57,1.72,-1.73,-1.82,-1.69,1.84,1.84,1.84
497.55,3.50,1.64,3.50,1.65,-1.65,-1.74,-1.64,1.85,1.85,1.85
502.52,3.44,1.57,3.44,1.57,-1.57,-1.65,-1.59,1.86,1.87,1.86
507.55,3.39,1.50,3.38,1.50,-1.50,-1.56,-1.54,1.89,1.88,1.88
512.62,3.32,1.42,3.31,1.42,-1.42,-1.48,-1.48,1.89,1.89,1.89
