frequency,raw,error,smoothed,error_smoothed,equalization,parametric_eq,fixed_band_eq,equalized_raw,equalized_smoothed,target
20.00,-9.17,-7.23,-9.16,-7.22,6.00,6.08,2.17,-3.17,-3.16,-1.94
20.20,-9.13,-7.24,-9.14,-7.25,6.00,6.09,2.23,-3.13,-3.14,-1.89
20.40,-9.09,-7.25,-9.11,-7.26,6.00,6.10,2.30,-3.09,-3.11,-1.84
20.61,-9.05,-7.24,-9.06,-7.26,6.00,6.10,2.37,-3.05,-3.06,-1.81
20.81,-9.00,-7.24,-9.01,-7.24,6.00,6.10,2.44,-3.00,-3.01,-1.76
21.02,-8.95,-7.23,-8.92,-7.19,6.00,6.10,2.51,-2.95,-2.92,-1.72
21.23,-8.80,-7.10,-8.81,-7.11,6.00,6.09,2.59,-2.80,-2.81,-1.70
21.44,-8.65,-6.97,-8.65,-6.97,6.00,6.08,2.67,-2.65,-2.65,-1.68
21.66,-8.50,-6.84,-8.49,-6.83,6.00,6.07,2.75,-2.50,-2.49,-1.66
21.87,-8.35,-6.70,-8.36,-6.72,6.00,6.05,2.83,-2.35,-2.36,-1.65
22.09,-8.26,-6.63,-8.28,-6.64,6.00,6.03,2.91,-2.26,-2.28,-1.63
22.31,-8.25,-6.63,-8.24,-6.62,6.00,6.01,3.00,-2.25,-2.24,-1.62
22.54,-8.24,-6.62,-8.25,-6.62,6.00,5.99,3.09,-2.24,-2.25,-1.62
22.76,-8.24,-6.62,-8.24,-6.62,6.00,5.96,3.18,-2.24,-2.24,-1.62
22.99,-8.23,-6.60,-8.20,-6.57,6.00,5.93,3.27,-2.23,-2.20,-1.63
23.22,-8.13,-6.50,-8.14,-6.50,6.01,5.90,3.37,-2.12,-2.13,-1.63
23.45,-8.03,-6.40,-8.04,-6.41,6.02,5.87,3.46,-2.01,-2.02,-1.63
23.69,-7.93,-6.31,-7.93,-6.30,6.01,5.83,3.56,-1.92,-1.92,-1.63
23.92,-7.83,-6.20,-7.83,-6.21,6.00,5.79,3.66,-1.83,-1.83,-1.63
24.16,-7.74,-6.12,-7.74,-6.12,5.98,5.75,3.77,-1.76,-1.76,-1.62
24.40,-7.65,-6.04,-7.65,-6.03,5.95,5.71,3.87,-1.70,-1.69,-1.61
24.65,-7.56,-5.94,-7.56,-5.95,5.91,5.66,3.98,-1.65,-1.65,-1.62
24.89,-7.47,-5.85,-7.47,-5.86,5.86,5.61,4.08,-1.61,-1.62,-1.62
25.14,-7.39,-5.77,-7.39,-5.78,5.79,5.56,4.19,-1.60,-1.60,-1.62
25.39,-7.31,-5.70,-7.31,-5.70,5.71,5.51,4.30,-1.60,-1.60,-1.61
25.65,-7.24,-5.63,-7.24,-5.62,5.63,5.46,4.41,-1.61,-1.61,-1.61
25.91,-7.16,-5.54,-7.16,-5.55,5.54,5.41,4.52,-1.62,-1.62,-1.62
26.16,-7.08,-5.46,-7.08,-5.46,5.46,5.35,4.63,-1.62,-1.62,-1.62
26.43,-7.00,-5.38,-7.00,-5.38,5.39,5.29,4.73,-1.62,-1.61,-1.62
26.69,-6.92,-5.30,-6.92,-5.30,5.32,5.23,4.84,-1.60,-1.60,-1.62
26.96,-6.84,-5.23,-6.85,-5.24,5.25,5.17,4.94,-1.59,-1.60,-1.61
27.23,-6.79,-5.18,-6.79,-5.18,5.18,5.11,5.04,-1.61,-1.61,-1.61
27.50,-6.74,-5.13,-6.74,-5.13,5.11,5.05,5.14,-1.63,-1.63,-1.61
27.77,-6.69,-5.07,-6.69,-5.07,5.05,4.99,5.23,-1.64,-1.64,-1.62
28.05,-6.64,-5.02,-6.63,-5.00,4.99,4.93,5.32,-1.65,-1.64,-1.63
28.33,-6.56,-4.92,-6.56,-4.93,4.93,4.86,5.40,-1.63,-1.63,-1.64
28.62,-6.49,-4.86,-6.49,-4.85,4.87,4.80,5.48,-1.62,-1.62,-1.64
28.90,-6.41,-4.78,-6.42,-4.79,4.81,4.73,5.55,-1.60,-1.61,-1.63
29.19,-6.36,-4.72,-6.36,-4.73,4.75,4.67,5.61,-1.61,-1.61,-1.64
29.48,-6.31,-4.69,-6.31,-4.68,4.68,4.60,5.66,-1.63,-1.63,-1.62
29.78,-6.26,-4.63,-6.26,-4.64,4.62,4.53,5.71,-1.65,-1.65,-1.63
30.08,-6.21,-4.59,-6.20,-4.57,4.55,4.47,5.74,-1.66,-1.65,-1.62
30.38,-6.12,-4.49,-6.12,-4.49,4.48,4.40,5.77,-1.64,-1.64,-1.63
30.68,-6.03,-4.40,-6.04,-4.40,4.40,4.33,5.78,-1.63,-1.63,-1.63
30.99,-5.94,-4.31,-5.95,-4.31,4.33,4.27,5.79,-1.61,-1.62,-1.63
31.30,-5.87,-4.24,-5.87,-4.23,4.25,4.20,5.78,-1.62,-1.62,-1.64
31.61,-5.79,-4.15,-5.79,-4.15,4.16,4.13,5.76,-1.63,-1.63,-1.64
31.93,-5.72,-4.08,-5.72,-4.08,4.07,4.06,5.73,-1.65,-1.65,-1.64
32.24,-5.64,-3.99,-5.64,-4.00,3.98,4.00,5.69,-1.66,-1.66,-1.65
32.57,-5.56,-3.92,-5.56,-3.91,3.89,3.93,5.64,-1.67,-1.67,-1.64
32.89,-5.47,-3.83,-5.47,-3.83,3.81,3.86,5.58,-1.66,-1.66,-1.64
33.22,-5.38,-3.73,-5.38,-3.72,3.73,3.80,5.51,-1.65,-1.64,-1.65
33.55,-5.29,-3.63,-5.28,-3.62,3.66,3.73,5.43,-1.63,-1.62,-1.66
33.89,-5.19,-3.52,-5.21,-3.55,3.59,3.66,5.35,-1.60,-1.62,-1.67
34.23,-5.16,-3.50,-5.17,-3.50,3.53,3.60,5.25,-1.63,-1.64,-1.66
34.57,-5.15,-3.48,-5.15,-3.48,3.47,3.53,5.15,-1.68,-1.68,-1.67
34.92,-5.14,-3.47,-5.13,-3.45,3.41,3.47,5.05,-1.73,-1.71,-1.67
35.27,-5.08,-3.41,-5.07,-3.39,3.36,3.40,4.94,-1.72,-1.71,-1.67
35.62,-4.99,-3.31,-5.00,-3.32,3.31,3.34,4.82,-1.68,-1.69,-1.68
35.97,-4.91,-3.23,-4.92,-3.25,3.26,3.27,4.70,-1.65,-1.66,-1.68
36.33,-4.86,-3.19,-4.86,-3.18,3.20,3.21,4.58,-1.66,-1.66,-1.67
36.70,-4.81,-3.13,-4.80,-3.13,3.13,3.15,4.45,-1.68,-1.67,-1.68
37.06,-4.75,-3.06,-4.75,-3.07,3.07,3.08,4.32,-1.68,-1.68,-1.69
37.43,-4.68,-3.01,-4.68,-3.01,3.00,3.02,4.19,-1.68,-1.68,-1.67
37.81,-4.61,-2.94,-4.61,-2.94,2.94,2.96,4.06,-1.67,-1.67,-1.67
38.19,-4.54,-2.87,-4.54,-2.87,2.88,2.90,3.93,-1.66,-1.66,-1.67
38.57,-4.47,-2.80,-4.47,-2.81,2.81,2.84,3.80,-1.66,-1.66,-1.67
38.95,-4.41,-2.75,-4.41,-2.74,2.74,2.78,3.66,-1.67,-1.67,-1.66
39.34,-4.34,-2.68,-4.35,-2.68,2.67,2.72,3.53,-1.67,-1.68,-1.66
39.74,-4.28,-2.62,-4.28,-2.62,2.60,2.66,3.40,-1.68,-1.68,-1.67
40.14,-4.21,-2.55,-4.20,-2.54,2.53,2.60,3.27,-1.68,-1.67,-1.66
40.54,-4.12,-2.46,-4.12,-2.46,2.47,2.54,3.14,-1.65,-1.65,-1.66
40.94,-4.03,-2.37,-4.05,-2.38,2.41,2.48,3.01,-1.62,-1.63,-1.67
41.35,-3.99,-2.32,-3.99,-2.32,2.36,2.42,2.88,-1.63,-1.63,-1.67
41.76,-3.96,-2.29,-3.96,-2.29,2.31,2.36,2.76,-1.65,-1.65,-1.67
42.18,-3.94,-2.27,-3.94,-2.27,2.25,2.31,2.63,-1.69,-1.69,-1.67
42.60,-3.91,-2.23,-3.92,-2.24,2.20,2.25,2.51,-1.71,-1.72,-1.68
43.03,-3.89,-2.21,-3.87,-2.18,2.15,2.19,2.39,-1.74,-1.72,-1.68
43.46,-3.80,-2.11,-3.80,-2.10,2.10,2.14,2.27,-1.70,-1.70,-1.69
43.90,-3.71,-2.00,-3.73,-2.02,2.05,2.08,2.15,-1.67,-1.68,-1.71
44.33,-3.67,-1.94,-3.67,-1.95,1.98,2.03,2.03,-1.69,-1.69,-1.73
44.78,-3.64,-1.90,-3.64,-1.90,1.91,1.97,1.92,-1.73,-1.73,-1.74
45.23,-3.61,-1.86,-3.62,-1.86,1.83,1.92,1.81,-1.78,-1.79,-1.75
45.68,-3.58,-1.82,-3.57,-1.81,1.76,1.86,1.69,-1.82,-1.81,-1.76
46.13,-3.52,-1.74,-3.49,-1.72,1.70,1.81,1.58,-1.82,-1.79,-1.78
46.60,-3.39,-1.62,-3.39,-1.61,1.65,1.75,1.47,-1.75,-1.75,-1.77
47.06,-3.27,-1.48,-3.32,-1.53,1.59,1.70,1.37,-1.68,-1.73,-1.79
47.53,-3.28,-1.48,-3.28,-1.48,1.53,1.65,1.26,-1.75,-1.74,-1.80
48.01,-3.29,-1.50,-3.28,-1.48,1.47,1.59,1.16,-1.82,-1.81,-1.79
48.49,-3.28,-1.47,-3.28,-1.47,1.41,1.54,1.05,-1.87,-1.87,-1.81
48.97,-3.26,-1.43,-3.23,-1.40,1.36,1.49,0.95,-1.90,-1.87,-1.83
49.46,-3.15,-1.31,-3.15,-1.30,1.30,1.43,0.85,-1.85,-1.84,-1.84
49.96,-3.03,-1.17,-3.08,-1.23,1.25,1.38,0.76,-1.79,-1.84,-1.86
50.46,-3.03,-1.17,-3.04,-1.17,1.19,1.32,0.66,-1.84,-1.85,-1.86
50.96,-3.04,-1.17,-2.98,-1.11,1.12,1.27,0.57,-1.92,-1.86,-1.87
51.47,-2.93,-1.05,-2.92,-1.04,1.05,1.22,0.47,-1.88,-1.87,-1.88
51.99,-2.80,-0.91,-2.86,-0.97,0.98,1.16,0.38,-1.82,-1.89,-1.89
52.51,-2.81,-0.92,-2.81,-0.92,0.92,1.11,0.29,-1.90,-1.90,-1.89
53.03,-2.82,-0.93,-2.77,-0.88,0.86,1.05,0.21,-1.96,-1.92,-1.89
53.56,-2.72,-0.82,-2.72,-0.82,0.81,1.00,0.12,-1.92,-1.92,-1.90
54.10,-2.63,-0.72,-2.64,-0.73,0.75,0.94,0.04,-1.88,-1.88,-1.91
54.64,-2.56,-0.64,-2.57,-0.66,0.70,0.89,-0.04,-1.86,-1.87,-1.92
55.18,-2.53,-0.61,-2.56,-0.63,0.65,0.83,-0.12,-1.88,-1.91,-1.92
55.74,-2.57,-0.64,-2.54,-0.61,0.59,0.77,-0.19,-1.98,-1.95,-1.93
56.29,-2.53,-0.60,-2.51,-0.57,0.53,0.71,-0.26,-2.00,-1.98,-1.93
56.86,-2.43,-0.49,-2.45,-0.51,0.47,0.65,-0.33,-1.96,-1.99,-1.94
57.42,-2.37,-0.40,-2.38,-0.42,0.41,0.59,-0.40,-1.96,-1.97,-1.97
58.00,-2.32,-0.35,-2.30,-0.34,0.36,0.53,-0.46,-1.96,-1.95,-1.97
58.58,-2.24,-0.27,-2.24,-0.27,0.30,0.47,-0.52,-1.94,-1.94,-1.97
59.16,-2.18,-0.20,-2.19,-0.20,0.24,0.40,-0.57,-1.94,-1.95,-1.98
59.76,-2.15,-0.15,-2.16,-0.15,0.17,0.34,-0.62,-1.98,-1.98,-2.00
60.35,-2.14,-0.11,-2.15,-0.12,0.10,0.27,-0.67,-2.04,-2.04,-2.03
60.96,-2.15,-0.09,-2.14,-0.09,0.04,0.20,-0.72,-2.11,-2.11,-2.06
61.57,-2.12,-0.03,-2.11,-0.02,-0.03,0.13,-0.76,-2.15,-2.14,-2.09
62.18,-2.07,0.06,-2.05,0.08,-0.09,0.06,-0.79,-2.16,-2.14,-2.13
62.80,-1.95,0.21,-1.96,0.20,-0.16,-0.01,-0.83,-2.11,-2.12,-2.16
63.43,-1.89,0.31,-1.91,0.29,-0.24,-0.09,-0.85,-2.13,-2.15,-2.20
64.07,-1.87,0.37,-1.91,0.33,-0.31,-0.17,-0.88,-2.18,-2.22,-2.24
64.71,-1.96,0.31,-1.91,0.37,-0.39,-0.25,-0.90,-2.35,-2.29,-2.27
65.35,-1.92,0.38,-1.88,0.43,-0.46,-0.33,-0.92,-2.38,-2.34,-2.30
66.01,-1.77,0.57,-1.83,0.51,-0.53,-0.41,-0.93,-2.30,-2.36,-2.34
66.67,-1.77,0.61,-1.77,0.61,-0.59,-0.50,-0.94,-2.36,-2.35,-2.38
67.33,-1.76,0.66,-1.75,0.67,-0.64,-0.58,-0.95,-2.40,-2.39,-2.42
68.01,-1.74,0.71,-1.75,0.70,-0.71,-0.67,-0.96,-2.45,-2.46,-2.45
68.69,-1.74,0.75,-1.73,0.76,-0.77,-0.76,-0.96,-2.51,-2.50,-2.49
69.37,-1.71,0.82,-1.71,0.82,-0.83,-0.84,-0.96,-2.54,-2.54,-2.53
70.07,-1.67,0.90,-1.69,0.88,-0.88,-0.93,-0.96,-2.55,-2.57,-2.57
70.77,-1.67,0.93,-1.67,0.94,-0.94,-1.01,-0.95,-2.61,-2.60,-2.61
71.48,-1.66,0.99,-1.65,1.00,-1.00,-1.09,-0.95,-2.66,-2.65,-2.65
72.19,-1.64,1.06,-1.65,1.05,-1.06,-1.16,-0.94,-2.70,-2.71,-2.70
72.91,-1.64,1.11,-1.64,1.10,-1.13,-1.23,-0.93,-2.77,-2.77,-2.75
73.64,-1.64,1.15,-1.63,1.16,-1.18,-1.29,-0.92,-2.82,-2.81,-2.79
74.38,-1.61,1.23,-1.60,1.24,-1.23,-1.35,-0.90,-2.84,-2.83,-2.84
75.12,-1.57,1.31,-1.58,1.31,-1.26,-1.40,-0.89,-2.83,-2.84,-2.88
75.87,-1.55,1.38,-1.58,1.35,-1.30,-1.43,-0.88,-2.85,-2.88,-2.93
76.63,-1.62,1.35,-1.61,1.36,-1.33,-1.46,-0.86,-2.95,-2.95,-2.97
77.40,-1.67,1.33,-1.66,1.35,-1.37,-1.48,-0.85,-3.04,-3.03,-3.00
78.17,-1.70,1.35,-1.70,1.34,-1.40,-1.50,-0.83,-3.10,-3.10,-3.05
78.95,-1.70,1.37,-1.70,1.38,-1.43,-1.50,-0.82,-3.13,-3.12,-3.07
79.74,-1.68,1.43,-1.67,1.44,-1.45,-1.50,-0.80,-3.13,-3.12,-3.11
80.54,-1.63,1.51,-1.64,1.50,-1.48,-1.49,-0.79,-3.11,-3.12,-3.14
81.35,-1.61,1.57,-1.63,1.55,-1.51,-1.47,-0.77,-3.13,-3.15,-3.18
82.16,-1.65,1.56,-1.64,1.57,-1.55,-1.45,-0.75,-3.20,-3.19,-3.21
82.98,-1.67,1.56,-1.66,1.58,-1.57,-1.43,-0.74,-3.24,-3.24,-3.23
83.81,-1.68,1.60,-1.68,1.60,-1.60,-1.40,-0.72,-3.28,-3.27,-3.28
84.65,-1.68,1.63,-1.68,1.62,-1.61,-1.38,-0.71,-3.29,-3.30,-3.31
85.50,-1.69,1.64,-1.71,1.63,-1.63,-1.35,-0.69,-3.32,-3.34,-3.33
86.35,-1.73,1.64,-1.73,1.63,-1.65,-1.33,-0.68,-3.38,-3.39,-3.37
87.22,-1.77,1.63,-1.75,1.65,-1.68,-1.30,-0.67,-3.45,-3.43,-3.40
88.09,-1.75,1.69,-1.74,1.69,-1.72,-1.28,-0.65,-3.47,-3.46,-3.44
88.97,-1.70,1.77,-1.72,1.75,-1.76,-1.25,-0.64,-3.46,-3.48,-3.47
89.86,-1.69,1.82,-1.69,1.82,-1.81,-1.23,-0.63,-3.50,-3.50,-3.51
90.76,-1.67,1.87,-1.67,1.87,-1.87,-1.21,-0.62,-3.54,-3.54,-3.54
91.66,-1.66,1.91,-1.66,1.91,-1.92,-1.19,-0.61,-3.59,-3.59,-3.57
92.58,-1.66,1.96,-1.64,1.97,-1.98,-1.18,-0.59,-3.64,-3.62,-3.62
93.51,-1.62,2.02,-1.62,2.02,-2.02,-1.16,-0.58,-3.64,-3.65,-3.64
94.44,-1.60,2.07,-1.61,2.06,-2.05,-1.15,-0.58,-3.65,-3.66,-3.67
95.39,-1.62,2.08,-1.62,2.08,-2.06,-1.14,-0.57,-3.68,-3.68,-3.70
96.34,-1.66,2.08,-1.66,2.07,-2.05,-1.13,-0.56,-3.71,-3.71,-3.74
97.30,-1.73,2.04,-1.72,2.04,-2.02,-1.13,-0.55,-3.75,-3.75,-3.77
98.28,-1.81,1.99,-1.82,1.98,-1.98,-1.12,-0.54,-3.79,-3.79,-3.80
99.26,-1.91,1.91,-1.92,1.90,-1.91,-1.12,-0.54,-3.82,-3.84,-3.82
100.25,-2.06,1.79,-2.03,1.82,-1.83,-1.12,-0.53,-3.89,-3.87,-3.85
101.25,-2.14,1.74,-2.14,1.74,-1.74,-1.12,-0.53,-3.88,-3.89,-3.88
102.27,-2.25,1.66,-2.26,1.65,-1.64,-1.12,-0.52,-3.89,-3.90,-3.91
103.29,-2.39,1.56,-2.40,1.54,-1.53,-1.12,-0.52,-3.92,-3.93,-3.95
104.32,-2.55,1.42,-2.55,1.42,-1.42,-1.12,-0.52,-3.97,-3.97,-3.97
105.37,-2.72,1.28,-2.68,1.32,-1.31,-1.12,-0.52,-4.03,-3.99,-4.00
106.42,-2.80,1.23,-2.82,1.21,-1.20,-1.12,-0.52,-4.00,-4.02,-4.03
107.48,-2.93,1.14,-2.97,1.10,-1.11,-1.13,-0.52,-4.04,-4.07,-4.07
108.56,-3.12,0.99,-3.11,1.00,-1.02,-1.13,-0.52,-4.14,-4.13,-4.11
109.64,-3.26,0.88,-3.22,0.91,-0.95,-1.13,-0.52,-4.21,-4.18,-4.14
110.74,-3.30,0.88,-3.30,0.87,-0.90,-1.14,-0.53,-4.20,-4.20,-4.18
111.85,-3.31,0.88,-3.35,0.86,-0.87,-1.14,-0.53,-4.18,-4.22,-4.20
112.97,-3.38,0.86,-3.37,0.87,-0.86,-1.14,-0.54,-4.24,-4.23,-4.24
114.10,-3.43,0.84,-3.41,0.86,-0.86,-1.15,-0.55,-4.29,-4.27,-4.27
115.24,-3.41,0.89,-3.44,0.87,-0.88,-1.15,-0.56,-4.29,-4.31,-4.30
116.39,-3.45,0.89,-3.44,0.90,-0.89,-1.15,-0.57,-4.34,-4.32,-4.34
117.55,-3.44,0.92,-3.43,0.93,-0.90,-1.15,-0.59,-4.34,-4.33,-4.36
118.73,-3.43,0.95,-3.45,0.93,-0.90,-1.15,-0.60,-4.33,-4.35,-4.38
119.92,-3.46,0.93,-3.47,0.92,-0.90,-1.15,-0.62,-4.36,-4.38,-4.39
121.12,-3.54,0.88,-3.51,0.90,-0.90,-1.15,-0.64,-4.44,-4.41,-4.42
122.33,-3.54,0.89,-3.55,0.88,-0.90,-1.15,-0.66,-4.44,-4.46,-4.43
123.55,-3.57,0.87,-3.58,0.87,-0.90,-1.14,-0.68,-4.47,-4.48,-4.44
124.79,-3.59,0.86,-3.57,0.88,-0.90,-1.14,-0.70,-4.49,-4.47,-4.46
126.03,-3.57,0.90,-3.56,0.91,-0.90,-1.13,-0.73,-4.47,-4.46,-4.47
127.29,-3.53,0.94,-3.57,0.91,-0.91,-1.12,-0.76,-4.44,-4.48,-4.47
128.57,-3.57,0.93,-3.57,0.92,-0.91,-1.10,-0.79,-4.48,-4.49,-4.50
129.85,-3.64,0.87,-3.59,0.92,-0.92,-1.09,-0.82,-4.56,-4.51,-4.51
131.15,-3.58,0.94,-3.61,0.91,-0.92,-1.07,-0.85,-4.50,-4.53,-4.53
132.46,-3.63,0.91,-3.62,0.92,-0.91,-1.05,-0.89,-4.54,-4.53,-4.54
133.79,-3.63,0.92,-3.63,0.92,-0.89,-1.03,-0.92,-4.52,-4.52,-4.55
135.12,-3.68,0.89,-3.69,0.87,-0.86,-1.00,-0.96,-4.55,-4.56,-4.57
136.48,-3.74,0.83,-3.75,0.83,-0.84,-0.97,-1.01,-4.58,-4.58,-4.57
137.84,-3.83,0.76,-3.80,0.79,-0.81,-0.93,-1.05,-4.64,-4.61,-4.59
139.22,-3.84,0.77,-3.85,0.76,-0.78,-0.90,-1.09,-4.62,-4.63,-4.61
140.61,-3.87,0.76,-3.89,0.73,-0.75,-0.86,-1.14,-4.62,-4.64,-4.63
142.02,-3.94,0.69,-3.93,0.70,-0.71,-0.81,-1.19,-4.65,-4.64,-4.63
143.44,-3.99,0.66,-3.98,0.67,-0.67,-0.76,-1.24,-4.66,-4.65,-4.65
144.87,-4.03,0.64,-4.02,0.65,-0.63,-0.71,-1.30,-4.66,-4.65,-4.68
146.32,-4.05,0.65,-4.06,0.64,-0.59,-0.66,-1.35,-4.64,-4.65,-4.70
147.78,-4.12,0.60,-4.14,0.58,-0.57,-0.61,-1.41,-4.69,-4.71,-4.72
149.26,-4.23,0.52,-4.26,0.50,-0.54,-0.55,-1.46,-4.77,-4.80,-4.75
150.75,-4.40,0.41,-4.36,0.44,-0.52,-0.50,-1.52,-4.92,-4.88,-4.81
152.26,-4.46,0.40,-4.41,0.45,-0.49,-0.45,-1.59,-4.95,-4.90,-4.86
153.78,-4.41,0.51,-4.42,0.50,-0.45,-0.40,-1.65,-4.86,-4.88,-4.92
155.32,-4.40,0.58,-4.46,0.52,-0.43,-0.36,-1.71,-4.83,-4.89,-4.98
156.88,-4.55,0.49,-4.58,0.46,-0.42,-0.33,-1.78,-4.97,-5.00,-5.04
158.44,-4.77,0.34,-4.72,0.40,-0.41,-0.31,-1.85,-5.18,-5.13,-5.11
160.03,-4.89,0.30,-4.81,0.37,-0.41,-0.31,-1.92,-5.30,-5.22,-5.19
161.63,-4.79,0.46,-4.89,0.36,-0.41,-0.32,-1.99,-5.20,-5.30,-5.25
163.24,-4.85,0.45,-4.88,0.42,-0.42,-0.34,-2.07,-5.27,-5.29,-5.30
164.88,-4.99,0.35,-4.84,0.50,-0.45,-0.39,-2.14,-5.44,-5.30,-5.34
166.53,-4.74,0.64,-4.88,0.50,-0.52,-0.46,-2.22,-5.26,-5.40,-5.38
168.19,-4.81,0.59,-4.85,0.56,-0.61,-0.55,-2.30,-5.42,-5.46,-5.41
169.87,-4.90,0.53,-4.75,0.68,-0.72,-0.66,-2.39,-5.62,-5.47,-5.43
171.57,-4.59,0.85,-4.62,0.82,-0.84,-0.79,-2.47,-5.43,-5.46,-5.44
173.29,-4.39,1.06,-4.42,1.03,-0.97,-0.94,-2.56,-5.36,-5.39,-5.45
175.02,-4.19,1.25,-4.25,1.20,-1.11,-1.11,-2.64,-5.30,-5.36,-5.44
176.77,-4.17,1.28,-4.16,1.29,-1.27,-1.28,-2.73,-5.44,-5.43,-5.45
178.54,-4.09,1.36,-4.04,1.40,-1.45,-1.47,-2.83,-5.54,-5.50,-5.45
180.32,-3.89,1.54,-3.87,1.56,-1.64,-1.67,-2.92,-5.53,-5.51,-5.43
182.13,-3.61,1.80,-3.63,1.79,-1.82,-1.88,-3.02,-5.43,-5.46,-5.42
183.95,-3.36,2.06,-3.38,2.03,-2.01,-2.09,-3.12,-5.38,-5.40,-5.42
185.79,-3.17,2.24,-3.16,2.26,-2.21,-2.30,-3.22,-5.38,-5.37,-5.41
187.65,-2.97,2.46,-2.97,2.46,-2.42,-2.51,-3.32,-5.39,-5.38,-5.43
189.52,-2.78,2.65,-2.79,2.64,-2.63,-2.72,-3.42,-5.41,-5.42,-5.43
191.42,-2.60,2.84,-2.60,2.84,-2.85,-2.93,-3.53,-5.45,-5.46,-5.44
193.33,-2.43,3.02,-2.41,3.04,-3.07,-3.14,-3.64,-5.50,-5.48,-5.45
195.27,-2.21,3.26,-2.21,3.26,-3.28,-3.34,-3.75,-5.49,-5.49,-5.47
197.22,-1.99,3.49,-2.02,3.46,-3.49,-3.53,-3.86,-5.48,-5.51,-5.48
199.19,-1.82,3.68,-1.81,3.69,-3.69,-3.73,-3.97,-5.51,-5.50,-5.50
201.18,-1.63,3.88,-1.60,3.91,-3.89,-3.91,-4.08,-5.52,-5.49,-5.51
203.19,-1.37,4.15,-1.40,4.12,-4.08,-4.09,-4.19,-5.45,-5.48,-5.52
205.23,-1.21,4.33,-1.23,4.30,-4.25,-4.26,-4.31,-5.46,-5.48,-5.54
207.28,-1.11,4.43,-1.11,4.44,-4.42,-4.42,-4.42,-5.53,-5.52,-5.54
209.35,-1.02,4.54,-1.02,4.54,-4.57,-4.58,-4.54,-5.59,-5.59,-5.56
211.44,-0.93,4.66,-0.91,4.67,-4.71,-4.72,-4.65,-5.64,-5.62,-5.59
213.56,-0.79,4.79,-0.77,4.82,-4.84,-4.86,-4.76,-5.63,-5.61,-5.59
215.69,-0.60,4.99,-0.63,4.96,-4.96,-4.99,-4.87,-5.56,-5.60,-5.59
217.85,-0.49,5.11,-0.51,5.09,-5.09,-5.11,-4.98,-5.58,-5.60,-5.60
220.03,-0.43,5.18,-0.40,5.21,-5.21,-5.22,-5.09,-5.64,-5.61,-5.61
222.23,-0.32,5.31,-0.30,5.32,-5.33,-5.32,-5.19,-5.65,-5.63,-5.63
224.45,-0.15,5.46,-0.17,5.45,-5.44,-5.42,-5.29,-5.59,-5.61,-5.61
226.70,-0.04,5.57,-0.05,5.56,-5.54,-5.50,-5.39,-5.59,-5.59,-5.61
228.96,0.06,5.66,0.05,5.65,-5.63,-5.58,-5.48,-5.57,-5.58,-5.60
231.25,0.12,5.70,0.13,5.71,-5.71,-5.64,-5.57,-5.60,-5.59,-5.58
233.57,0.20,5.77,0.21,5.78,-5.79,-5.70,-5.65,-5.59,-5.58,-5.57
235.90,0.30,5.86,0.29,5.85,-5.85,-5.76,-5.73,-5.55,-5.57,-5.56
238.26,0.37,5.91,0.36,5.90,-5.91,-5.80,-5.80,-5.54,-5.55,-5.54
240.64,0.42,5.94,0.43,5.94,-5.95,-5.84,-5.86,-5.53,-5.52,-5.52
243.05,0.48,5.96,0.50,5.99,-5.98,-5.87,-5.91,-5.50,-5.48,-5.48
245.48,0.58,6.04,0.57,6.03,-6.01,-5.90,-5.96,-5.43,-5.44,-5.46
247.93,0.65,6.07,0.61,6.04,-6.03,-5.92,-6.00,-5.38,-5.42,-5.42
250.41,0.62,6.03,0.64,6.04,-6.03,-5.94,-6.03,-5.41,-5.40,-5.41
252.92,0.62,5.99,0.65,6.02,-6.03,-5.95,-6.05,-5.41,-5.38,-5.37
255.45,0.68,6.03,0.66,6.01,-6.02,-5.97,-6.07,-5.34,-5.35,-5.35
258.00,0.70,6.02,0.68,6.00,-6.00,-5.98,-6.08,-5.30,-5.32,-5.32
260.58,0.67,5.97,0.68,5.98,-5.97,-5.98,-6.08,-5.30,-5.29,-5.31
263.19,0.67,5.94,0.67,5.94,-5.95,-5.99,-6.07,-5.28,-5.28,-5.27
265.82,0.66,5.91,0.66,5.91,-5.93,-5.99,-6.06,-5.27,-5.26,-5.25
268.48,0.67,5.90,0.68,5.90,-5.91,-6.00,-6.04,-5.24,-5.23,-5.23
271.16,0.71,5.90,0.69,5.89,-5.89,-6.00,-6.02,-5.18,-5.20,-5.19
273.87,0.72,5.89,0.71,5.88,-5.88,-6.00,-5.99,-5.16,-5.18,-5.17
276.61,0.71,5.85,0.73,5.87,-5.87,-6.01,-5.96,-5.16,-5.15,-5.14
279.38,0.75,5.86,0.76,5.87,-5.87,-6.01,-5.92,-5.12,-5.11,-5.11
282.17,0.81,5.89,0.80,5.88,-5.86,-6.01,-5.88,-5.05,-5.06,-5.08
284.99,0.85,5.90,0.84,5.89,-5.87,-6.02,-5.84,-5.02,-5.02,-5.05
287.84,0.88,5.91,0.87,5.89,-5.88,-6.02,-5.79,-5.00,-5.01,-5.03
290.72,0.88,5.87,0.89,5.88,-5.90,-6.02,-5.75,-5.02,-5.01,-4.99
293.63,0.93,5.89,0.93,5.89,-5.94,-6.03,-5.70,-5.01,-5.01,-4.96
296.57,0.99,5.92,1.00,5.93,-5.97,-6.03,-5.65,-4.99,-4.97,-4.93
299.53,1.09,5.99,1.11,6.01,-6.02,-6.04,-5.61,-4.93,-4.91,-4.90
302.53,1.25,6.13,1.22,6.09,-6.07,-6.05,-5.56,-4.82,-4.85,-4.88
305.55,1.33,6.16,1.32,6.16,-6.12,-6.05,-5.52,-4.79,-4.81,-4.83
308.61,1.38,6.19,1.38,6.20,-6.18,-6.06,-5.47,-4.80,-4.79,-4.82
311.69,1.42,6.21,1.44,6.22,-6.23,-6.07,-5.43,-4.81,-4.79,-4.79
314.81,1.50,6.26,1.50,6.27,-6.27,-6.08,-5.39,-4.77,-4.77,-4.76
317.96,1.58,6.32,1.56,6.31,-6.30,-6.09,-5.36,-4.72,-4.74,-4.74
321.14,1.61,6.34,1.61,6.33,-6.32,-6.10,-5.32,-4.72,-4.72,-4.73
324.35,1.63,6.34,1.63,6.35,-6.34,-6.11,-5.29,-4.71,-4.71,-4.71
327.59,1.64,6.34,1.65,6.35,-6.36,-6.12,-5.26,-4.72,-4.71,-4.70
330.87,1.68,6.37,1.67,6.36,-6.37,-6.13,-5.24,-4.69,-4.70,-4.69
334.18,1.70,6.37,1.70,6.37,-6.38,-6.14,-5.22,-4.68,-4.68,-4.67
337.52,1.72,6.38,1.73,6.39,-6.37,-6.15,-5.20,-4.65,-4.64,-4.66
340.90,1.75,6.39,1.74,6.39,-6.36,-6.16,-5.19,-4.62,-4.62,-4.64
344.30,1.75,6.38,1.74,6.37,-6.35,-6.17,-5.18,-4.60,-4.62,-4.63
347.75,1.71,6.34,1.72,6.35,-6.34,-6.18,-5.17,-4.63,-4.63,-4.64
351.23,1.68,6.31,1.68,6.31,-6.33,-6.19,-5.17,-4.65,-4.65,-4.63
354.74,1.66,6.29,1.66,6.28,-6.31,-6.20,-5.17,-4.65,-4.66,-4.63
358.28,1.64,6.26,1.66,6.28,-6.29,-6.21,-5.18,-4.65,-4.64,-4.62
361.87,1.66,6.28,1.66,6.28,-6.27,-6.22,-5.19,-4.61,-4.61,-4.62
365.49,1.68,6.29,1.65,6.27,-6.25,-6.23,-5.21,-4.57,-4.60,-4.61
369.14,1.63,6.25,1.63,6.25,-6.23,-6.24,-5.22,-4.60,-4.60,-4.62
372.83,1.58,6.20,1.60,6.22,-6.21,-6.25,-5.25,-4.64,-4.62,-4.62
376.56,1.57,6.19,1.57,6.19,-6.20,-6.26,-5.27,-4.63,-4.64,-4.62
380.33,1.55,6.16,1.55,6.17,-6.19,-6.27,-5.30,-4.64,-4.64,-4.61
384.13,1.54,6.16,1.54,6.16,-6.17,-6.27,-5.33,-4.63,-4.63,-4.62
387.97,1.52,6.15,1.53,6.15,-6.15,-6.28,-5.37,-4.63,-4.63,-4.63
391.85,1.52,6.16,1.52,6.15,-6.13,-6.29,-5.41,-4.61,-4.61,-4.64
395.77,1.51,6.14,1.51,6.14,-6.12,-6.29,-5.45,-4.61,-4.61,-4.63
399.73,1.50,6.14,1.48,6.12,-6.10,-6.30,-5.50,-4.60,-4.62,-4.64
403.72,1.44,6.08,1.44,6.08,-6.09,-6.30,-5.54,-4.65,-4.64,-4.64
407.76,1.39,6.04,1.40,6.05,-6.07,-6.30,-5.59,-4.68,-4.67,-4.65
411.84,1.38,6.03,1.38,6.03,-6.05,-6.31,-5.65,-4.67,-4.67,-4.65
415.96,1.38,6.03,1.38,6.03,-6.03,-6.31,-5.70,-4.65,-4.66,-4.65
420.12,1.38,6.03,1.38,6.03,-6.02,-6.31,-5.75,-4.64,-4.64,-4.65
424.32,1.38,6.03,1.37,6.02,-6.01,-6.31,-5.81,-4.63,-4.64,-4.65
428.56,1.37,6.01,1.36,6.01,-6.02,-6.31,-5.86,-4.65,-4.65,-4.64
432.85,1.36,5.99,1.37,6.00,-6.02,-6.30,-5.92,-4.66,-4.65,-4.63
437.18,1.38,6.00,1.39,6.01,-6.03,-6.30,-5.97,-4.65,-4.64,-4.62
