frequency,raw,smoothed,error,error_smoothed,equalization,parametric_eq,fixed_band_eq,equalized_raw,equalized_smoothed,target
20.00,2.64,2.64,-1.75,-1.75,1.75,1.16,0.43,4.39,4.39,4.39
20.20,2.67,2.67,-1.75,-1.75,1.75,1.16,0.45,4.42,4.42,4.42
20.40,2.70,2.70,-1.75,-1.75,1.75,1.16,0.46,4.45,4.45,4.45
20.61,2.73,2.73,-1.74,-1.75,1.75,1.15,0.48,4.48,4.47,4.47
20.81,2.75,2.76,-1.75,-1.75,1.74,1.15,0.49,4.49,4.49,4.50
21.02,2.78,2.78,-1.75,-1.74,1.73,1.14,0.51,4.51,4.51,4.53
21.23,2.81,2.81,-1.73,-1.73,1.72,1.14,0.52,4.53,4.53,4.54
21.44,2.84,2.84,-1.71,-1.71,1.71,1.13,0.54,4.55,4.55,4.55
21.66,2.87,2.87,-1.69,-1.68,1.69,1.13,0.56,4.56,4.56,4.56
21.87,2.90,2.90,-1.65,-1.66,1.67,1.12,0.57,4.57,4.57,4.56
22.09,2.92,2.92,-1.64,-1.64,1.65,1.12,0.59,4.57,4.57,4.57
22.31,2.94,2.94,-1.62,-1.62,1.62,1.11,0.61,4.57,4.57,4.57
22.54,2.96,2.96,-1.60,-1.60,1.60,1.11,0.63,4.56,4.56,4.56
22.76,2.99,2.99,-1.57,-1.57,1.57,1.10,0.65,4.56,4.56,4.56
22.99,3.01,3.01,-1.54,-1.54,1.54,1.10,0.67,4.55,4.55,4.55
23.22,3.04,3.04,-1.51,-1.51,1.50,1.09,0.69,4.54,4.55,4.55
23.45,3.08,3.08,-1.47,-1.47,1.46,1.08,0.71,4.55,4.55,4.55
23.69,3.12,3.13,-1.43,-1.43,1.43,1.08,0.73,4.55,4.55,4.55
23.92,3.17,3.17,-1.38,-1.38,1.39,1.07,0.75,4.56,4.56,4.55
24.16,3.21,3.21,-1.35,-1.35,1.35,1.06,0.77,4.56,4.56,4.56
24.40,3.24,3.25,-1.32,-1.31,1.32,1.06,0.79,4.56,4.56,4.56
24.65,3.27,3.27,-1.28,-1.28,1.29,1.05,0.82,4.56,4.56,4.55
24.89,3.29,3.29,-1.25,-1.26,1.27,1.04,0.84,4.56,4.56,4.55
25.14,3.30,3.30,-1.24,-1.24,1.25,1.04,0.86,4.55,4.55,4.55
25.39,3.31,3.31,-1.23,-1.23,1.23,1.03,0.88,4.54,4.54,4.54
25.65,3.32,3.32,-1.22,-1.22,1.22,1.02,0.91,4.54,4.53,4.54
25.91,3.32,3.33,-1.21,-1.21,1.20,1.02,0.93,4.53,4.53,4.53
26.16,3.33,3.34,-1.20,-1.20,1.19,1.01,0.95,4.52,4.53,4.53
26.43,3.35,3.35,-1.18,-1.18,1.18,1.00,0.97,4.53,4.53,4.53
26.69,3.37,3.37,-1.16,-1.16,1.16,0.99,0.99,4.53,4.53,4.53
26.96,3.38,3.39,-1.15,-1.14,1.14,0.98,1.02,4.53,4.53,4.53
27.23,3.40,3.40,-1.12,-1.12,1.12,0.97,1.04,4.52,4.52,4.53
27.50,3.42,3.42,-1.10,-1.10,1.10,0.97,1.06,4.52,4.52,4.53
27.77,3.44,3.44,-1.07,-1.07,1.07,0.96,1.07,4.52,4.52,4.51
28.05,3.46,3.46,-1.05,-1.05,1.05,0.95,1.09,4.51,4.51,4.51
28.33,3.48,3.48,-1.02,-1.02,1.02,0.94,1.11,4.50,4.50,4.50
28.62,3.50,3.51,-1.00,-0.99,0.99,0.93,1.12,4.50,4.50,4.50
28.90,3.53,3.53,-0.97,-0.97,0.97,0.92,1.14,4.50,4.50,4.50
29.19,3.55,3.55,-0.93,-0.94,0.94,0.91,1.15,4.50,4.50,4.49
29.48,3.57,3.57,-0.92,-0.92,0.92,0.90,1.16,4.50,4.49,4.49
29.78,3.58,3.58,-0.90,-0.90,0.90,0.89,1.17,4.49,4.49,4.48
30.08,3.59,3.59,-0.89,-0.89,0.88,0.87,1.18,4.48,4.48,4.48
30.38,3.60,3.60,-0.87,-0.87,0.87,0.86,1.18,4.47,4.47,4.47
30.68,3.61,3.61,-0.85,-0.85,0.85,0.85,1.19,4.46,4.46,4.47
30.99,3.62,3.62,-0.83,-0.84,0.84,0.84,1.19,4.46,4.46,4.45
31.30,3.63,3.63,-0.82,-0.82,0.82,0.83,1.19,4.45,4.45,4.45
31.61,3.64,3.64,-0.81,-0.80,0.80,0.81,1.19,4.45,4.44,4.45
31.93,3.65,3.65,-0.79,-0.79,0.78,0.80,1.18,4.44,4.44,4.44
32.24,3.66,3.66,-0.76,-0.77,0.76,0.79,1.17,4.43,4.43,4.43
32.57,3.67,3.68,-0.75,-0.75,0.74,0.77,1.17,4.42,4.42,4.42
32.89,3.69,3.69,-0.73,-0.72,0.72,0.76,1.16,4.42,4.42,4.42
33.22,3.71,3.71,-0.70,-0.70,0.70,0.75,1.14,4.42,4.41,4.41
33.55,3.72,3.72,-0.68,-0.68,0.68,0.73,1.13,4.41,4.41,4.40
33.89,3.73,3.73,-0.66,-0.66,0.66,0.71,1.11,4.40,4.40,4.39
34.23,3.74,3.74,-0.65,-0.64,0.65,0.70,1.10,4.39,4.39,4.39
34.57,3.75,3.75,-0.62,-0.63,0.63,0.68,1.08,4.38,4.38,4.38
34.92,3.75,3.76,-0.61,-0.61,0.61,0.67,1.06,4.36,4.37,4.36
35.27,3.76,3.76,-0.60,-0.59,0.59,0.65,1.04,4.35,4.36,4.36
35.62,3.77,3.77,-0.57,-0.58,0.58,0.63,1.02,4.35,4.34,4.35
35.97,3.77,3.78,-0.56,-0.56,0.56,0.62,1.00,4.33,4.33,4.33
36.33,3.78,3.78,-0.55,-0.54,0.54,0.60,0.97,4.32,4.32,4.33
36.70,3.79,3.79,-0.52,-0.52,0.52,0.58,0.95,4.31,4.31,4.31
37.06,3.80,3.80,-0.50,-0.50,0.50,0.56,0.93,4.31,4.31,4.30
37.43,3.81,3.81,-0.48,-0.48,0.49,0.54,0.90,4.30,4.29,4.30
37.81,3.81,3.82,-0.47,-0.47,0.47,0.52,0.88,4.28,4.28,4.28
38.19,3.82,3.82,-0.45,-0.45,0.45,0.50,0.85,4.27,4.27,4.27
38.57,3.83,3.83,-0.43,-0.43,0.43,0.48,0.83,4.26,4.26,4.26
38.95,3.84,3.84,-0.41,-0.41,0.41,0.47,0.80,4.25,4.25,4.25
39.34,3.84,3.85,-0.39,-0.39,0.39,0.45,0.78,4.23,4.23,4.23
39.74,3.85,3.85,-0.37,-0.37,0.37,0.43,0.75,4.22,4.22,4.22
40.14,3.86,3.86,-0.35,-0.35,0.35,0.41,0.73,4.21,4.21,4.21
40.54,3.87,3.87,-0.32,-0.33,0.33,0.39,0.71,4.20,4.20,4.20
40.94,3.88,3.88,-0.31,-0.31,0.31,0.37,0.68,4.19,4.19,4.19
41.35,3.89,3.89,-0.28,-0.29,0.29,0.35,0.66,4.19,4.18,4.17
41.76,3.89,3.89,-0.28,-0.28,0.28,0.33,0.64,4.17,4.17,4.17
42.18,3.89,3.90,-0.27,-0.26,0.26,0.32,0.61,4.15,4.16,4.16
42.60,3.90,3.90,-0.24,-0.25,0.25,0.30,0.59,4.15,4.15,4.15
43.03,3.90,3.90,-0.24,-0.23,0.23,0.28,0.57,4.13,4.13,4.14
43.46,3.90,3.90,-0.22,-0.22,0.22,0.26,0.55,4.12,4.12,4.12
43.90,3.89,3.89,-0.20,-0.20,0.20,0.25,0.53,4.09,4.09,4.09
44.33,3.89,3.89,-0.18,-0.18,0.18,0.23,0.51,4.07,4.07,4.08
44.78,3.89,3.89,-0.17,-0.16,0.16,0.22,0.49,4.05,4.05,4.06
45.23,3.90,3.90,-0.14,-0.14,0.14,0.20,0.47,4.04,4.04,4.04
45.68,3.90,3.91,-0.12,-0.12,0.12,0.19,0.45,4.02,4.03,4.02
46.13,3.91,3.91,-0.09,-0.09,0.10,0.18,0.43,4.02,4.01,4.00
46.60,3.91,3.91,-0.08,-0.08,0.09,0.16,0.41,4.00,4.00,3.99
47.06,3.91,3.91,-0.06,-0.07,0.07,0.15,0.40,3.98,3.98,3.97
47.53,3.90,3.90,-0.05,-0.06,0.05,0.14,0.38,3.95,3.95,3.95
48.01,3.88,3.89,-0.06,-0.05,0.04,0.12,0.36,3.92,3.92,3.94
48.49,3.88,3.88,-0.03,-0.03,0.02,0.11,0.34,3.90,3.90,3.91
48.97,3.87,3.87,-0.01,-0.01,0.01,0.10,0.33,3.88,3.88,3.88
49.46,3.87,3.87,0.02,0.02,-0.01,0.08,0.31,3.86,3.86,3.85
49.96,3.86,3.86,0.04,0.04,-0.03,0.07,0.30,3.83,3.83,3.82
50.46,3.85,3.85,0.05,0.05,-0.04,0.05,0.28,3.81,3.80,3.81
50.96,3.83,3.84,0.05,0.06,-0.06,0.04,0.27,3.77,3.78,3.78
51.47,3.82,3.83,0.07,0.07,-0.07,0.03,0.25,3.75,3.75,3.75
51.99,3.82,3.82,0.10,0.09,-0.09,0.01,0.23,3.73,3.73,3.73
52.51,3.81,3.81,0.10,0.10,-0.10,-0.01,0.22,3.71,3.71,3.71
53.03,3.80,3.80,0.11,0.12,-0.12,-0.02,0.20,3.68,3.68,3.69
53.56,3.79,3.79,0.13,0.13,-0.13,-0.04,0.19,3.66,3.66,3.66
54.10,3.78,3.78,0.14,0.15,-0.15,-0.06,0.17,3.63,3.63,3.64
54.64,3.77,3.78,0.16,0.17,-0.16,-0.07,0.16,3.61,3.61,3.61
55.18,3.77,3.77,0.19,0.18,-0.17,-0.09,0.14,3.60,3.60,3.59
55.74,3.76,3.76,0.20,0.20,-0.18,-0.11,0.12,3.58,3.58,3.56
56.29,3.74,3.74,0.20,0.20,-0.20,-0.13,0.11,3.55,3.54,3.54
56.86,3.71,3.71,0.20,0.20,-0.21,-0.15,0.09,3.50,3.50,3.51
57.42,3.69,3.69,0.21,0.20,-0.23,-0.17,0.07,3.47,3.47,3.48
58.00,3.67,3.68,0.21,0.22,-0.24,-0.19,0.05,3.43,3.45,3.46
58.58,3.69,3.69,0.25,0.25,-0.25,-0.22,0.03,3.44,3.44,3.44
59.16,3.70,3.70,0.28,0.28,-0.26,-0.24,0.01,3.44,3.44,3.42
59.76,3.70,3.70,0.30,0.30,-0.27,-0.26,-0.01,3.43,3.43,3.40
60.35,3.68,3.67,0.31,0.30,-0.28,-0.29,-0.03,3.40,3.39,3.37
60.96,3.63,3.63,0.28,0.29,-0.29,-0.31,-0.05,3.34,3.34,3.35
61.57,3.58,3.59,0.28,0.28,-0.30,-0.34,-0.07,3.28,3.29,3.31
62.18,3.56,3.56,0.29,0.29,-0.31,-0.36,-0.10,3.25,3.26,3.27
62.80,3.55,3.55,0.30,0.31,-0.32,-0.39,-0.12,3.24,3.23,3.25
63.43,3.54,3.54,0.33,0.33,-0.32,-0.42,-0.15,3.22,3.22,3.21
64.07,3.53,3.53,0.35,0.34,-0.33,-0.45,-0.17,3.20,3.20,3.19
64.71,3.51,3.51,0.35,0.35,-0.34,-0.47,-0.20,3.17,3.17,3.16
65.35,3.49,3.49,0.36,0.36,-0.36,-0.50,-0.23,3.13,3.13,3.13
66.01,3.47,3.47,0.37,0.37,-0.37,-0.53,-0.26,3.10,3.10,3.10
66.67,3.46,3.46,0.39,0.38,-0.39,-0.56,-0.29,3.07,3.07,3.08
67.33,3.44,3.44,0.40,0.40,-0.40,-0.60,-0.32,3.04,3.04,3.05
68.01,3.43,3.43,0.42,0.42,-0.42,-0.63,-0.36,3.02,3.02,3.02
68.69,3.42,3.42,0.44,0.44,-0.43,-0.66,-0.39,2.99,2.99,2.98
69.37,3.41,3.41,0.46,0.46,-0.45,-0.69,-0.43,2.96,2.95,2.95
70.07,3.39,3.40,0.47,0.47,-0.48,-0.73,-0.46,2.92,2.92,2.92
70.77,3.38,3.39,0.49,0.49,-0.50,-0.76,-0.50,2.88,2.89,2.90
71.48,3.38,3.38,0.52,0.52,-0.52,-0.80,-0.54,2.86,2.86,2.86
72.19,3.37,3.38,0.55,0.55,-0.55,-0.83,-0.58,2.82,2.83,2.83
72.91,3.37,3.37,0.58,0.58,-0.57,-0.87,-0.62,2.80,2.80,2.79
73.64,3.36,3.36,0.61,0.61,-0.60,-0.90,-0.66,2.76,2.76,2.75
74.38,3.35,3.36,0.63,0.63,-0.63,-0.94,-0.70,2.72,2.72,2.73
75.12,3.35,3.35,0.67,0.66,-0.67,-0.98,-0.74,2.69,2.69,2.69
75.87,3.35,3.35,0.69,0.69,-0.70,-1.02,-0.79,2.65,2.65,2.66
76.63,3.35,3.36,0.73,0.73,-0.73,-1.06,-0.83,2.62,2.62,2.63
77.40,3.36,3.36,0.77,0.77,-0.77,-1.10,-0.88,2.59,2.60,2.60
78.17,3.37,3.37,0.82,0.81,-0.81,-1.14,-0.93,2.57,2.57,2.55
78.95,3.38,3.38,0.85,0.85,-0.85,-1.18,-0.98,2.54,2.53,2.53
79.74,3.38,3.38,0.88,0.89,-0.89,-1.22,-1.02,2.49,2.50,2.50
80.54,3.39,3.39,0.93,0.93,-0.93,-1.26,-1.08,2.46,2.46,2.46
81.35,3.40,3.41,0.97,0.97,-0.98,-1.30,-1.13,2.42,2.43,2.43
82.16,3.42,3.42,1.03,1.02,-1.03,-1.35,-1.18,2.40,2.39,2.39
82.98,3.44,3.44,1.07,1.08,-1.08,-1.39,-1.23,2.36,2.36,2.37
83.81,3.45,3.46,1.13,1.13,-1.13,-1.43,-1.29,2.32,2.33,2.32
84.65,3.47,3.47,1.19,1.19,-1.18,-1.48,-1.34,2.29,2.29,2.28
85.50,3.49,3.49,1.24,1.24,-1.24,-1.52,-1.40,2.25,2.25,2.25
86.35,3.51,3.51,1.30,1.30,-1.30,-1.57,-1.46,2.21,2.21,2.21
87.22,3.53,3.53,1.36,1.36,-1.36,-1.61,-1.52,2.18,2.18,2.18
88.09,3.55,3.55,1.42,1.41,-1.42,-1.66,-1.58,2.14,2.14,2.13
88.97,3.57,3.57,1.47,1.47,-1.48,-1.71,-1.64,2.10,2.10,2.10
89.86,3.59,3.60,1.53,1.54,-1.54,-1.75,-1.71,2.06,2.06,2.06
90.76,3.62,3.62,1.61,1.60,-1.60,-1.80,-1.77,2.02,2.02,2.01
91.66,3.64,3.64,1.67,1.67,-1.66,-1.85,-1.84,1.98,1.97,1.98
92.58,3.65,3.66,1.73,1.73,-1.73,-1.90,-1.91,1.92,1.93,1.92
93.51,3.68,3.68,1.79,1.79,-1.80,-1.94,-1.97,1.88,1.88,1.89
94.44,3.71,3.71,1.87,1.86,-1.87,-1.99,-2.04,1.85,1.84,1.85
95.39,3.73,3.73,1.93,1.93,-1.94,-2.04,-2.11,1.80,1.80,1.80
96.34,3.76,3.76,2.01,2.01,-2.01,-2.09,-2.19,1.76,1.75,1.75
97.30,3.77,3.78,2.07,2.08,-2.08,-2.14,-2.26,1.70,1.70,1.70
98.28,3.80,3.80,2.15,2.15,-2.15,-2.19,-2.33,1.65,1.66,1.66
99.26,3.83,3.83,2.22,2.22,-2.22,-2.24,-2.40,1.61,1.61,1.61
100.25,3.85,3.85,2.29,2.29,-2.29,-2.29,-2.48,1.57,1.57,1.57
101.25,3.87,3.87,2.35,2.36,-2.35,-2.34,-2.55,1.52,1.52,1.52
102.27,3.89,3.89,2.42,2.42,-2.42,-2.39,-2.63,1.47,1.47,1.47
103.29,3.91,3.91,2.50,2.49,-2.48,-2.43,-2.70,1.43,1.43,1.42
104.32,3.92,3.92,2.54,2.54,-2.55,-2.48,-2.78,1.38,1.38,1.38
105.37,3.93,3.93,2.60,2.60,-2.60,-2.53,-2.85,1.33,1.33,1.33
106.42,3.94,3.94,2.65,2.66,-2.66,-2.58,-2.93,1.28,1.28,1.29
107.48,3.95,3.95,2.71,2.71,-2.71,-2.63,-3.00,1.24,1.24,1.24
108.56,3.95,3.95,2.77,2.76,-2.76,-2.68,-3.07,1.20,1.19,1.19
109.64,3.94,3.95,2.80,2.80,-2.80,-2.73,-3.14,1.15,1.15,1.14
110.74,3.93,3.93,2.84,2.84,-2.83,-2.78,-3.21,1.10,1.10,1.09
111.85,3.91,3.91,2.86,2.87,-2.86,-2.83,-3.27,1.05,1.05,1.05
112.97,3.88,3.88,2.90,2.89,-2.88,-2.88,-3.33,1.00,0.99,0.98
114.10,3.84,3.84,2.91,2.91,-2.91,-2.93,-3.40,0.94,0.94,0.94
115.24,3.80,3.81,2.92,2.93,-2.93,-2.97,-3.45,0.87,0.88,0.88
116.39,3.78,3.78,2.95,2.95,-2.95,-3.02,-3.51,0.83,0.82,0.83
117.55,3.75,3.75,2.98,2.98,-2.99,-3.07,-3.55,0.77,0.76,0.77
118.73,3.73,3.73,3.01,3.00,-3.02,-3.11,-3.60,0.71,0.70,0.72
119.92,3.71,3.73,3.04,3.05,-3.07,-3.16,-3.64,0.64,0.66,0.68
121.12,3.73,3.74,3.11,3.12,-3.12,-3.21,-3.68,0.61,0.62,0.62
122.33,3.78,3.76,3.21,3.19,-3.18,-3.25,-3.71,0.60,0.58,0.57
123.55,3.78,3.78,3.25,3.26,-3.24,-3.29,-3.74,0.54,0.54,0.53
124.79,3.79,3.80,3.31,3.32,-3.31,-3.34,-3.76,0.48,0.49,0.48
126.03,3.80,3.80,3.37,3.37,-3.38,-3.38,-3.78,0.43,0.43,0.43
127.29,3.81,3.81,3.43,3.44,-3.44,-3.42,-3.79,0.37,0.37,0.38
128.57,3.82,3.82,3.50,3.50,-3.50,-3.46,-3.79,0.32,0.32,0.32
129.85,3.83,3.83,3.56,3.56,-3.56,-3.50,-3.80,0.27,0.27,0.27
131.15,3.84,3.84,3.62,3.62,-3.61,-3.54,-3.80,0.23,0.23,0.22
132.46,3.84,3.84,3.67,3.67,-3.66,-3.58,-3.79,0.18,0.18,0.17
133.79,3.84,3.84,3.70,3.71,-3.71,-3.62,-3.78,0.13,0.13,0.14
135.12,3.84,3.84,3.76,3.75,-3.75,-3.66,-3.76,0.09,0.08,0.08
136.48,3.83,3.83,3.79,3.79,-3.79,-3.69,-3.75,0.04,0.04,0.05
137.84,3.82,3.83,3.82,3.83,-3.83,-3.73,-3.73,-0.01,-0.00,0.00
139.22,3.82,3.82,3.87,3.86,-3.86,-3.76,-3.71,-0.04,-0.04,-0.05
140.61,3.81,3.81,3.91,3.90,-3.89,-3.79,-3.68,-0.08,-0.08,-0.09
142.02,3.80,3.80,3.92,3.93,-3.92,-3.83,-3.66,-0.12,-0.12,-0.12
143.44,3.79,3.79,3.95,3.95,-3.95,-3.85,-3.63,-0.15,-0.16,-0.16
144.87,3.77,3.77,3.97,3.97,-3.97,-3.88,-3.60,-0.20,-0.20,-0.20
146.32,3.75,3.76,3.99,3.99,-3.99,-3.91,-3.57,-0.24,-0.24,-0.24
147.78,3.74,3.74,4.01,4.01,-4.01,-3.94,-3.54,-0.27,-0.27,-0.27
149.26,3.72,3.72,4.03,4.03,-4.03,-3.96,-3.51,-0.31,-0.31,-0.30
150.75,3.70,3.70,4.05,4.05,-4.05,-3.99,-3.48,-0.35,-0.35,-0.35
152.26,3.68,3.68,4.07,4.07,-4.07,-4.01,-3.45,-0.39,-0.39,-0.39
153.78,3.66,3.66,4.08,4.09,-4.09,-4.03,-3.42,-0.42,-0.42,-0.42
155.32,3.63,3.64,4.10,4.10,-4.10,-4.05,-3.39,-0.47,-0.46,-0.47
156.88,3.61,3.61,4.11,4.11,-4.11,-4.07,-3.36,-0.50,-0.51,-0.50
158.44,3.57,3.58,4.12,4.12,-4.12,-4.08,-3.34,-0.55,-0.55,-0.54
160.03,3.54,3.54,4.13,4.13,-4.12,-4.10,-3.31,-0.58,-0.58,-0.59
161.63,3.50,3.50,4.13,4.13,-4.12,-4.11,-3.29,-0.62,-0.62,-0.63
163.24,3.46,3.46,4.13,4.13,-4.11,-4.12,-3.27,-0.65,-0.65,-0.67
164.88,3.41,3.41,4.11,4.12,-4.10,-4.13,-3.26,-0.69,-0.69,-0.70
166.53,3.36,3.36,4.10,4.10,-4.09,-4.14,-3.24,-0.73,-0.73,-0.74
168.19,3.30,3.30,4.08,4.08,-4.08,-4.14,-3.23,-0.78,-0.78,-0.78
169.87,3.24,3.25,4.06,4.06,-4.08,-4.15,-3.21,-0.83,-0.83,-0.81
171.57,3.20,3.20,4.05,4.05,-4.07,-4.15,-3.21,-0.87,-0.87,-0.85
173.29,3.17,3.17,4.06,4.06,-4.07,-4.16,-3.20,-0.90,-0.90,-0.89
175.02,3.15,3.15,4.07,4.08,-4.08,-4.16,-3.20,-0.93,-0.93,-0.92
176.77,3.13,3.13,4.10,4.09,-4.09,-4.15,-3.20,-0.96,-0.96,-0.97
178.54,3.10,3.11,4.11,4.11,-4.11,-4.15,-3.20,-1.00,-1.00,-1.01
180.32,3.08,3.08,4.13,4.13,-4.12,-4.15,-3.20,-1.04,-1.04,-1.04
182.13,3.06,3.06,4.14,4.14,-4.14,-4.14,-3.21,-1.07,-1.08,-1.08
183.95,3.04,3.04,4.16,4.15,-4.15,-4.13,-3.22,-1.11,-1.11,-1.12
185.79,3.00,3.01,4.15,4.16,-4.16,-4.12,-3.23,-1.15,-1.15,-1.15
187.65,2.97,2.97,4.16,4.16,-4.16,-4.11,-3.24,-1.19,-1.19,-1.19
189.52,2.94,2.94,4.16,4.16,-4.16,-4.10,-3.26,-1.22,-1.22,-1.22
191.42,2.90,2.91,4.15,4.16,-4.16,-4.08,-3.27,-1.26,-1.25,-1.25
193.33,2.87,2.87,4.15,4.15,-4.15,-4.07,-3.30,-1.28,-1.28,-1.28
195.27,2.83,2.83,4.14,4.14,-4.14,-4.05,-3.32,-1.31,-1.31,-1.31
197.22,2.79,2.79,4.13,4.13,-4.13,-4.03,-3.34,-1.34,-1.34,-1.34
199.19,2.75,2.75,4.12,4.12,-4.12,-4.01,-3.37,-1.36,-1.36,-1.37
201.18,2.71,2.71,4.10,4.10,-4.10,-3.99,-3.39,-1.39,-1.39,-1.39
203.19,2.67,2.67,4.08,4.08,-4.08,-3.96,-3.42,-1.41,-1.41,-1.40
205.23,2.63,2.63,4.06,4.06,-4.06,-3.94,-3.45,-1.43,-1.43,-1.43
207.28,2.59,2.59,4.03,4.03,-4.04,-3.91,-3.48,-1.44,-1.45,-1.44
209.35,2.54,2.55,4.00,4.01,-4.01,-3.88,-3.51,-1.47,-1.46,-1.46
211.44,2.50,2.50,3.99,3.98,-3.98,-3.86,-3.54,-1.47,-1.47,-1.48
213.56,2.46,2.46,3.95,3.95,-3.94,-3.83,-3.57,-1.48,-1.49,-1.49
215.69,2.41,2.41,3.90,3.91,-3.91,-3.79,-3.60,-1.50,-1.49,-1.49
217.85,2.36,2.36,3.87,3.87,-3.87,-3.76,-3.63,-1.51,-1.51,-1.50
220.03,2.31,2.31,3.83,3.83,-3.83,-3.73,-3.66,-1.52,-1.52,-1.52
222.23,2.26,2.26,3.79,3.78,-3.79,-3.69,-3.69,-1.52,-1.52,-1.53
224.45,2.21,2.21,3.73,3.74,-3.74,-3.66,-3.71,-1.53,-1.53,-1.52
226.70,2.16,2.17,3.68,3.69,-3.69,-3.62,-3.73,-1.53,-1.52,-1.52
228.96,2.12,2.12,3.64,3.64,-3.64,-3.58,-3.75,-1.51,-1.52,-1.52
231.25,2.07,2.08,3.58,3.59,-3.58,-3.54,-3.77,-1.51,-1.50,-1.51
233.57,2.02,2.02,3.53,3.54,-3.52,-3.50,-3.78,-1.50,-1.50,-1.51
235.90,1.97,1.95,3.48,3.46,-3.47,-3.46,-3.79,-1.50,-1.52,-1.51
238.26,1.88,1.89,3.39,3.40,-3.41,-3.42,-3.80,-1.53,-1.52,-1.51
240.64,1.81,1.84,3.31,3.34,-3.36,-3.37,-3.80,-1.54,-1.52,-1.50
243.05,1.82,1.80,3.31,3.29,-3.30,-3.33,-3.80,-1.48,-1.50,-1.49
245.48,1.77,1.77,3.25,3.25,-3.24,-3.29,-3.79,-1.47,-1.47,-1.48
247.93,1.72,1.73,3.19,3.20,-3.18,-3.24,-3.78,-1.46,-1.45,-1.47
250.41,1.67,1.67,3.14,3.13,-3.12,-3.20,-3.76,-1.45,-1.45,-1.46
252.92,1.62,1.62,3.06,3.06,-3.06,-3.15,-3.74,-1.44,-1.44,-1.44
255.45,1.57,1.57,2.99,3.00,-3.00,-3.10,-3.71,-1.43,-1.43,-1.42
258.00,1.52,1.52,2.93,2.93,-2.94,-3.06,-3.68,-1.41,-1.41,-1.41
260.58,1.48,1.48,2.87,2.87,-2.87,-3.01,-3.64,-1.39,-1.39,-1.39
263.19,1.44,1.44,2.81,2.82,-2.81,-2.96,-3.60,-1.37,-1.37,-1.37
265.82,1.41,1.41,2.77,2.76,-2.76,-2.91,-3.55,-1.34,-1.35,-1.35
268.48,1.37,1.37,2.70,2.71,-2.71,-2.86,-3.50,-1.33,-1.33,-1.33
271.16,1.34,1.35,2.65,2.66,-2.66,-2.81,-3.45,-1.32,-1.31,-1.31
273.87,1.32,1.32,2.61,2.61,-2.62,-2.76,-3.39,-1.30,-1.30,-1.29
276.61,1.30,1.30,2.57,2.57,-2.58,-2.71,-3.33,-1.28,-1.28,-1.27
279.38,1.28,1.29,2.54,2.54,-2.54,-2.66,-3.26,-1.26,-1.26,-1.25
282.17,1.28,1.28,2.52,2.51,-2.51,-2.61,-3.20,-1.23,-1.23,-1.24
284.99,1.27,1.27,2.49,2.49,-2.48,-2.56,-3.13,-1.21,-1.21,-1.21
287.84,1.26,1.26,2.46,2.46,-2.46,-2.51,-3.06,-1.19,-1.20,-1.20
290.72,1.25,1.25,2.42,2.42,-2.43,-2.46,-2.98,-1.18,-1.18,-1.17
293.63,1.23,1.24,2.39,2.40,-2.40,-2.41,-2.91,-1.16,-1.15,-1.16
296.57,1.23,1.23,2.36,2.37,-2.36,-2.36,-2.83,-1.13,-1.13,-1.13
299.53,1.22,1.21,2.34,2.33,-2.32,-2.31,-2.76,-1.10,-1.11,-1.12
302.53,1.18,1.19,2.28,2.28,-2.27,-2.26,-2.68,-1.09,-1.08,-1.10
305.55,1.15,1.15,2.22,2.22,-2.22,-2.20,-2.61,-1.07,-1.07,-1.06
308.61,1.12,1.12,2.17,2.16,-2.17,-2.15,-2.53,-1.04,-1.05,-1.05
311.69,1.08,1.09,2.10,2.10,-2.11,-2.10,-2.45,-1.03,-1.02,-1.02
314.81,1.06,1.05,2.05,2.04,-2.05,-2.05,-2.38,-0.98,-0.99,-0.98
317.96,1.01,1.01,1.98,1.98,-1.98,-2.00,-2.30,-0.97,-0.97,-0.97
321.14,0.97,0.97,1.92,1.92,-1.92,-1.95,-2.23,-0.94,-0.95,-0.95
324.35,0.92,0.93,1.86,1.86,-1.85,-1.90,-2.15,-0.93,-0.93,-0.93
327.59,0.88,0.88,1.79,1.79,-1.79,-1.85,-2.08,-0.90,-0.90,-0.91
330.87,0.84,0.84,1.73,1.73,-1.73,-1.80,-2.01,-0.88,-0.89,-0.89
334.18,0.79,0.79,1.66,1.66,-1.67,-1.75,-1.94,-0.88,-0.88,-0.87
337.52,0.74,0.75,1.60,1.60,-1.61,-1.70,-1.86,-0.87,-0.86,-0.85
340.90,0.71,0.72,1.54,1.55,-1.56,-1.66,-1.80,-0.85,-0.84,-0.83
344.30,0.70,0.70,1.51,1.51,-1.51,-1.61,-1.73,-0.81,-0.81,-0.81
347.75,0.69,0.68,1.48,1.47,-1.47,-1.56,-1.66,-0.78,-0.78,-0.79
351.23,0.66,0.66,1.44,1.44,-1.42,-1.51,-1.59,-0.76,-0.76,-0.77
354.74,0.63,0.64,1.39,1.39,-1.38,-1.46,-1.53,-0.75,-0.74,-0.76
358.28,0.61,0.61,1.35,1.35,-1.34,-1.42,-1.47,-0.73,-0.73,-0.74
361.87,0.59,0.59,1.31,1.31,-1.31,-1.37,-1.40,-0.72,-0.72,-0.72
365.49,0.56,0.56,1.26,1.27,-1.28,-1.32,-1.34,-0.71,-0.72,-0.70
369.14,0.53,0.54,1.23,1.23,-1.25,-1.28,-1.28,-0.71,-0.71,-0.69
372.83,0.52,0.53,1.20,1.20,-1.22,-1.23,-1.22,-0.70,-0.69,-0.68
376.56,0.52,0.53,1.19,1.19,-1.19,-1.19,-1.17,-0.67,-0.66,-0.67
380.33,0.54,0.53,1.18,1.18,-1.17,-1.14,-1.11,-0.63,-0.63,-0.64
384.13,0.53,0.53,1.16,1.16,-1.14,-1.10,-1.05,-0.61,-0.61,-0.63
387.97,0.51,0.51,1.13,1.13,-1.12,-1.06,-1.00,-0.61,-0.61,-0.62
391.85,0.48,0.48,1.10,1.09,-1.09,-1.01,-0.95,-0.61,-0.61,-0.61
395.77,0.45,0.46,1.05,1.05,-1.06,-0.97,-0.89,-0.61,-0.61,-0.60
399.73,0.43,0.43,1.02,1.02,-1.03,-0.93,-0.84,-0.60,-0.60,-0.59
403.72,0.41,0.41,0.99,0.99,-1.00,-0.89,-0.79,-0.58,-0.58,-0.58
407.76,0.39,0.39,0.96,0.96,-0.96,-0.85,-0.74,-0.57,-0.57,-0.57
411.84,0.37,0.37,0.92,0.93,-0.92,-0.81,-0.70,-0.55,-0.55,-0.55
415.96,0.35,0.35,0.89,0.89,-0.89,-0.77,-0.65,-0.53,-0.54,-0.54
420.12,0.32,0.32,0.86,0.85,-0.85,-0.73,-0.60,-0.53,-0.53,-0.53
424.32,0.28,0.29,0.81,0.81,-0.81,-0.69,-0.56,-0.52,-0.52,-0.52
428.56,0.25,0.25,0.77,0.77,-0.76,-0.65,-0.52,-0.51,-0.51,-0.52
432.85,0.21,0.21,0.72,0.72,-0.71,-0.61,-0.47,-0.50,-0.50,-0.51
437.18,0.17,0.17,0.67,0.67,-0.67,-0.58,-0.43,-0.49,-0.49,-0.50
441.55,0.13,0.13,0.61,0.61,-0.62,-0.54,-0.39,-0.49,-0.49,-0.48
445.96,0.09,0.10,0.56,0.57,-0.57,-0.51,-0.35,-0.48,-0.48,-0.47
450.42,0.07,0.07,0.53,0.53,-0.53,-0.47,-0.31,-0.46,-0.46,-0.46
454.93,0.05,0.05,0.49,0.49,-0.50,-0.44,-0.28,-0.45,-0.45,-0.44
459.48,0.03,0.03,0.46,0.46,-0.47,-0.40,-0.24,-0.43,-0.43,-0.43
464.07,0.02,0.02,0.43,0.43,-0.44,-0.37,-0.21,-0.42,-0.42,-0.41
468.71,0.01,0.01,0.41,0.41,-0.41,-0.33,-0.17,-0.40,-0.40,-0.39
473.40,0.01,0.01,0.40,0.39,-0.39,-0.30,-0.14,-0.38,-0.38,-0.38
478.13,0.00,0.01,0.37,0.37,-0.37,-0.27,-0.11,-0.36,-0.36,-0.36
482.91,0.00,-0.00,0.36,0.35,-0.34,-0.24,-0.08,-0.34,-0.34,-0.36
487.74,-0.02,-0.02,0.32,0.32,-0.31,-0.21,-0.06,-0.33,-0.33,-0.34
492.62,-0.04,-0.04,0.28,0.28,-0.28,-0.18,-0.03,-0.32,-0.32,-0.32
497.55,-0.06,-0.06,0.25,0.25,-0.25,-0.15,-0.00,-0.31,-0.31,-0.31
502.52,-0.08,-0.08,0.21,0.21,-0.22,-0.12,0.02,-0.29,-0.29,-0.29
507.55,-0.10,-0.10,0.18,0.18,-0.18,-0.09,0.04,-0.28,-0.28,-0.28
512.62,-0.12,-0.12,0.14,0.14,-0.14,-0.07,0.07,-0.26,-0.26,-0.26
517.75,-0.14,-0.14,0.10,0.10,-0.11,-0.04,0.09,-0.24,-0.24,-0.24
