frequency,raw,smoothed,error,error_smoothed,equalization,parametric_eq,fixed_band_eq,equalized_raw,equalized_smoothed,target
20.00,-3.90,-3.89,-5.69,-5.68,5.80,4.39,1.89,1.90,1.92,1.80
20.20,-3.89,-3.89,-5.71,-5.72,5.76,4.38,1.95,1.87,1.87,1.83
20.40,-3.87,-3.89,-5.72,-5.74,5.72,4.37,2.00,1.85,1.83,1.86
20.61,-3.86,-3.87,-5.73,-5.75,5.68,4.36,2.06,1.82,1.81,1.87
20.81,-3.85,-3.85,-5.75,-5.75,5.64,4.34,2.12,1.79,1.79,1.90
21.02,-3.82,-3.79,-5.75,-5.72,5.60,4.33,2.19,1.78,1.80,1.93
21.23,-3.70,-3.70,-5.64,-5.65,5.55,4.32,2.25,1.86,1.85,1.94
21.44,-3.57,-3.57,-5.52,-5.53,5.51,4.30,2.32,1.95,1.94,1.95
21.66,-3.45,-3.43,-5.41,-5.39,5.44,4.29,2.38,1.99,2.01,1.96
21.87,-3.32,-3.33,-5.28,-5.30,5.38,4.27,2.46,2.07,2.05,1.96
22.09,-3.26,-3.28,-5.23,-5.25,5.34,4.26,2.53,2.08,2.06,1.97
22.31,-3.29,-3.28,-5.26,-5.25,5.30,4.24,2.60,2.01,2.03,1.97
22.54,-3.32,-3.32,-5.29,-5.29,5.29,4.23,2.68,1.97,1.97,1.97
22.76,-3.36,-3.36,-5.33,-5.32,5.28,4.21,2.76,1.92,1.92,1.97
22.99,-3.39,-3.37,-5.35,-5.33,5.29,4.20,2.84,1.90,1.92,1.96
23.22,-3.36,-3.36,-5.32,-5.32,5.29,4.18,2.92,1.93,1.93,1.96
23.45,-3.32,-3.33,-5.27,-5.28,5.27,4.17,3.00,1.95,1.94,1.96
23.69,-3.28,-3.29,-5.24,-5.24,5.24,4.15,3.09,1.96,1.95,1.96
23.92,-3.25,-3.24,-5.20,-5.20,5.18,4.14,3.17,1.93,1.94,1.96
24.16,-3.18,-3.17,-5.14,-5.13,5.11,4.12,3.26,1.93,1.94,1.96
24.40,-3.08,-3.08,-5.04,-5.04,5.03,4.10,3.35,1.95,1.95,1.96
24.65,-2.99,-2.99,-4.94,-4.94,4.95,4.09,3.45,1.96,1.96,1.95
24.89,-2.90,-2.90,-4.85,-4.85,4.87,4.07,3.54,1.97,1.97,1.95
25.14,-2.83,-2.84,-4.78,-4.79,4.80,4.05,3.63,1.98,1.97,1.95
25.39,-2.79,-2.78,-4.74,-4.73,4.75,4.04,3.72,1.97,1.97,1.95
25.65,-2.75,-2.74,-4.70,-4.68,4.72,4.02,3.82,1.97,1.98,1.95
25.91,-2.70,-2.71,-4.64,-4.65,4.70,4.00,3.91,2.00,1.99,1.94
26.16,-2.70,-2.70,-4.64,-4.64,4.68,3.98,4.00,1.98,1.98,1.94
26.43,-2.72,-2.73,-4.65,-4.66,4.65,3.97,4.10,1.93,1.92,1.94
26.69,-2.75,-2.75,-4.68,-4.69,4.61,3.95,4.19,1.87,1.86,1.93
26.96,-2.77,-2.73,-4.70,-4.67,4.57,3.93,4.28,1.80,1.84,1.93
27.23,-2.66,-2.66,-4.59,-4.59,4.52,3.91,4.36,1.86,1.86,1.93
27.50,-2.53,-2.53,-4.46,-4.46,4.47,3.89,4.45,1.94,1.94,1.93
27.77,-2.40,-2.40,-4.32,-4.33,4.41,3.87,4.53,2.01,2.01,1.92
28.05,-2.30,-2.33,-4.22,-4.24,4.34,3.85,4.61,2.05,2.02,1.92
28.33,-2.31,-2.31,-4.21,-4.22,4.27,3.83,4.68,1.96,1.96,1.91
28.62,-2.31,-2.31,-4.21,-4.21,4.18,3.81,4.75,1.87,1.87,1.90
28.90,-2.32,-2.29,-4.22,-4.19,4.10,3.79,4.82,1.78,1.80,1.90
29.19,-2.23,-2.21,-4.12,-4.11,4.02,3.77,4.87,1.79,1.80,1.89
29.48,-2.09,-2.09,-3.99,-3.98,3.95,3.75,4.92,1.86,1.86,1.90
29.78,-1.95,-1.96,-3.84,-3.85,3.88,3.73,4.97,1.93,1.92,1.89
30.08,-1.85,-1.87,-3.74,-3.76,3.82,3.71,5.00,1.97,1.95,1.89
30.38,-1.84,-1.82,-3.71,-3.70,3.78,3.69,5.04,1.94,1.95,1.87
30.68,-1.83,-1.82,-3.70,-3.69,3.75,3.67,5.06,1.92,1.93,1.87
30.99,-1.82,-1.84,-3.68,-3.71,3.74,3.65,5.07,1.93,1.90,1.86
31.30,-1.89,-1.89,-3.75,-3.75,3.76,3.62,5.07,1.87,1.87,1.86
31.61,-1.96,-1.95,-3.81,-3.80,3.78,3.60,5.07,1.82,1.82,1.86
31.93,-2.02,-2.00,-3.86,-3.84,3.79,3.58,5.06,1.77,1.79,1.84
32.24,-2.01,-2.01,-3.84,-3.84,3.78,3.56,5.04,1.77,1.77,1.83
32.57,-1.97,-1.98,-3.80,-3.81,3.75,3.53,5.01,1.78,1.77,1.83
32.89,-1.93,-1.92,-3.75,-3.74,3.70,3.51,4.98,1.77,1.78,1.83
33.22,-1.84,-1.82,-3.65,-3.64,3.63,3.49,4.94,1.79,1.81,1.81
33.55,-1.72,-1.72,-3.53,-3.53,3.56,3.46,4.89,1.84,1.84,1.81
33.89,-1.61,-1.63,-3.41,-3.43,3.49,3.44,4.83,1.88,1.86,1.80
34.23,-1.57,-1.58,-3.36,-3.37,3.43,3.41,4.77,1.86,1.85,1.79
34.57,-1.57,-1.56,-3.35,-3.34,3.38,3.39,4.71,1.81,1.82,1.78
34.92,-1.57,-1.56,-3.34,-3.33,3.33,3.36,4.64,1.77,1.77,1.77
35.27,-1.56,-1.57,-3.32,-3.33,3.30,3.34,4.56,1.74,1.73,1.76
35.62,-1.56,-1.56,-3.31,-3.31,3.26,3.31,4.48,1.70,1.70,1.75
35.97,-1.56,-1.54,-3.30,-3.28,3.23,3.29,4.40,1.68,1.69,1.74
36.33,-1.50,-1.49,-3.23,-3.22,3.21,3.26,4.32,1.71,1.71,1.73
36.70,-1.43,-1.43,-3.15,-3.15,3.18,3.23,4.23,1.75,1.74,1.72
37.06,-1.37,-1.39,-3.07,-3.10,3.15,3.20,4.15,1.78,1.76,1.71
37.43,-1.38,-1.37,-3.08,-3.07,3.12,3.18,4.06,1.74,1.75,1.70
37.81,-1.38,-1.38,-3.07,-3.06,3.08,3.15,3.97,1.70,1.71,1.69
38.19,-1.39,-1.40,-3.06,-3.07,3.04,3.12,3.88,1.65,1.64,1.67
38.57,-1.40,-1.40,-3.07,-3.06,3.00,3.09,3.80,1.60,1.60,1.67
38.95,-1.40,-1.37,-3.05,-3.02,2.96,3.06,3.71,1.56,1.59,1.65
39.34,-1.31,-1.30,-2.95,-2.94,2.92,3.03,3.62,1.61,1.62,1.64
39.74,-1.21,-1.23,-2.83,-2.85,2.89,3.00,3.54,1.68,1.67,1.62
40.14,-1.15,-1.16,-2.77,-2.78,2.86,2.97,3.45,1.72,1.70,1.62
40.54,-1.16,-1.15,-2.76,-2.75,2.83,2.94,3.37,1.68,1.68,1.60
40.94,-1.17,-1.18,-2.76,-2.77,2.80,2.91,3.29,1.63,1.62,1.60
41.35,-1.22,-1.23,-2.80,-2.81,2.76,2.88,3.21,1.55,1.54,1.58
41.76,-1.27,-1.25,-2.84,-2.82,2.73,2.85,3.13,1.46,1.49,1.57
42.18,-1.24,-1.21,-2.80,-2.77,2.70,2.81,3.05,1.46,1.49,1.57
42.60,-1.13,-1.13,-2.68,-2.69,2.67,2.78,2.98,1.54,1.53,1.55
43.03,-1.02,-1.05,-2.56,-2.59,2.63,2.75,2.91,1.61,1.58,1.54
43.46,-1.00,-0.99,-2.52,-2.51,2.58,2.71,2.84,1.58,1.59,1.53
43.90,-0.98,-0.98,-2.48,-2.48,2.52,2.68,2.77,1.55,1.55,1.50
44.33,-0.98,-0.99,-2.46,-2.47,2.47,2.64,2.70,1.49,1.48,1.48
44.78,-1.00,-0.99,-2.46,-2.45,2.43,2.61,2.64,1.43,1.44,1.46
45.23,-0.99,-0.98,-2.43,-2.42,2.40,2.57,2.58,1.41,1.42,1.44
45.68,-0.95,-0.95,-2.37,-2.38,2.38,2.53,2.52,1.43,1.42,1.43
46.13,-0.92,-0.93,-2.33,-2.34,2.35,2.49,2.46,1.43,1.42,1.41
46.60,-0.92,-0.92,-2.32,-2.31,2.33,2.46,2.41,1.41,1.41,1.40
47.06,-0.92,-0.92,-2.30,-2.29,2.29,2.42,2.35,1.37,1.38,1.38
47.53,-0.91,-0.91,-2.27,-2.27,2.25,2.38,2.30,1.34,1.34,1.36
48.01,-0.90,-0.89,-2.25,-2.23,2.21,2.34,2.25,1.31,1.32,1.35
48.49,-0.86,-0.86,-2.18,-2.18,2.17,2.30,2.21,1.31,1.31,1.32
48.97,-0.82,-0.84,-2.10,-2.12,2.13,2.26,2.16,1.31,1.29,1.29
49.46,-0.82,-0.82,-2.07,-2.07,2.08,2.22,2.12,1.26,1.26,1.25
49.96,-0.82,-0.80,-2.04,-2.03,2.04,2.18,2.07,1.22,1.23,1.22
50.46,-0.79,-0.78,-2.00,-1.99,2.00,2.13,2.03,1.21,1.21,1.21
50.96,-0.75,-0.77,-1.94,-1.95,1.96,2.09,1.99,1.22,1.20,1.19
51.47,-0.76,-0.76,-1.91,-1.92,1.94,2.05,1.96,1.18,1.18,1.16
51.99,-0.77,-0.76,-1.90,-1.89,1.91,2.01,1.92,1.15,1.15,1.13
52.51,-0.77,-0.77,-1.89,-1.88,1.88,1.96,1.88,1.12,1.11,1.12
53.03,-0.77,-0.78,-1.86,-1.88,1.85,1.92,1.85,1.08,1.07,1.09
53.56,-0.79,-0.78,-1.86,-1.85,1.81,1.88,1.82,1.02,1.03,1.07
54.10,-0.79,-0.76,-1.83,-1.80,1.77,1.83,1.78,0.98,1.01,1.04
54.64,-0.71,-0.72,-1.73,-1.73,1.72,1.79,1.75,1.01,1.00,1.02
55.18,-0.65,-0.66,-1.64,-1.65,1.67,1.75,1.72,1.03,1.01,0.99
55.74,-0.62,-0.62,-1.58,-1.59,1.63,1.71,1.69,1.01,1.01,0.96
56.29,-0.61,-0.61,-1.55,-1.55,1.58,1.66,1.66,0.97,0.97,0.95
56.86,-0.62,-0.61,-1.54,-1.53,1.54,1.62,1.63,0.92,0.93,0.92
57.42,-0.62,-0.62,-1.51,-1.51,1.50,1.58,1.60,0.88,0.89,0.89
58.00,-0.62,-0.62,-1.49,-1.49,1.48,1.54,1.57,0.86,0.86,0.87
58.58,-0.62,-0.62,-1.47,-1.47,1.46,1.50,1.54,0.84,0.84,0.85
59.16,-0.62,-0.61,-1.45,-1.44,1.44,1.46,1.51,0.82,0.83,0.83
59.76,-0.60,-0.60,-1.41,-1.41,1.42,1.43,1.48,0.82,0.82,0.81
60.35,-0.60,-0.61,-1.37,-1.39,1.40,1.39,1.46,0.80,0.79,0.78
60.96,-0.62,-0.63,-1.37,-1.38,1.36,1.35,1.43,0.75,0.73,0.75
61.57,-0.66,-0.64,-1.37,-1.36,1.33,1.32,1.39,0.67,0.69,0.71
62.18,-0.66,-0.63,-1.34,-1.31,1.29,1.28,1.36,0.63,0.66,0.68
62.80,-0.59,-0.61,-1.24,-1.26,1.26,1.25,1.33,0.67,0.65,0.65
63.43,-0.57,-0.58,-1.19,-1.20,1.22,1.21,1.30,0.65,0.64,0.62
64.07,-0.57,-0.56,-1.16,-1.15,1.18,1.18,1.27,0.61,0.62,0.59
64.71,-0.57,-0.57,-1.13,-1.13,1.14,1.15,1.24,0.57,0.57,0.56
65.35,-0.57,-0.57,-1.11,-1.11,1.10,1.12,1.20,0.54,0.54,0.54
66.01,-0.57,-0.57,-1.08,-1.08,1.07,1.09,1.17,0.51,0.51,0.51
66.67,-0.57,-0.57,-1.05,-1.05,1.05,1.06,1.13,0.48,0.48,0.48
67.33,-0.57,-0.57,-1.02,-1.02,1.02,1.03,1.10,0.45,0.45,0.45
68.01,-0.57,-0.57,-0.99,-0.99,0.99,1.00,1.06,0.42,0.42,0.42
68.69,-0.57,-0.58,-0.96,-0.97,0.96,0.97,1.03,0.39,0.38,0.39
69.37,-0.58,-0.58,-0.94,-0.94,0.92,0.95,0.99,0.34,0.34,0.36
70.07,-0.60,-0.57,-0.92,-0.90,0.89,0.92,0.95,0.29,0.32,0.32
70.77,-0.54,-0.55,-0.84,-0.84,0.86,0.89,0.92,0.32,0.31,0.30
71.48,-0.52,-0.54,-0.78,-0.81,0.82,0.86,0.88,0.31,0.28,0.27
72.19,-0.54,-0.55,-0.77,-0.78,0.79,0.83,0.84,0.25,0.24,0.23
72.91,-0.60,-0.57,-0.79,-0.76,0.75,0.80,0.80,0.16,0.19,0.19
73.64,-0.58,-0.58,-0.74,-0.74,0.72,0.78,0.77,0.14,0.14,0.16
74.38,-0.57,-0.58,-0.70,-0.70,0.69,0.75,0.73,0.13,0.12,0.13
75.12,-0.57,-0.56,-0.66,-0.66,0.67,0.72,0.69,0.10,0.10,0.09
75.87,-0.57,-0.56,-0.63,-0.63,0.65,0.69,0.65,0.08,0.08,0.06
76.63,-0.57,-0.57,-0.60,-0.60,0.62,0.66,0.61,0.05,0.05,0.03
77.40,-0.59,-0.60,-0.59,-0.60,0.60,0.63,0.58,0.01,-0.00,0.00
78.17,-0.63,-0.62,-0.59,-0.59,0.57,0.59,0.54,-0.06,-0.05,-0.04
78.95,-0.65,-0.63,-0.59,-0.57,0.55,0.56,0.50,-0.10,-0.08,-0.06
79.74,-0.63,-0.63,-0.53,-0.53,0.53,0.53,0.46,-0.10,-0.10,-0.10
80.54,-0.62,-0.62,-0.49,-0.49,0.51,0.49,0.42,-0.11,-0.11,-0.13
81.35,-0.63,-0.65,-0.46,-0.48,0.49,0.46,0.39,-0.14,-0.16,-0.17
82.16,-0.67,-0.67,-0.47,-0.47,0.46,0.43,0.35,-0.21,-0.21,-0.20
82.98,-0.73,-0.68,-0.50,-0.44,0.43,0.39,0.31,-0.29,-0.25,-0.23
83.81,-0.66,-0.68,-0.38,-0.41,0.41,0.36,0.27,-0.25,-0.27,-0.27
84.65,-0.65,-0.68,-0.34,-0.37,0.38,0.32,0.24,-0.27,-0.30,-0.31
85.50,-0.69,-0.68,-0.35,-0.33,0.35,0.28,0.20,-0.34,-0.33,-0.34
86.35,-0.72,-0.71,-0.34,-0.32,0.32,0.25,0.16,-0.40,-0.38,-0.38
87.22,-0.72,-0.72,-0.30,-0.30,0.29,0.21,0.13,-0.43,-0.43,-0.42
88.09,-0.72,-0.72,-0.26,-0.26,0.26,0.17,0.09,-0.46,-0.46,-0.46
88.97,-0.72,-0.71,-0.23,-0.22,0.22,0.13,0.05,-0.50,-0.49,-0.49
89.86,-0.71,-0.71,-0.18,-0.18,0.18,0.10,0.02,-0.52,-0.53,-0.53
90.76,-0.71,-0.72,-0.12,-0.14,0.14,0.06,-0.02,-0.57,-0.58,-0.58
91.66,-0.73,-0.73,-0.11,-0.10,0.10,0.02,-0.06,-0.63,-0.63,-0.62
92.58,-0.74,-0.72,-0.07,-0.05,0.05,-0.02,-0.09,-0.69,-0.67,-0.67
93.51,-0.70,-0.70,0.01,0.01,-0.01,-0.06,-0.13,-0.71,-0.71,-0.70
94.44,-0.66,-0.68,0.09,0.07,-0.07,-0.10,-0.17,-0.73,-0.75,-0.75
95.39,-0.67,-0.67,0.12,0.12,-0.13,-0.13,-0.20,-0.80,-0.80,-0.79
96.34,-0.68,-0.67,0.17,0.18,-0.19,-0.17,-0.24,-0.87,-0.86,-0.85
97.30,-0.67,-0.64,0.22,0.25,-0.25,-0.21,-0.28,-0.92,-0.90,-0.89
98.28,-0.60,-0.62,0.34,0.32,-0.31,-0.25,-0.31,-0.91,-0.92,-0.94
99.26,-0.58,-0.60,0.41,0.39,-0.36,-0.29,-0.35,-0.94,-0.96,-0.98
100.25,-0.61,-0.60,0.42,0.43,-0.41,-0.32,-0.39,-1.02,-1.01,-1.03
101.25,-0.63,-0.62,0.45,0.46,-0.46,-0.36,-0.42,-1.08,-1.08,-1.08
102.27,-0.64,-0.64,0.48,0.48,-0.50,-0.40,-0.46,-1.14,-1.14,-1.12
103.29,-0.65,-0.66,0.53,0.51,-0.54,-0.44,-0.50,-1.18,-1.19,-1.18
104.32,-0.67,-0.66,0.55,0.56,-0.56,-0.47,-0.53,-1.23,-1.23,-1.21
105.37,-0.68,-0.66,0.58,0.60,-0.59,-0.51,-0.57,-1.27,-1.25,-1.26
106.42,-0.65,-0.67,0.66,0.63,-0.61,-0.55,-0.61,-1.26,-1.29,-1.31
107.48,-0.69,-0.70,0.66,0.66,-0.63,-0.59,-0.64,-1.32,-1.33,-1.35
108.56,-0.76,-0.74,0.65,0.67,-0.66,-0.63,-0.68,-1.42,-1.40,-1.41
109.64,-0.79,-0.79,0.67,0.67,-0.68,-0.67,-0.71,-1.47,-1.47,-1.46
110.74,-0.81,-0.81,0.69,0.69,-0.71,-0.71,-0.75,-1.52,-1.53,-1.50
111.85,-0.83,-0.83,0.72,0.73,-0.74,-0.75,-0.78,-1.57,-1.57,-1.55
112.97,-0.84,-0.84,0.77,0.77,-0.77,-0.80,-0.82,-1.61,-1.61,-1.61
114.10,-0.84,-0.84,0.82,0.82,-0.81,-0.84,-0.85,-1.65,-1.66,-1.66
115.24,-0.85,-0.85,0.86,0.87,-0.86,-0.89,-0.88,-1.71,-1.70,-1.71
116.39,-0.85,-0.85,0.92,0.92,-0.92,-0.94,-0.92,-1.76,-1.76,-1.77
117.55,-0.84,-0.84,0.98,0.98,-0.98,-0.99,-0.95,-1.82,-1.82,-1.82
118.73,-0.84,-0.84,1.04,1.03,-1.05,-1.05,-0.98,-1.89,-1.89,-1.87
119.92,-0.83,-0.83,1.09,1.10,-1.11,-1.10,-1.01,-1.94,-1.94,-1.92
121.12,-0.82,-0.79,1.15,1.18,-1.18,-1.16,-1.04,-2.00,-1.97,-1.97
122.33,-0.74,-0.76,1.28,1.26,-1.25,-1.22,-1.07,-1.99,-2.00,-2.02
123.55,-0.71,-0.73,1.36,1.34,-1.31,-1.27,-1.10,-2.02,-2.05,-2.06
124.79,-0.74,-0.72,1.38,1.39,-1.38,-1.33,-1.13,-2.12,-2.10,-2.12
126.03,-0.74,-0.73,1.43,1.43,-1.44,-1.39,-1.15,-2.18,-2.17,-2.17
127.29,-0.73,-0.73,1.49,1.49,-1.50,-1.45,-1.18,-2.23,-2.23,-2.22
128.57,-0.73,-0.73,1.55,1.55,-1.55,-1.51,-1.21,-2.28,-2.28,-2.28
129.85,-0.72,-0.72,1.61,1.61,-1.60,-1.57,-1.23,-2.32,-2.32,-2.32
131.15,-0.72,-0.72,1.65,1.66,-1.65,-1.63,-1.26,-2.37,-2.37,-2.37
132.46,-0.71,-0.71,1.71,1.71,-1.71,-1.69,-1.28,-2.41,-2.42,-2.42
133.79,-0.71,-0.71,1.75,1.76,-1.76,-1.74,-1.31,-2.46,-2.46,-2.46
135.12,-0.70,-0.70,1.81,1.80,-1.81,-1.80,-1.33,-2.50,-2.51,-2.51
136.48,-0.70,-0.70,1.85,1.85,-1.85,-1.85,-1.36,-2.55,-2.55,-2.55
137.84,-0.70,-0.70,1.89,1.90,-1.90,-1.91,-1.38,-2.60,-2.60,-2.59
139.22,-0.70,-0.70,1.95,1.94,-1.94,-1.96,-1.40,-2.64,-2.64,-2.65
140.61,-0.70,-0.69,1.99,1.99,-1.98,-2.01,-1.43,-2.68,-2.68,-2.69
142.02,-0.69,-0.69,2.02,2.03,-2.02,-2.06,-1.45,-2.71,-2.71,-2.71
143.44,-0.69,-0.69,2.06,2.06,-2.06,-2.11,-1.48,-2.75,-2.75,-2.75
144.87,-0.69,-0.69,2.10,2.10,-2.10,-2.16,-1.51,-2.79,-2.79,-2.79
146.32,-0.70,-0.69,2.13,2.13,-2.13,-2.20,-1.53,-2.83,-2.83,-2.83
147.78,-0.70,-0.70,2.16,2.17,-2.17,-2.25,-1.56,-2.87,-2.87,-2.86
149.26,-0.70,-0.70,2.20,2.20,-2.21,-2.29,-1.59,-2.91,-2.91,-2.90
150.75,-0.70,-0.70,2.25,2.24,-2.25,-2.33,-1.62,-2.95,-2.95,-2.95
152.26,-0.70,-0.70,2.28,2.28,-2.29,-2.37,-1.65,-2.99,-2.99,-2.98
153.78,-0.70,-0.69,2.32,2.33,-2.33,-2.42,-1.68,-3.03,-3.02,-3.02
155.32,-0.69,-0.69,2.37,2.37,-2.37,-2.45,-1.71,-3.05,-3.05,-3.06
156.88,-0.69,-0.69,2.41,2.41,-2.40,-2.49,-1.74,-3.09,-3.09,-3.10
158.44,-0.69,-0.70,2.45,2.44,-2.43,-2.53,-1.77,-3.12,-3.13,-3.14
160.03,-0.72,-0.71,2.46,2.47,-2.46,-2.56,-1.81,-3.18,-3.17,-3.18
161.63,-0.75,-0.73,2.47,2.49,-2.48,-2.59,-1.85,-3.23,-3.21,-3.22
163.24,-0.74,-0.75,2.53,2.51,-2.51,-2.63,-1.89,-3.24,-3.26,-3.26
164.88,-0.77,-0.77,2.53,2.53,-2.53,-2.66,-1.93,-3.30,-3.30,-3.29
166.53,-0.80,-0.80,2.53,2.54,-2.55,-2.69,-1.97,-3.35,-3.35,-3.33
168.19,-0.81,-0.80,2.56,2.57,-2.58,-2.72,-2.01,-3.39,-3.38,-3.37
169.87,-0.82,-0.79,2.59,2.62,-2.61,-2.75,-2.05,-3.43,-3.40,-3.41
171.57,-0.75,-0.79,2.70,2.65,-2.65,-2.78,-2.10,-3.40,-3.45,-3.45
173.29,-0.79,-0.79,2.69,2.69,-2.69,-2.80,-2.15,-3.48,-3.49,-3.48
175.02,-0.83,-0.78,2.69,2.74,-2.74,-2.83,-2.20,-3.57,-3.52,-3.52
176.77,-0.76,-0.78,2.80,2.78,-2.79,-2.85,-2.25,-3.55,-3.57,-3.56
178.54,-0.74,-0.75,2.87,2.85,-2.84,-2.88,-2.31,-3.58,-3.60,-3.61
180.32,-0.74,-0.73,2.90,2.91,-2.89,-2.90,-2.36,-3.63,-3.62,-3.64
182.13,-0.73,-0.73,2.94,2.95,-2.94,-2.92,-2.42,-3.67,-3.67,-3.67
183.95,-0.72,-0.72,3.00,2.99,-2.99,-2.94,-2.48,-3.71,-3.71,-3.71
185.79,-0.71,-0.70,3.04,3.04,-3.04,-2.96,-2.54,-3.75,-3.75,-3.74
187.65,-0.69,-0.69,3.10,3.09,-3.09,-2.98,-2.60,-3.78,-3.78,-3.79
189.52,-0.68,-0.68,3.14,3.14,-3.14,-3.00,-2.66,-3.82,-3.82,-3.82
191.42,-0.67,-0.66,3.18,3.18,-3.18,-3.02,-2.73,-3.85,-3.85,-3.85
193.33,-0.65,-0.65,3.23,3.22,-3.23,-3.03,-2.80,-3.88,-3.88,-3.87
195.27,-0.64,-0.64,3.26,3.27,-3.27,-3.05,-2.86,-3.91,-3.91,-3.90
197.22,-0.62,-0.62,3.31,3.31,-3.31,-3.07,-2.93,-3.93,-3.93,-3.93
199.19,-0.61,-0.61,3.36,3.35,-3.34,-3.08,-3.00,-3.95,-3.95,-3.97
201.18,-0.60,-0.60,3.39,3.38,-3.38,-3.10,-3.07,-3.97,-3.98,-3.98
203.19,-0.60,-0.60,3.40,3.41,-3.40,-3.11,-3.14,-4.00,-4.00,-4.00
205.23,-0.60,-0.60,3.43,3.42,-3.43,-3.12,-3.22,-4.02,-4.02,-4.03
207.28,-0.60,-0.60,3.43,3.44,-3.44,-3.13,-3.29,-4.04,-4.04,-4.03
209.35,-0.60,-0.60,3.46,3.46,-3.46,-3.15,-3.36,-4.06,-4.06,-4.06
211.44,-0.60,-0.60,3.48,3.47,-3.47,-3.16,-3.43,-4.07,-4.07,-4.08
213.56,-0.61,-0.60,3.47,3.48,-3.48,-3.17,-3.50,-4.09,-4.08,-4.08
215.69,-0.61,-0.61,3.48,3.48,-3.48,-3.18,-3.57,-4.09,-4.09,-4.09
217.85,-0.61,-0.61,3.49,3.49,-3.49,-3.18,-3.64,-4.10,-4.10,-4.10
220.03,-0.62,-0.61,3.49,3.50,-3.49,-3.19,-3.71,-4.11,-4.11,-4.11
222.23,-0.62,-0.62,3.50,3.50,-3.49,-3.20,-3.77,-4.11,-4.11,-4.12
224.45,-0.62,-0.62,3.50,3.50,-3.50,-3.21,-3.83,-4.12,-4.12,-4.11
226.70,-0.62,-0.62,3.50,3.50,-3.50,-3.21,-3.89,-4.12,-4.12,-4.12
228.96,-0.61,-0.61,3.51,3.50,-3.51,-3.22,-3.95,-4.12,-4.12,-4.12
231.25,-0.61,-0.61,3.50,3.50,-3.51,-3.22,-4.00,-4.12,-4.12,-4.11
233.57,-0.60,-0.60,3.51,3.51,-3.52,-3.23,-4.05,-4.12,-4.12,-4.11
235.90,-0.58,-0.58,3.53,3.52,-3.53,-3.23,-4.09,-4.10,-4.11,-4.11
238.26,-0.57,-0.56,3.54,3.55,-3.53,-3.24,-4.13,-4.10,-4.09,-4.11
240.64,-0.54,-0.54,3.56,3.55,-3.54,-3.24,-4.16,-4.07,-4.08,-4.09
243.05,-0.52,-0.54,3.57,3.55,-3.54,-3.24,-4.19,-4.06,-4.08,-4.08
245.48,-0.55,-0.53,3.52,3.54,-3.55,-3.24,-4.21,-4.09,-4.08,-4.07
247.93,-0.54,-0.53,3.52,3.53,-3.55,-3.24,-4.23,-4.09,-4.09,-4.06
250.41,-0.52,-0.53,3.54,3.52,-3.55,-3.24,-4.24,-4.07,-4.08,-4.06
252.92,-0.51,-0.50,3.53,3.54,-3.55,-3.24,-4.25,-4.06,-4.05,-4.04
255.45,-0.48,-0.47,3.53,3.55,-3.54,-3.24,-4.25,-4.01,-4.01,-4.01
258.00,-0.44,-0.46,3.56,3.54,-3.51,-3.24,-4.24,-3.95,-3.98,-4.00
260.58,-0.47,-0.46,3.52,3.52,-3.48,-3.24,-4.23,-3.95,-3.94,-3.99
263.19,-0.51,-0.49,3.46,3.48,-3.44,-3.24,-4.22,-3.94,-3.93,-3.96
265.82,-0.51,-0.55,3.44,3.40,-3.39,-3.23,-4.20,-3.90,-3.94,-3.95
268.48,-0.63,-0.60,3.30,3.32,-3.33,-3.23,-4.17,-3.96,-3.94,-3.93
271.16,-0.67,-0.66,3.23,3.25,-3.28,-3.22,-4.14,-3.95,-3.94,-3.90
273.87,-0.69,-0.70,3.20,3.19,-3.23,-3.22,-4.11,-3.92,-3.93,-3.89
276.61,-0.71,-0.70,3.15,3.16,-3.18,-3.21,-4.07,-3.89,-3.89,-3.86
279.38,-0.70,-0.70,3.15,3.15,-3.15,-3.21,-4.03,-3.85,-3.85,-3.85
282.17,-0.69,-0.69,3.14,3.14,-3.14,-3.20,-3.99,-3.83,-3.83,-3.83
284.99,-0.68,-0.69,3.13,3.13,-3.13,-3.19,-3.95,-3.80,-3.81,-3.81
287.84,-0.68,-0.67,3.11,3.12,-3.12,-3.18,-3.90,-3.80,-3.79,-3.79
290.72,-0.67,-0.65,3.10,3.12,-3.11,-3.17,-3.85,-3.78,-3.75,-3.77
293.63,-0.62,-0.63,3.13,3.12,-3.10,-3.16,-3.80,-3.72,-3.73,-3.75
296.57,-0.59,-0.62,3.14,3.11,-3.08,-3.15,-3.75,-3.67,-3.71,-3.73
299.53,-0.66,-0.64,3.05,3.07,-3.07,-3.14,-3.70,-3.72,-3.70,-3.71
302.53,-0.67,-0.66,3.03,3.03,-3.05,-3.12,-3.65,-3.72,-3.71,-3.69
305.55,-0.66,-0.65,3.00,3.01,-3.03,-3.11,-3.61,-3.69,-3.69,-3.66
308.61,-0.64,-0.62,3.00,3.01,-3.02,-3.09,-3.56,-3.66,-3.65,-3.64
311.69,-0.57,-0.61,3.05,3.00,-3.01,-3.08,-3.51,-3.58,-3.62,-3.62
314.81,-0.60,-0.60,2.98,2.99,-3.00,-3.06,-3.46,-3.60,-3.60,-3.58
317.96,-0.61,-0.57,2.95,2.99,-2.99,-3.04,-3.42,-3.60,-3.56,-3.56
321.14,-0.55,-0.55,3.00,3.00,-2.98,-3.03,-3.37,-3.53,-3.53,-3.54
324.35,-0.49,-0.52,3.04,3.00,-2.97,-3.01,-3.33,-3.46,-3.49,-3.53
327.59,-0.52,-0.53,2.98,2.98,-2.95,-2.99,-3.29,-3.47,-3.48,-3.50
330.87,-0.58,-0.55,2.91,2.93,-2.93,-2.97,-3.25,-3.51,-3.48,-3.48
334.18,-0.59,-0.59,2.88,2.88,-2.91,-2.95,-3.22,-3.49,-3.49,-3.47
337.52,-0.59,-0.59,2.86,2.86,-2.88,-2.93,-3.18,-3.47,-3.47,-3.45
340.90,-0.59,-0.57,2.83,2.85,-2.85,-2.91,-3.15,-3.44,-3.42,-3.42
344.30,-0.55,-0.58,2.86,2.83,-2.82,-2.88,-3.12,-3.37,-3.39,-3.40
347.75,-0.58,-0.58,2.81,2.80,-2.79,-2.86,-3.10,-3.37,-3.38,-3.39
351.23,-0.62,-0.59,2.75,2.78,-2.78,-2.84,-3.07,-3.39,-3.37,-3.37
354.74,-0.60,-0.60,2.75,2.75,-2.76,-2.82,-3.05,-3.36,-3.37,-3.35
358.28,-0.59,-0.59,2.74,2.74,-2.75,-2.80,-3.03,-3.34,-3.34,-3.33
361.87,-0.58,-0.58,2.74,2.74,-2.74,-2.79,-3.01,-3.31,-3.31,-3.32
365.49,-0.57,-0.57,2.74,2.73,-2.73,-2.77,-3.00,-3.29,-3.30,-3.31
369.14,-0.57,-0.56,2.73,2.73,-2.72,-2.76,-2.99,-3.29,-3.29,-3.30
372.83,-0.56,-0.56,2.72,2.72,-2.72,-2.74,-2.98,-3.28,-3.29,-3.28
376.56,-0.55,-0.55,2.72,2.72,-2.73,-2.73,-2.97,-3.28,-3.28,-3.27
380.33,-0.54,-0.53,2.71,2.72,-2.74,-2.72,-2.96,-3.28,-3.27,-3.24
384.13,-0.49,-0.50,2.75,2.74,-2.75,-2.71,-2.96,-3.24,-3.25,-3.24
387.97,-0.47,-0.47,2.76,2.76,-2.76,-2.71,-2.96,-3.23,-3.23,-3.23
391.85,-0.44,-0.43,2.78,2.78,-2.77,-2.71,-2.96,-3.20,-3.20,-3.22
395.77,-0.42,-0.41,2.78,2.79,-2.77,-2.71,-2.96,-3.18,-3.18,-3.20
399.73,-0.39,-0.41,2.80,2.78,-2.76,-2.71,-2.96,-3.15,-3.17,-3.19
403.72,-0.42,-0.43,2.76,2.76,-2.75,-2.71,-2.97,-3.16,-3.17,-3.18
407.76,-0.47,-0.44,2.71,2.73,-2.73,-2.72,-2.97,-3.19,-3.17,-3.17
411.84,-0.47,-0.46,2.69,2.69,-2.70,-2.72,-2.98,-3.17,-3.16,-3.16
415.96,-0.46,-0.48,2.69,2.67,-2.67,-2.73,-2.99,-3.13,-3.15,-3.15
420.12,-0.50,-0.50,2.64,2.64,-2.64,-2.74,-3.00,-3.14,-3.14,-3.14
424.32,-0.53,-0.51,2.60,2.61,-2.62,-2.75,-3.01,-3.15,-3.13,-3.13
428.56,-0.52,-0.52,2.60,2.60,-2.61,-2.76,-3.02,-3.13,-3.13,-3.12
432.85,-0.51,-0.51,2.60,2.60,-2.61,-2.77,-3.03,-3.12,-3.12,-3.11
437.18,-0.48,-0.49,2.62,2.61,-2.63,-2.78,-3.04,-3.11,-3.12,-3.10
441.55,-0.46,-0.45,2.62,2.63,-2.66,-2.80,-3.05,-3.11,-3.11,-3.08
445.96,-0.42,-0.40,2.66,2.68,-2.69,-2.81,-3.06,-3.11,-3.09,-3.07
450.42,-0.31,-0.32,2.76,2.74,-2.74,-2.82,-3.07,-3.05,-3.06,-3.07
454.93,-0.24,-0.24,2.81,2.80,-2.79,-2.83,-3.08,-3.03,-3.03,-3.05
459.48,-0.18,-0.18,2.86,2.86,-2.84,-2.84,-3.09,-3.02,-3.01,-3.04
