frequency,raw,error,smoothed,error_smoothed,equalization,equalized_raw,equalized_smoothed,target
20,-0.7347764772810368,-0.7512556396752255,-0.7202289462097896,-0.7366937327342516,0.7366937327342514,0.001917255453214639,0.016464786524461816,0.016479162394188673
21,-0.41065709091932195,-0.42830317738861995,-0.38877435062121385,-0.40642206823743254,0.40642206823743243,-0.004235022681889522,0.017647717616218583,0.017646086469297995
22,-0.011284493123541808,-0.03004706411611298,-0.08166884470540225,-0.1004424727058183,0.10044247270581828,0.08915797958227648,0.01877362800041603,0.01876257099257117
23,0.19980445606240577,0.1799772463272638,0.201087571537645,0.18124505386059087,-0.18124505386059092,0.018559402201814845,0.019842517677054083,0.01982720973514196
24,0.430356646052448,0.4095183025046614,0.4594948981079282,0.438640511461795,-0.4386405114617948,-0.00828386540934678,0.020854386646133427,0.020838343547786575
25,0.7087469672318278,0.6869529383171125,0.6922692946776506,0.670457994625808,-0.6704579946258081,0.03828897260601971,0.021811300051842508,0.02179402891471538
26,0.9118846998874137,0.8891926956774368,0.9008405643480691,0.8781291934548643,-0.8781291934548643,0.03375550643254943,0.022711370893204852,0.022692004209976968
27,1.114413763244356,1.0908796156973528,1.0866256768126448,1.0630732700013796,-1.0630732700013796,0.051340493242976404,0.023552406811265136,0.023534147547003226
28,1.2676306344306534,1.2433171594627206,1.2517085021002197,1.2273779312621276,-1.2273779312621274,0.04025270316852603,0.024330570838092314,0.02431347496793279
29,1.3566624312513982,1.3316377119066236,1.398626532018921,1.3735863219827844,-1.3735863219827846,-0.01692389073138645,0.025040210036136434,0.02502471934477457
30,1.5258513585507283,1.500190105079765,1.5295996431599774,1.5039250991596138,-1.5039250991596145,0.02192625939111381,0.025674544000362953,0.025661253470963263
31,1.6331550994061157,1.6069400398459428,1.6465031326083417,1.6202777037060696,-1.6202777037060692,0.012877395700046534,0.02622542890227253,0.026215059560172893
32,1.7419149003990309,1.7152380914568957,1.7505971768360928,1.7239134666428158,-1.7239134666428155,0.018001433756215324,0.02668371019327731,0.0266768089421352
33,1.8514407460689493,1.8244046806953118,1.8425318966294628,1.8154924178027083,-1.8154924178027083,0.03594832826624095,0.027039478826754504,0.027036065373637452
34,1.8607037076025759,1.8334213216103727,1.9225668899030284,1.895284615283555,-1.8952846152835543,-0.034580907680978434,0.02728227461947408,0.027282385992203118
35,2.071281933412455,2.043877141117818,1.990815156855792,1.9634137556537168,-1.9634137556537168,0.10786817775873803,0.027401401202075126,0.02740479229463677
36,2.080772668050318,2.053380340736423,2.0475251454109156,2.0201389656440716,-2.020138965644071,0.06063370240624666,0.027386179766844432,0.02739232731389496
37,2.089903563689377,2.062669212083577,2.0932632761456715,2.066037077368454,-2.0660370773684535,0.023866486320923475,0.02722619877721799,0.02723435160580001
38,2.097804436498126,2.070883658683123,2.128958772684992,2.1020472391827645,-2.1020472391827654,-0.00424280268463928,0.026911533502226526,0.026920777815003127
39,2.103394138219264,2.0769519200901025,2.1558311248211814,2.1293982245039187,-2.129398224503919,-0.026004086284655337,0.02643290031726231,0.026442218129161255
40,2.2064345831389582,2.180644553544756,2.175238434382268,2.1494566871739265,-2.1494566871739265,0.05697789596503178,0.0257817472083417,0.0257900295942024
41,2.2056527945820648,2.1806964065748504,2.188513768175028,2.1635635067830736,-2.163563506783073,0.04208928779899157,0.024950261391954776,0.024956388007214336
42,2.202291503986997,2.1783573184231355,2.1968352383747654,2.172903949351073,-2.1729039493510736,0.02938755463592324,0.023931289023691793,0.023934185563861288
43,2.1975363331142015,2.174819475592987,2.201145732379612,2.178427564766279,-2.178427564766279,0.0191087683479223,0.022718167613332785,0.02271685752121444
44,2.19260400549775,2.171305880445739,2.202115172880477,2.1808106998323344,-2.1808106998323336,0.011793305665416476,0.021304473048143535,0.02129812505201123
45,2.188310827682856,2.168639165972695,2.2001278848852737,2.1804441948750015,-2.180444194875001,0.007866632807854934,0.019683690010272592,0.019671661710161104
46,2.1849087045423863,2.167078012715836,2.19528628864485,2.17743747133005,-2.1774374713300495,0.007471233212336781,0.01784881731480059,0.017830691826550282
47,2.182230068298231,2.1664625386820386,2.1874371113817763,2.171645188487845,-2.171645188487845,0.010584879810386028,0.015791922893931165,0.015767529616192544
48,2.1800092732095973,2.166536181823359,2.1762343747963513,2.1627307087161145,-2.1627307087161145,0.01727856449348275,0.013503666080236787,0.013473091386238423
49,2.178164936983657,2.1672285448050173,2.161247016725576,2.1502742103777326,-2.150274210377732,0.027890726605924954,0.010972806347843811,0.010936392178639842
50,2.1768750371608894,2.1687309882559775,2.1420999958243017,2.133914277164875,-2.133914277164875,0.04296075999601445,0.008185718659426744,0.008144048904911827
51,2.07584588222523,2.070766071351526,2.1186168279594124,2.113490892496672,-2.1134908924966718,-0.03764501027144185,0.0051259354627406495,0.005079810873704016
52,2.0763507884710046,2.0746266507545217,2.09092144410093,2.0891477098251445,-2.0891477098251436,-0.012796921354139013,0.0017737342757864205,0.001724137716482943
53,2.077608279282412,2.0795544369168266,2.0594647656593486,2.0613589777859365,-2.061358977785937,0.016249301496475077,-0.0018942121265883571,-0.0019461576344146359
54,2.0791244303581267,2.0850826176157273,2.024964191554511,2.030869300191236,-2.0308693001912355,0.0482551301668912,-0.005905108636724332,-0.005958187257600667
55,1.979786752253438,1.9901299281779616,1.9882725778840147,1.9985628007451404,-1.9985628007451401,-0.018776048491702113,-0.010290222861125464,-0.010343175924523607
56,1.897606392727814,1.9127429436263022,1.9502151393647376,1.9653001143690925,-1.9653001143690931,-0.06769372164127918,-0.015084975004355572,-0.015136550898488199
57,1.880059224157171,1.9004371547616234,1.9114394707059599,1.9317683999224227,-1.9317683999224224,-0.05170917576525147,-0.020328929216462566,-0.020377930604452477
58,1.8801332740156387,1.9062442869957323,1.8723152019306624,1.8983808888640694,-1.8983808888640696,-0.01824761484843096,-0.026065686933407273,-0.026111012980093662
59,1.8804561443258796,1.9128395124165205,1.8329021685860734,1.8652448550244265,-1.8652448550244263,0.015211289301453323,-0.03234268643835292,-0.03238336809064091
60,1.8383781597320958,1.8776243026830548,1.7929885274184338,1.8321994435995088,-1.8321994435995093,0.006178716132586581,-0.03921091618107542,-0.03924614295095896
61,1.6804738820128715,1.7272275714749703,1.7521884022521872,1.7989129544091136,-1.7989129544091138,-0.1184390723962423,-0.04672455215692661,-0.04675368946209879
62,1.6803518442381196,1.7353149726804349,1.7100825611507973,1.7650230928995292,-1.7650230928995292,-0.08467124866140963,-0.054940531748731924,-0.05496312844231532
63,1.679089100213887,1.7430229643141109,1.666381762140674,1.7302998399414984,-1.7302998399414988,-0.05121073972761181,-0.06391807780082481,-0.06393386410022384
64,1.6767007919815868,1.7504278558409618,1.6210861798039882,1.6948043670624526,-1.6948043670624533,-0.018103575080866463,-0.07371818725846513,-0.073727063859375
65,1.6069478271822097,1.6913529454067078,1.574604373814665,1.6590074725317288,-1.659007472531728,-0.052059645349518346,-0.0844030987170632,-0.08440511822449803
66,1.470486623067892,1.5665177175030245,1.5277877675116274,1.6238235195696658,-1.6238235195696666,-0.15333689650177473,-0.09603575205803927,-0.09603109443513258
67,1.470279438355007,1.5789476344365427,1.4818420540541177,1.5905213058961132,-1.590521305896113,-0.12024186754110588,-0.10867925184199523,-0.10866819608153566
68,1.4731846393736494,1.595563878194044,1.4381031613947735,1.5604995064056673,-1.560499506405667,-0.08731486703201763,-0.12239634501089358,-0.12237923882039459
69,1.3997728499854065,1.5369989999445823,1.3977099373989894,1.5349588590098184,-1.5349588590098187,-0.13518600902441213,-0.13724892161082924,-0.1372261499591758
70,1.3220094104708555,1.4752789076200212,1.3612551474389787,1.5145526907533222,-1.5145526907533229,-0.19254328028246737,-0.1532975433143442,-0.1532694971491657
71,1.3025702873704286,1.4731383362726373,1.3285295225021159,1.4991305221959916,-1.4991305221959916,-0.19656023482556306,-0.17060099969387577,-0.17056804890220878
72,1.3178442242214532,1.5070225914992286,1.2984685336265387,1.4876844238863183,-1.4876844238863183,-0.16984019966486508,-0.18921589025977958,-0.18917836727777537
73,1.2326489806136927,1.4418034116193925,1.2693583616497393,1.478554596596502,-1.4785545965965015,-0.2459056159828088,-0.2091962349467622,-0.20915443100569986
74,1.2463731222235577,1.4769204078403129,1.2392688213690621,1.469861940565354,-1.4698619405653541,-0.22348881834179646,-0.230593119196292,-0.2305472856167552
75,1.257078170298475,1.510482886218201,1.2065891988354664,1.4600435812039674,-1.460043581203967,-0.20296541090549192,-0.2534543823685005,-0.2534047159197259
76,1.2098870605447378,1.4876579959694824,1.170487552164081,1.4483119019915334,-1.4483119019915334,-0.23842484144679554,-0.2778243498274524,-0.2777709354247446
77,1.1387529023306653,1.4424391894006028,1.1311239428979787,1.4348675163187243,-1.4348675163187243,-0.29611461398805905,-0.30374357342074565,-0.3036862870699375
78,1.070814931234845,1.4020018810681776,1.08952850940622,1.4207770028348554,-1.4207770028348554,-0.34996207160001047,-0.3312484934286355,-0.33118694983333263
79,1.050946397608725,1.4112510440592334,1.047180260735635,1.4075511883425529,-1.4075511883425535,-0.35660479073382856,-0.36037092760691847,-0.3603046464505084
80,0.9834620877452613,1.3745284361839316,1.0054414069712088,1.3965788092409785,-1.3965788092409788,-0.41311672149571743,-0.39113740226977,-0.3910663484386703
81,0.8964614313795898,1.3199554072454647,0.9650628218376001,1.3886313935855246,-1.388631393585525,-0.49216996220593523,-0.42356857174792495,-0.4234939758658749
82,0.9149914203917464,1.3725955111047172,0.9259504355468613,1.3836296234506635,-1.3836296234506638,-0.46863820305891735,-0.45767918790380246,-0.4576040907129708
83,0.9368375883724142,1.430245172543306,0.8872781512232759,1.3807572341088776,-1.3807572341088779,-0.4439196457364637,-0.49347908288560194,-0.49340758417089203
84,0.8588662203551574,1.3897755800763434,0.8478928007303581,1.3788679613837962,-1.3788679613837962,-0.5200017410286388,-0.5309751606534381,-0.530909359721186
85,0.8297158862504551,1.3998239015494014,0.8068399643805073,1.3770133424212818,-1.377013342421282,-0.5472974561708269,-0.5701733780407747,-0.5701080152989464
86,0.7964345315003258,1.4074300606849495,0.7637968651988332,1.3748753945178462,-1.3748753945178462,-0.5784408630175204,-0.6110785293190131,-0.6109955291846236
87,0.7120239788481417,1.3655809343269436,0.7192467034864194,1.3729359488796946,-1.3729359488796946,-0.6609119700315529,-0.6536892453932752,-0.6535569554788019
88,0.6628115302799054,1.3605816663386152,0.6743425140542871,1.3723294866179012,-1.3723294866179012,-0.7095179563379959,-0.6979869725636141,-0.6977701360587099
89,0.613302626671372,1.3569080634552715,0.6305349955093928,1.3744561276223677,-1.3744561276223677,-0.7611535009509957,-0.7439211321129748,-0.7436054367838993
90,0.536543418354213,1.3275689347584234,0.5891231153168359,1.3805203352169788,-1.3805203352169788,-0.8439769168627658,-0.7913972199001429,-0.7910255164042104
91,0.5472266283189102,1.3872117654401686,0.5508963662836283,1.3911744466876712,-1.3911744466876708,-0.8439478183687605,-0.8402780804040425,-0.8399851371212583
92,0.5587731861661291,1.4492042122256859,0.51597741496914,1.40638541342767,-1.40638541342767,-0.847612227261541,-0.8904079984585301,-0.8904310260595567
93,0.4871822929444774,1.4294840899494234,0.48387942333603284,1.4255419622731513,-1.4255419622731513,-0.938359669328674,-0.9416625389371185,-0.9423017970049461
94,0.4509024639793296,1.4464304056300052,0.45371154480897824,1.4477265198142188,-1.4477265198142193,-0.9968240558348898,-0.994014975005241,-0.9955279416506757
95,0.40595140235613064,1.4559833015892654,0.42443248079846285,1.4720294778051954,-1.4720294778051952,-1.0660780754490646,-1.0475969970067323,-1.0500318992331348
96,0.42367273899428176,1.5294009518077265,0.39506975527426075,1.4977935010235974,-1.4977935010235972,-1.0741207620293154,-1.1027237457493364,-1.1057282128134447
97,0.3509428185557813,1.5134665980943405,0.3648689156383118,1.524725883842878,-1.5247258838428779,-1.1737830652870966,-1.159856968204566,-1.1625237795385592
98,0.35193891421579165,1.5722571151847964,0.33337923824531435,1.5528764947957372,-1.5528764947957372,-1.2009375805799456,-1.2194972565504227,-1.2203182009690048
99,0.25967437186959114,1.5386786098386547,0.3004968526413134,1.582519826187926,-1.582519826187926,-1.322845454318335,-1.2820229735466127,-1.2790042379690636
100,0.2633753487067681,1.601843721416256,0.2664716343828597,1.6139913949315818,-1.6139913949315818,-1.3506160462248138,-1.3475197605487221,-1.338468372709488
101,0.2661589175700843,1.6647503956097336,0.23186091301557776,1.6475195295763803,-1.647519529576381,-1.3813606120062967,-1.4156586165608032,-1.3985914780396493
102,0.26135556189370684,1.720605153766859,0.19740719456579592,1.6830812350534572,-1.6830812350534567,-1.4217256731597498,-1.4856740404876607,-1.459249591873152
104,0.15366510053325805,1.7359445170446468,0.16384090045682448,1.720307117209369,-1.720307117209369,-1.5666420166761108,-1.5564662167525445,-1.5822794165113887
105,0.0608857101855194,1.70458737403366,0.13165195801790014,1.7584630138791653,-1.7584630138791655,-1.6975773036936461,-1.6268110558612654,-1.6437016638481405
106,0.05472782350884979,1.7598725595098546,0.10090823418142077,1.7965316934769429,-1.7965316934769426,-1.7418038699680929,-1.695623459295522,-1.7051447360010048
107,0.06252012406520012,1.8289976807729742,0.07119771074441844,1.8333950958046221,-1.833395095804622,-1.7708749717394219,-1.7621973850602035,-1.7664775567077742
108,0.07138491191816936,1.8989551231581288,0.041726822067259015,1.868077199173643,-1.8680771991736427,-1.7966922872554734,-1.8263503771063836,-1.8275702112399594
109,0.06896877253859456,1.9572638333647785,0.011538354753096593,1.8999676985469052,-1.8999676985469054,-1.8309989260083108,-1.888429343793809,-1.888295060826184
110,-0.013407873281694307,1.9351199801049093,-0.020244360219329703,1.9289337235271096,-1.928933723527109,-1.9423415968088031,-1.9491780837464385,-1.9485278533866035
111,-0.04505576615929337,1.9630930426231736,-0.054250588872070134,1.955259112189232,-1.9552591121892324,-2.000314878348526,-2.0095097010613028,-2.008148808782467
112,-0.1123900572592829,1.9546535987161893,-0.09083121963026858,1.9794227998114051,-1.9794227998114053,-2.091812857070688,-2.070254019441674,-2.067043655975472
113,-0.1568240422253231,1.9682805572130357,-0.13014412312116266,2.001808688215263,-2.0018086882152626,-2.1586327304405857,-2.1319528113364252,-2.125104599438359
114,-0.20325622075108363,1.978974972180736,-0.1722680875265857,2.0224864538108354,-2.0224864538108362,-2.22574267456192,-2.194754541337422,-2.1822311929318197
115,-0.19870269139804542,2.039628408997779,-0.21723842621796874,2.0411859900980462,-2.041185990098047,-2.2398886814960925,-2.258424416316016,-2.2383311003958246
117,-0.22683243576188095,2.1212010065339992,-0.264941508762668,2.057507051141247,-2.057507051141246,-2.284339486903127,-2.322448559903914,-2.3480334422958804
118,-0.29243073672639597,2.108283069848588,-0.3148922822970003,2.0712936386890517,-2.0712936386890513,-2.363724375415447,-2.3861859209860516,-2.400713806574984
119,-0.3788730306968398,2.0732248876410564,-0.3660026267254757,2.083012643786291,-2.0830126437862906,-2.4618856744831303,-2.449015270511766,-2.452097918337896
120,-0.38953328691300726,2.112604326120202,-0.4164825518926746,2.0939544528680587,-2.0939544528680583,-2.4834877397810655,-2.5104370047607327,-2.5021376130332094
121,-0.4421828666677272,2.108611373731219,-0.46397891907406497,2.106134623645566,-2.106134623645566,-2.548317490313293,-2.5701135427196307,-2.5507942403989463
123,-0.5485907937553094,2.09684605321265,-0.5059614626774915,2.1218956014696206,-2.12189560146962,-2.6704863952249296,-2.6278570641471117,-2.6454368469679594
124,-0.5874147035112118,2.102527282392204,-0.5402560303714709,2.1433332290147122,-2.1433332290147122,-2.730747932525924,-2.683589259386183,-2.689941985903416
125,-0.5861874818369863,2.1468057583612365,-0.5655501988024608,2.171749647461679,-2.171749647461679,-2.757937129298665,-2.73729984626414,-2.7329932401982227
126,-0.5846876282169141,2.1899041082807296,-0.5816916665806491,2.2073290659877127,-2.2073290659877123,-2.7920166942046265,-2.7890207325683614,-2.774591736497644
128,-0.5826781056906598,2.2728910047178417,-0.589668538752268,2.2491492905404096,-2.2491492905404105,-2.8318273962310703,-2.8388178292926787,-2.8555691104085015
129,-0.5799321523095041,2.3130546609221745,-0.5912741730367579,2.295516323974142,-2.2955163239741423,-2.8754484762836463,-2.8867904970109004,-2.8929868132316785
130,-0.576373901239699,2.352631668093552,-0.5885713252573543,2.344493692795957,-2.344493692795957,-2.920867594035656,-2.9330650180533113,-2.9290055693332513
131,-0.5721516309809203,2.391500763555022,-0.5833378857062504,2.3944363584348007,-2.3944363584348007,-2.966587989415721,-2.977774244141051,-2.9636523945359423
133,-0.5675862147445878,2.463823298639684,-0.5766761519141724,2.4443502156712302,-2.444350215671231,-3.011936430415819,-3.0210263675854034,-3.031409513384272
134,-0.5630262397889177,2.499165115186563,-0.5689024276859136,2.4939724352720196,-2.4939724352720196,-3.0569986750609375,-3.0628748629579334,-3.062191354975481
135,-0.5587050861513941,2.5330190137105446,-0.5597299015324233,2.5435738746050665,-2.543573874605067,-3.102278960756461,-3.10330377613749,-3.091724099861939
137,-0.5546965727443014,2.595097892593601,-0.5486539482948452,2.5935827247900187,-2.5935827247900183,-3.1482792975343195,-3.1422366730848634,-3.149794465337902
138,-0.5510019384755152,2.6248331991442404,-0.5353816737569055,2.6441854251073904,-2.6441854251073904,-3.195187363582906,-3.179567098864296,-3.1758351376197558
140,-0.5477051645078468,2.679583805552145,-0.5201384591130216,2.6950600603388972,-2.6950600603388972,-3.2427652248467442,-3.215198519451919,-3.227288970059992
141,-0.527997755772653,2.7221401806596375,-0.5037348292699257,2.7453426683636666,-2.7453426683636666,-3.2733404241363195,-3.2490774976335923,-3.2501379364322904
142,-0.458383323546614,2.813601735807086,-0.4873694941534904,2.793837955145692,-2.793837955145693,-3.252221278692307,-3.2812074492991834,-3.2719850593537
144,-0.4389954158250598,2.8765134424656016,-0.4722476513886171,2.8393920202597007,-2.8393920202597007,-3.2783874360847607,-3.311639671648318,-3.3155088582906616
145,-0.4432637748930311,2.89130087971745,-0.4591717829185514,2.8812767674220794,-2.8812767674220794,-3.3245405423151104,-3.3404485503406307,-3.3345646546104812
147,-0.44445199269833946,2.92835690867464,-0.448286173083537,2.919417853914047,-2.9194178539140463,-3.3638698466123858,-3.3677040269975835,-3.3728089013729794
148,-0.44518391654655476,2.9441688792472402,-0.439113775390693,2.9543403200794387,-2.9543403200794383,-3.399524236625993,-3.393454095470131,-3.389352795793795
150,-0.4446937503176381,2.978161176816659,-0.43092384669312545,2.9868002904430933,-2.9868002904430937,-3.431494040760732,-3.417724137136219,-3.4228549271342974
151,-0.44271695999186117,2.994427365040897,-0.4233399368277171,3.0171913285177654,-3.0171913285177654,-3.4599082885096264,-3.4405312653454825,-3.437144325032758
153,-0.4395591655310702,3.0268442246536167,-0.4169828335734291,3.0449220193278483,-3.0449220193278475,-3.4844811848589177,-3.4619048529012764,-3.466403390184687
154,-0.43582131336559776,3.042849906793262,-0.41388675992497126,3.0680154532984414,-3.0680154532984414,-3.503836766664039,-3.4819022132234125,-3.47867122015886
