frequency,raw,smoothed,error,error_smoothed,equalization,parametric_eq,fixed_band_eq,equalized_raw,equalized_smoothed,target
20.00,-0.53,-0.53,-2.36,-2.36,2.37,0.46,0.45,1.84,1.84,1.83
20.20,-0.47,-0.47,-2.33,-2.33,2.33,0.45,0.47,1.86,1.86,1.86
20.40,-0.41,-0.41,-2.30,-2.29,2.29,0.45,0.48,1.88,1.89,1.89
20.61,-0.35,-0.35,-2.26,-2.26,2.26,0.45,0.50,1.91,1.91,1.91
20.81,-0.29,-0.29,-2.23,-2.23,2.22,0.45,0.51,1.93,1.93,1.94
21.02,-0.23,-0.24,-2.20,-2.20,2.19,0.44,0.53,1.96,1.95,1.97
21.23,-0.19,-0.19,-2.17,-2.16,2.16,0.44,0.55,1.97,1.97,1.98
21.44,-0.14,-0.14,-2.13,-2.13,2.13,0.44,0.57,1.99,1.99,1.99
21.66,-0.10,-0.10,-2.10,-2.09,2.10,0.43,0.58,2.00,2.00,2.00
21.87,-0.06,-0.06,-2.05,-2.06,2.07,0.43,0.60,2.01,2.01,1.99
22.09,-0.03,-0.03,-2.03,-2.04,2.04,0.43,0.62,2.01,2.01,2.00
22.31,-0.01,-0.01,-2.01,-2.02,2.02,0.42,0.64,2.01,2.01,2.00
22.54,-0.00,0.00,-2.00,-2.00,2.00,0.42,0.66,2.00,2.00,2.00
22.76,0.02,0.02,-1.98,-1.98,1.97,0.42,0.68,1.99,1.99,2.00
22.99,0.04,0.04,-1.95,-1.95,1.95,0.41,0.70,1.99,1.99,1.99
23.22,0.07,0.07,-1.92,-1.92,1.93,0.41,0.73,1.99,1.99,1.99
23.45,0.10,0.10,-1.89,-1.89,1.89,0.41,0.75,1.99,1.99,1.99
23.69,0.13,0.13,-1.86,-1.86,1.85,0.40,0.77,1.98,1.98,1.99
23.92,0.16,0.17,-1.83,-1.83,1.81,0.40,0.79,1.97,1.97,1.99
24.16,0.21,0.21,-1.79,-1.78,1.76,0.39,0.82,1.97,1.97,2.00
24.40,0.27,0.27,-1.73,-1.72,1.72,0.39,0.84,1.99,1.99,2.00
24.65,0.33,0.33,-1.66,-1.66,1.68,0.39,0.86,2.00,2.01,1.99
24.89,0.39,0.38,-1.59,-1.60,1.64,0.38,0.89,2.03,2.02,1.98
25.14,0.42,0.42,-1.56,-1.57,1.59,0.38,0.91,2.01,2.01,1.98
25.39,0.43,0.43,-1.55,-1.55,1.55,0.37,0.93,1.98,1.99,1.98
25.65,0.45,0.44,-1.53,-1.53,1.51,0.37,0.96,1.96,1.96,1.98
25.91,0.46,0.47,-1.51,-1.51,1.48,0.36,0.98,1.93,1.94,1.97
26.16,0.50,0.51,-1.47,-1.47,1.44,0.36,1.01,1.94,1.95,1.97
26.43,0.56,0.56,-1.41,-1.41,1.41,0.35,1.03,1.97,1.97,1.97
26.69,0.61,0.61,-1.36,-1.36,1.38,0.35,1.05,1.99,1.99,1.97
26.96,0.66,0.65,-1.31,-1.32,1.35,0.34,1.07,2.01,2.00,1.97
27.23,0.67,0.67,-1.30,-1.29,1.32,0.34,1.09,1.99,1.99,1.96
27.50,0.68,0.68,-1.28,-1.29,1.28,0.33,1.11,1.96,1.96,1.96
27.77,0.68,0.68,-1.27,-1.27,1.25,0.33,1.13,1.93,1.93,1.95
28.05,0.69,0.70,-1.26,-1.24,1.21,0.32,1.15,1.90,1.92,1.95
28.33,0.75,0.74,-1.19,-1.20,1.18,0.32,1.16,1.93,1.92,1.94
28.62,0.80,0.80,-1.14,-1.14,1.14,0.31,1.18,1.94,1.94,1.94
28.90,0.86,0.85,-1.08,-1.08,1.10,0.31,1.19,1.95,1.95,1.94
29.19,0.90,0.90,-1.02,-1.03,1.05,0.30,1.20,1.95,1.95,1.92
29.48,0.93,0.94,-1.00,-0.99,1.00,0.29,1.21,1.93,1.94,1.93
29.78,0.97,0.97,-0.95,-0.96,0.96,0.29,1.21,1.93,1.93,1.92
30.08,1.00,1.00,-0.92,-0.92,0.92,0.28,1.21,1.92,1.92,1.92
30.38,1.02,1.02,-0.89,-0.89,0.88,0.27,1.22,1.90,1.90,1.91
30.68,1.05,1.05,-0.86,-0.85,0.84,0.27,1.21,1.89,1.89,1.91
30.99,1.08,1.08,-0.81,-0.82,0.80,0.26,1.21,1.88,1.88,1.89
31.30,1.12,1.12,-0.77,-0.77,0.76,0.25,1.20,1.88,1.88,1.89
31.61,1.16,1.16,-0.73,-0.72,0.72,0.24,1.19,1.88,1.88,1.89
31.93,1.20,1.20,-0.68,-0.68,0.69,0.24,1.18,1.89,1.89,1.88
32.24,1.23,1.23,-0.63,-0.64,0.66,0.23,1.17,1.89,1.89,1.86
32.57,1.25,1.25,-0.61,-0.61,0.63,0.22,1.15,1.88,1.88,1.86
32.89,1.27,1.27,-0.59,-0.59,0.60,0.21,1.13,1.87,1.87,1.86
33.22,1.28,1.27,-0.57,-0.58,0.57,0.20,1.11,1.85,1.84,1.85
33.55,1.28,1.28,-0.56,-0.56,0.54,0.19,1.08,1.81,1.81,1.84
33.89,1.28,1.29,-0.55,-0.54,0.50,0.19,1.05,1.78,1.79,1.83
34.23,1.33,1.33,-0.50,-0.49,0.46,0.18,1.03,1.79,1.80,1.83
34.57,1.39,1.39,-0.42,-0.42,0.43,0.17,0.99,1.82,1.82,1.81
34.92,1.46,1.44,-0.34,-0.36,0.40,0.16,0.96,1.85,1.84,1.80
35.27,1.48,1.47,-0.32,-0.32,0.36,0.15,0.93,1.84,1.84,1.80
35.62,1.48,1.48,-0.30,-0.30,0.33,0.14,0.89,1.81,1.82,1.78
35.97,1.48,1.48,-0.29,-0.29,0.30,0.13,0.85,1.77,1.78,1.77
36.33,1.48,1.47,-0.29,-0.29,0.26,0.12,0.82,1.74,1.73,1.77
36.70,1.48,1.48,-0.27,-0.27,0.22,0.10,0.78,1.70,1.70,1.75
37.06,1.49,1.51,-0.25,-0.23,0.19,0.09,0.74,1.68,1.70,1.74
37.43,1.57,1.57,-0.16,-0.16,0.16,0.08,0.70,1.73,1.73,1.73
37.81,1.64,1.63,-0.08,-0.09,0.13,0.07,0.65,1.76,1.75,1.72
38.19,1.68,1.67,-0.03,-0.04,0.09,0.06,0.61,1.77,1.76,1.71
38.57,1.68,1.68,-0.02,-0.01,0.05,0.04,0.57,1.73,1.73,1.70
38.95,1.68,1.68,-0.01,-0.00,0.01,0.03,0.52,1.69,1.69,1.69
39.34,1.68,1.67,0.01,0.00,-0.04,0.02,0.48,1.64,1.64,1.67
39.74,1.68,1.69,0.02,0.03,-0.08,0.00,0.44,1.60,1.61,1.66
40.14,1.71,1.73,0.06,0.08,-0.11,-0.01,0.39,1.60,1.61,1.65
40.54,1.79,1.79,0.15,0.15,-0.15,-0.03,0.35,1.64,1.64,1.63
40.94,1.87,1.84,0.24,0.22,-0.19,-0.04,0.30,1.68,1.66,1.63
41.35,1.88,1.88,0.27,0.26,-0.22,-0.06,0.26,1.66,1.66,1.61
41.76,1.88,1.89,0.27,0.28,-0.25,-0.07,0.21,1.62,1.63,1.61
42.18,1.88,1.88,0.28,0.28,-0.28,-0.09,0.17,1.60,1.60,1.60
42.60,1.88,1.88,0.30,0.29,-0.30,-0.11,0.12,1.58,1.58,1.58
43.03,1.88,1.88,0.30,0.31,-0.31,-0.12,0.08,1.57,1.57,1.58
43.46,1.88,1.88,0.32,0.32,-0.33,-0.14,0.03,1.55,1.55,1.56
43.90,1.88,1.87,0.35,0.34,-0.35,-0.16,-0.01,1.52,1.52,1.53
44.33,1.88,1.87,0.37,0.36,-0.39,-0.18,-0.05,1.49,1.48,1.51
44.78,1.88,1.89,0.38,0.40,-0.43,-0.20,-0.10,1.44,1.46,1.50
45.23,1.93,1.95,0.45,0.47,-0.48,-0.22,-0.14,1.45,1.46,1.48
45.68,2.02,2.01,0.56,0.55,-0.53,-0.24,-0.19,1.49,1.48,1.46
46.13,2.08,2.06,0.64,0.62,-0.58,-0.26,-0.23,1.50,1.48,1.44
46.60,2.08,2.09,0.65,0.66,-0.62,-0.28,-0.28,1.46,1.47,1.43
47.06,2.08,2.09,0.67,0.67,-0.66,-0.31,-0.32,1.42,1.42,1.41
47.53,2.08,2.08,0.69,0.68,-0.69,-0.33,-0.37,1.39,1.39,1.39
48.01,2.08,2.08,0.70,0.70,-0.72,-0.35,-0.41,1.36,1.36,1.38
48.49,2.08,2.08,0.73,0.73,-0.74,-0.38,-0.46,1.34,1.34,1.35
48.97,2.08,2.08,0.76,0.76,-0.76,-0.41,-0.50,1.32,1.32,1.32
49.46,2.08,2.08,0.79,0.79,-0.79,-0.43,-0.54,1.29,1.29,1.29
49.96,2.08,2.07,0.82,0.81,-0.82,-0.46,-0.59,1.26,1.25,1.26
50.46,2.08,2.08,0.84,0.84,-0.86,-0.49,-0.63,1.22,1.22,1.24
50.96,2.08,2.10,0.86,0.88,-0.89,-0.52,-0.68,1.19,1.21,1.22
51.47,2.13,2.13,0.94,0.94,-0.93,-0.55,-0.72,1.20,1.20,1.19
51.99,2.18,2.16,1.01,0.99,-0.97,-0.58,-0.76,1.21,1.19,1.16
52.51,2.18,2.18,1.03,1.03,-1.01,-0.61,-0.80,1.17,1.17,1.15
53.03,2.18,2.18,1.05,1.05,-1.06,-0.64,-0.85,1.12,1.12,1.13
53.56,2.18,2.18,1.08,1.08,-1.10,-0.68,-0.89,1.07,1.08,1.10
54.10,2.19,2.20,1.11,1.13,-1.15,-0.71,-0.93,1.04,1.05,1.08
54.64,2.24,2.24,1.19,1.19,-1.19,-0.75,-0.97,1.05,1.04,1.05
55.18,2.28,2.26,1.26,1.24,-1.23,-0.78,-1.01,1.05,1.03,1.02
55.74,2.28,2.28,1.28,1.28,-1.27,-0.82,-1.04,1.01,1.02,1.00
56.29,2.28,2.28,1.30,1.31,-1.30,-0.86,-1.08,0.98,0.99,0.98
56.86,2.28,2.28,1.33,1.33,-1.32,-0.90,-1.12,0.96,0.97,0.95
57.42,2.28,2.28,1.36,1.35,-1.33,-0.94,-1.15,0.95,0.95,0.92
58.00,2.27,2.25,1.37,1.35,-1.34,-0.98,-1.18,0.93,0.91,0.90
58.58,2.22,2.22,1.34,1.34,-1.35,-1.02,-1.22,0.87,0.88,0.88
59.16,2.18,2.19,1.32,1.33,-1.35,-1.06,-1.25,0.83,0.84,0.86
59.76,2.18,2.18,1.34,1.34,-1.37,-1.11,-1.28,0.81,0.81,0.84
60.35,2.18,2.18,1.37,1.36,-1.39,-1.15,-1.30,0.79,0.79,0.81
60.96,2.18,2.18,1.39,1.40,-1.41,-1.20,-1.33,0.77,0.77,0.79
61.57,2.18,2.18,1.44,1.43,-1.43,-1.24,-1.35,0.75,0.75,0.74
62.18,2.18,2.18,1.47,1.47,-1.46,-1.29,-1.37,0.72,0.73,0.71
62.80,2.18,2.18,1.49,1.50,-1.48,-1.34,-1.39,0.70,0.70,0.69
63.43,2.18,2.17,1.53,1.52,-1.51,-1.38,-1.41,0.67,0.67,0.65
64.07,2.16,2.15,1.53,1.52,-1.53,-1.43,-1.43,0.63,0.62,0.62
64.71,2.11,2.12,1.51,1.52,-1.54,-1.48,-1.45,0.57,0.58,0.60
65.35,2.08,2.09,1.51,1.52,-1.54,-1.53,-1.46,0.54,0.56,0.57
66.01,2.08,2.07,1.54,1.53,-1.53,-1.57,-1.47,0.55,0.54,0.54
66.67,2.05,2.05,1.54,1.53,-1.50,-1.62,-1.48,0.55,0.54,0.51
67.33,2.00,2.00,1.52,1.52,-1.47,-1.66,-1.49,0.53,0.53,0.48
68.01,1.94,1.93,1.49,1.47,-1.44,-1.71,-1.50,0.50,0.49,0.45
68.69,1.84,1.84,1.42,1.42,-1.42,-1.75,-1.51,0.42,0.42,0.42
69.37,1.75,1.76,1.36,1.36,-1.40,-1.79,-1.52,0.35,0.36,0.39
70.07,1.68,1.70,1.32,1.34,-1.39,-1.83,-1.52,0.29,0.30,0.36
70.77,1.68,1.67,1.35,1.34,-1.39,-1.87,-1.53,0.28,0.28,0.33
71.48,1.68,1.68,1.38,1.38,-1.40,-1.90,-1.54,0.27,0.27,0.30
72.19,1.69,1.71,1.43,1.44,-1.43,-1.94,-1.54,0.26,0.28,0.26
72.91,1.74,1.74,1.51,1.51,-1.46,-1.97,-1.55,0.28,0.28,0.23
73.64,1.77,1.75,1.58,1.56,-1.50,-2.00,-1.55,0.27,0.25,0.19
74.38,1.75,1.74,1.59,1.58,-1.56,-2.02,-1.56,0.19,0.18,0.16
75.12,1.70,1.71,1.57,1.58,-1.61,-2.04,-1.56,0.09,0.10,0.12
75.87,1.68,1.70,1.58,1.61,-1.66,-2.06,-1.57,0.02,0.05,0.10
76.63,1.74,1.75,1.67,1.68,-1.71,-2.07,-1.57,0.03,0.04,0.07
77.40,1.82,1.81,1.79,1.78,-1.76,-2.09,-1.58,0.06,0.05,0.03
78.17,1.88,1.86,1.89,1.86,-1.83,-2.09,-1.59,0.05,0.03,-0.01
78.95,1.88,1.88,1.91,1.91,-1.90,-2.10,-1.59,-0.02,-0.02,-0.03
79.74,1.88,1.88,1.94,1.95,-1.98,-2.10,-1.60,-0.10,-0.10,-0.06
80.54,1.89,1.92,1.99,2.01,-2.06,-2.09,-1.61,-0.17,-0.14,-0.10
81.35,1.96,1.98,2.09,2.11,-2.12,-2.08,-1.62,-0.16,-0.14,-0.13
82.16,2.08,2.04,2.25,2.20,-2.17,-2.07,-1.64,-0.09,-0.13,-0.17
82.98,2.08,2.06,2.27,2.26,-2.20,-2.06,-1.65,-0.12,-0.15,-0.19
83.81,2.00,2.03,2.24,2.27,-2.23,-2.03,-1.66,-0.23,-0.19,-0.24
84.65,1.97,1.97,2.25,2.24,-2.24,-2.01,-1.68,-0.27,-0.27,-0.28
85.50,1.92,1.90,2.23,2.22,-2.24,-1.98,-1.70,-0.32,-0.34,-0.31
86.35,1.84,1.84,2.19,2.19,-2.23,-1.94,-1.71,-0.39,-0.38,-0.35
87.22,1.77,1.78,2.16,2.17,-2.20,-1.90,-1.73,-0.43,-0.42,-0.39
88.09,1.72,1.72,2.15,2.15,-2.17,-1.85,-1.75,-0.45,-0.45,-0.43
88.97,1.67,1.66,2.13,2.12,-2.12,-1.80,-1.77,-0.45,-0.46,-0.46
89.86,1.58,1.57,2.08,2.08,-2.07,-1.73,-1.80,-0.49,-0.49,-0.50
90.76,1.46,1.46,2.01,2.00,-1.99,-1.66,-1.82,-0.53,-0.53,-0.55
91.66,1.30,1.31,1.88,1.90,-1.88,-1.58,-1.85,-0.58,-0.56,-0.58
92.58,1.14,1.15,1.78,1.78,-1.74,-1.47,-1.87,-0.60,-0.59,-0.64
93.51,0.96,0.93,1.63,1.60,-1.56,-1.37,-1.90,-0.60,-0.63,-0.67
94.44,0.69,0.68,1.40,1.40,-1.37,-1.23,-1.93,-0.68,-0.68,-0.72
95.39,0.37,0.40,1.13,1.16,-1.15,-1.09,-1.96,-0.77,-0.75,-0.76
96.34,0.10,0.08,0.91,0.89,-0.91,-0.92,-2.00,-0.81,-0.83,-0.81
97.30,-0.21,-0.22,0.65,0.64,-0.67,-0.75,-2.03,-0.88,-0.88,-0.86
98.28,-0.52,-0.48,0.39,0.43,-0.42,-0.55,-2.06,-0.94,-0.90,-0.90
99.26,-0.72,-0.74,0.23,0.21,-0.19,-0.35,-2.10,-0.91,-0.93,-0.95
100.25,-0.95,-0.98,0.05,0.01,0.01,-0.16,-2.13,-0.94,-0.97,-1.00
101.25,-1.22,-1.20,-0.18,-0.16,0.17,0.03,-2.17,-1.05,-1.03,-1.04
102.27,-1.41,-1.40,-0.32,-0.31,0.27,0.15,-2.21,-1.14,-1.13,-1.09
103.29,-1.51,-1.52,-0.37,-0.39,0.31,0.25,-2.25,-1.20,-1.22,-1.14
104.32,-1.57,-1.56,-0.39,-0.37,0.28,0.23,-2.29,-1.29,-1.27,-1.18
105.37,-1.52,-1.51,-0.29,-0.28,0.20,0.18,-2.33,-1.32,-1.31,-1.23
106.42,-1.38,-1.38,-0.11,-0.10,0.06,0.02,-2.37,-1.32,-1.31,-1.27
107.48,-1.19,-1.18,0.13,0.14,-0.12,-0.17,-2.41,-1.31,-1.30,-1.32
108.56,-0.95,-0.98,0.43,0.39,-0.34,-0.41,-2.45,-1.29,-1.31,-1.38
109.64,-0.77,-0.78,0.65,0.64,-0.57,-0.65,-2.49,-1.34,-1.36,-1.42
110.74,-0.63,-0.60,0.84,0.87,-0.82,-0.90,-2.52,-1.45,-1.42,-1.47
111.85,-0.43,-0.44,1.08,1.08,-1.07,-1.15,-2.56,-1.50,-1.50,-1.51
112.97,-0.26,-0.27,1.32,1.30,-1.31,-1.37,-2.60,-1.57,-1.58,-1.58
114.10,-0.11,-0.11,1.51,1.52,-1.53,-1.58,-2.64,-1.65,-1.64,-1.62
115.24,0.05,0.05,1.73,1.73,-1.76,-1.77,-2.67,-1.71,-1.70,-1.68
116.39,0.22,0.23,1.95,1.96,-1.97,-1.95,-2.71,-1.75,-1.75,-1.73
117.55,0.40,0.40,2.19,2.18,-2.18,-2.10,-2.74,-1.78,-1.79,-1.79
118.73,0.57,0.56,2.41,2.40,-2.39,-2.25,-2.78,-1.82,-1.83,-1.84
119.92,0.70,0.70,2.58,2.59,-2.58,-2.38,-2.81,-1.88,-1.88,-1.89
121.12,0.84,0.83,2.78,2.77,-2.76,-2.51,-2.84,-1.92,-1.93,-1.94
122.33,0.94,0.95,2.93,2.94,-2.93,-2.62,-2.86,-1.99,-1.97,-1.99
123.55,1.06,1.05,3.09,3.08,-3.07,-2.73,-2.89,-2.01,-2.03,-2.03
124.79,1.14,1.12,3.22,3.20,-3.20,-2.83,-2.91,-2.06,-2.08,-2.08
126.03,1.15,1.18,3.28,3.31,-3.31,-2.93,-2.94,-2.16,-2.13,-2.13
127.29,1.22,1.22,3.40,3.41,-3.41,-3.03,-2.96,-2.19,-2.19,-2.18
128.57,1.27,1.25,3.51,3.49,-3.49,-3.12,-2.98,-2.22,-2.24,-2.24
129.85,1.27,1.28,3.56,3.57,-3.56,-3.20,-2.99,-2.29,-2.28,-2.29
131.15,1.28,1.28,3.62,3.62,-3.62,-3.29,-3.01,-2.34,-2.34,-2.34
132.46,1.28,1.28,3.67,3.67,-3.67,-3.37,-3.02,-2.39,-2.39,-2.39
133.79,1.29,1.29,3.71,3.72,-3.72,-3.45,-3.04,-2.43,-2.43,-2.42
135.12,1.29,1.29,3.77,3.76,-3.77,-3.53,-3.05,-2.48,-2.47,-2.48
136.48,1.30,1.30,3.81,3.81,-3.82,-3.60,-3.06,-2.52,-2.52,-2.51
137.84,1.30,1.29,3.86,3.86,-3.87,-3.68,-3.07,-2.57,-2.58,-2.56
139.22,1.30,1.31,3.91,3.91,-3.93,-3.75,-3.08,-2.63,-2.62,-2.61
140.61,1.31,1.33,3.96,3.98,-4.00,-3.83,-3.09,-2.69,-2.67,-2.66
142.02,1.39,1.37,4.07,4.05,-4.06,-3.90,-3.10,-2.67,-2.70,-2.68
143.44,1.40,1.41,4.12,4.13,-4.13,-3.97,-3.11,-2.73,-2.72,-2.72
144.87,1.46,1.46,4.22,4.21,-4.20,-4.04,-3.12,-2.74,-2.74,-2.76
146.32,1.49,1.48,4.29,4.28,-4.27,-4.11,-3.13,-2.78,-2.79,-2.80
147.78,1.50,1.50,4.33,4.33,-4.33,-4.19,-3.14,-2.83,-2.83,-2.83
149.26,1.50,1.50,4.36,4.37,-4.39,-4.25,-3.16,-2.89,-2.88,-2.87
150.75,1.50,1.51,4.41,4.41,-4.42,-4.32,-3.17,-2.92,-2.92,-2.91
152.26,1.50,1.50,4.45,4.45,-4.44,-4.39,-3.19,-2.94,-2.94,-2.95
153.78,1.49,1.48,4.47,4.47,-4.43,-4.46,-3.20,-2.94,-2.95,-2.98
155.32,1.43,1.44,4.46,4.46,-4.40,-4.52,-3.22,-2.97,-2.97,-3.03
156.88,1.36,1.35,4.42,4.42,-4.36,-4.59,-3.24,-3.00,-3.00,-3.06
158.44,1.26,1.24,4.36,4.34,-4.31,-4.65,-3.27,-3.05,-3.07,-3.11
160.03,1.10,1.11,4.25,4.26,-4.26,-4.71,-3.29,-3.16,-3.15,-3.15
161.63,0.99,0.99,4.18,4.18,-4.24,-4.77,-3.32,-3.25,-3.25,-3.19
163.24,0.92,0.91,4.15,4.14,-4.24,-4.83,-3.34,-3.32,-3.33,-3.23
164.88,0.89,0.90,4.15,4.16,-4.27,-4.89,-3.38,-3.38,-3.37,-3.26
166.53,0.94,0.97,4.24,4.27,-4.33,-4.94,-3.41,-3.39,-3.36,-3.30
168.19,1.07,1.07,4.41,4.41,-4.41,-5.00,-3.45,-3.34,-3.34,-3.34
169.87,1.23,1.19,4.60,4.56,-4.51,-5.05,-3.49,-3.28,-3.32,-3.38
171.57,1.26,1.28,4.67,4.69,-4.62,-5.10,-3.53,-3.36,-3.34,-3.41
173.29,1.33,1.33,4.78,4.78,-4.72,-5.15,-3.57,-3.39,-3.39,-3.45
175.02,1.36,1.35,4.84,4.84,-4.82,-5.19,-3.62,-3.46,-3.47,-3.48
176.77,1.36,1.36,4.89,4.89,-4.89,-5.23,-3.67,-3.53,-3.53,-3.53
178.54,1.36,1.36,4.93,4.93,-4.94,-5.27,-3.73,-3.59,-3.58,-3.57
180.32,1.36,1.37,4.97,4.97,-4.98,-5.31,-3.78,-3.62,-3.61,-3.61
182.13,1.37,1.37,5.01,5.01,-5.01,-5.35,-3.84,-3.64,-3.64,-3.64
183.95,1.38,1.36,5.06,5.03,-5.03,-5.38,-3.90,-3.65,-3.68,-3.68
185.79,1.33,1.34,5.04,5.05,-5.05,-5.41,-3.97,-3.72,-3.71,-3.71
187.65,1.30,1.32,5.05,5.07,-5.07,-5.43,-4.04,-3.77,-3.75,-3.75
189.52,1.32,1.31,5.10,5.09,-5.09,-5.45,-4.11,-3.77,-3.78,-3.78
191.42,1.31,1.29,5.12,5.11,-5.11,-5.47,-4.18,-3.80,-3.81,-3.81
193.33,1.27,1.28,5.11,5.12,-5.12,-5.49,-4.25,-3.86,-3.84,-3.84
195.27,1.26,1.27,5.13,5.14,-5.15,-5.50,-4.33,-3.89,-3.88,-3.87
197.22,1.27,1.27,5.17,5.17,-5.18,-5.51,-4.41,-3.91,-3.91,-3.90
199.19,1.29,1.28,5.22,5.20,-5.22,-5.52,-4.49,-3.93,-3.94,-3.93
201.18,1.29,1.29,5.24,5.24,-5.25,-5.52,-4.57,-3.96,-3.96,-3.95
203.19,1.30,1.32,5.27,5.29,-5.29,-5.52,-4.65,-3.99,-3.97,-3.97
205.23,1.36,1.35,5.35,5.34,-5.33,-5.51,-4.74,-3.97,-3.98,-3.99
207.28,1.40,1.39,5.40,5.39,-5.36,-5.51,-4.82,-3.97,-3.98,-4.00
209.35,1.40,1.40,5.42,5.43,-5.40,-5.50,-4.90,-4.00,-4.00,-4.02
211.44,1.40,1.39,5.45,5.43,-5.44,-5.48,-4.99,-4.04,-4.04,-4.05
213.56,1.39,1.39,5.44,5.44,-5.47,-5.46,-5.07,-4.08,-4.07,-4.05
215.69,1.39,1.41,5.44,5.47,-5.49,-5.44,-5.15,-4.11,-4.08,-4.05
217.85,1.45,1.44,5.52,5.50,-5.52,-5.42,-5.23,-4.07,-4.08,-4.07
220.03,1.47,1.46,5.55,5.54,-5.53,-5.39,-5.31,-4.06,-4.07,-4.08
222.23,1.48,1.48,5.57,5.56,-5.54,-5.36,-5.39,-4.06,-4.06,-4.09
224.45,1.48,1.49,5.56,5.57,-5.54,-5.33,-5.46,-4.06,-4.06,-4.08
226.70,1.48,1.48,5.56,5.56,-5.55,-5.30,-5.53,-4.07,-4.07,-4.08
228.96,1.48,1.46,5.56,5.54,-5.54,-5.26,-5.59,-4.06,-4.08,-4.08
231.25,1.41,1.44,5.48,5.51,-5.53,-5.22,-5.64,-4.12,-4.10,-4.07
233.57,1.43,1.42,5.50,5.49,-5.52,-5.18,-5.70,-4.09,-4.10,-4.07
235.90,1.41,1.42,5.48,5.49,-5.50,-5.13,-5.74,-4.09,-4.08,-4.07
238.26,1.43,1.43,5.50,5.50,-5.48,-5.09,-5.78,-4.05,-4.05,-4.07
240.64,1.45,1.42,5.51,5.49,-5.47,-5.04,-5.80,-4.02,-4.05,-4.06
243.05,1.41,1.41,5.46,5.46,-5.46,-4.99,-5.83,-4.05,-4.05,-4.05
245.48,1.38,1.40,5.42,5.44,-5.46,-4.94,-5.84,-4.08,-4.06,-4.04
247.93,1.40,1.40,5.43,5.43,-5.46,-4.88,-5.84,-4.06,-4.06,-4.03
250.41,1.42,1.42,5.44,5.43,-5.46,-4.83,-5.84,-4.04,-4.04,-4.02
252.92,1.44,1.43,5.44,5.44,-5.45,-4.77,-5.83,-4.01,-4.01,-4.00
255.45,1.45,1.46,5.43,5.44,-5.43,-4.72,-5.80,-3.98,-3.97,-3.98
258.00,1.46,1.48,5.43,5.44,-5.41,-4.66,-5.77,-3.95,-3.93,-3.97
260.58,1.49,1.45,5.44,5.40,-5.37,-4.60,-5.73,-3.88,-3.92,-3.95
263.19,1.42,1.40,5.35,5.33,-5.32,-4.55,-5.69,-3.90,-3.92,-3.93
265.82,1.27,1.32,5.19,5.24,-5.24,-4.49,-5.63,-3.97,-3.92,-3.92
268.48,1.25,1.25,5.14,5.15,-5.15,-4.43,-5.57,-3.90,-3.90,-3.89
271.16,1.20,1.18,5.07,5.05,-5.05,-4.37,-5.50,-3.85,-3.86,-3.87
273.87,1.12,1.08,4.97,4.93,-4.93,-4.31,-5.43,-3.81,-3.85,-3.85
276.61,0.94,0.96,4.77,4.79,-4.80,-4.25,-5.34,-3.86,-3.85,-3.83
279.38,0.79,0.84,4.60,4.65,-4.67,-4.19,-5.26,-3.88,-3.83,-3.82
282.17,0.75,0.73,4.55,4.53,-4.53,-4.13,-5.17,-3.78,-3.79,-3.80
284.99,0.66,0.64,4.43,4.42,-4.38,-4.07,-5.08,-3.72,-3.74,-3.78
287.84,0.53,0.51,4.29,4.27,-4.24,-4.01,-4.98,-3.71,-3.73,-3.76
290.72,0.35,0.36,4.08,4.10,-4.11,-3.95,-4.88,-3.76,-3.75,-3.73
293.63,0.21,0.22,3.93,3.94,-3.99,-3.89,-4.78,-3.78,-3.76,-3.72
296.57,0.12,0.12,3.81,3.81,-3.87,-3.83,-4.68,-3.75,-3.76,-3.69
299.53,0.05,0.05,3.73,3.73,-3.76,-3.77,-4.58,-3.71,-3.71,-3.68
302.53,-0.00,0.01,3.66,3.66,-3.65,-3.71,-4.48,-3.65,-3.65,-3.66
305.55,-0.04,-0.04,3.58,3.59,-3.55,-3.66,-4.37,-3.59,-3.59,-3.62
308.61,-0.09,-0.12,3.52,3.49,-3.45,-3.60,-4.27,-3.54,-3.56,-3.61
311.69,-0.21,-0.21,3.37,3.37,-3.34,-3.54,-4.17,-3.55,-3.55,-3.58
314.81,-0.34,-0.31,3.20,3.24,-3.23,-3.49,-4.07,-3.57,-3.54,-3.55
317.96,-0.42,-0.42,3.11,3.11,-3.11,-3.43,-3.97,-3.53,-3.53,-3.53
321.14,-0.50,-0.52,3.01,2.99,-2.99,-3.38,-3.87,-3.49,-3.51,-3.51
324.35,-0.63,-0.63,2.86,2.87,-2.88,-3.32,-3.77,-3.51,-3.50,-3.49
327.59,-0.74,-0.73,2.73,2.74,-2.77,-3.27,-3.67,-3.51,-3.50,-3.47
330.87,-0.81,-0.81,2.64,2.64,-2.68,-3.22,-3.58,-3.49,-3.49,-3.45
334.18,-0.87,-0.86,2.56,2.58,-2.60,-3.17,-3.49,-3.47,-3.45,-3.43
337.52,-0.87,-0.89,2.55,2.52,-2.52,-3.12,-3.40,-3.39,-3.41,-3.42
340.90,-0.93,-0.93,2.46,2.47,-2.44,-3.07,-3.31,-3.38,-3.37,-3.39
344.30,-0.97,-0.97,2.40,2.41,-2.37,-3.02,-3.23,-3.34,-3.34,-3.37
347.75,-1.02,-1.02,2.33,2.33,-2.30,-2.97,-3.14,-3.32,-3.32,-3.35
351.23,-1.08,-1.09,2.26,2.25,-2.22,-2.93,-3.06,-3.30,-3.31,-3.34
354.74,-1.16,-1.16,2.16,2.16,-2.15,-2.88,-2.98,-3.31,-3.31,-3.32
358.28,-1.24,-1.23,2.06,2.07,-2.08,-2.84,-2.91,-3.32,-3.32,-3.30
361.87,-1.29,-1.30,1.99,1.99,-2.02,-2.79,-2.83,-3.32,-3.32,-3.28
365.49,-1.33,-1.32,1.94,1.95,-1.98,-2.75,-2.76,-3.31,-3.30,-3.27
369.14,-1.34,-1.33,1.93,1.94,-1.95,-2.71,-2.69,-3.29,-3.28,-3.27
372.83,-1.30,-1.33,1.95,1.92,-1.93,-2.66,-2.62,-3.23,-3.26,-3.25
376.56,-1.31,-1.31,1.93,1.93,-1.93,-2.62,-2.56,-3.24,-3.24,-3.24
380.33,-1.31,-1.28,1.90,1.94,-1.94,-2.58,-2.49,-3.25,-3.21,-3.21
384.13,-1.22,-1.24,1.98,1.96,-1.95,-2.55,-2.43,-3.17,-3.19,-3.20
387.97,-1.20,-1.21,1.99,1.98,-1.96,-2.51,-2.37,-3.16,-3.17,-3.19
391.85,-1.20,-1.19,1.99,1.99,-1.96,-2.47,-2.32,-3.16,-3.16,-3.19
395.77,-1.20,-1.20,1.97,1.97,-1.96,-2.43,-2.26,-3.17,-3.16,-3.17
399.73,-1.20,-1.20,1.96,1.96,-1.96,-2.40,-2.21,-3.17,-3.17,-3.16
403.72,-1.20,-1.20,1.95,1.95,-1.96,-2.36,-2.16,-3.16,-3.16,-3.15
407.76,-1.20,-1.20,1.94,1.94,-1.96,-2.33,-2.11,-3.16,-3.16,-3.14
411.84,-1.20,-1.20,1.92,1.92,-1.94,-2.30,-2.06,-3.14,-3.14,-3.12
415.96,-1.21,-1.20,1.90,1.91,-1.92,-2.27,-2.02,-3.13,-3.12,-3.11
420.12,-1.20,-1.20,1.90,1.91,-1.88,-2.24,-1.97,-3.08,-3.08,-3.10
424.32,-1.20,-1.21,1.90,1.89,-1.84,-2.21,-1.93,-3.04,-3.04,-3.10
428.56,-1.23,-1.25,1.86,1.84,-1.79,-2.18,-1.89,-3.02,-3.04,-3.09
432.85,-1.31,-1.32,1.77,1.76,-1.75,-2.15,-1.85,-3.06,-3.07,-3.08
437.18,-1.42,-1.40,1.65,1.66,-1.70,-2.12,-1.81,-3.12,-3.11,-3.07
441.55,-1.47,-1.46,1.58,1.60,-1.66,-2.09,-1.78,-3.13,-3.11,-3.05
445.96,-1.47,-1.46,1.57,1.58,-1.62,-2.07,-1.74,-3.09,-3.08,-3.04
450.42,-1.42,-1.43,1.61,1.60,-1.59,-2.04,-1.71,-3.01,-3.02,-3.03
454.93,-1.40,-1.41,1.61,1.61,-1.58,-2.02,-1.68,-2.98,-2.99,-3.01
459.48,-1.39,-1.40,1.61,1.60,-1.58,-1.99,-1.65,-2.97,-2.98,-3.00
464.07,-1.41,-1.39,1.57,1.59,-1.60,-1.97,-1.62,-3.01,-2.99,-2.98
468.71,-1.38,-1.37,1.58,1.60,-1.63,-1.95,-1.60,-3.01,-3.00,-2.97
473.40,-1.32,-1.33,1.64,1.63,-1.65,-1.93,-1.57,-2.97,-2.98,-2.96
478.13,-1.27,-1.27,1.67,1.67,-1.67,-1.90,-1.55,-2.94,-2.94,-2.94
482.91,-1.21,-1.22,1.72,1.71,-1.68,-1.88,-1.52,-2.89,-2.90,-2.93
487.74,-1.18,-1.17,1.73,1.74,-1.69,-1.86,-1.50,-2.87,-2.86,-2.91
492.62,-1.15,-1.15,1.74,1.74,-1.69,-1.85,-1.48,-2.84,-2.84,-2.89
