frequency,raw,error,smoothed,error_smoothed,equalization,parametric_eq,equalized_raw,equalized_smoothed,target
20,-2.47,-5.37,-2.06,-4.77,4.77,0.48,2.30,2.72,2.90
21,-1.58,-4.48,-1.41,-4.16,4.16,0.56,2.57,2.75,2.90
22,-0.78,-3.68,-0.80,-3.58,3.58,0.65,2.80,2.78,2.90
23,-0.08,-2.98,-0.24,-3.05,3.05,0.75,2.97,2.81,2.89
24,0.54,-2.36,0.26,-2.57,2.57,0.86,3.10,2.83,2.89
25,1.04,-1.85,0.72,-2.13,2.13,0.97,3.16,2.85,2.89
26,1.38,-1.51,1.14,-1.73,1.73,1.08,3.10,2.87,2.89
27,1.65,-1.24,1.50,-1.38,1.38,1.18,3.02,2.88,2.88
28,1.90,-0.98,1.82,-1.07,1.07,1.28,2.96,2.89,2.88
29,2.15,-0.73,2.09,-0.80,0.80,1.35,2.95,2.89,2.87
30,2.26,-0.61,2.31,-0.58,0.58,1.41,2.84,2.89,2.87
31,2.34,-0.53,2.41,-0.45,0.45,1.44,2.79,2.86,2.86
32,2.48,-0.38,2.47,-0.36,0.36,1.45,2.84,2.84,2.86
33,2.55,-0.31,2.51,-0.32,0.32,1.44,2.87,2.83,2.85
34,2.55,-0.30,2.51,-0.30,0.30,1.41,2.85,2.82,2.84
35,2.43,-0.41,2.51,-0.31,0.31,1.37,2.73,2.82,2.84
36,2.45,-0.38,2.48,-0.32,0.32,1.32,2.77,2.81,2.83
37,2.45,-0.37,2.45,-0.35,0.35,1.27,2.80,2.80,2.82
38,2.46,-0.35,2.39,-0.39,0.39,1.21,2.85,2.79,2.81
39,2.21,-0.59,2.34,-0.44,0.44,1.16,2.65,2.78,2.80
40,2.25,-0.54,2.28,-0.50,0.50,1.11,2.74,2.78,2.79
41,2.25,-0.53,2.22,-0.55,0.55,1.07,2.79,2.76,2.78
42,2.15,-0.62,2.15,-0.60,0.60,1.02,2.75,2.75,2.77
43,2.05,-0.71,2.08,-0.66,0.66,0.99,2.70,2.74,2.75
44,2.05,-0.69,2.02,-0.71,0.71,0.96,2.76,2.73,2.74
45,1.90,-0.83,1.96,-0.76,0.76,0.93,2.66,2.72,2.72
46,1.93,-0.78,1.89,-0.81,0.81,0.91,2.74,2.71,2.71
47,1.85,-0.85,1.83,-0.86,0.86,0.89,2.70,2.69,2.69
48,1.84,-0.84,1.77,-0.90,0.90,0.87,2.73,2.67,2.68
49,1.69,-0.97,1.72,-0.94,0.94,0.86,2.62,2.66,2.66
50,1.64,-1.00,1.66,-0.97,0.97,0.85,2.61,2.63,2.64
51,1.64,-0.98,1.61,-1.00,1.00,0.84,2.63,2.61,2.62
52,1.52,-1.08,1.57,-1.02,1.02,0.83,2.54,2.59,2.60
53,1.60,-0.98,1.53,-1.04,1.04,0.82,2.63,2.57,2.58
54,1.44,-1.12,1.50,-1.05,1.05,0.81,2.48,2.55,2.55
55,1.44,-1.10,1.48,-1.05,1.05,0.81,2.48,2.52,2.53
56,1.44,-1.07,1.45,-1.05,1.05,0.80,2.48,2.50,2.51
57,1.44,-1.05,1.44,-1.04,1.04,0.78,2.47,2.47,2.48
58,1.44,-1.02,1.42,-1.02,1.02,0.77,2.46,2.45,2.46
59,1.44,-0.99,1.42,-1.00,1.00,0.75,2.44,2.42,2.43
60,1.44,-0.96,1.41,-0.98,0.98,0.74,2.41,2.39,2.40
61,1.44,-0.94,1.41,-0.95,0.95,0.71,2.38,2.36,2.37
62,1.44,-0.91,1.42,-0.92,0.92,0.69,2.35,2.33,2.34
63,1.44,-0.87,1.43,-0.88,0.88,0.66,2.31,2.30,2.31
64,1.44,-0.84,1.44,-0.84,0.84,0.63,2.27,2.28,2.28
65,1.44,-0.81,1.45,-0.79,0.79,0.59,2.22,2.24,2.25
66,1.44,-0.78,1.47,-0.74,0.74,0.56,2.17,2.20,2.21
67,1.44,-0.74,1.49,-0.68,0.68,0.52,2.12,2.17,2.18
68,1.51,-0.64,1.51,-0.63,0.63,0.48,2.13,2.14,2.15
69,1.53,-0.58,1.54,-0.56,0.56,0.43,2.09,2.11,2.11
70,1.64,-0.44,1.57,-0.50,0.50,0.39,2.13,2.07,2.07
71,1.64,-0.40,1.60,-0.43,0.43,0.34,2.07,2.03,2.04
72,1.64,-0.36,1.64,-0.36,0.36,0.29,1.99,1.99,2.00
73,1.64,-0.33,1.67,-0.28,0.28,0.25,1.92,1.96,1.96
74,1.69,-0.24,1.71,-0.21,0.21,0.20,1.90,1.92,1.92
75,1.77,-0.12,1.76,-0.13,0.13,0.15,1.90,1.89,1.89
76,1.85,-0.00,1.79,-0.06,0.06,0.10,1.90,1.85,1.85
77,1.85,0.04,1.83,0.02,-0.02,0.05,1.83,1.81,1.81
78,1.85,0.08,1.86,0.10,-0.10,-0.00,1.75,1.76,1.77
79,1.85,0.12,1.89,0.17,-0.17,-0.05,1.67,1.72,1.73
80,1.94,0.25,1.92,0.25,-0.25,-0.11,1.69,1.67,1.69
81,1.95,0.30,1.96,0.33,-0.33,-0.16,1.62,1.64,1.64
82,2.05,0.44,2.00,0.40,-0.40,-0.21,1.64,1.60,1.60
83,2.05,0.48,2.04,0.48,-0.48,-0.26,1.57,1.56,1.56
84,2.05,0.53,2.07,0.55,-0.55,-0.31,1.49,1.52,1.52
85,2.05,0.57,2.10,0.63,-0.63,-0.36,1.42,1.47,1.48
86,2.12,0.68,2.13,0.70,-0.70,-0.41,1.42,1.43,1.44
87,2.15,0.75,2.17,0.77,-0.77,-0.46,1.38,1.40,1.40
88,2.25,0.89,2.18,0.83,-0.83,-0.51,1.41,1.35,1.35
89,2.25,0.93,2.19,0.90,-0.90,-0.56,1.35,1.30,1.31
90,2.25,0.97,2.21,0.96,-0.96,-0.62,1.29,1.25,1.27
91,2.25,1.02,2.23,1.02,-1.02,-0.67,1.23,1.21,1.23
92,2.25,1.06,2.24,1.07,-1.07,-0.72,1.17,1.17,1.19
93,2.26,1.11,2.26,1.13,-1.13,-0.77,1.12,1.13,1.15
94,2.26,1.15,2.28,1.19,-1.19,-0.82,1.06,1.09,1.11
95,2.25,1.18,2.30,1.25,-1.25,-0.87,1.00,1.05,1.07
96,2.23,1.20,2.31,1.31,-1.31,-0.92,0.92,1.00,1.03
97,2.20,1.21,2.33,1.36,-1.36,-0.97,0.83,0.96,0.99
98,2.37,1.42,2.34,1.42,-1.42,-1.02,0.95,0.93,0.95
99,2.47,1.56,2.36,1.46,-1.46,-1.07,1.00,0.89,0.91
100,2.42,1.55,2.36,1.51,-1.51,-1.12,0.91,0.86,0.87
101,2.39,1.55,2.36,1.54,-1.54,-1.17,0.84,0.82,0.83
102,2.37,1.57,2.34,1.57,-1.57,-1.21,0.80,0.77,0.79
104,2.35,1.63,2.32,1.59,-1.59,-1.31,0.75,0.73,0.72
105,2.33,1.64,2.29,1.61,-1.61,-1.35,0.72,0.69,0.68
106,2.34,1.69,2.26,1.61,-1.61,-1.40,0.72,0.65,0.65
107,2.28,1.67,2.22,1.61,-1.61,-1.44,0.66,0.61,0.61
108,2.16,1.58,2.17,1.61,-1.61,-1.48,0.54,0.56,0.58
109,2.06,1.52,2.12,1.61,-1.61,-1.52,0.44,0.50,0.54
110,1.97,1.46,2.07,1.61,-1.61,-1.56,0.36,0.46,0.51
111,1.99,1.51,2.05,1.61,-1.61,-1.60,0.38,0.44,0.47
112,1.99,1.54,2.03,1.61,-1.61,-1.63,0.37,0.42,0.44
113,1.98,1.57,2.00,1.62,-1.62,-1.67,0.36,0.38,0.41
114,1.97,1.58,1.98,1.63,-1.63,-1.70,0.34,0.35,0.38
115,1.97,1.61,1.95,1.64,-1.64,-1.73,0.33,0.31,0.35
117,1.97,1.67,1.94,1.65,-1.65,-1.79,0.31,0.28,0.30
118,1.97,1.69,1.94,1.67,-1.67,-1.81,0.30,0.27,0.27
119,1.98,1.72,1.94,1.68,-1.68,-1.83,0.29,0.26,0.25
120,2.02,1.78,1.92,1.69,-1.69,-1.85,0.32,0.23,0.23
121,1.95,1.73,1.91,1.70,-1.70,-1.87,0.25,0.21,0.21
123,1.78,1.61,1.88,1.70,-1.70,-1.90,0.08,0.18,0.17
124,1.81,1.65,1.85,1.70,-1.70,-1.91,0.11,0.15,0.15
125,1.82,1.68,1.83,1.70,-1.70,-1.92,0.12,0.13,0.14
126,1.82,1.69,1.80,1.69,-1.69,-1.93,0.13,0.11,0.12
128,1.87,1.78,1.77,1.68,-1.68,-1.94,0.19,0.09,0.08
129,1.76,1.69,1.74,1.67,-1.67,-1.94,0.09,0.07,0.07
130,1.61,1.55,1.70,1.66,-1.66,-1.94,-0.05,0.04,0.06
131,1.62,1.57,1.67,1.65,-1.65,-1.94,-0.03,0.02,0.04
133,1.65,1.64,1.64,1.64,-1.64,-1.93,0.00,-0.01,0.01
134,1.65,1.65,1.62,1.64,-1.64,-1.93,0.01,-0.02,-0.01
135,1.66,1.68,1.61,1.63,-1.63,-1.92,0.02,-0.03,-0.02
137,1.64,1.69,1.58,1.63,-1.63,-1.90,0.01,-0.05,-0.06
138,1.48,1.55,1.55,1.62,-1.62,-1.89,-0.15,-0.08,-0.07
140,1.46,1.56,1.51,1.62,-1.62,-1.87,-0.16,-0.10,-0.11
141,1.47,1.59,1.48,1.61,-1.61,-1.85,-0.15,-0.13,-0.12
142,1.47,1.60,1.46,1.61,-1.61,-1.84,-0.14,-0.14,-0.14
144,1.47,1.63,1.44,1.60,-1.60,-1.81,-0.14,-0.17,-0.17
145,1.47,1.65,1.40,1.60,-1.60,-1.80,-0.13,-0.19,-0.18
147,1.48,1.69,1.37,1.60,-1.60,-1.77,-0.12,-0.22,-0.21
148,1.35,1.57,1.34,1.59,-1.59,-1.76,-0.25,-0.25,-0.22
150,1.24,1.49,1.33,1.60,-1.60,-1.73,-0.36,-0.27,-0.25
151,1.26,1.52,1.32,1.60,-1.60,-1.71,-0.34,-0.28,-0.26
153,1.27,1.55,1.31,1.61,-1.61,-1.68,-0.34,-0.29,-0.29
154,1.27,1.56,1.30,1.61,-1.61,-1.67,-0.34,-0.31,-0.30
156,1.27,1.58,1.28,1.61,-1.61,-1.64,-0.35,-0.33,-0.32
157,1.27,1.59,1.26,1.61,-1.61,-1.63,-0.35,-0.35,-0.33
159,1.27,1.62,1.24,1.61,-1.61,-1.60,-0.35,-0.37,-0.35
160,1.27,1.63,1.22,1.61,-1.61,-1.59,-0.35,-0.39,-0.36
162,1.29,1.67,1.21,1.61,-1.61,-1.56,-0.32,-0.40,-0.38
164,1.29,1.69,1.19,1.61,-1.61,-1.54,-0.32,-0.41,-0.40
165,1.20,1.61,1.17,1.60,-1.60,-1.53,-0.40,-0.43,-0.41
167,1.16,1.59,1.14,1.59,-1.59,-1.51,-0.44,-0.45,-0.44
169,1.08,1.53,1.12,1.58,-1.58,-1.49,-0.51,-0.47,-0.46
170,1.00,1.46,1.09,1.57,-1.57,-1.48,-0.58,-0.48,-0.47
172,1.02,1.50,1.06,1.57,-1.57,-1.46,-0.55,-0.50,-0.49
174,1.03,1.53,1.04,1.56,-1.56,-1.45,-0.53,-0.52,-0.51
175,1.02,1.53,1.02,1.55,-1.55,-1.44,-0.54,-0.53,-0.51
177,1.02,1.54,1.01,1.55,-1.55,-1.43,-0.54,-0.54,-0.53
179,1.02,1.56,1.01,1.56,-1.56,-1.42,-0.54,-0.55,-0.54
181,1.02,1.56,1.01,1.56,-1.56,-1.41,-0.55,-0.56,-0.55
183,1.03,1.58,1.02,1.57,-1.57,-1.41,-0.55,-0.56,-0.55
184,1.04,1.58,1.04,1.59,-1.59,-1.40,-0.55,-0.55,-0.55
186,1.05,1.59,1.06,1.60,-1.60,-1.40,-0.55,-0.54,-0.54
188,1.07,1.60,1.08,1.61,-1.61,-1.39,-0.54,-0.53,-0.54
190,1.08,1.61,1.09,1.62,-1.62,-1.39,-0.55,-0.53,-0.53
192,1.10,1.62,1.10,1.63,-1.63,-1.39,-0.53,-0.53,-0.53
194,1.11,1.62,1.11,1.63,-1.63,-1.39,-0.53,-0.52,-0.52
196,1.13,1.64,1.12,1.63,-1.63,-1.39,-0.51,-0.51,-0.51
198,1.14,1.64,1.12,1.63,-1.63,-1.39,-0.50,-0.51,-0.51
200,1.18,1.68,1.11,1.63,-1.63,-1.39,-0.45,-0.51,-0.50
202,1.19,1.69,1.10,1.62,-1.62,-1.40,-0.43,-0.51,-0.50
204,1.06,1.56,1.09,1.60,-1.60,-1.40,-0.55,-0.51,-0.50
206,1.06,1.56,1.07,1.59,-1.59,-1.41,-0.53,-0.52,-0.51
208,1.06,1.57,1.05,1.58,-1.58,-1.41,-0.52,-0.52,-0.51
210,1.06,1.57,1.03,1.56,-1.56,-1.41,-0.51,-0.54,-0.52
212,1.03,1.55,1.00,1.55,-1.55,-1.42,-0.52,-0.55,-0.52
214,0.91,1.44,0.99,1.54,-1.54,-1.42,-0.63,-0.55,-0.53
216,0.92,1.46,0.97,1.53,-1.53,-1.43,-0.61,-0.56,-0.54
218,0.95,1.50,0.96,1.52,-1.52,-1.44,-0.58,-0.57,-0.55
221,0.94,1.50,0.95,1.52,-1.52,-1.44,-0.58,-0.57,-0.56
223,0.94,1.50,0.94,1.51,-1.51,-1.45,-0.58,-0.57,-0.57
225,0.94,1.50,0.94,1.51,-1.51,-1.45,-0.57,-0.57,-0.57
227,0.94,1.50,0.93,1.50,-1.50,-1.45,-0.56,-0.57,-0.57
229,0.94,1.50,0.92,1.49,-1.49,-1.46,-0.56,-0.57,-0.57
232,0.99,1.55,0.91,1.48,-1.48,-1.46,-0.50,-0.57,-0.56
234,0.98,1.53,0.90,1.47,-1.47,-1.46,-0.49,-0.57,-0.56
236,0.88,1.42,0.91,1.46,-1.46,-1.46,-0.58,-0.55,-0.55
239,0.89,1.42,0.90,1.44,-1.44,-1.46,-0.56,-0.54,-0.53
241,0.91,1.43,0.90,1.43,-1.43,-1.46,-0.52,-0.53,-0.52
244,0.84,1.34,0.90,1.41,-1.41,-1.46,-0.58,-0.52,-0.51
246,0.81,1.30,0.89,1.40,-1.40,-1.45,-0.59,-0.51,-0.49
248,0.85,1.32,0.88,1.38,-1.38,-1.45,-0.53,-0.50,-0.47
251,0.89,1.35,0.88,1.36,-1.36,-1.44,-0.48,-0.48,-0.46
253,0.90,1.34,0.88,1.35,-1.35,-1.44,-0.45,-0.47,-0.45
256,0.93,1.36,0.88,1.33,-1.33,-1.42,-0.41,-0.45,-0.44
259,0.96,1.39,0.88,1.32,-1.32,-1.41,-0.36,-0.44,-0.43
261,0.89,1.31,0.87,1.30,-1.30,-1.40,-0.41,-0.43,-0.42
264,0.83,1.25,0.85,1.28,-1.28,-1.39,-0.45,-0.42,-0.42
266,0.83,1.25,0.83,1.25,-1.25,-1.37,-0.43,-0.42,-0.42
269,0.82,1.24,0.81,1.23,-1.23,-1.36,-0.42,-0.42,-0.42
272,0.82,1.24,0.79,1.21,-1.21,-1.34,-0.39,-0.42,-0.42
274,0.82,1.24,0.76,1.18,-1.18,-1.32,-0.36,-0.42,-0.42
277,0.74,1.16,0.73,1.15,-1.15,-1.30,-0.42,-0.43,-0.42
280,0.68,1.10,0.70,1.13,-1.13,-1.28,-0.45,-0.43,-0.42
283,0.62,1.03,0.68,1.11,-1.11,-1.26,-0.49,-0.43,-0.42
286,0.62,1.03,0.66,1.09,-1.09,-1.24,-0.47,-0.43,-0.41
288,0.63,1.03,0.66,1.07,-1.07,-1.22,-0.45,-0.41,-0.40
291,0.64,1.03,0.66,1.06,-1.06,-1.20,-0.43,-0.40,-0.40
294,0.65,1.03,0.66,1.05,-1.05,-1.18,-0.41,-0.39,-0.39
297,0.67,1.04,0.66,1.04,-1.04,-1.16,-0.38,-0.38,-0.37
300,0.68,1.04,0.66,1.04,-1.04,-1.14,-0.36,-0.38,-0.36
303,0.69,1.04,0.66,1.03,-1.03,-1.11,-0.34,-0.36,-0.35
306,0.70,1.04,0.67,1.02,-1.02,-1.09,-0.33,-0.35,-0.34
309,0.71,1.04,0.68,1.02,-1.02,-1.07,-0.31,-0.34,-0.33
312,0.72,1.04,0.68,1.01,-1.01,-1.05,-0.29,-0.33,-0.32
316,0.74,1.05,0.67,1.00,-1.00,-1.02,-0.26,-0.32,-0.32
319,0.65,0.96,0.66,0.99,-0.99,-1.01,-0.34,-0.32,-0.31
322,0.62,0.93,0.66,0.97,-0.97,-0.99,-0.36,-0.32,-0.31
325,0.62,0.92,0.65,0.96,-0.96,-0.97,-0.35,-0.32,-0.31
328,0.62,0.92,0.63,0.95,-0.95,-0.95,-0.33,-0.32,-0.31
332,0.62,0.92,0.62,0.94,-0.94,-0.93,-0.32,-0.32,-0.31
335,0.62,0.92,0.62,0.93,-0.93,-0.91,-0.31,-0.31,-0.31
338,0.61,0.91,0.61,0.92,-0.92,-0.90,-0.31,-0.31,-0.31
342,0.61,0.91,0.60,0.91,-0.91,-0.88,-0.31,-0.31,-0.31
345,0.61,0.91,0.60,0.91,-0.91,-0.86,-0.30,-0.31,-0.31
349,0.61,0.91,0.60,0.91,-0.91,-0.84,-0.30,-0.30,-0.30
352,0.61,0.91,0.61,0.91,-0.91,-0.83,-0.30,-0.29,-0.30
356,0.62,0.91,0.62,0.90,-0.90,-0.82,-0.29,-0.29,-0.30
359,0.62,0.91,0.62,0.90,-0.90,-0.80,-0.29,-0.28,-0.29
363,0.63,0.91,0.62,0.90,-0.90,-0.79,-0.28,-0.28,-0.28
366,0.63,0.90,0.63,0.90,-0.90,-0.78,-0.28,-0.27,-0.27
370,0.64,0.90,0.64,0.90,-0.90,-0.77,-0.27,-0.26,-0.27
374,0.65,0.90,0.64,0.90,-0.90,-0.76,-0.25,-0.26,-0.26
377,0.66,0.90,0.65,0.90,-0.90,-0.75,-0.24,-0.25,-0.25
381,0.66,0.90,0.65,0.90,-0.90,-0.74,-0.24,-0.25,-0.24
385,0.67,0.90,0.65,0.90,-0.90,-0.73,-0.23,-0.24,-0.23
389,0.67,0.90,0.66,0.90,-0.90,-0.72,-0.23,-0.24,-0.23
393,0.68,0.90,0.66,0.90,-0.90,-0.71,-0.22,-0.24,-0.23
397,0.68,0.90,0.66,0.90,-0.90,-0.70,-0.23,-0.24,-0.23
401,0.68,0.90,0.67,0.91,-0.91,-0.69,-0.23,-0.24,-0.22
405,0.68,0.90,0.68,0.91,-0.91,-0.69,-0.24,-0.24,-0.23
409,0.67,0.89,0.68,0.92,-0.92,-0.68,-0.25,-0.23,-0.23
413,0.67,0.89,0.69,0.93,-0.93,-0.67,-0.26,-0.23,-0.22
417,0.67,0.89,0.71,0.93,-0.93,-0.67,-0.27,-0.23,-0.22
421,0.74,0.95,0.73,0.94,-0.94,-0.66,-0.21,-0.21,-0.21
425,0.78,0.98,0.76,0.95,-0.95,-0.65,-0.18,-0.20,-0.20
430,0.79,0.97,0.79,0.96,-0.96,-0.65,-0.17,-0.17,-0.18
434,0.81,0.97,0.82,0.96,-0.96,-0.64,-0.16,-0.14,-0.16
438,0.84,0.96,0.85,0.96,-0.96,-0.64,-0.13,-0.11,-0.13
443,0.87,0.96,0.88,0.96,-0.96,-0.63,-0.09,-0.08,-0.09
447,0.92,0.96,0.92,0.95,-0.95,-0.63,-0.04,-0.04,-0.04
451,0.97,0.96,0.96,0.94,-0.94,-0.62,0.02,0.01,0.01
456,1.03,0.97,1.00,0.93,-0.93,-0.61,0.10,0.07,0.06
460,1.09,0.97,1.03,0.91,-0.91,-0.61,0.18,0.12,0.12
465,1.07,0.89,1.06,0.89,-0.89,-0.60,0.18,0.17,0.18
470,1.07,0.83,1.09,0.87,-0.87,-0.59,0.20,0.22,0.24
474,1.07,0.77,1.12,0.84,-0.84,-0.59,0.23,0.28,0.29
479,1.12,0.77,1.15,0.81,-0.81,-0.58,0.30,0.34,0.35
484,1.17,0.76,1.18,0.79,-0.79,-0.57,0.38,0.39,0.40
489,1.21,0.76,1.19,0.76,-0.76,-0.56,0.45,0.44,0.45
494,1.24,0.75,1.20,0.73,-0.73,-0.55,0.51,0.47,0.49
499,1.21,0.68,1.21,0.70,-0.70,-0.54,0.51,0.51,0.52
504,1.19,0.64,1.20,0.67,-0.67,-0.53,0.52,0.53,0.55
509,1.21,0.64,1.19,0.64,-0.64,-0.52,0.57,0.55,0.57
514,1.22,0.64,1.17,0.61,-0.61,-0.51,0.60,0.56,0.58
519,1.23,0.64,1.15,0.58,-0.58,-0.49,0.65,0.57,0.58
524,1.12,0.54,1.11,0.55,-0.55,-0.48,0.57,0.57,0.58
529,1.01,0.44,1.06,0.51,-0.51,-0.47,0.50,0.56,0.56
535,0.99,0.45,1.00,0.47,-0.47,-0.45,0.52,0.53,0.54
540,0.96,0.44,0.93,0.43,-0.43,-0.44,0.53,0.50,0.51
545,0.92,0.43,0.86,0.39,-0.39,-0.42,0.53,0.48,0.48
551,0.77,0.32,0.79,0.34,-0.34,-0.41,0.43,0.45,0.45
556,0.72,0.30,0.71,0.29,-0.29,-0.39,0.42,0.42,0.41
562,0.67,0.28,0.63,0.24,-0.24,-0.37,0.42,0.38,0.38
568,0.58,0.22,0.55,0.19,-0.19,-0.36,0.38,0.36,0.35
573,0.48,0.15,0.48,0.14,-0.14,-0.34,0.33,0.33,0.33
579,0.36,0.04,0.42,0.09,-0.09,-0.32,0.26,0.32,0.31
585,0.32,0.02,0.36,0.05,-0.05,-0.30,0.27,0.31,0.30
591,0.31,0.01,0.31,0.01,-0.01,-0.28,0.30,0.30,0.30
596,0.29,-0.01,0.27,-0.03,0.03,-0.27,0.32,0.30,0.30
602,0.20,-0.11,0.24,-0.07,0.07,-0.25,0.26,0.30,0.31
608,0.21,-0.12,0.22,-0.09,0.09,-0.23,0.30,0.32,0.33
615,0.23,-0.12,0.22,-0.11,0.11,-0.21,0.34,0.33,0.35
621,0.25,-0.13,0.24,-0.12,0.12,-0.19,0.37,0.36,0.38
627,0.28,-0.14,0.27,-0.12,0.12,-0.17,0.40,0.40,0.41
633,0.31,-0.15,0.32,-0.12,0.12,-0.15,0.43,0.44,0.45
639,0.34,-0.16,0.38,-0.11,0.11,-0.13,0.45,0.49,0.50
646,0.38,-0.17,0.44,-0.10,0.10,-0.11,0.48,0.54,0.54
652,0.44,-0.16,0.51,-0.08,0.08,-0.09,0.52,0.59,0.59
659,0.57,-0.08,0.57,-0.07,0.07,-0.06,0.63,0.64,0.65
665,0.67,-0.03,0.64,-0.05,0.05,-0.04,0.72,0.70,0.70
672,0.77,0.02,0.70,-0.04,0.04,-0.02,0.80,0.74,0.75
679,0.82,0.02,0.75,-0.03,0.03,0.00,0.85,0.78,0.80
686,0.87,0.02,0.80,-0.03,0.03,0.02,0.89,0.83,0.84
692,0.90,0.02,0.83,-0.03,0.03,0.04,0.93,0.86,0.88
699,0.85,-0.06,0.85,-0.05,0.05,0.06,0.89,0.90,0.91
706,0.85,-0.09,0.86,-0.07,0.07,0.09,0.91,0.93,0.93
713,0.85,-0.10,0.84,-0.10,0.10,0.11,0.94,0.94,0.95
721,0.84,-0.12,0.82,-0.13,0.13,0.13,0.97,0.96,0.96
728,0.80,-0.17,0.78,-0.18,0.18,0.15,0.98,0.96,0.96
735,0.70,-0.27,0.73,-0.23,0.23,0.18,0.93,0.96,0.96
742,0.67,-0.30,0.67,-0.29,0.29,0.20,0.96,0.96,0.96
750,0.64,-0.32,0.61,-0.35,0.35,0.22,0.99,0.96,0.96
757,0.57,-0.40,0.55,-0.42,0.42,0.24,0.98,0.97,0.96
765,0.49,-0.48,0.49,-0.48,0.48,0.27,0.97,0.97,0.97
773,0.38,-0.60,0.43,-0.55,0.55,0.29,0.93,0.98,0.97
780,0.36,-0.62,0.36,-0.62,0.62,0.31,0.98,0.99,0.98
788,0.33,-0.67,0.30,-0.69,0.69,0.33,1.02,0.99,0.99
796,0.18,-0.83,0.24,-0.77,0.77,0.36,0.94,1.01,1.01
804,0.16,-0.87,0.19,-0.83,0.83,0.38,0.99,1.03,1.02
812,0.16,-0.88,0.14,-0.90,0.90,0.40,1.06,1.04,1.04
820,0.11,-0.95,0.08,-0.97,0.97,0.42,1.08,1.05,1.06
828,0.07,-1.01,0.03,-1.03,1.03,0.44,1.10,1.06,1.07
837,-0.03,-1.12,-0.01,-1.09,1.09,0.46,1.06,1.08,1.09
845,-0.03,-1.14,-0.06,-1.15,1.15,0.48,1.12,1.09,1.10
853,-0.07,-1.19,-0.10,-1.20,1.20,0.50,1.13,1.10,1.11
862,-0.14,-1.27,-0.14,-1.25,1.25,0.52,1.11,1.11,1.12
871,-0.14,-1.27,-0.18,-1.29,1.29,0.53,1.15,1.12,1.13
879,-0.23,-1.37,-0.20,-1.33,1.33,0.55,1.10,1.13,1.13
888,-0.26,-1.40,-0.23,-1.36,1.36,0.56,1.10,1.13,1.14
897,-0.27,-1.42,-0.25,-1.39,1.39,0.57,1.11,1.14,1.14
906,-0.28,-1.43,-0.26,-1.40,1.40,0.58,1.12,1.14,1.15
915,-0.28,-1.44,-0.27,-1.41,1.41,0.59,1.13,1.15,1.16
924,-0.28,-1.45,-0.27,-1.42,1.42,0.60,1.14,1.15,1.16
933,-0.19,-1.36,-0.26,-1.42,1.42,0.60,1.22,1.16,1.17
943,-0.19,-1.37,-0.24,-1.41,1.41,0.61,1.21,1.17,1.18
952,-0.18,-1.37,-0.21,-1.39,1.39,0.61,1.21,1.18,1.19
962,-0.18,-1.38,-0.18,-1.37,1.37,0.60,1.19,1.19,1.20
971,-0.17,-1.38,-0.14,-1.35,1.35,0.60,1.17,1.21,1.21
981,-0.11,-1.34,-0.09,-1.31,1.31,0.59,1.20,1.22,1.22
991,-0.05,-1.29,-0.03,-1.27,1.27,0.58,1.22,1.24,1.24
1001,0.01,-1.25,0.03,-1.23,1.23,0.57,1.23,1.26,1.26
1011,0.12,-1.16,0.10,-1.18,1.18,0.55,1.29,1.27,1.28
1021,0.21,-1.09,0.18,-1.12,1.12,0.53,1.32,1.29,1.30
1031,0.24,-1.09,0.26,-1.06,1.06,0.51,1.29,1.32,1.33
1041,0.36,-1.00,0.36,-0.99,0.99,0.49,1.34,1.35,1.35
1052,0.45,-0.93,0.46,-0.92,0.92,0.46,1.36,1.37,1.38
1062,0.56,-0.85,0.56,-0.84,0.84,0.43,1.39,1.40,1.41
1073,0.69,-0.75,0.68,-0.76,0.76,0.40,1.44,1.44,1.44
1084,0.82,-0.65,0.79,-0.68,0.68,0.36,1.49,1.47,1.46
1094,0.91,-0.59,0.91,-0.59,0.59,0.33,1.50,1.50,1.50
1105,1.05,-0.48,1.03,-0.51,0.51,0.29,1.55,1.54,1.53
1116,1.17,-0.40,1.15,-0.42,0.42,0.25,1.59,1.57,1.56
1128,1.28,-0.32,1.27,-0.33,0.33,0.20,1.61,1.60,1.60
1139,1.36,-0.27,1.40,-0.24,0.24,0.16,1.60,1.64,1.63
1150,1.49,-0.18,1.52,-0.15,0.15,0.11,1.64,1.68,1.67
1162,1.72,0.01,1.65,-0.06,0.06,0.06,1.78,1.71,1.70
1173,1.82,0.08,1.77,0.04,-0.04,0.01,1.78,1.74,1.74
1185,1.92,0.14,1.90,0.14,-0.14,-0.04,1.78,1.77,1.77
1197,2.03,0.21,2.04,0.24,-0.24,-0.10,1.79,1.80,1.81
1209,2.14,0.29,2.18,0.35,-0.35,-0.15,1.79,1.84,1.85
1221,2.30,0.41,2.33,0.46,-0.46,-0.21,1.84,1.87,1.89
1233,2.48,0.56,2.47,0.58,-0.58,-0.26,1.90,1.90,1.92
1246,2.62,0.67,2.63,0.70,-0.70,-0.33,1.91,1.92,1.95
1258,2.75,0.77,2.78,0.83,-0.83,-0.38,1.91,1.95,1.97
1271,2.90,0.90,2.94,0.97,-0.97,-0.45,1.92,1.96,1.99
1283,3.14,1.13,3.08,1.12,-1.12,-0.51,2.02,1.96,2.00
1296,3.29,1.28,3.24,1.27,-1.27,-0.57,2.01,1.97,2.01
1309,3.44,1.43,3.40,1.43,-1.43,-0.64,2.01,1.97,2.01
1322,3.59,1.58,3.56,1.59,-1.59,-0.70,1.99,1.96,2.00
1335,3.74,1.75,3.72,1.76,-1.76,-0.77,1.97,1.95,1.99
1349,3.89,1.91,3.88,1.94,-1.94,-0.84,1.95,1.94,1.98
1362,4.04,2.08,4.05,2.12,-2.12,-0.90,1.92,1.93,1.96
1376,4.19,2.25,4.22,2.30,-2.30,-0.97,1.89,1.92,1.94
1390,4.34,2.42,4.39,2.49,-2.49,-1.04,1.85,1.90,1.91
1404,4.48,2.58,4.56,2.68,-2.68,-1.12,1.80,1.88,1.90
1418,4.72,2.84,4.74,2.87,-2.87,-1.19,1.85,1.87,1.88
1432,4.89,3.02,4.92,3.06,-3.06,-1.26,1.83,1.86,1.86
1446,5.16,3.30,5.10,3.25,-3.25,-1.33,1.91,1.86,1.86
1461,5.33,3.47,5.28,3.43,-3.43,-1.41,1.89,1.85,1.85
1475,5.50,3.64,5.46,3.61,-3.61,-1.48,1.88,1.85,1.85
1490,5.65,3.79,5.64,3.79,-3.79,-1.56,1.86,1.85,1.86
1505,5.79,3.92,5.81,3.95,-3.95,-1.64,1.83,1.86,1.86
1520,5.99,4.11,5.98,4.11,-4.11,-1.72,1.88,1.87,1.87
1535,6.16,4.27,6.14,4.25,-4.25,-1.80,1.90,1.89,1.89
1550,6.32,4.42,6.29,4.38,-4.38,-1.87,1.93,1.91,1.90
1566,6.39,4.47,6.42,4.49,-4.49,-1.96,1.89,1.92,1.92
1582,6.46,4.52,6.54,4.59,-4.59,-2.04,1.87,1.95,1.94
1597,6.62,4.65,6.63,4.66,-4.66,-2.11,1.95,1.97,1.97
1613,6.78,4.78,6.72,4.72,-4.72,-2.19,2.06,2.00,2.00
1629,6.85,4.81,6.79,4.75,-4.75,-2.27,2.09,2.04,2.03
1646,6.91,4.84,6.84,4.76,-4.76,-2.36,2.14,2.08,2.07
1662,6.96,4.84,6.88,4.75,-4.75,-2.43,2.21,2.13,2.11
1679,6.93,4.76,6.90,4.72,-4.72,-2.51,2.21,2.18,2.16
1696,6.91,4.68,6.91,4.66,-4.66,-2.59,2.25,2.25,2.22
1713,6.84,4.55,6.90,4.58,-4.58,-2.66,2.26,2.32,2.29
1730,6.87,4.50,6.88,4.49,-4.49,-2.74,2.38,2.40,2.36
1747,6.82,4.37,6.84,4.37,-4.37,-2.80,2.44,2.47,2.45
1764,6.77,4.23,6.79,4.25,-4.25,-2.87,2.52,2.54,2.54
1782,6.76,4.12,6.74,4.12,-4.12,-2.93,2.64,2.62,2.63
1800,6.73,3.99,6.69,3.97,-3.97,-2.99,2.75,2.72,2.73
1818,6.70,3.86,6.64,3.83,-3.83,-3.05,2.87,2.81,2.84
1836,6.60,3.65,6.59,3.68,-3.68,-3.10,2.92,2.91,2.94
1854,6.50,3.44,6.55,3.53,-3.53,-3.14,2.97,3.02,3.05
1873,6.47,3.30,6.50,3.38,-3.38,-3.18,3.08,3.12,3.17
1892,6.41,3.13,6.46,3.24,-3.24,-3.21,3.17,3.22,3.28
1911,6.39,2.99,6.41,3.10,-3.10,-3.24,3.29,3.31,3.40
1930,6.38,2.87,6.37,2.97,-2.97,-3.26,3.41,3.40,3.51
1949,6.37,2.75,6.33,2.84,-2.84,-3.27,3.53,3.49,3.62
1969,6.35,2.62,6.29,2.71,-2.71,-3.28,3.63,3.58,3.73
1988,6.30,2.46,6.27,2.59,-2.59,-3.27,3.70,3.67,3.84
2008,6.23,2.28,6.25,2.48,-2.48,-3.26,3.74,3.77,3.94
