frequency,raw,error,smoothed,error_smoothed,equalization,parametric_eq,fixed_band_eq,equalized_raw,equalized_smoothed,target
20.00,0.10,-5.08,0.10,-5.07,5.08,3.88,1.12,5.18,5.19,5.18
20.20,0.13,-5.05,0.13,-5.05,5.06,3.85,1.16,5.19,5.18,5.18
20.40,0.15,-5.03,0.15,-5.03,5.03,3.81,1.19,5.18,5.18,5.18
20.61,0.18,-5.00,0.18,-5.00,4.99,3.78,1.23,5.17,5.18,5.18
20.81,0.22,-4.96,0.22,-4.96,4.95,3.75,1.26,5.17,5.17,5.18
21.02,0.25,-4.93,0.26,-4.92,4.91,3.72,1.30,5.16,5.17,5.18
21.23,0.30,-4.86,0.30,-4.87,4.86,3.68,1.34,5.16,5.16,5.16
21.44,0.33,-4.81,0.33,-4.81,4.81,3.65,1.38,5.14,5.14,5.15
21.66,0.38,-4.75,0.38,-4.75,4.75,3.62,1.43,5.13,5.13,5.13
21.87,0.42,-4.68,0.43,-4.68,4.68,3.58,1.47,5.10,5.11,5.11
22.09,0.48,-4.61,0.47,-4.61,4.61,3.55,1.51,5.09,5.09,5.09
22.31,0.52,-4.54,0.53,-4.54,4.54,3.52,1.56,5.06,5.07,5.06
22.54,0.57,-4.47,0.58,-4.47,4.47,3.48,1.61,5.04,5.04,5.04
22.76,0.63,-4.39,0.62,-4.39,4.39,3.45,1.66,5.03,5.02,5.02
22.99,0.67,-4.32,0.67,-4.32,4.32,3.41,1.70,4.99,4.99,4.99
23.22,0.72,-4.24,0.72,-4.24,4.25,3.38,1.75,4.97,4.97,4.96
23.45,0.77,-4.17,0.77,-4.17,4.18,3.34,1.81,4.95,4.95,4.94
23.69,0.82,-4.11,0.82,-4.10,4.11,3.31,1.86,4.93,4.93,4.93
23.92,0.87,-4.04,0.87,-4.04,4.04,3.28,1.91,4.91,4.91,4.91
24.16,0.92,-3.98,0.92,-3.98,3.97,3.24,1.97,4.90,4.89,4.90
24.40,0.96,-3.91,0.97,-3.91,3.91,3.21,2.02,4.87,4.87,4.88
24.65,1.01,-3.85,1.01,-3.85,3.84,3.17,2.08,4.85,4.85,4.86
24.89,1.06,-3.77,1.06,-3.78,3.77,3.14,2.13,4.84,4.84,4.84
25.14,1.11,-3.71,1.12,-3.71,3.70,3.10,2.19,4.82,4.82,4.82
25.39,1.17,-3.63,1.17,-3.64,3.64,3.06,2.25,4.81,4.80,4.80
25.65,1.22,-3.57,1.22,-3.57,3.57,3.03,2.30,4.79,4.79,4.79
25.91,1.27,-3.49,1.27,-3.50,3.50,2.99,2.36,4.77,4.77,4.76
26.16,1.32,-3.43,1.32,-3.43,3.43,2.96,2.42,4.75,4.75,4.75
26.43,1.37,-3.37,1.37,-3.36,3.37,2.92,2.47,4.74,4.74,4.74
26.69,1.42,-3.30,1.42,-3.30,3.30,2.88,2.53,4.72,4.72,4.72
26.96,1.47,-3.24,1.47,-3.24,3.24,2.85,2.58,4.71,4.71,4.71
27.23,1.52,-3.17,1.52,-3.18,3.17,2.81,2.63,4.69,4.69,4.70
27.50,1.56,-3.12,1.57,-3.12,3.11,2.77,2.68,4.67,4.68,4.68
27.77,1.61,-3.05,1.61,-3.05,3.05,2.74,2.73,4.66,4.66,4.66
28.05,1.67,-2.98,1.67,-2.98,2.98,2.70,2.78,4.65,4.65,4.65
28.33,1.71,-2.92,1.72,-2.92,2.92,2.66,2.82,4.63,4.64,4.63
28.62,1.77,-2.85,1.77,-2.85,2.86,2.62,2.86,4.63,4.62,4.62
28.90,1.81,-2.79,1.81,-2.79,2.79,2.59,2.89,4.60,4.61,4.61
29.19,1.86,-2.72,1.86,-2.73,2.73,2.55,2.93,4.59,4.59,4.58
29.48,1.91,-2.67,1.91,-2.67,2.67,2.51,2.95,4.58,4.58,4.58
29.78,1.96,-2.61,1.96,-2.61,2.61,2.47,2.98,4.57,4.57,4.57
30.08,2.01,-2.55,2.00,-2.55,2.55,2.43,3.00,4.56,4.55,4.56
30.38,2.04,-2.50,2.05,-2.49,2.49,2.39,3.01,4.53,4.54,4.54
30.68,2.09,-2.43,2.09,-2.43,2.43,2.35,3.02,4.53,4.53,4.53
30.99,2.14,-2.36,2.13,-2.37,2.38,2.31,3.03,4.52,4.51,4.50
31.30,2.17,-2.32,2.17,-2.32,2.32,2.27,3.03,4.49,4.49,4.49
31.61,2.21,-2.27,2.21,-2.26,2.26,2.23,3.02,4.47,4.47,4.48
31.93,2.24,-2.22,2.24,-2.21,2.21,2.19,3.01,4.45,4.45,4.46
32.24,2.28,-2.14,2.28,-2.15,2.15,2.15,3.00,4.43,4.43,4.42
32.57,2.32,-2.09,2.32,-2.09,2.10,2.11,2.98,4.42,4.41,4.41
32.89,2.35,-2.05,2.35,-2.04,2.04,2.06,2.95,4.39,4.39,4.40
33.22,2.39,-1.97,2.39,-1.98,1.98,2.02,2.92,4.37,4.37,4.37
33.55,2.42,-1.93,2.42,-1.93,1.92,1.97,2.89,4.35,4.35,4.35
33.89,2.46,-1.87,2.46,-1.87,1.87,1.93,2.85,4.33,4.33,4.33
34.23,2.50,-1.81,2.50,-1.81,1.81,1.88,2.81,4.31,4.31,4.31
34.57,2.54,-1.74,2.54,-1.74,1.74,1.84,2.76,4.29,4.29,4.28
34.92,2.58,-1.68,2.58,-1.68,1.68,1.79,2.72,4.26,4.26,4.26
35.27,2.63,-1.62,2.63,-1.62,1.62,1.74,2.67,4.25,4.24,4.25
35.62,2.67,-1.55,2.67,-1.55,1.55,1.70,2.61,4.22,4.22,4.22
35.97,2.72,-1.48,2.72,-1.48,1.48,1.65,2.56,4.20,4.20,4.20
36.33,2.77,-1.42,2.77,-1.41,1.41,1.60,2.50,4.19,4.18,4.19
36.70,2.81,-1.35,2.82,-1.34,1.35,1.55,2.44,4.16,4.16,4.16
37.06,2.87,-1.27,2.87,-1.28,1.28,1.50,2.39,4.15,4.14,4.14
37.43,2.91,-1.21,2.91,-1.21,1.21,1.44,2.32,4.12,4.12,4.12
37.81,2.95,-1.15,2.96,-1.14,1.14,1.39,2.26,4.10,4.10,4.10
38.19,3.00,-1.08,3.00,-1.08,1.08,1.34,2.20,4.08,4.08,4.08
38.57,3.03,-1.03,3.04,-1.02,1.02,1.28,2.14,4.05,4.06,4.06
38.95,3.07,-0.96,3.07,-0.96,0.97,1.23,2.08,4.04,4.04,4.04
39.34,3.10,-0.91,3.10,-0.91,0.92,1.17,2.02,4.02,4.02,4.01
39.74,3.12,-0.87,3.13,-0.87,0.87,1.12,1.96,3.99,4.00,3.99
40.14,3.15,-0.83,3.15,-0.83,0.83,1.06,1.90,3.98,3.97,3.98
40.54,3.16,-0.79,3.16,-0.79,0.79,1.01,1.84,3.95,3.95,3.96
40.94,3.18,-0.76,3.18,-0.76,0.76,0.95,1.78,3.94,3.94,3.94
41.35,3.19,-0.72,3.19,-0.73,0.73,0.90,1.72,3.92,3.92,3.91
41.76,3.21,-0.70,3.21,-0.70,0.70,0.84,1.67,3.91,3.91,3.91
42.18,3.21,-0.68,3.21,-0.68,0.68,0.79,1.61,3.89,3.89,3.89
42.60,3.21,-0.65,3.21,-0.66,0.65,0.74,1.56,3.86,3.87,3.86
43.03,3.21,-0.65,3.21,-0.64,0.63,0.69,1.50,3.84,3.84,3.86
43.46,3.22,-0.61,3.22,-0.61,0.61,0.64,1.45,3.83,3.83,3.83
43.90,3.22,-0.58,3.22,-0.59,0.59,0.60,1.40,3.81,3.81,3.80
44.33,3.22,-0.56,3.22,-0.56,0.57,0.55,1.35,3.79,3.79,3.78
44.78,3.21,-0.56,3.21,-0.55,0.55,0.51,1.30,3.76,3.76,3.77
45.23,3.21,-0.53,3.21,-0.53,0.53,0.48,1.25,3.74,3.74,3.74
45.68,3.21,-0.51,3.21,-0.51,0.51,0.44,1.20,3.72,3.72,3.72
46.13,3.21,-0.49,3.21,-0.49,0.49,0.41,1.16,3.71,3.71,3.70
46.60,3.21,-0.48,3.21,-0.48,0.48,0.39,1.11,3.69,3.69,3.69
47.06,3.21,-0.46,3.21,-0.46,0.46,0.37,1.07,3.67,3.67,3.67
47.53,3.21,-0.44,3.21,-0.44,0.44,0.35,1.02,3.65,3.65,3.65
48.01,3.21,-0.43,3.21,-0.43,0.42,0.33,0.98,3.63,3.63,3.64
48.49,3.20,-0.41,3.20,-0.41,0.40,0.32,0.94,3.60,3.61,3.61
48.97,3.19,-0.39,3.19,-0.38,0.38,0.30,0.90,3.58,3.58,3.58
49.46,3.19,-0.36,3.19,-0.36,0.37,0.30,0.86,3.56,3.55,3.55
49.96,3.18,-0.34,3.18,-0.34,0.35,0.29,0.82,3.53,3.53,3.52
50.46,3.18,-0.33,3.18,-0.33,0.33,0.29,0.78,3.51,3.51,3.51
50.96,3.17,-0.32,3.17,-0.31,0.32,0.28,0.75,3.49,3.49,3.49
51.47,3.16,-0.30,3.16,-0.30,0.30,0.28,0.71,3.46,3.46,3.46
51.99,3.15,-0.28,3.15,-0.29,0.29,0.28,0.68,3.44,3.44,3.44
52.51,3.13,-0.29,3.14,-0.28,0.28,0.28,0.64,3.41,3.42,3.42
53.03,3.13,-0.27,3.13,-0.27,0.26,0.28,0.61,3.40,3.39,3.40
53.56,3.12,-0.25,3.12,-0.25,0.25,0.28,0.57,3.37,3.37,3.37
54.10,3.11,-0.23,3.11,-0.24,0.24,0.27,0.54,3.35,3.35,3.35
54.64,3.09,-0.23,3.10,-0.22,0.22,0.27,0.50,3.32,3.32,3.32
55.18,3.08,-0.21,3.08,-0.21,0.21,0.27,0.47,3.29,3.29,3.29
55.74,3.08,-0.19,3.07,-0.20,0.20,0.27,0.44,3.28,3.27,3.27
56.29,3.06,-0.19,3.07,-0.18,0.18,0.26,0.40,3.24,3.25,3.25
56.86,3.05,-0.17,3.05,-0.17,0.17,0.26,0.37,3.22,3.22,3.22
57.42,3.04,-0.15,3.04,-0.16,0.16,0.26,0.34,3.20,3.19,3.19
58.00,3.02,-0.15,3.03,-0.14,0.15,0.25,0.31,3.17,3.17,3.17
58.58,3.01,-0.13,3.01,-0.14,0.14,0.24,0.27,3.15,3.15,3.14
59.16,3.00,-0.12,3.00,-0.13,0.13,0.24,0.24,3.13,3.13,3.12
59.76,2.97,-0.13,2.98,-0.12,0.12,0.23,0.21,3.09,3.10,3.10
60.35,2.96,-0.11,2.96,-0.12,0.11,0.22,0.18,3.07,3.07,3.07
60.96,2.93,-0.13,2.93,-0.11,0.10,0.21,0.14,3.04,3.04,3.06
61.57,2.91,-0.10,2.92,-0.10,0.10,0.20,0.11,3.01,3.01,3.01
62.18,2.90,-0.08,2.90,-0.09,0.09,0.19,0.07,2.99,2.99,2.98
62.80,2.88,-0.07,2.88,-0.07,0.08,0.18,0.04,2.96,2.96,2.96
63.43,2.85,-0.07,2.86,-0.07,0.08,0.17,0.00,2.93,2.93,2.92
64.07,2.83,-0.06,2.83,-0.07,0.07,0.16,-0.03,2.90,2.90,2.90
64.71,2.81,-0.07,2.81,-0.07,0.07,0.15,-0.07,2.88,2.87,2.88
65.35,2.78,-0.07,2.79,-0.07,0.06,0.13,-0.10,2.84,2.85,2.85
66.01,2.76,-0.07,2.77,-0.06,0.06,0.12,-0.14,2.82,2.83,2.83
66.67,2.75,-0.05,2.75,-0.06,0.06,0.11,-0.18,2.81,2.80,2.80
67.33,2.73,-0.05,2.73,-0.05,0.06,0.10,-0.22,2.79,2.79,2.78
68.01,2.70,-0.05,2.71,-0.05,0.06,0.08,-0.25,2.76,2.76,2.75
68.69,2.68,-0.05,2.68,-0.05,0.05,0.07,-0.29,2.73,2.73,2.73
69.37,2.65,-0.05,2.65,-0.05,0.05,0.06,-0.33,2.70,2.70,2.70
70.07,2.63,-0.05,2.63,-0.05,0.05,0.05,-0.37,2.68,2.68,2.68
70.77,2.60,-0.05,2.60,-0.05,0.04,0.04,-0.42,2.65,2.65,2.65
71.48,2.58,-0.04,2.58,-0.04,0.04,0.03,-0.46,2.62,2.62,2.62
72.19,2.55,-0.04,2.55,-0.04,0.04,0.02,-0.50,2.59,2.59,2.59
72.91,2.53,-0.03,2.53,-0.03,0.03,0.01,-0.55,2.56,2.56,2.56
73.64,2.50,-0.02,2.50,-0.02,0.02,-0.00,-0.59,2.52,2.52,2.52
74.38,2.47,-0.02,2.47,-0.01,0.01,-0.01,-0.64,2.49,2.49,2.49
75.12,2.45,0.01,2.45,-0.00,0.01,-0.02,-0.68,2.46,2.45,2.45
75.87,2.42,0.01,2.42,0.00,-0.00,-0.03,-0.73,2.42,2.42,2.42
76.63,2.40,0.02,2.40,0.02,-0.02,-0.04,-0.78,2.38,2.38,2.39
77.40,2.37,0.03,2.37,0.03,-0.03,-0.05,-0.83,2.34,2.34,2.34
78.17,2.35,0.06,2.35,0.05,-0.05,-0.06,-0.88,2.30,2.30,2.29
78.95,2.33,0.06,2.33,0.06,-0.07,-0.08,-0.93,2.26,2.26,2.27
79.74,2.31,0.08,2.31,0.09,-0.09,-0.10,-0.98,2.22,2.22,2.23
80.54,2.29,0.11,2.30,0.11,-0.12,-0.12,-1.03,2.17,2.18,2.18
81.35,2.29,0.15,2.29,0.15,-0.15,-0.14,-1.08,2.14,2.14,2.14
82.16,2.28,0.19,2.28,0.18,-0.18,-0.17,-1.14,2.10,2.10,2.09
82.98,2.27,0.22,2.27,0.22,-0.22,-0.20,-1.20,2.05,2.05,2.06
83.81,2.26,0.26,2.26,0.26,-0.26,-0.24,-1.25,2.01,2.00,2.00
84.65,2.25,0.30,2.25,0.30,-0.30,-0.29,-1.31,1.95,1.96,1.95
85.50,2.25,0.34,2.25,0.34,-0.34,-0.34,-1.37,1.91,1.91,1.91
86.35,2.25,0.39,2.25,0.39,-0.39,-0.40,-1.43,1.86,1.86,1.86
87.22,2.25,0.44,2.26,0.44,-0.44,-0.46,-1.49,1.81,1.81,1.81
88.09,2.27,0.51,2.26,0.50,-0.50,-0.53,-1.56,1.77,1.77,1.76
88.97,2.27,0.55,2.27,0.56,-0.56,-0.60,-1.62,1.72,1.72,1.72
89.86,2.28,0.61,2.29,0.62,-0.62,-0.68,-1.69,1.67,1.67,1.67
90.76,2.30,0.69,2.30,0.68,-0.68,-0.76,-1.76,1.62,1.62,1.61
91.66,2.31,0.75,2.31,0.75,-0.75,-0.85,-1.82,1.56,1.56,1.57
92.58,2.33,0.83,2.33,0.82,-0.82,-0.94,-1.89,1.51,1.51,1.50
93.51,2.35,0.88,2.35,0.89,-0.89,-1.03,-1.96,1.46,1.46,1.47
94.44,2.38,0.97,2.38,0.97,-0.97,-1.12,-2.04,1.41,1.41,1.42
95.39,2.41,1.05,2.41,1.05,-1.05,-1.21,-2.11,1.36,1.36,1.36
96.34,2.43,1.14,2.44,1.13,-1.14,-1.30,-2.18,1.30,1.30,1.30
97.30,2.46,1.22,2.46,1.22,-1.22,-1.39,-2.26,1.24,1.24,1.24
98.28,2.50,1.32,2.50,1.32,-1.31,-1.48,-2.33,1.19,1.18,1.19
99.26,2.53,1.41,2.53,1.41,-1.41,-1.56,-2.41,1.12,1.13,1.12
100.25,2.57,1.51,2.57,1.51,-1.51,-1.65,-2.49,1.07,1.07,1.06
101.25,2.61,1.60,2.61,1.60,-1.60,-1.74,-2.56,1.01,1.00,1.01
102.27,2.64,1.70,2.64,1.70,-1.70,-1.82,-2.64,0.94,0.94,0.94
103.29,2.68,1.81,2.68,1.80,-1.80,-1.90,-2.72,0.88,0.88,0.88
104.32,2.72,1.90,2.72,1.90,-1.90,-1.98,-2.79,0.82,0.82,0.82
105.37,2.77,2.01,2.76,2.01,-2.01,-2.06,-2.87,0.77,0.76,0.76
106.42,2.80,2.10,2.80,2.11,-2.11,-2.14,-2.94,0.69,0.70,0.70
107.48,2.84,2.21,2.84,2.21,-2.21,-2.22,-3.02,0.63,0.63,0.63
108.56,2.88,2.32,2.88,2.32,-2.32,-2.29,-3.09,0.57,0.56,0.56
109.64,2.92,2.42,2.92,2.42,-2.42,-2.36,-3.16,0.50,0.50,0.50
110.74,2.96,2.52,2.96,2.52,-2.53,-2.43,-3.23,0.44,0.44,0.44
111.85,3.00,2.62,3.00,2.63,-2.63,-2.50,-3.29,0.37,0.37,0.38
112.97,3.03,2.74,3.03,2.73,-2.73,-2.57,-3.35,0.30,0.30,0.29
114.10,3.06,2.83,3.07,2.83,-2.83,-2.64,-3.42,0.23,0.23,0.24
115.24,3.10,2.93,3.10,2.93,-2.93,-2.70,-3.47,0.17,0.17,0.17
116.39,3.13,3.03,3.13,3.03,-3.02,-2.77,-3.52,0.11,0.10,0.10
117.55,3.15,3.12,3.15,3.12,-3.11,-2.83,-3.57,0.04,0.04,0.03
118.73,3.17,3.20,3.17,3.20,-3.20,-2.89,-3.61,-0.03,-0.02,-0.03
119.92,3.19,3.28,3.19,3.28,-3.28,-2.94,-3.65,-0.09,-0.09,-0.08
121.12,3.20,3.35,3.20,3.35,-3.35,-3.00,-3.68,-0.15,-0.15,-0.15
122.33,3.21,3.42,3.21,3.42,-3.42,-3.06,-3.70,-0.21,-0.21,-0.21
123.55,3.22,3.48,3.22,3.48,-3.49,-3.11,-3.73,-0.26,-0.27,-0.26
124.79,3.22,3.54,3.22,3.54,-3.55,-3.16,-3.74,-0.33,-0.32,-0.32
126.03,3.22,3.59,3.22,3.60,-3.60,-3.21,-3.75,-0.38,-0.38,-0.37
127.29,3.22,3.65,3.22,3.66,-3.66,-3.26,-3.75,-0.43,-0.44,-0.43
128.57,3.21,3.71,3.21,3.71,-3.70,-3.31,-3.75,-0.49,-0.49,-0.50
129.85,3.20,3.75,3.20,3.75,-3.74,-3.35,-3.74,-0.54,-0.54,-0.55
131.15,3.18,3.78,3.18,3.78,-3.78,-3.40,-3.73,-0.60,-0.60,-0.60
132.46,3.16,3.82,3.16,3.81,-3.81,-3.44,-3.71,-0.65,-0.65,-0.66
133.79,3.13,3.82,3.14,3.84,-3.83,-3.48,-3.69,-0.70,-0.70,-0.69
135.12,3.11,3.86,3.11,3.85,-3.85,-3.52,-3.66,-0.74,-0.74,-0.75
136.48,3.08,3.87,3.08,3.86,-3.87,-3.56,-3.63,-0.79,-0.79,-0.78
137.84,3.05,3.87,3.05,3.88,-3.88,-3.59,-3.60,-0.83,-0.83,-0.82
139.22,3.02,3.89,3.02,3.89,-3.89,-3.63,-3.56,-0.87,-0.87,-0.87
140.61,2.99,3.91,2.99,3.90,-3.90,-3.66,-3.52,-0.90,-0.90,-0.91
142.02,2.97,3.90,2.97,3.90,-3.90,-3.69,-3.48,-0.93,-0.94,-0.93
143.44,2.94,3.90,2.94,3.91,-3.91,-3.72,-3.43,-0.97,-0.97,-0.96
144.87,2.91,3.91,2.92,3.91,-3.91,-3.75,-3.39,-1.00,-1.00,-1.00
146.32,2.90,3.93,2.90,3.92,-3.92,-3.77,-3.34,-1.02,-1.03,-1.03
147.78,2.88,3.93,2.88,3.93,-3.93,-3.80,-3.29,-1.05,-1.05,-1.05
149.26,2.86,3.94,2.86,3.94,-3.94,-3.82,-3.24,-1.08,-1.08,-1.07
150.75,2.84,3.95,2.85,3.96,-3.96,-3.84,-3.19,-1.12,-1.11,-1.11
152.26,2.84,3.98,2.84,3.98,-3.97,-3.86,-3.14,-1.13,-1.14,-1.14
153.78,2.83,4.00,2.83,3.99,-3.99,-3.88,-3.09,-1.16,-1.16,-1.16
155.32,2.82,4.01,2.82,4.01,-4.01,-3.89,-3.04,-1.19,-1.19,-1.19
156.88,2.81,4.02,2.81,4.02,-4.03,-3.91,-2.99,-1.22,-1.22,-1.21
158.44,2.79,4.04,2.80,4.04,-4.04,-3.92,-2.94,-1.25,-1.25,-1.25
160.03,2.79,4.07,2.78,4.06,-4.06,-3.93,-2.90,-1.27,-1.27,-1.28
161.63,2.77,4.08,2.77,4.08,-4.07,-3.94,-2.85,-1.30,-1.30,-1.31
163.24,2.75,4.08,2.76,4.09,-4.08,-3.95,-2.81,-1.33,-1.32,-1.33
164.88,2.74,4.09,2.74,4.09,-4.09,-3.95,-2.77,-1.35,-1.35,-1.35
166.53,2.71,4.09,2.71,4.09,-4.09,-3.95,-2.73,-1.38,-1.38,-1.38
168.19,2.68,4.10,2.68,4.10,-4.10,-3.95,-2.69,-1.41,-1.41,-1.42
169.87,2.65,4.10,2.65,4.10,-4.09,-3.95,-2.65,-1.44,-1.44,-1.44
171.57,2.62,4.09,2.62,4.09,-4.09,-3.95,-2.62,-1.47,-1.47,-1.47
173.29,2.58,4.08,2.58,4.08,-4.09,-3.95,-2.58,-1.51,-1.51,-1.50
175.02,2.54,4.07,2.54,4.08,-4.08,-3.94,-2.55,-1.54,-1.54,-1.53
176.77,2.50,4.08,2.50,4.08,-4.08,-3.93,-2.52,-1.57,-1.57,-1.58
178.54,2.46,4.07,2.46,4.07,-4.07,-3.92,-2.50,-1.61,-1.61,-1.61
180.32,2.41,4.06,2.41,4.06,-4.06,-3.91,-2.47,-1.65,-1.65,-1.65
182.13,2.36,4.04,2.36,4.04,-4.04,-3.90,-2.45,-1.68,-1.68,-1.68
183.95,2.30,4.02,2.31,4.02,-4.02,-3.88,-2.43,-1.72,-1.72,-1.72
185.79,2.25,4.00,2.25,4.00,-4.00,-3.86,-2.41,-1.75,-1.75,-1.75
187.65,2.19,3.98,2.19,3.98,-3.97,-3.84,-2.39,-1.78,-1.78,-1.79
189.52,2.12,3.94,2.13,3.95,-3.94,-3.82,-2.38,-1.82,-1.81,-1.82
191.42,2.06,3.91,2.06,3.91,-3.90,-3.80,-2.36,-1.84,-1.84,-1.85
193.33,1.99,3.86,1.99,3.86,-3.86,-3.77,-2.35,-1.87,-1.88,-1.87
195.27,1.91,3.81,1.91,3.81,-3.82,-3.74,-2.34,-1.91,-1.91,-1.90
197.22,1.83,3.76,1.84,3.77,-3.77,-3.71,-2.33,-1.94,-1.94,-1.93
199.19,1.76,3.74,1.76,3.72,-3.72,-3.68,-2.32,-1.96,-1.96,-1.97
201.18,1.69,3.68,1.69,3.68,-3.67,-3.64,-2.32,-1.98,-1.99,-1.99
203.19,1.61,3.62,1.61,3.62,-3.62,-3.61,-2.31,-2.01,-2.01,-2.01
205.23,1.53,3.56,1.54,3.56,-3.56,-3.57,-2.31,-2.03,-2.03,-2.03
207.28,1.46,3.50,1.46,3.51,-3.51,-3.53,-2.31,-2.05,-2.05,-2.04
209.35,1.38,3.45,1.38,3.45,-3.45,-3.48,-2.30,-2.07,-2.07,-2.07
211.44,1.30,3.40,1.30,3.39,-3.39,-3.44,-2.30,-2.09,-2.09,-2.10
213.56,1.22,3.33,1.22,3.33,-3.33,-3.39,-2.30,-2.10,-2.11,-2.11
215.69,1.14,3.25,1.14,3.26,-3.26,-3.34,-2.30,-2.12,-2.12,-2.11
217.85,1.06,3.19,1.07,3.20,-3.20,-3.29,-2.30,-2.14,-2.14,-2.13
220.03,0.99,3.14,0.99,3.14,-3.14,-3.23,-2.30,-2.15,-2.14,-2.15
222.23,0.93,3.09,0.92,3.08,-3.07,-3.17,-2.30,-2.14,-2.15,-2.16
224.45,0.85,3.00,0.85,3.01,-3.01,-3.12,-2.29,-2.16,-2.15,-2.15
226.70,0.78,2.94,0.79,2.95,-2.94,-3.05,-2.29,-2.16,-2.16,-2.16
228.96,0.72,2.88,0.72,2.87,-2.88,-2.99,-2.29,-2.16,-2.16,-2.16
231.25,0.65,2.80,0.65,2.81,-2.81,-2.92,-2.28,-2.16,-2.16,-2.15
233.57,0.59,2.73,0.59,2.74,-2.75,-2.85,-2.27,-2.16,-2.15,-2.14
235.90,0.53,2.67,0.53,2.68,-2.68,-2.78,-2.26,-2.15,-2.15,-2.14
238.26,0.48,2.62,0.48,2.61,-2.61,-2.70,-2.25,-2.13,-2.13,-2.14
240.64,0.41,2.53,0.42,2.54,-2.54,-2.62,-2.24,-2.13,-2.12,-2.12
243.05,0.36,2.47,0.35,2.46,-2.46,-2.54,-2.23,-2.10,-2.11,-2.11
245.48,0.28,2.37,0.29,2.38,-2.38,-2.45,-2.21,-2.10,-2.09,-2.09
247.93,0.22,2.30,0.22,2.30,-2.29,-2.37,-2.19,-2.07,-2.07,-2.08
250.41,0.15,2.22,0.14,2.20,-2.19,-2.28,-2.17,-2.04,-2.05,-2.06
252.92,0.06,2.09,0.06,2.10,-2.09,-2.19,-2.15,-2.03,-2.03,-2.03
255.45,-0.04,1.97,-0.03,1.98,-1.98,-2.09,-2.12,-2.02,-2.01,-2.01
258.00,-0.12,1.87,-0.12,1.86,-1.87,-1.99,-2.10,-1.99,-1.99,-1.99
260.58,-0.22,1.75,-0.22,1.75,-1.75,-1.89,-2.07,-1.97,-1.97,-1.97
263.19,-0.32,1.63,-0.32,1.63,-1.63,-1.79,-2.03,-1.95,-1.95,-1.95
265.82,-0.42,1.51,-0.42,1.51,-1.51,-1.68,-2.00,-1.93,-1.93,-1.93
268.48,-0.52,1.38,-0.52,1.38,-1.39,-1.57,-1.96,-1.91,-1.90,-1.90
271.16,-0.61,1.26,-0.61,1.26,-1.27,-1.45,-1.92,-1.88,-1.88,-1.87
273.87,-0.70,1.16,-0.70,1.15,-1.16,-1.34,-1.89,-1.86,-1.86,-1.85
276.61,-0.79,1.03,-0.78,1.04,-1.05,-1.22,-1.84,-1.83,-1.83,-1.82
279.38,-0.86,0.95,-0.87,0.94,-0.94,-1.10,-1.80,-1.80,-1.80,-1.80
282.17,-0.95,0.83,-0.95,0.83,-0.83,-0.98,-1.76,-1.78,-1.78,-1.78
284.99,-1.03,0.73,-1.03,0.73,-0.73,-0.85,-1.71,-1.76,-1.75,-1.75
287.84,-1.11,0.62,-1.10,0.62,-0.62,-0.72,-1.66,-1.73,-1.73,-1.73
290.72,-1.18,0.52,-1.18,0.52,-0.52,-0.60,-1.62,-1.70,-1.70,-1.69
293.63,-1.25,0.43,-1.26,0.42,-0.41,-0.46,-1.57,-1.66,-1.67,-1.68
296.57,-1.34,0.30,-1.33,0.31,-0.31,-0.33,-1.52,-1.64,-1.64,-1.64
299.53,-1.42,0.20,-1.42,0.20,-0.20,-0.20,-1.47,-1.61,-1.61,-1.62
302.53,-1.50,0.09,-1.50,0.08,-0.09,-0.06,-1.42,-1.58,-1.58,-1.59
305.55,-1.58,-0.03,-1.58,-0.02,0.02,0.07,-1.37,-1.55,-1.55,-1.54
308.61,-1.65,-0.13,-1.65,-0.14,0.14,0.21,-1.32,-1.51,-1.52,-1.52
311.69,-1.73,-0.25,-1.73,-0.25,0.25,0.34,-1.27,-1.48,-1.48,-1.48
314.81,-1.81,-0.36,-1.81,-0.36,0.36,0.47,-1.22,-1.45,-1.45,-1.44
317.96,-1.89,-0.47,-1.89,-0.47,0.47,0.60,-1.17,-1.42,-1.42,-1.42
321.14,-1.96,-0.57,-1.96,-0.57,0.57,0.73,-1.13,-1.39,-1.39,-1.39
324.35,-2.04,-0.67,-2.04,-0.68,0.68,0.86,-1.08,-1.36,-1.36,-1.36
327.59,-2.11,-0.78,-2.11,-0.78,0.78,0.98,-1.03,-1.33,-1.33,-1.33
330.87,-2.19,-0.89,-2.19,-0.88,0.88,1.10,-0.98,-1.30,-1.30,-1.30
334.18,-2.27,-0.99,-2.26,-0.98,0.99,1.22,-0.93,-1.28,-1.27,-1.28
337.52,-2.33,-1.07,-2.34,-1.08,1.09,1.32,-0.89,-1.24,-1.25,-1.26
340.90,-2.41,-1.18,-2.41,-1.18,1.18,1.43,-0.84,-1.22,-1.23,-1.23
344.30,-2.49,-1.28,-2.48,-1.28,1.28,1.52,-0.79,-1.21,-1.21,-1.21
347.75,-2.56,-1.38,-2.56,-1.37,1.37,1.61,-0.75,-1.19,-1.19,-1.18
351.23,-2.62,-1.45,-2.62,-1.46,1.45,1.69,-0.70,-1.17,-1.17,-1.17
354.74,-2.68,-1.53,-2.68,-1.53,1.52,1.76,-0.66,-1.15,-1.15,-1.15
358.28,-2.73,-1.60,-2.72,-1.60,1.59,1.82,-0.61,-1.14,-1.13,-1.13
361.87,-2.76,-1.65,-2.76,-1.65,1.65,1.87,-0.57,-1.11,-1.11,-1.11
365.49,-2.79,-1.71,-2.79,-1.70,1.70,1.91,-0.52,-1.09,-1.09,-1.08
369.14,-2.82,-1.74,-2.81,-1.74,1.75,1.94,-0.48,-1.07,-1.07,-1.08
372.83,-2.84,-1.78,-2.84,-1.78,1.78,1.96,-0.44,-1.06,-1.05,-1.06
376.56,-2.84,-1.80,-2.85,-1.81,1.81,1.97,-0.40,-1.02,-1.03,-1.04
380.33,-2.86,-1.85,-2.85,-1.84,1.84,1.97,-0.36,-1.02,-1.01,-1.01
384.13,-2.85,-1.86,-2.85,-1.86,1.86,1.96,-0.32,-0.99,-0.99,-0.99
387.97,-2.85,-1.87,-2.85,-1.88,1.87,1.94,-0.27,-0.98,-0.98,-0.97
391.85,-2.84,-1.88,-2.83,-1.88,1.88,1.91,-0.24,-0.96,-0.95,-0.96
395.77,-2.81,-1.88,-2.81,-1.88,1.88,1.87,-0.20,-0.93,-0.93,-0.93
399.73,-2.78,-1.87,-2.78,-1.87,1.87,1.82,-0.16,-0.91,-0.91,-0.91
403.72,-2.74,-1.85,-2.74,-1.85,1.85,1.77,-0.12,-0.89,-0.89,-0.89
407.76,-2.70,-1.83,-2.69,-1.83,1.82,1.71,-0.08,-0.87,-0.87,-0.87
411.84,-2.64,-1.80,-2.64,-1.79,1.79,1.65,-0.05,-0.85,-0.85,-0.84
415.96,-2.57,-1.75,-2.57,-1.75,1.75,1.58,-0.01,-0.82,-0.83,-0.82
420.12,-2.51,-1.70,-2.50,-1.70,1.70,1.50,0.02,-0.81,-0.80,-0.80
424.32,-2.43,-1.65,-2.43,-1.65,1.65,1.43,0.06,-0.78,-0.78,-0.78
428.56,-2.35,-1.59,-2.35,-1.59,1.59,1.34,0.09,-0.75,-0.76,-0.76
432.85,-2.27,-1.53,-2.26,-1.53,1.54,1.26,0.12,-0.73,-0.73,-0.74
437.18,-2.18,-1.47,-2.18,-1.47,1.48,1.18,0.15,-0.70,-0.70,-0.71
441.55,-2.09,-1.41,-2.09,-1.41,1.41,1.09,0.18,-0.68,-0.68,-0.68
445.96,-2.01,-1.35,-2.01,-1.35,1.35,1.00,0.21,-0.66,-0.66,-0.66
450.42,-1.92,-1.28,-1.92,-1.28,1.28,0.91,0.24,-0.64,-0.64,-0.64
454.93,-1.83,-1.23,-1.82,-1.21,1.21,0.83,0.27,-0.62,-0.61,-0.60
459.48,-1.72,-1.14,-1.72,-1.14,1.14,0.74,0.29,-0.58,-0.58,-0.58
464.07,-1.62,-1.06,-1.62,-1.07,1.07,0.65,0.31,-0.55,-0.55,-0.55
468.71,-1.52,-1.00,-1.51,-0.99,0.99,0.57,0.33,-0.52,-0.52,-0.51
473.40,-1.41,-0.91,-1.41,-0.92,0.91,0.49,0.35,-0.49,-0.50,-0.50
478.13,-1.30,-0.83,-1.30,-0.84,0.83,0.41,0.37,-0.47,-0.47,-0.47
482.91,-1.19,-0.75,-1.19,-0.75,0.75,0.33,0.39,-0.44,-0.44,-0.44
487.74,-1.07,-0.66,-1.06,-0.66,0.66,0.25,0.40,-0.41,-0.41,-0.41
492.62,-0.94,-0.56,-0.94,-0.56,0.57,0.17,0.41,-0.37,-0.38,-0.38
497.55,-0.82,-0.46,-0.82,-0.47,0.47,0.10,0.42,-0.35,-0.35,-0.36
502.52,-0.71,-0.39,-0.70,-0.38,0.38,0.03,0.43,-0.33,-0.32,-0.32
507.55,-0.58,-0.28,-0.58,-0.28,0.28,-0.04,0.43,-0.30,-0.30,-0.30
