frequency,raw,error,smoothed,error_smoothed,equalization,parametric_eq,fixed_band_eq,equalized_raw,equalized_smoothed,target
20.00,-25.45,-22.76,-25.45,-22.78,6.00,5.83,2.68,-19.45,-19.45,-2.69
20.20,-25.31,-22.71,-25.31,-22.71,6.00,5.84,2.75,-19.31,-19.31,-2.60
20.40,-25.16,-22.63,-25.16,-22.65,6.00,5.86,2.83,-19.16,-19.16,-2.52
20.61,-25.02,-22.57,-25.02,-22.58,6.00,5.87,2.91,-19.02,-19.02,-2.46
20.81,-24.88,-22.51,-24.88,-22.50,6.00,5.89,3.00,-18.88,-18.88,-2.36
21.02,-24.74,-22.45,-24.74,-22.43,6.00,5.90,3.08,-18.74,-18.74,-2.29
21.23,-24.59,-22.36,-24.59,-22.35,6.00,5.91,3.17,-18.59,-18.59,-2.23
21.44,-24.45,-22.28,-24.45,-22.26,6.00,5.93,3.26,-18.45,-18.45,-2.17
21.66,-24.31,-22.20,-24.31,-22.18,6.00,5.94,3.35,-18.31,-18.31,-2.12
21.87,-24.16,-22.09,-24.16,-22.09,6.00,5.95,3.45,-18.16,-18.16,-2.07
22.09,-24.02,-22.00,-24.01,-21.99,6.00,5.96,3.55,-18.02,-18.01,-2.02
22.31,-23.87,-21.90,-23.87,-21.90,6.00,5.97,3.65,-17.87,-17.87,-1.97
22.54,-23.72,-21.79,-23.72,-21.80,6.00,5.98,3.75,-17.72,-17.72,-1.93
22.76,-23.57,-21.68,-23.58,-21.69,6.00,5.99,3.86,-17.57,-17.58,-1.89
22.99,-23.43,-21.57,-23.43,-21.58,6.00,6.00,3.97,-17.43,-17.43,-1.86
23.22,-23.28,-21.46,-23.28,-21.47,6.00,6.01,4.08,-17.28,-17.28,-1.82
23.45,-23.13,-21.35,-23.13,-21.36,6.00,6.02,4.19,-17.13,-17.13,-1.78
23.69,-22.98,-21.24,-22.98,-21.25,6.00,6.03,4.31,-16.98,-16.98,-1.74
23.92,-22.83,-21.13,-22.83,-21.13,6.00,6.04,4.43,-16.83,-16.83,-1.70
24.16,-22.68,-21.03,-22.68,-21.02,6.00,6.05,4.55,-16.68,-16.68,-1.65
24.40,-22.53,-20.91,-22.53,-20.90,6.00,6.05,4.67,-16.53,-16.53,-1.62
24.65,-22.38,-20.79,-22.37,-20.78,6.00,6.06,4.80,-16.38,-16.37,-1.59
24.89,-22.22,-20.66,-22.22,-20.66,6.00,6.07,4.92,-16.22,-16.22,-1.56
25.14,-22.07,-20.55,-22.07,-20.55,6.00,6.07,5.05,-16.07,-16.07,-1.52
25.39,-21.92,-20.43,-21.92,-20.43,6.00,6.08,5.18,-15.92,-15.92,-1.49
25.65,-21.76,-20.31,-21.76,-20.30,6.00,6.08,5.31,-15.76,-15.76,-1.45
25.91,-21.61,-20.18,-21.61,-20.18,6.00,6.08,5.44,-15.61,-15.61,-1.43
26.16,-21.45,-20.04,-21.46,-20.06,6.00,6.09,5.57,-15.45,-15.46,-1.40
26.43,-21.30,-19.94,-21.30,-19.94,6.00,6.09,5.70,-15.30,-15.30,-1.37
26.69,-21.15,-19.81,-21.15,-19.81,6.00,6.10,5.83,-15.15,-15.15,-1.34
26.96,-20.99,-19.69,-20.99,-19.69,6.00,6.10,5.96,-14.99,-14.99,-1.31
27.23,-20.84,-19.57,-20.84,-19.57,6.00,6.10,6.08,-14.84,-14.84,-1.27
27.50,-20.69,-19.45,-20.69,-19.44,6.00,6.10,6.20,-14.69,-14.69,-1.24
27.77,-20.53,-19.31,-20.53,-19.32,6.00,6.10,6.32,-14.53,-14.53,-1.22
28.05,-20.38,-19.20,-20.38,-19.19,6.00,6.10,6.44,-14.38,-14.38,-1.18
28.33,-20.23,-19.07,-20.22,-19.07,6.00,6.11,6.55,-14.23,-14.22,-1.16
28.62,-20.07,-18.94,-20.07,-18.95,6.00,6.11,6.65,-14.07,-14.07,-1.13
28.90,-19.91,-18.82,-19.91,-18.82,6.00,6.11,6.75,-13.91,-13.91,-1.09
29.19,-19.76,-18.69,-19.76,-18.70,6.00,6.11,6.84,-13.76,-13.76,-1.07
29.48,-19.60,-18.58,-19.60,-18.57,6.00,6.11,6.93,-13.60,-13.60,-1.02
29.78,-19.45,-18.45,-19.45,-18.44,6.00,6.10,7.00,-13.45,-13.45,-1.00
30.08,-19.29,-18.32,-19.30,-18.32,6.00,6.10,7.07,-13.29,-13.30,-0.98
30.38,-19.14,-18.20,-19.14,-18.19,6.00,6.10,7.13,-13.14,-13.14,-0.95
30.68,-18.98,-18.06,-18.99,-18.07,6.00,6.10,7.17,-12.98,-12.99,-0.92
30.99,-18.83,-17.93,-18.83,-17.94,6.00,6.10,7.21,-12.83,-12.83,-0.90
31.30,-18.68,-17.81,-18.68,-17.81,6.00,6.10,7.24,-12.68,-12.68,-0.87
31.61,-18.53,-17.69,-18.53,-17.68,6.00,6.09,7.26,-12.53,-12.53,-0.84
31.93,-18.38,-17.56,-18.37,-17.55,6.00,6.09,7.27,-12.38,-12.37,-0.82
32.24,-18.22,-17.41,-18.22,-17.42,6.00,6.09,7.27,-12.22,-12.22,-0.80
32.57,-18.07,-17.30,-18.06,-17.29,6.00,6.08,7.26,-12.07,-12.06,-0.78
32.89,-17.91,-17.16,-17.91,-17.16,6.00,6.08,7.24,-11.91,-11.91,-0.75
33.22,-17.76,-17.03,-17.76,-17.03,6.00,6.08,7.22,-11.76,-11.76,-0.73
33.55,-17.60,-16.89,-17.61,-16.89,6.00,6.07,7.18,-11.60,-11.61,-0.71
33.89,-17.45,-16.75,-17.45,-16.76,6.00,6.07,7.14,-11.45,-11.45,-0.70
34.23,-17.30,-16.63,-17.30,-16.62,6.00,6.06,7.10,-11.30,-11.30,-0.67
34.57,-17.15,-16.49,-17.15,-16.48,6.00,6.06,7.04,-11.15,-11.15,-0.66
34.92,-17.00,-16.35,-17.00,-16.34,6.00,6.05,6.99,-11.00,-11.00,-0.66
35.27,-16.85,-16.21,-16.85,-16.20,6.00,6.05,6.93,-10.85,-10.85,-0.64
35.62,-16.70,-16.06,-16.70,-16.07,6.00,6.04,6.87,-10.70,-10.70,-0.64
35.97,-16.55,-15.92,-16.55,-15.93,6.00,6.04,6.80,-10.55,-10.55,-0.63
36.33,-16.41,-15.79,-16.41,-15.78,6.00,6.03,6.74,-10.41,-10.41,-0.61
36.70,-16.26,-15.64,-16.26,-15.64,6.00,6.03,6.67,-10.26,-10.26,-0.62
37.06,-16.12,-15.50,-16.12,-15.50,6.00,6.02,6.60,-10.12,-10.12,-0.62
37.43,-15.98,-15.37,-15.98,-15.36,6.00,6.02,6.53,-9.98,-9.98,-0.61
37.81,-15.84,-15.23,-15.84,-15.22,6.00,6.01,6.47,-9.84,-9.84,-0.61
38.19,-15.70,-15.08,-15.70,-15.09,6.00,6.00,6.40,-9.70,-9.70,-0.62
38.57,-15.56,-14.95,-15.56,-14.95,6.00,6.00,6.34,-9.56,-9.56,-0.61
38.95,-15.43,-14.82,-15.43,-14.81,6.00,5.99,6.28,-9.43,-9.43,-0.61
39.34,-15.30,-14.67,-15.30,-14.68,6.00,5.99,6.22,-9.30,-9.30,-0.63
39.74,-15.17,-14.54,-15.17,-14.55,6.00,5.98,6.16,-9.17,-9.17,-0.63
40.14,-15.04,-14.41,-15.04,-14.42,6.00,5.97,6.11,-9.04,-9.04,-0.63
40.54,-14.92,-14.29,-14.92,-14.29,6.00,5.97,6.06,-8.92,-8.92,-0.64
40.94,-14.80,-14.16,-14.80,-14.16,6.00,5.96,6.01,-8.80,-8.80,-0.64
41.35,-14.68,-14.04,-14.68,-14.04,6.00,5.95,5.97,-8.68,-8.68,-0.64
41.76,-14.57,-13.92,-14.56,-13.91,6.00,5.95,5.93,-8.57,-8.56,-0.65
42.18,-14.45,-13.80,-14.45,-13.79,6.00,5.94,5.90,-8.45,-8.45,-0.65
42.60,-14.34,-13.67,-14.34,-13.68,6.00,5.94,5.87,-8.34,-8.34,-0.66
43.03,-14.23,-13.57,-14.23,-13.56,6.00,5.93,5.84,-8.23,-8.23,-0.66
43.46,-14.13,-13.46,-14.13,-13.45,6.00,5.93,5.82,-8.13,-8.13,-0.67
43.90,-14.02,-13.33,-14.03,-13.34,6.00,5.92,5.81,-8.02,-8.03,-0.69
44.33,-13.93,-13.23,-13.93,-13.24,6.00,5.91,5.79,-7.93,-7.93,-0.70
44.78,-13.84,-13.13,-13.84,-13.13,6.00,5.91,5.79,-7.84,-7.84,-0.71
45.23,-13.74,-13.02,-13.74,-13.03,6.00,5.90,5.78,-7.74,-7.74,-0.72
45.68,-13.65,-12.92,-13.65,-12.93,6.00,5.90,5.78,-7.65,-7.65,-0.73
46.13,-13.56,-12.83,-13.56,-12.84,6.00,5.89,5.79,-7.56,-7.56,-0.73
46.60,-13.48,-12.75,-13.48,-12.75,6.00,5.89,5.80,-7.48,-7.48,-0.73
47.06,-13.39,-12.66,-13.39,-12.66,6.00,5.89,5.81,-7.39,-7.39,-0.73
47.53,-13.31,-12.57,-13.31,-12.57,6.00,5.88,5.82,-7.31,-7.31,-0.74
48.01,-13.23,-12.49,-13.23,-12.48,6.00,5.88,5.85,-7.23,-7.23,-0.74
48.49,-13.15,-12.41,-13.15,-12.40,6.00,5.87,5.87,-7.15,-7.15,-0.74
48.97,-13.06,-12.31,-13.07,-12.31,6.00,5.87,5.90,-7.06,-7.07,-0.75
49.46,-12.98,-12.21,-12.98,-12.23,6.00,5.87,5.93,-6.98,-6.98,-0.77
49.96,-12.90,-12.13,-12.90,-12.15,6.00,5.87,5.96,-6.90,-6.90,-0.77
50.46,-12.82,-12.06,-12.82,-12.06,6.00,5.86,6.00,-6.82,-6.82,-0.76
50.96,-12.75,-12.00,-12.73,-11.98,6.00,5.86,6.04,-6.75,-6.73,-0.75
51.47,-12.65,-11.89,-12.64,-11.89,6.00,5.86,6.08,-6.65,-6.64,-0.76
51.99,-12.55,-11.79,-12.55,-11.80,6.00,5.86,6.12,-6.55,-6.55,-0.76
52.51,-12.46,-11.72,-12.46,-11.71,6.00,5.86,6.17,-6.46,-6.46,-0.75
53.03,-12.36,-11.62,-12.36,-11.61,6.00,5.86,6.22,-6.36,-6.36,-0.74
53.56,-12.27,-11.53,-12.27,-11.51,6.00,5.86,6.26,-6.27,-6.27,-0.74
54.10,-12.17,-11.43,-12.17,-11.42,6.00,5.86,6.31,-6.17,-6.17,-0.74
54.64,-12.07,-11.32,-12.07,-11.31,6.00,5.86,6.35,-6.07,-6.07,-0.75
55.18,-11.96,-11.21,-11.96,-11.21,6.00,5.87,6.40,-5.96,-5.96,-0.75
55.74,-11.86,-11.10,-11.86,-11.10,6.00,5.87,6.44,-5.86,-5.86,-0.77
56.29,-11.75,-10.98,-11.75,-10.98,6.00,5.87,6.48,-5.75,-5.75,-0.77
56.86,-11.65,-10.87,-11.64,-10.87,6.00,5.88,6.52,-5.65,-5.64,-0.78
57.42,-11.53,-10.74,-11.53,-10.75,6.00,5.88,6.56,-5.53,-5.53,-0.79
58.00,-11.42,-10.63,-11.42,-10.63,6.00,5.89,6.59,-5.42,-5.42,-0.79
58.58,-11.31,-10.51,-11.31,-10.50,6.00,5.89,6.62,-5.31,-5.31,-0.81
59.16,-11.20,-10.39,-11.19,-10.37,6.00,5.90,6.64,-5.20,-5.19,-0.81
59.76,-11.08,-10.26,-11.08,-10.24,6.00,5.91,6.66,-5.08,-5.08,-0.82
60.35,-10.96,-10.11,-10.96,-10.11,6.00,5.91,6.67,-4.96,-4.96,-0.85
60.96,-10.85,-10.00,-10.85,-9.98,6.00,5.92,6.68,-4.85,-4.85,-0.85
61.57,-10.73,-9.85,-10.74,-9.85,6.00,5.93,6.68,-4.73,-4.74,-0.89
62.18,-10.62,-9.71,-10.62,-9.72,6.00,5.94,6.68,-4.62,-4.62,-0.91
62.80,-10.51,-9.59,-10.51,-9.59,6.00,5.95,6.66,-4.51,-4.51,-0.92
63.43,-10.39,-9.45,-10.40,-9.47,6.00,5.96,6.65,-4.39,-4.40,-0.94
64.07,-10.28,-9.33,-10.28,-9.35,6.00,5.97,6.62,-4.28,-4.28,-0.95
64.71,-10.18,-9.22,-10.17,-9.23,6.00,5.99,6.59,-4.18,-4.17,-0.96
65.35,-10.07,-9.10,-10.07,-9.11,6.00,6.00,6.55,-4.07,-4.07,-0.97
66.01,-9.96,-9.00,-9.96,-9.00,6.00,6.01,6.51,-3.96,-3.96,-0.96
66.67,-9.85,-8.89,-9.86,-8.89,6.00,6.02,6.46,-3.85,-3.86,-0.96
67.33,-9.75,-8.79,-9.76,-8.79,6.00,6.04,6.41,-3.75,-3.76,-0.96
68.01,-9.66,-8.70,-9.66,-8.69,6.00,6.05,6.35,-3.66,-3.66,-0.96
68.69,-9.56,-8.60,-9.56,-8.60,6.00,6.06,6.29,-3.56,-3.56,-0.96
69.37,-9.46,-8.50,-9.46,-8.51,6.00,6.07,6.23,-3.46,-3.46,-0.95
70.07,-9.37,-8.41,-9.37,-8.42,6.00,6.09,6.16,-3.37,-3.37,-0.96
70.77,-9.28,-8.34,-9.28,-8.33,6.00,6.10,6.09,-3.28,-3.28,-0.94
71.48,-9.19,-8.25,-9.19,-8.24,6.00,6.11,6.02,-3.19,-3.19,-0.94
72.19,-9.11,-8.16,-9.11,-8.16,6.00,6.12,5.95,-3.11,-3.11,-0.95
72.91,-9.03,-8.09,-9.03,-8.08,6.00,6.13,5.87,-3.03,-3.03,-0.94
73.64,-8.94,-7.99,-8.95,-8.00,6.00,6.14,5.80,-2.94,-2.95,-0.94
74.38,-8.86,-7.92,-8.87,-7.92,6.00,6.15,5.72,-2.86,-2.87,-0.94
75.12,-8.79,-7.84,-8.79,-7.85,6.00,6.15,5.65,-2.79,-2.79,-0.95
75.87,-8.71,-7.77,-8.71,-7.77,6.00,6.16,5.58,-2.71,-2.71,-0.94
76.63,-8.64,-7.70,-8.64,-7.69,6.00,6.16,5.51,-2.64,-2.64,-0.94
77.40,-8.57,-7.62,-8.57,-7.62,6.00,6.16,5.44,-2.57,-2.57,-0.95
78.17,-8.50,-7.54,-8.49,-7.55,6.00,6.16,5.37,-2.50,-2.49,-0.96
78.95,-8.43,-7.49,-8.42,-7.48,6.00,6.16,5.31,-2.43,-2.42,-0.93
79.74,-8.36,-7.43,-8.35,-7.42,6.00,6.15,5.25,-2.36,-2.35,-0.93
80.54,-8.28,-7.35,-8.28,-7.35,6.00,6.15,5.19,-2.28,-2.28,-0.93
81.35,-8.21,-7.28,-8.21,-7.29,6.00,6.14,5.13,-2.21,-2.21,-0.93
82.16,-8.14,-7.22,-8.14,-7.23,6.00,6.12,5.08,-2.14,-2.14,-0.92
82.98,-8.06,-7.16,-8.07,-7.17,6.00,6.11,5.03,-2.06,-2.07,-0.90
83.81,-7.99,-7.10,-8.00,-7.11,6.00,6.09,4.98,-1.99,-2.00,-0.89
84.65,-7.93,-7.05,-7.93,-7.06,6.00,6.07,4.93,-1.93,-1.93,-0.88
85.50,-7.87,-7.01,-7.86,-7.00,6.00,6.05,4.89,-1.87,-1.86,-0.86
86.35,-7.80,-6.96,-7.79,-6.95,6.00,6.02,4.86,-1.80,-1.79,-0.84
87.22,-7.73,-6.89,-7.73,-6.89,6.00,6.00,4.82,-1.73,-1.73,-0.84
88.09,-7.66,-6.84,-7.66,-6.84,6.00,5.97,4.79,-1.66,-1.66,-0.82
88.97,-7.59,-6.78,-7.60,-6.78,6.00,5.94,4.77,-1.59,-1.60,-0.81
89.86,-7.53,-6.73,-7.54,-6.73,6.00,5.90,4.75,-1.53,-1.54,-0.80
90.76,-7.47,-6.66,-7.47,-6.67,6.00,5.87,4.73,-1.47,-1.47,-0.81
91.66,-7.42,-6.62,-7.42,-6.61,6.00,5.83,4.71,-1.42,-1.42,-0.80
92.58,-7.36,-6.54,-7.36,-6.54,6.00,5.80,4.70,-1.36,-1.36,-0.82
93.51,-7.30,-6.48,-7.30,-6.47,6.00,5.76,4.69,-1.30,-1.30,-0.82
94.44,-7.25,-6.41,-7.25,-6.40,6.00,5.72,4.69,-1.25,-1.25,-0.84
95.39,-7.20,-6.35,-7.20,-6.33,6.00,5.68,4.68,-1.20,-1.20,-0.85
96.34,-7.14,-6.26,-7.15,-6.26,6.00,5.64,4.69,-1.14,-1.15,-0.88
97.30,-7.09,-6.17,-7.10,-6.18,5.99,5.60,4.69,-1.10,-1.11,-0.92
98.28,-7.05,-6.10,-7.06,-6.10,5.97,5.56,4.70,-1.08,-1.09,-0.95
99.26,-7.02,-6.03,-7.01,-6.02,5.93,5.52,4.71,-1.09,-1.08,-0.99
100.25,-6.97,-5.94,-6.97,-5.94,5.88,5.48,4.72,-1.09,-1.08,-1.03
101.25,-6.92,-5.85,-6.92,-5.86,5.83,5.44,4.73,-1.09,-1.10,-1.07
102.27,-6.87,-5.76,-6.88,-5.78,5.76,5.40,4.75,-1.11,-1.12,-1.11
103.29,-6.85,-5.70,-6.85,-5.70,5.70,5.36,4.77,-1.15,-1.15,-1.15
104.32,-6.83,-5.65,-6.81,-5.62,5.62,5.32,4.79,-1.21,-1.19,-1.18
105.37,-6.78,-5.55,-6.77,-5.54,5.54,5.28,4.81,-1.24,-1.23,-1.23
106.42,-6.73,-5.46,-6.73,-5.46,5.46,5.24,4.83,-1.27,-1.27,-1.27
107.48,-6.68,-5.37,-6.70,-5.39,5.39,5.20,4.85,-1.29,-1.31,-1.31
108.56,-6.65,-5.30,-6.66,-5.31,5.31,5.16,4.87,-1.34,-1.35,-1.35
109.64,-6.63,-5.24,-6.62,-5.23,5.23,5.13,4.90,-1.40,-1.39,-1.39
110.74,-6.60,-5.18,-6.58,-5.16,5.16,5.09,4.92,-1.44,-1.42,-1.42
111.85,-6.56,-5.11,-6.55,-5.09,5.09,5.05,4.94,-1.47,-1.46,-1.45
112.97,-6.52,-5.02,-6.51,-5.02,5.02,5.02,4.96,-1.50,-1.49,-1.50
114.10,-6.48,-4.96,-6.48,-4.96,4.96,4.98,4.98,-1.52,-1.52,-1.52
115.24,-6.43,-4.88,-6.44,-4.89,4.89,4.95,5.00,-1.54,-1.55,-1.55
116.39,-6.40,-4.82,-6.41,-4.84,4.84,4.92,5.01,-1.56,-1.57,-1.58
117.55,-6.37,-4.77,-6.38,-4.78,4.78,4.88,5.02,-1.59,-1.59,-1.60
118.73,-6.34,-4.71,-6.35,-4.73,4.73,4.85,5.03,-1.61,-1.61,-1.63
119.92,-6.30,-4.67,-6.32,-4.68,4.68,4.82,5.04,-1.62,-1.63,-1.63
121.12,-6.28,-4.63,-6.29,-4.64,4.64,4.79,5.04,-1.64,-1.65,-1.65
122.33,-6.26,-4.59,-6.26,-4.59,4.59,4.76,5.04,-1.67,-1.67,-1.67
123.55,-6.24,-4.57,-6.23,-4.55,4.55,4.73,5.03,-1.69,-1.68,-1.67
124.79,-6.21,-4.52,-6.21,-4.51,4.51,4.70,5.02,-1.70,-1.69,-1.69
126.03,-6.18,-4.49,-6.18,-4.48,4.48,4.68,5.01,-1.70,-1.70,-1.69
127.29,-6.16,-4.45,-6.16,-4.44,4.44,4.65,4.99,-1.72,-1.71,-1.71
128.57,-6.13,-4.40,-6.13,-4.40,4.40,4.62,4.97,-1.73,-1.73,-1.73
129.85,-6.10,-4.36,-6.10,-4.36,4.36,4.59,4.94,-1.74,-1.74,-1.74
131.15,-6.08,-4.33,-6.08,-4.32,4.32,4.57,4.91,-1.76,-1.75,-1.75
132.46,-6.07,-4.30,-6.05,-4.28,4.28,4.54,4.88,-1.79,-1.77,-1.77
133.79,-6.04,-4.27,-6.02,-4.24,4.24,4.52,4.84,-1.80,-1.78,-1.77
135.12,-5.99,-4.19,-5.99,-4.19,4.19,4.49,4.81,-1.80,-1.80,-1.80
136.48,-5.97,-4.16,-5.96,-4.15,4.15,4.47,4.76,-1.82,-1.81,-1.81
137.84,-5.93,-4.10,-5.93,-4.10,4.10,4.45,4.72,-1.83,-1.83,-1.83
139.22,-5.91,-4.05,-5.91,-4.06,4.06,4.42,4.68,-1.85,-1.85,-1.86
140.61,-5.88,-4.00,-5.89,-4.02,4.02,4.40,4.63,-1.86,-1.87,-1.88
142.02,-5.85,-3.97,-5.87,-3.99,3.99,4.38,4.58,-1.86,-1.89,-1.88
143.44,-5.84,-3.94,-5.86,-3.95,3.95,4.35,4.53,-1.89,-1.91,-1.90
144.87,-5.82,-3.89,-5.84,-3.92,3.92,4.33,4.48,-1.90,-1.93,-1.93
146.32,-5.81,-3.85,-5.83,-3.88,3.88,4.31,4.43,-1.93,-1.95,-1.96
147.78,-5.82,-3.85,-5.83,-3.85,3.85,4.29,4.38,-1.97,-1.98,-1.97
149.26,-5.83,-3.83,-5.83,-3.82,3.82,4.27,4.33,-2.01,-2.00,-2.00
150.75,-5.84,-3.81,-5.83,-3.80,3.80,4.25,4.28,-2.04,-2.03,-2.03
152.26,-5.84,-3.78,-5.83,-3.77,3.77,4.23,4.24,-2.07,-2.06,-2.06
153.78,-5.84,-3.76,-5.83,-3.74,3.74,4.21,4.19,-2.10,-2.09,-2.08
155.32,-5.84,-3.73,-5.83,-3.72,3.72,4.19,4.15,-2.12,-2.12,-2.11
156.88,-5.84,-3.70,-5.83,-3.69,3.69,4.17,4.10,-2.15,-2.15,-2.14
158.44,-5.84,-3.66,-5.83,-3.65,3.65,4.15,4.06,-2.19,-2.18,-2.18
160.03,-5.84,-3.63,-5.83,-3.62,3.62,4.13,4.02,-2.22,-2.21,-2.21
161.63,-5.84,-3.59,-5.83,-3.59,3.59,4.11,3.99,-2.25,-2.24,-2.25
163.24,-5.84,-3.56,-5.83,-3.55,3.55,4.09,3.95,-2.29,-2.28,-2.28
164.88,-5.84,-3.53,-5.83,-3.52,3.52,4.07,3.92,-2.32,-2.31,-2.31
166.53,-5.83,-3.49,-5.82,-3.48,3.48,4.05,3.89,-2.35,-2.34,-2.34
168.19,-5.82,-3.45,-5.82,-3.45,3.45,4.03,3.86,-2.37,-2.37,-2.37
169.87,-5.82,-3.42,-5.83,-3.43,3.43,4.01,3.84,-2.39,-2.40,-2.40
171.57,-5.82,-3.40,-5.83,-3.41,3.41,4.00,3.82,-2.41,-2.43,-2.42
173.29,-5.82,-3.37,-5.84,-3.39,3.39,3.98,3.80,-2.43,-2.45,-2.45
175.02,-5.84,-3.36,-5.86,-3.38,3.38,3.96,3.79,-2.46,-2.48,-2.48
176.77,-5.86,-3.36,-5.88,-3.37,3.37,3.94,3.77,-2.49,-2.50,-2.50
178.54,-5.88,-3.35,-5.90,-3.38,3.38,3.92,3.76,-2.50,-2.52,-2.53
180.32,-5.91,-3.37,-5.92,-3.38,3.38,3.91,3.76,-2.53,-2.54,-2.55
182.13,-5.94,-3.38,-5.95,-3.39,3.39,3.89,3.75,-2.55,-2.56,-2.56
183.95,-5.98,-3.41,-5.98,-3.41,3.41,3.87,3.75,-2.57,-2.57,-2.57
185.79,-6.02,-3.43,-6.01,-3.42,3.42,3.85,3.75,-2.60,-2.58,-2.59
187.65,-6.04,-3.44,-6.04,-3.44,3.44,3.83,3.76,-2.60,-2.60,-2.60
189.52,-6.07,-3.47,-6.07,-3.46,3.46,3.81,3.76,-2.61,-2.61,-2.60
191.42,-6.10,-3.48,-6.09,-3.48,3.48,3.80,3.77,-2.62,-2.62,-2.62
193.33,-6.13,-3.51,-6.12,-3.49,3.49,3.78,3.79,-2.64,-2.62,-2.62
195.27,-6.15,-3.53,-6.13,-3.50,3.50,3.76,3.80,-2.65,-2.63,-2.62
197.22,-6.17,-3.54,-6.15,-3.51,3.51,3.74,3.82,-2.66,-2.64,-2.63
199.19,-6.18,-3.53,-6.16,-3.52,3.52,3.72,3.83,-2.66,-2.64,-2.65
201.18,-6.18,-3.53,-6.17,-3.52,3.52,3.71,3.85,-2.66,-2.65,-2.65
203.19,-6.18,-3.53,-6.17,-3.52,3.52,3.69,3.87,-2.66,-2.66,-2.65
205.23,-6.17,-3.51,-6.17,-3.51,3.51,3.67,3.90,-2.66,-2.66,-2.66
207.28,-6.16,-3.50,-6.17,-3.51,3.51,3.65,3.92,-2.65,-2.67,-2.66
209.35,-6.16,-3.49,-6.17,-3.50,3.50,3.63,3.94,-2.66,-2.68,-2.67
211.44,-6.16,-3.47,-6.17,-3.49,3.49,3.61,3.97,-2.67,-2.68,-2.69
213.56,-6.16,-3.47,-6.17,-3.48,3.48,3.59,3.99,-2.68,-2.69,-2.69
215.69,-6.16,-3.47,-6.16,-3.47,3.47,3.57,4.01,-2.69,-2.70,-2.69
217.85,-6.16,-3.45,-6.16,-3.46,3.46,3.56,4.04,-2.70,-2.70,-2.71
220.03,-6.16,-3.45,-6.16,-3.45,3.45,3.54,4.06,-2.71,-2.71,-2.71
222.23,-6.16,-3.43,-6.16,-3.44,3.44,3.52,4.08,-2.72,-2.72,-2.73
224.45,-6.16,-3.43,-6.16,-3.43,3.43,3.50,4.10,-2.73,-2.73,-2.73
226.70,-6.16,-3.43,-6.16,-3.42,3.42,3.48,4.12,-2.74,-2.74,-2.73
228.96,-6.16,-3.42,-6.16,-3.41,3.41,3.46,4.13,-2.75,-2.75,-2.74
231.25,-6.16,-3.41,-6.16,-3.40,3.40,3.44,4.14,-2.76,-2.76,-2.75
233.57,-6.16,-3.40,-6.16,-3.39,3.39,3.42,4.15,-2.77,-2.77,-2.76
235.90,-6.16,-3.38,-6.16,-3.38,3.38,3.40,4.15,-2.78,-2.78,-2.78
238.26,-6.16,-3.36,-6.16,-3.37,3.37,3.37,4.16,-2.79,-2.79,-2.80
240.64,-6.16,-3.35,-6.16,-3.36,3.36,3.35,4.15,-2.80,-2.80,-2.81
243.05,-6.16,-3.34,-6.16,-3.35,3.35,3.33,4.14,-2.81,-2.81,-2.82
245.48,-6.16,-3.34,-6.16,-3.34,3.34,3.31,4.13,-2.82,-2.82,-2.82
247.93,-6.16,-3.33,-6.16,-3.34,3.34,3.29,4.11,-2.82,-2.82,-2.83
250.41,-6.16,-3.32,-6.16,-3.34,3.34,3.27,4.09,-2.82,-2.82,-2.84
252.92,-6.16,-3.33,-6.16,-3.34,3.34,3.24,4.06,-2.82,-2.82,-2.83
255.45,-6.16,-3.34,-6.16,-3.34,3.34,3.22,4.03,-2.82,-2.82,-2.82
258.00,-6.16,-3.35,-6.16,-3.35,3.35,3.20,3.99,-2.81,-2.81,-2.81
260.58,-6.16,-3.35,-6.16,-3.36,3.36,3.17,3.94,-2.80,-2.80,-2.81
263.19,-6.16,-3.37,-6.16,-3.37,3.37,3.15,3.90,-2.79,-2.79,-2.79
265.82,-6.16,-3.37,-6.16,-3.38,3.38,3.13,3.84,-2.78,-2.78,-2.79
268.48,-6.16,-3.40,-6.16,-3.39,3.39,3.10,3.79,-2.77,-2.76,-2.76
271.16,-6.16,-3.42,-6.16,-3.41,3.41,3.08,3.73,-2.75,-2.75,-2.74
273.87,-6.16,-3.43,-6.16,-3.43,3.43,3.05,3.66,-2.73,-2.73,-2.73
276.61,-6.16,-3.46,-6.16,-3.45,3.45,3.02,3.60,-2.71,-2.71,-2.70
279.38,-6.16,-3.47,-6.16,-3.47,3.47,3.00,3.53,-2.69,-2.70,-2.69
282.17,-6.16,-3.48,-6.16,-3.49,3.49,2.97,3.45,-2.67,-2.68,-2.68
284.99,-6.16,-3.50,-6.17,-3.51,3.51,2.94,3.38,-2.65,-2.66,-2.66
287.84,-6.16,-3.52,-6.17,-3.53,3.53,2.92,3.30,-2.63,-2.64,-2.64
290.72,-6.16,-3.55,-6.17,-3.55,3.55,2.89,3.22,-2.61,-2.62,-2.61
293.63,-6.16,-3.55,-6.17,-3.57,3.57,2.86,3.14,-2.59,-2.60,-2.61
296.57,-6.17,-3.59,-6.18,-3.60,3.60,2.83,3.06,-2.57,-2.58,-2.58
299.53,-6.18,-3.62,-6.18,-3.62,3.62,2.80,2.98,-2.56,-2.56,-2.56
302.53,-6.19,-3.64,-6.18,-3.64,3.64,2.77,2.90,-2.55,-2.54,-2.55
305.55,-6.18,-3.66,-6.17,-3.66,3.66,2.74,2.82,-2.52,-2.52,-2.52
308.61,-6.17,-3.67,-6.16,-3.67,3.67,2.71,2.73,-2.50,-2.49,-2.50
311.69,-6.16,-3.69,-6.15,-3.68,3.68,2.68,2.65,-2.48,-2.47,-2.47
314.81,-6.14,-3.71,-6.14,-3.69,3.69,2.64,2.57,-2.45,-2.45,-2.43
317.96,-6.12,-3.71,-6.12,-3.70,3.70,2.61,2.49,-2.42,-2.42,-2.41
321.14,-6.11,-3.71,-6.10,-3.70,3.70,2.58,2.41,-2.41,-2.40,-2.40
324.35,-6.08,-3.70,-6.07,-3.69,3.69,2.54,2.33,-2.39,-2.38,-2.38
327.59,-6.04,-3.69,-6.03,-3.68,3.68,2.50,2.25,-2.36,-2.35,-2.35
330.87,-5.99,-3.66,-6.00,-3.67,3.67,2.47,2.17,-2.32,-2.33,-2.33
334.18,-5.95,-3.65,-5.95,-3.65,3.65,2.43,2.10,-2.30,-2.30,-2.30
337.52,-5.90,-3.62,-5.91,-3.63,3.63,2.39,2.02,-2.27,-2.28,-2.28
340.90,-5.85,-3.59,-5.86,-3.61,3.61,2.35,1.95,-2.24,-2.25,-2.26
344.30,-5.79,-3.56,-5.81,-3.58,3.58,2.31,1.88,-2.21,-2.23,-2.23
347.75,-5.73,-3.52,-5.75,-3.54,3.54,2.27,1.80,-2.19,-2.21,-2.21
351.23,-5.67,-3.49,-5.68,-3.50,3.50,2.23,1.73,-2.17,-2.18,-2.18
354.74,-5.61,-3.46,-5.61,-3.45,3.45,2.19,1.67,-2.16,-2.16,-2.15
358.28,-5.54,-3.41,-5.53,-3.40,3.40,2.15,1.60,-2.14,-2.13,-2.13
361.87,-5.46,-3.36,-5.44,-3.34,3.34,2.10,1.53,-2.12,-2.10,-2.10
365.49,-5.37,-3.30,-5.35,-3.27,3.27,2.06,1.47,-2.10,-2.08,-2.07
369.14,-5.27,-3.20,-5.25,-3.20,3.20,2.01,1.40,-2.07,-2.06,-2.07
372.83,-5.17,-3.13,-5.14,-3.11,3.11,1.96,1.34,-2.06,-2.03,-2.04
376.56,-5.04,-3.02,-5.03,-3.02,3.02,1.92,1.28,-2.02,-2.01,-2.02
380.33,-4.90,-2.92,-4.91,-2.92,2.92,1.87,1.22,-1.98,-1.99,-1.98
384.13,-4.78,-2.81,-4.78,-2.81,2.81,1.82,1.16,-1.97,-1.97,-1.97
387.97,-4.65,-2.70,-4.65,-2.70,2.70,1.76,1.10,-1.95,-1.95,-1.95
391.85,-4.51,-2.57,-4.51,-2.57,2.57,1.71,1.05,-1.94,-1.94,-1.94
395.77,-4.37,-2.46,-4.37,-2.45,2.45,1.66,0.99,-1.92,-1.92,-1.91
399.73,-4.22,-2.32,-4.23,-2.32,2.32,1.60,0.94,-1.90,-1.91,-1.90
403.72,-4.08,-2.18,-4.09,-2.18,2.18,1.54,0.88,-1.90,-1.90,-1.90
