frequency,raw,error,smoothed,error_smoothed,equalization,parametric_eq,fixed_band_eq,equalized_raw,equalized_smoothed,target
20.00,-10.39,-7.82,-10.39,-7.82,6.00,5.66,1.54,-4.39,-4.39,-2.57
20.20,-10.23,-7.75,-10.23,-7.74,6.00,5.61,1.59,-4.23,-4.23,-2.49
20.40,-10.07,-7.67,-10.07,-7.66,6.00,5.57,1.63,-4.07,-4.07,-2.40
20.61,-9.91,-7.58,-9.91,-7.58,6.00,5.52,1.69,-3.91,-3.91,-2.34
20.81,-9.75,-7.50,-9.75,-7.50,6.00,5.48,1.74,-3.75,-3.75,-2.24
21.02,-9.59,-7.43,-9.59,-7.42,6.00,5.43,1.79,-3.59,-3.59,-2.17
21.23,-9.44,-7.34,-9.44,-7.33,6.00,5.39,1.85,-3.44,-3.44,-2.11
21.44,-9.28,-7.23,-9.28,-7.23,6.00,5.34,1.90,-3.28,-3.28,-2.05
21.66,-9.12,-7.13,-9.12,-7.13,6.00,5.29,1.96,-3.12,-3.12,-2.00
21.87,-8.96,-7.01,-8.96,-7.02,6.00,5.24,2.02,-2.96,-2.96,-1.95
22.09,-8.80,-6.90,-8.80,-6.90,6.00,5.19,2.08,-2.80,-2.80,-1.90
22.31,-8.64,-6.79,-8.64,-6.79,6.00,5.14,2.15,-2.63,-2.64,-1.85
22.54,-8.48,-6.68,-8.48,-6.67,6.01,5.09,2.21,-2.47,-2.47,-1.81
22.76,-8.32,-6.55,-8.32,-6.55,6.02,5.03,2.28,-2.30,-2.30,-1.77
22.99,-8.16,-6.42,-8.16,-6.43,6.02,4.98,2.35,-2.14,-2.14,-1.74
23.22,-8.00,-6.30,-8.00,-6.30,6.01,4.93,2.42,-1.99,-1.99,-1.70
23.45,-7.83,-6.17,-7.84,-6.17,5.99,4.87,2.49,-1.85,-1.85,-1.66
23.69,-7.67,-6.05,-7.67,-6.05,5.94,4.81,2.56,-1.73,-1.73,-1.62
23.92,-7.51,-5.93,-7.51,-5.93,5.88,4.76,2.64,-1.63,-1.63,-1.58
24.16,-7.35,-5.82,-7.35,-5.81,5.80,4.70,2.71,-1.55,-1.55,-1.53
24.40,-7.19,-5.69,-7.19,-5.69,5.70,4.64,2.79,-1.49,-1.49,-1.50
24.65,-7.03,-5.56,-7.03,-5.56,5.58,4.58,2.86,-1.45,-1.45,-1.47
24.89,-6.87,-5.43,-6.87,-5.43,5.45,4.52,2.94,-1.41,-1.41,-1.44
25.14,-6.71,-5.31,-6.71,-5.31,5.32,4.46,3.02,-1.39,-1.39,-1.40
25.39,-6.55,-5.18,-6.55,-5.18,5.18,4.40,3.10,-1.37,-1.37,-1.37
25.65,-6.39,-5.06,-6.39,-5.05,5.05,4.33,3.18,-1.34,-1.34,-1.33
25.91,-6.23,-4.92,-6.23,-4.92,4.92,4.27,3.25,-1.31,-1.31,-1.31
26.16,-6.07,-4.79,-6.07,-4.79,4.79,4.20,3.33,-1.27,-1.28,-1.28
26.43,-5.91,-4.67,-5.91,-4.66,4.67,4.14,3.41,-1.25,-1.24,-1.25
26.69,-5.75,-4.54,-5.76,-4.54,4.54,4.07,3.48,-1.21,-1.21,-1.22
26.96,-5.60,-4.42,-5.60,-4.42,4.41,4.00,3.55,-1.19,-1.18,-1.19
27.23,-5.44,-4.30,-5.44,-4.29,4.29,3.93,3.62,-1.16,-1.15,-1.15
27.50,-5.28,-4.16,-5.29,-4.16,4.16,3.86,3.69,-1.12,-1.12,-1.12
27.77,-5.13,-4.03,-5.13,-4.04,4.03,3.79,3.75,-1.10,-1.09,-1.10
28.05,-4.97,-3.91,-4.97,-3.91,3.91,3.72,3.81,-1.06,-1.07,-1.06
28.33,-4.82,-3.78,-4.82,-3.78,3.78,3.65,3.86,-1.04,-1.04,-1.04
28.62,-4.66,-3.65,-4.66,-3.65,3.65,3.57,3.91,-1.01,-1.01,-1.01
28.90,-4.50,-3.53,-4.51,-3.53,3.53,3.50,3.95,-0.97,-0.97,-0.97
29.19,-4.35,-3.40,-4.35,-3.41,3.41,3.42,3.99,-0.94,-0.94,-0.95
29.48,-4.20,-3.30,-4.20,-3.29,3.29,3.34,4.02,-0.91,-0.91,-0.90
29.78,-4.05,-3.17,-4.06,-3.17,3.17,3.27,4.04,-0.88,-0.88,-0.88
30.08,-3.91,-3.06,-3.91,-3.06,3.06,3.19,4.06,-0.85,-0.85,-0.86
30.38,-3.77,-2.95,-3.77,-2.94,2.95,3.11,4.07,-0.83,-0.83,-0.83
30.68,-3.63,-2.83,-3.64,-2.83,2.83,3.02,4.06,-0.80,-0.80,-0.80
30.99,-3.50,-2.72,-3.50,-2.72,2.72,2.94,4.05,-0.78,-0.78,-0.78
31.30,-3.36,-2.61,-3.36,-2.61,2.61,2.86,4.03,-0.75,-0.75,-0.75
31.61,-3.22,-2.50,-3.22,-2.50,2.50,2.77,4.00,-0.73,-0.73,-0.72
31.93,-3.08,-2.38,-3.09,-2.38,2.38,2.69,3.97,-0.70,-0.70,-0.70
32.24,-2.95,-2.27,-2.95,-2.27,2.27,2.60,3.92,-0.68,-0.68,-0.68
32.57,-2.81,-2.16,-2.81,-2.15,2.16,2.51,3.86,-0.66,-0.65,-0.66
32.89,-2.67,-2.04,-2.67,-2.04,2.04,2.42,3.80,-0.63,-0.63,-0.63
33.22,-2.54,-1.93,-2.54,-1.93,1.93,2.33,3.73,-0.61,-0.61,-0.61
33.55,-2.41,-1.82,-2.41,-1.82,1.82,2.24,3.66,-0.59,-0.59,-0.59
33.89,-2.28,-1.70,-2.28,-1.71,1.71,2.15,3.57,-0.57,-0.57,-0.58
34.23,-2.15,-1.60,-2.16,-1.59,1.59,2.05,3.48,-0.56,-0.56,-0.55
34.57,-2.03,-1.49,-2.03,-1.48,1.48,1.96,3.38,-0.55,-0.55,-0.55
34.92,-1.90,-1.37,-1.90,-1.37,1.37,1.86,3.28,-0.54,-0.54,-0.54
35.27,-1.77,-1.25,-1.78,-1.25,1.25,1.76,3.17,-0.52,-0.53,-0.52
35.62,-1.65,-1.13,-1.65,-1.13,1.13,1.67,3.06,-0.52,-0.52,-0.52
35.97,-1.52,-1.01,-1.52,-1.02,1.01,1.57,2.94,-0.51,-0.51,-0.51
36.33,-1.40,-0.90,-1.40,-0.89,0.89,1.47,2.82,-0.51,-0.50,-0.50
36.70,-1.27,-0.77,-1.27,-0.78,0.78,1.36,2.69,-0.50,-0.50,-0.50
37.06,-1.15,-0.65,-1.15,-0.66,0.66,1.26,2.57,-0.49,-0.50,-0.50
37.43,-1.03,-0.54,-1.03,-0.53,0.54,1.16,2.44,-0.49,-0.49,-0.49
37.81,-0.91,-0.42,-0.91,-0.42,0.42,1.05,2.31,-0.49,-0.49,-0.50
38.19,-0.79,-0.29,-0.79,-0.30,0.30,0.95,2.17,-0.49,-0.50,-0.50
38.57,-0.68,-0.19,-0.68,-0.18,0.18,0.84,2.04,-0.50,-0.50,-0.49
38.95,-0.56,-0.07,-0.56,-0.07,0.07,0.73,1.91,-0.49,-0.50,-0.49
39.34,-0.45,0.06,-0.45,0.05,-0.05,0.62,1.77,-0.50,-0.50,-0.51
39.74,-0.34,0.17,-0.34,0.16,-0.16,0.51,1.63,-0.50,-0.50,-0.51
40.14,-0.24,0.27,-0.24,0.27,-0.27,0.40,1.50,-0.51,-0.51,-0.51
40.54,-0.14,0.37,-0.14,0.38,-0.38,0.29,1.36,-0.52,-0.52,-0.52
40.94,-0.03,0.49,-0.03,0.48,-0.49,0.18,1.22,-0.52,-0.52,-0.52
41.35,0.07,0.59,0.07,0.59,-0.59,0.07,1.08,-0.52,-0.53,-0.52
41.76,0.17,0.70,0.17,0.70,-0.70,-0.04,0.95,-0.53,-0.53,-0.53
42.18,0.27,0.80,0.27,0.80,-0.80,-0.16,0.81,-0.53,-0.53,-0.53
42.60,0.37,0.91,0.37,0.91,-0.91,-0.27,0.67,-0.54,-0.54,-0.54
43.03,0.47,1.01,0.47,1.01,-1.01,-0.38,0.53,-0.54,-0.55,-0.54
43.46,0.56,1.11,0.56,1.11,-1.11,-0.50,0.40,-0.56,-0.56,-0.55
43.90,0.65,1.22,0.65,1.21,-1.21,-0.61,0.26,-0.57,-0.57,-0.57
44.33,0.73,1.31,0.73,1.31,-1.31,-0.73,0.12,-0.58,-0.58,-0.58
44.78,0.82,1.41,0.82,1.41,-1.41,-0.84,-0.02,-0.59,-0.59,-0.59
45.23,0.90,1.50,0.90,1.50,-1.50,-0.96,-0.15,-0.60,-0.60,-0.60
45.68,0.98,1.59,0.98,1.59,-1.58,-1.07,-0.29,-0.60,-0.60,-0.61
46.13,1.06,1.67,1.06,1.67,-1.66,-1.18,-0.43,-0.60,-0.61,-0.61
46.60,1.13,1.74,1.13,1.74,-1.74,-1.30,-0.56,-0.61,-0.61,-0.61
47.06,1.20,1.81,1.20,1.82,-1.82,-1.41,-0.70,-0.62,-0.62,-0.61
47.53,1.27,1.89,1.27,1.89,-1.89,-1.52,-0.83,-0.62,-0.62,-0.62
48.01,1.34,1.96,1.34,1.96,-1.96,-1.63,-0.97,-0.62,-0.62,-0.62
48.49,1.40,2.02,1.40,2.02,-2.03,-1.74,-1.10,-0.63,-0.63,-0.62
48.97,1.46,2.09,1.46,2.09,-2.09,-1.85,-1.24,-0.63,-0.63,-0.63
49.46,1.51,2.16,1.51,2.16,-2.15,-1.96,-1.37,-0.64,-0.64,-0.65
49.96,1.57,2.22,1.57,2.21,-2.21,-2.06,-1.51,-0.64,-0.64,-0.66
50.46,1.62,2.26,1.62,2.26,-2.26,-2.16,-1.64,-0.64,-0.64,-0.64
50.96,1.67,2.30,1.67,2.31,-2.30,-2.26,-1.77,-0.64,-0.64,-0.63
51.47,1.71,2.35,1.71,2.34,-2.35,-2.36,-1.90,-0.64,-0.64,-0.64
51.99,1.75,2.39,1.75,2.38,-2.38,-2.46,-2.03,-0.64,-0.63,-0.64
52.51,1.79,2.41,1.79,2.42,-2.42,-2.55,-2.16,-0.63,-0.63,-0.63
53.03,1.83,2.45,1.82,2.45,-2.45,-2.64,-2.28,-0.62,-0.63,-0.63
53.56,1.86,2.48,1.86,2.48,-2.48,-2.73,-2.40,-0.63,-0.63,-0.62
54.10,1.88,2.50,1.88,2.51,-2.51,-2.81,-2.52,-0.64,-0.63,-0.62
54.64,1.91,2.54,1.91,2.54,-2.54,-2.89,-2.64,-0.64,-0.63,-0.63
55.18,1.94,2.57,1.94,2.57,-2.57,-2.97,-2.75,-0.63,-0.64,-0.64
55.74,1.96,2.60,1.96,2.60,-2.60,-3.04,-2.86,-0.64,-0.64,-0.65
56.29,1.98,2.63,1.98,2.63,-2.62,-3.11,-2.97,-0.64,-0.65,-0.65
56.86,1.99,2.65,1.99,2.65,-2.65,-3.18,-3.07,-0.66,-0.66,-0.66
57.42,2.00,2.67,2.00,2.67,-2.67,-3.24,-3.16,-0.67,-0.67,-0.67
58.00,2.01,2.68,2.01,2.69,-2.68,-3.29,-3.25,-0.68,-0.68,-0.67
58.58,2.02,2.70,2.02,2.70,-2.70,-3.34,-3.34,-0.68,-0.68,-0.69
59.16,2.03,2.72,2.03,2.72,-2.72,-3.39,-3.42,-0.69,-0.70,-0.69
59.76,2.03,2.73,2.03,2.73,-2.74,-3.43,-3.49,-0.71,-0.71,-0.70
60.35,2.03,2.76,2.03,2.75,-2.76,-3.47,-3.55,-0.73,-0.73,-0.73
60.96,2.03,2.76,2.03,2.77,-2.77,-3.51,-3.61,-0.74,-0.74,-0.73
61.57,2.03,2.79,2.03,2.79,-2.79,-3.53,-3.66,-0.76,-0.76,-0.77
62.18,2.03,2.82,2.02,2.81,-2.80,-3.56,-3.70,-0.77,-0.78,-0.79
62.80,2.01,2.81,2.01,2.82,-2.81,-3.58,-3.74,-0.80,-0.79,-0.80
63.43,2.00,2.82,2.00,2.82,-2.81,-3.59,-3.77,-0.82,-0.82,-0.82
64.07,1.99,2.82,1.99,2.82,-2.82,-3.61,-3.79,-0.83,-0.83,-0.83
64.71,1.98,2.82,1.98,2.82,-2.83,-3.61,-3.80,-0.85,-0.84,-0.84
65.35,1.98,2.82,1.98,2.82,-2.83,-3.62,-3.81,-0.85,-0.85,-0.85
66.01,1.99,2.83,1.99,2.83,-2.84,-3.61,-3.81,-0.85,-0.85,-0.85
66.67,2.00,2.84,2.00,2.84,-2.84,-3.61,-3.81,-0.84,-0.85,-0.84
67.33,2.01,2.85,2.01,2.85,-2.85,-3.60,-3.80,-0.84,-0.84,-0.84
68.01,2.02,2.86,2.02,2.86,-2.86,-3.59,-3.78,-0.85,-0.84,-0.84
68.69,2.04,2.88,2.04,2.88,-2.88,-3.58,-3.76,-0.84,-0.84,-0.84
69.37,2.06,2.89,2.06,2.90,-2.89,-3.56,-3.74,-0.83,-0.84,-0.84
70.07,2.08,2.92,2.08,2.91,-2.91,-3.54,-3.71,-0.83,-0.83,-0.84
70.77,2.10,2.92,2.10,2.92,-2.93,-3.52,-3.67,-0.83,-0.83,-0.82
71.48,2.12,2.94,2.12,2.95,-2.95,-3.49,-3.64,-0.83,-0.83,-0.82
72.19,2.15,2.98,2.15,2.97,-2.97,-3.47,-3.60,-0.82,-0.82,-0.83
72.91,2.18,3.00,2.17,3.00,-2.99,-3.44,-3.56,-0.82,-0.82,-0.82
73.64,2.20,3.02,2.20,3.02,-3.02,-3.41,-3.52,-0.82,-0.82,-0.83
74.38,2.22,3.04,2.22,3.04,-3.04,-3.38,-3.48,-0.83,-0.82,-0.82
75.12,2.24,3.07,2.24,3.07,-3.07,-3.35,-3.44,-0.83,-0.83,-0.83
75.87,2.27,3.09,2.27,3.09,-3.09,-3.32,-3.39,-0.83,-0.83,-0.82
76.63,2.29,3.11,2.29,3.12,-3.12,-3.29,-3.35,-0.83,-0.83,-0.82
77.40,2.31,3.14,2.31,3.14,-3.13,-3.25,-3.31,-0.83,-0.82,-0.83
78.17,2.33,3.17,2.33,3.15,-3.15,-3.22,-3.27,-0.82,-0.82,-0.84
78.95,2.34,3.15,2.34,3.16,-3.16,-3.19,-3.23,-0.82,-0.82,-0.82
79.74,2.35,3.16,2.35,3.17,-3.16,-3.16,-3.19,-0.81,-0.81,-0.82
80.54,2.36,3.17,2.36,3.17,-3.16,-3.13,-3.15,-0.80,-0.80,-0.82
81.35,2.36,3.16,2.36,3.16,-3.15,-3.09,-3.11,-0.79,-0.80,-0.81
82.16,2.35,3.15,2.35,3.14,-3.14,-3.06,-3.08,-0.79,-0.79,-0.80
82.98,2.34,3.12,2.34,3.12,-3.13,-3.03,-3.04,-0.79,-0.79,-0.78
83.81,2.33,3.10,2.33,3.10,-3.11,-3.00,-3.01,-0.78,-0.78,-0.77
84.65,2.33,3.09,2.33,3.08,-3.09,-2.98,-2.98,-0.77,-0.77,-0.76
85.50,2.33,3.07,2.33,3.07,-3.08,-2.95,-2.95,-0.75,-0.75,-0.74
86.35,2.34,3.06,2.33,3.06,-3.07,-2.92,-2.93,-0.73,-0.73,-0.72
87.22,2.34,3.05,2.34,3.05,-3.06,-2.90,-2.91,-0.72,-0.71,-0.72
88.09,2.35,3.05,2.35,3.05,-3.05,-2.88,-2.89,-0.70,-0.70,-0.70
88.97,2.36,3.04,2.35,3.04,-3.04,-2.86,-2.87,-0.68,-0.69,-0.69
89.86,2.35,3.03,2.35,3.03,-3.03,-2.84,-2.85,-0.68,-0.68,-0.68
90.76,2.34,3.03,2.34,3.03,-3.02,-2.82,-2.84,-0.68,-0.68,-0.69
91.66,2.33,3.01,2.33,3.01,-3.01,-2.80,-2.83,-0.69,-0.69,-0.68
92.58,2.31,3.01,2.31,3.00,-3.01,-2.79,-2.82,-0.70,-0.70,-0.70
93.51,2.29,2.99,2.29,2.99,-3.00,-2.78,-2.81,-0.71,-0.71,-0.70
94.44,2.27,2.99,2.27,2.99,-2.99,-2.77,-2.81,-0.72,-0.72,-0.72
95.39,2.25,2.98,2.25,2.98,-2.98,-2.76,-2.80,-0.73,-0.74,-0.73
96.34,2.22,2.98,2.22,2.98,-2.97,-2.75,-2.80,-0.76,-0.76,-0.76
97.30,2.18,2.98,2.18,2.98,-2.97,-2.74,-2.81,-0.79,-0.79,-0.80
98.28,2.14,2.97,2.13,2.97,-2.96,-2.74,-2.81,-0.82,-0.82,-0.83
99.26,2.08,2.95,2.08,2.95,-2.95,-2.74,-2.81,-0.87,-0.87,-0.87
100.25,2.03,2.94,2.03,2.93,-2.95,-2.74,-2.82,-0.92,-0.92,-0.91
101.25,1.98,2.93,1.98,2.93,-2.94,-2.73,-2.83,-0.96,-0.96,-0.95
102.27,1.94,2.92,1.95,2.93,-2.94,-2.73,-2.84,-1.00,-1.00,-0.99
103.29,1.92,2.95,1.91,2.94,-2.94,-2.73,-2.85,-1.02,-1.03,-1.04
104.32,1.88,2.94,1.87,2.94,-2.94,-2.73,-2.86,-1.06,-1.07,-1.07
105.37,1.83,2.94,1.83,2.94,-2.94,-2.73,-2.87,-1.11,-1.11,-1.11
106.42,1.78,2.93,1.79,2.94,-2.94,-2.73,-2.88,-1.16,-1.15,-1.15
107.48,1.75,2.94,1.74,2.94,-2.93,-2.73,-2.89,-1.18,-1.19,-1.19
108.56,1.70,2.93,1.70,2.93,-2.91,-2.73,-2.90,-1.21,-1.22,-1.23
109.64,1.64,2.91,1.64,2.91,-2.89,-2.73,-2.91,-1.25,-1.25,-1.27
110.74,1.58,2.88,1.57,2.88,-2.87,-2.72,-2.92,-1.29,-1.30,-1.30
111.85,1.50,2.83,1.50,2.84,-2.85,-2.72,-2.93,-1.35,-1.35,-1.33
112.97,1.43,2.81,1.43,2.80,-2.82,-2.71,-2.94,-1.40,-1.39,-1.38
114.10,1.37,2.77,1.37,2.78,-2.80,-2.70,-2.94,-1.43,-1.42,-1.40
115.24,1.33,2.76,1.33,2.77,-2.77,-2.69,-2.95,-1.44,-1.44,-1.44
116.39,1.30,2.76,1.29,2.76,-2.74,-2.67,-2.95,-1.44,-1.44,-1.46
117.55,1.26,2.74,1.25,2.73,-2.71,-2.66,-2.95,-1.45,-1.46,-1.48
118.73,1.19,2.70,1.19,2.69,-2.68,-2.64,-2.95,-1.49,-1.49,-1.51
119.92,1.12,2.63,1.12,2.64,-2.64,-2.62,-2.94,-1.53,-1.52,-1.52
121.12,1.06,2.59,1.07,2.60,-2.61,-2.60,-2.93,-1.55,-1.54,-1.53
122.33,1.03,2.58,1.02,2.57,-2.57,-2.57,-2.92,-1.54,-1.55,-1.55
123.55,0.99,2.54,0.98,2.54,-2.54,-2.55,-2.90,-1.55,-1.56,-1.55
124.79,0.93,2.50,0.93,2.50,-2.51,-2.52,-2.88,-1.58,-1.57,-1.57
126.03,0.89,2.46,0.89,2.47,-2.48,-2.49,-2.86,-1.59,-1.59,-1.57
127.29,0.86,2.45,0.86,2.45,-2.46,-2.46,-2.84,-1.60,-1.60,-1.59
128.57,0.84,2.45,0.84,2.44,-2.44,-2.43,-2.81,-1.60,-1.60,-1.61
129.85,0.82,2.44,0.82,2.44,-2.42,-2.40,-2.78,-1.61,-1.61,-1.62
131.15,0.79,2.42,0.79,2.42,-2.41,-2.37,-2.74,-1.62,-1.62,-1.63
132.46,0.76,2.41,0.75,2.40,-2.39,-2.34,-2.70,-1.63,-1.64,-1.65
133.79,0.72,2.37,0.72,2.38,-2.38,-2.32,-2.66,-1.66,-1.66,-1.65
135.12,0.67,2.34,0.68,2.35,-2.37,-2.29,-2.62,-1.70,-1.69,-1.68
136.48,0.65,2.34,0.65,2.33,-2.35,-2.26,-2.57,-1.70,-1.71,-1.69
137.84,0.62,2.33,0.62,2.33,-2.34,-2.23,-2.52,-1.72,-1.72,-1.71
139.22,0.60,2.34,0.60,2.33,-2.32,-2.20,-2.47,-1.72,-1.73,-1.74
140.61,0.57,2.32,0.56,2.31,-2.30,-2.17,-2.42,-1.74,-1.74,-1.76
142.02,0.52,2.28,0.53,2.30,-2.29,-2.14,-2.36,-1.77,-1.76,-1.76
143.44,0.49,2.27,0.49,2.27,-2.27,-2.12,-2.30,-1.78,-1.78,-1.78
144.87,0.44,2.25,0.43,2.24,-2.24,-2.09,-2.25,-1.80,-1.81,-1.81
146.32,0.38,2.21,0.38,2.21,-2.21,-2.07,-2.19,-1.83,-1.83,-1.84
147.78,0.31,2.16,0.32,2.18,-2.18,-2.04,-2.13,-1.87,-1.86,-1.85
149.26,0.27,2.15,0.26,2.14,-2.14,-2.01,-2.07,-1.88,-1.88,-1.88
150.75,0.20,2.11,0.20,2.11,-2.11,-1.99,-2.01,-1.91,-1.91,-1.91
152.26,0.14,2.08,0.14,2.07,-2.07,-1.97,-1.94,-1.93,-1.93,-1.94
153.78,0.06,2.02,0.06,2.03,-2.03,-1.94,-1.88,-1.97,-1.96,-1.96
155.32,-0.00,1.99,-0.00,1.99,-1.98,-1.92,-1.82,-1.99,-1.99,-1.99
156.88,-0.08,1.94,-0.08,1.94,-1.94,-1.89,-1.76,-2.02,-2.02,-2.02
158.44,-0.15,1.91,-0.16,1.89,-1.90,-1.87,-1.70,-2.05,-2.06,-2.06
160.03,-0.26,1.83,-0.24,1.85,-1.86,-1.85,-1.64,-2.12,-2.10,-2.09
161.63,-0.32,1.81,-0.32,1.81,-1.81,-1.82,-1.58,-2.13,-2.13,-2.13
163.24,-0.38,1.78,-0.40,1.77,-1.77,-1.80,-1.52,-2.15,-2.16,-2.16
164.88,-0.47,1.72,-0.46,1.73,-1.73,-1.77,-1.46,-2.20,-2.18,-2.19
166.53,-0.53,1.69,-0.53,1.69,-1.68,-1.75,-1.40,-2.21,-2.21,-2.22
168.19,-0.60,1.65,-0.61,1.64,-1.63,-1.73,-1.34,-2.23,-2.25,-2.25
169.87,-0.70,1.58,-0.69,1.59,-1.59,-1.70,-1.28,-2.29,-2.27,-2.28
171.57,-0.77,1.53,-0.77,1.53,-1.54,-1.68,-1.23,-2.31,-2.31,-2.31
173.29,-0.84,1.49,-0.85,1.48,-1.49,-1.66,-1.17,-2.33,-2.34,-2.33
175.02,-0.94,1.42,-0.93,1.43,-1.43,-1.63,-1.11,-2.38,-2.37,-2.36
176.77,-1.01,1.37,-1.01,1.38,-1.38,-1.61,-1.06,-2.39,-2.39,-2.39
178.54,-1.08,1.33,-1.08,1.33,-1.32,-1.58,-1.01,-2.40,-2.40,-2.41
180.32,-1.15,1.27,-1.15,1.27,-1.25,-1.56,-0.95,-2.41,-2.41,-2.43
182.13,-1.22,1.22,-1.24,1.20,-1.19,-1.53,-0.90,-2.41,-2.43,-2.44
183.95,-1.35,1.10,-1.33,1.12,-1.12,-1.51,-0.85,-2.47,-2.45,-2.45
185.79,-1.42,1.05,-1.42,1.05,-1.05,-1.48,-0.80,-2.48,-2.48,-2.47
187.65,-1.50,0.98,-1.50,0.98,-0.99,-1.45,-0.75,-2.49,-2.49,-2.48
189.52,-1.56,0.92,-1.57,0.92,-0.92,-1.43,-0.70,-2.49,-2.49,-2.48
191.42,-1.63,0.87,-1.63,0.86,-0.87,-1.40,-0.65,-2.50,-2.50,-2.50
193.33,-1.69,0.81,-1.69,0.81,-0.81,-1.37,-0.60,-2.51,-2.50,-2.50
195.27,-1.74,0.76,-1.74,0.77,-0.77,-1.34,-0.56,-2.51,-2.51,-2.50
197.22,-1.78,0.73,-1.78,0.73,-0.73,-1.31,-0.51,-2.51,-2.52,-2.51
199.19,-1.82,0.71,-1.82,0.70,-0.70,-1.28,-0.47,-2.52,-2.52,-2.53
201.18,-1.85,0.68,-1.85,0.68,-0.68,-1.25,-0.42,-2.53,-2.53,-2.53
203.19,-1.87,0.66,-1.87,0.66,-0.66,-1.22,-0.38,-2.53,-2.53,-2.53
205.23,-1.89,0.65,-1.89,0.65,-0.65,-1.19,-0.34,-2.54,-2.54,-2.54
207.28,-1.90,0.64,-1.90,0.64,-0.65,-1.15,-0.30,-2.55,-2.56,-2.54
209.35,-1.91,0.64,-1.91,0.65,-0.66,-1.12,-0.26,-2.57,-2.57,-2.55
211.44,-1.91,0.66,-1.91,0.66,-0.67,-1.08,-0.22,-2.58,-2.57,-2.57
213.56,-1.89,0.68,-1.89,0.68,-0.68,-1.05,-0.18,-2.57,-2.57,-2.57
215.69,-1.87,0.70,-1.87,0.70,-0.69,-1.01,-0.15,-2.57,-2.57,-2.57
217.85,-1.86,0.72,-1.86,0.72,-0.71,-0.97,-0.12,-2.57,-2.57,-2.59
220.03,-1.86,0.73,-1.86,0.73,-0.72,-0.93,-0.08,-2.58,-2.58,-2.59
222.23,-1.87,0.74,-1.87,0.73,-0.72,-0.89,-0.05,-2.59,-2.59,-2.61
224.45,-1.89,0.72,-1.89,0.72,-0.72,-0.84,-0.02,-2.61,-2.61,-2.61
226.70,-1.91,0.70,-1.91,0.71,-0.71,-0.80,0.00,-2.62,-2.62,-2.62
228.96,-1.93,0.69,-1.93,0.69,-0.70,-0.75,0.03,-2.63,-2.63,-2.62
231.25,-1.95,0.68,-1.95,0.68,-0.69,-0.70,0.05,-2.64,-2.64,-2.63
233.57,-1.97,0.67,-1.98,0.66,-0.67,-0.65,0.07,-2.64,-2.65,-2.64
235.90,-2.03,0.63,-2.02,0.64,-0.64,-0.59,0.09,-2.68,-2.66,-2.66
238.26,-2.05,0.62,-2.06,0.62,-0.61,-0.54,0.10,-2.67,-2.67,-2.68
240.64,-2.10,0.59,-2.10,0.59,-0.58,-0.48,0.11,-2.68,-2.68,-2.69
243.05,-2.14,0.56,-2.15,0.55,-0.54,-0.42,0.13,-2.68,-2.69,-2.70
245.48,-2.20,0.50,-2.21,0.50,-0.49,-0.36,0.13,-2.69,-2.70,-2.70
247.93,-2.29,0.42,-2.28,0.43,-0.44,-0.29,0.14,-2.73,-2.71,-2.71
250.41,-2.34,0.38,-2.35,0.37,-0.38,-0.22,0.14,-2.72,-2.72,-2.72
252.92,-2.41,0.30,-2.41,0.30,-0.31,-0.15,0.14,-2.72,-2.72,-2.71
255.45,-2.47,0.23,-2.47,0.23,-0.23,-0.08,0.13,-2.70,-2.70,-2.70
258.00,-2.53,0.16,-2.54,0.16,-0.15,-0.00,0.13,-2.68,-2.69,-2.70
260.58,-2.62,0.07,-2.61,0.08,-0.06,0.07,0.12,-2.68,-2.67,-2.69
263.19,-2.68,-0.01,-2.69,-0.02,0.03,0.15,0.11,-2.65,-2.67,-2.67
265.82,-2.78,-0.11,-2.78,-0.11,0.12,0.23,0.09,-2.66,-2.66,-2.67
268.48,-2.86,-0.22,-2.85,-0.21,0.21,0.31,0.08,-2.65,-2.65,-2.64
271.16,-2.92,-0.30,-2.93,-0.31,0.29,0.40,0.06,-2.63,-2.64,-2.62
273.87,-3.00,-0.39,-2.99,-0.39,0.37,0.48,0.04,-2.63,-2.62,-2.61
276.61,-3.05,-0.47,-3.04,-0.46,0.45,0.56,0.02,-2.60,-2.60,-2.58
279.38,-3.08,-0.51,-3.09,-0.52,0.51,0.64,-0.01,-2.57,-2.57,-2.57
282.17,-3.12,-0.56,-3.13,-0.57,0.57,0.71,-0.04,-2.55,-2.55,-2.56
284.99,-3.16,-0.62,-3.16,-0.62,0.62,0.78,-0.06,-2.54,-2.54,-2.54
287.84,-3.19,-0.67,-3.18,-0.66,0.66,0.84,-0.09,-2.53,-2.52,-2.52
290.72,-3.19,-0.70,-3.20,-0.70,0.70,0.90,-0.13,-2.50,-2.50,-2.50
293.63,-3.20,-0.71,-3.21,-0.73,0.73,0.94,-0.16,-2.47,-2.48,-2.49
296.57,-3.22,-0.76,-3.22,-0.75,0.76,0.98,-0.19,-2.47,-2.46,-2.46
299.53,-3.23,-0.79,-3.22,-0.78,0.78,1.00,-0.23,-2.45,-2.44,-2.44
302.53,-3.22,-0.79,-3.22,-0.80,0.81,1.02,-0.27,-2.42,-2.42,-2.44
305.55,-3.21,-0.81,-3.22,-0.81,0.82,1.01,-0.31,-2.39,-2.39,-2.40
308.61,-3.21,-0.83,-3.21,-0.83,0.84,1.00,-0.35,-2.37,-2.37,-2.38
311.69,-3.19,-0.84,-3.20,-0.85,0.84,0.97,-0.39,-2.35,-2.35,-2.35
314.81,-3.18,-0.87,-3.18,-0.86,0.84,0.93,-0.43,-2.34,-2.33,-2.31
317.96,-3.14,-0.85,-3.14,-0.84,0.83,0.88,-0.47,-2.31,-2.30,-2.30
321.14,-3.09,-0.81,-3.09,-0.82,0.82,0.82,-0.51,-2.28,-2.28,-2.28
324.35,-3.03,-0.77,-3.04,-0.78,0.78,0.75,-0.56,-2.25,-2.25,-2.26
327.59,-2.97,-0.74,-2.97,-0.74,0.74,0.67,-0.60,-2.23,-2.23,-2.23
330.87,-2.90,-0.69,-2.90,-0.69,0.68,0.58,-0.65,-2.22,-2.21,-2.21
334.18,-2.81,-0.63,-2.81,-0.62,0.61,0.49,-0.70,-2.20,-2.20,-2.18
337.52,-2.69,-0.53,-2.70,-0.54,0.53,0.39,-0.74,-2.16,-2.17,-2.17
340.90,-2.58,-0.44,-2.58,-0.44,0.44,0.29,-0.79,-2.14,-2.14,-2.14
344.30,-2.44,-0.33,-2.45,-0.33,0.33,0.19,-0.84,-2.11,-2.11,-2.11
347.75,-2.31,-0.22,-2.31,-0.22,0.22,0.08,-0.89,-2.09,-2.08,-2.09
351.23,-2.16,-0.10,-2.16,-0.10,0.11,-0.03,-0.94,-2.06,-2.05,-2.06
354.74,-2.01,0.02,-2.01,0.02,-0.02,-0.13,-0.99,-2.03,-2.03,-2.03
358.28,-1.85,0.16,-1.86,0.15,-0.15,-0.24,-1.04,-2.00,-2.01,-2.01
361.87,-1.71,0.27,-1.70,0.28,-0.28,-0.35,-1.09,-2.00,-1.99,-1.98
365.49,-1.54,0.41,-1.55,0.41,-0.42,-0.46,-1.15,-1.96,-1.97,-1.96
369.14,-1.38,0.56,-1.39,0.56,-0.56,-0.57,-1.20,-1.94,-1.95,-1.95
372.83,-1.23,0.69,-1.21,0.70,-0.71,-0.68,-1.26,-1.94,-1.92,-1.92
376.56,-1.03,0.87,-1.04,0.85,-0.85,-0.79,-1.31,-1.88,-1.89,-1.90
380.33,-0.87,0.99,-0.87,0.99,-0.99,-0.90,-1.37,-1.86,-1.86,-1.86
384.13,-0.71,1.14,-0.71,1.14,-1.13,-1.01,-1.42,-1.84,-1.84,-1.85
387.97,-0.56,1.27,-0.56,1.27,-1.26,-1.12,-1.48,-1.83,-1.83,-1.83
391.85,-0.42,1.40,-0.42,1.40,-1.40,-1.23,-1.54,-1.82,-1.82,-1.82
395.77,-0.28,1.51,-0.28,1.52,-1.53,-1.34,-1.59,-1.81,-1.80,-1.79
399.73,-0.14,1.64,-0.14,1.64,-1.65,-1.46,-1.65,-1.79,-1.79,-1.78
403.72,-0.01,1.77,-0.01,1.77,-1.77,-1.57,-1.71,-1.78,-1.78,-1.78
407.76,0.11,1.88,0.11,1.88,-1.88,-1.68,-1.76,-1.77,-1.77,-1.77
411.84,0.23,1.99,0.22,1.99,-1.99,-1.79,-1.82,-1.76,-1.77,-1.77
415.96,0.33,2.09,0.33,2.10,-2.10,-1.91,-1.88,-1.77,-1.76,-1.77
420.12,0.43,2.20,0.43,2.19,-2.19,-2.01,-1.93,-1.77,-1.77,-1.77
424.32,0.52,2.29,0.52,2.28,-2.29,-2.12,-1.99,-1.77,-1.77,-1.77
428.56,0.60,2.37,0.60,2.37,-2.37,-2.22,-2.05,-1.77,-1.77,-1.77
432.85,0.68,2.46,0.68,2.45,-2.45,-2.31,-2.10,-1.77,-1.77,-1.78
437.18,0.75,2.53,0.74,2.52,-2.52,-2.40,-2.15,-1.78,-1.78,-1.78
441.55,0.80,2.58,0.80,2.59,-2.59,-2.48,-2.20,-1.79,-1.79,-1.78
445.96,0.86,2.65,0.86,2.64,-2.65,-2.54,-2.25,-1.79,-1.79,-1.79
450.42,0.91,2.70,0.91,2.70,-2.69,-2.60,-2.30,-1.79,-1.79,-1.79
