frequency,raw
20.00,-11.70
20.20,-11.58
20.40,-11.47
20.61,-11.35
20.81,-11.24
21.02,-11.12
21.23,-11.00
21.44,-10.88
21.66,-10.76
21.87,-10.64
22.09,-10.52
22.31,-10.40
22.54,-10.28
22.76,-10.16
22.99,-10.04
23.22,-9.91
23.45,-9.79
23.69,-9.66
23.92,-9.54
24.16,-9.41
24.40,-9.29
24.65,-9.16
24.89,-9.03
25.14,-8.91
25.39,-8.78
25.65,-8.65
25.91,-8.53
26.16,-8.40
26.43,-8.27
26.69,-8.14
26.96,-8.01
27.23,-7.88
27.50,-7.75
27.77,-7.62
28.05,-7.50
28.33,-7.37
28.62,-7.24
28.90,-7.10
29.19,-6.97
29.48,-6.84
29.78,-6.71
30.08,-6.58
30.38,-6.45
30.68,-6.32
30.99,-6.19
31.30,-6.06
31.61,-5.93
31.93,-5.81
32.24,-5.68
32.57,-5.55
32.89,-5.42
33.22,-5.29
33.55,-5.16
33.89,-5.02
34.23,-4.89
34.57,-4.77
34.92,-4.64
35.27,-4.51
35.62,-4.38
35.97,-4.25
36.33,-4.12
36.70,-3.98
37.06,-3.85
37.43,-3.70
37.81,-3.56
38.19,-3.42
38.57,-3.29
38.95,-3.16
39.34,-3.02
39.74,-2.89
40.14,-2.76
40.54,-2.63
40.94,-2.50
41.35,-2.36
41.76,-2.23
42.18,-2.09
42.60,-1.97
43.03,-1.84
43.46,-1.72
43.90,-1.61
44.33,-1.49
44.78,-1.36
45.23,-1.24
45.68,-1.13
46.13,-1.02
46.60,-0.91
47.06,-0.80
47.53,-0.69
48.01,-0.58
48.49,-0.48
48.97,-0.39
49.46,-0.29
49.96,-0.19
50.46,-0.10
50.96,-0.01
51.47,0.09
51.99,0.18
52.51,0.27
53.03,0.35
53.56,0.44
54.10,0.53
54.64,0.61
55.18,0.70
55.74,0.78
56.29,0.86
56.86,0.95
57.42,1.03
58.00,1.11
58.58,1.19
59.16,1.27
59.76,1.36
60.35,1.44
60.96,1.53
61.57,1.61
62.18,1.70
62.80,1.78
63.43,1.87
64.07,1.95
64.71,2.04
65.35,2.13
66.01,2.21
66.67,2.29
67.33,2.36
68.01,2.43
68.69,2.49
69.37,2.56
70.07,2.63
70.77,2.68
71.48,2.74
72.19,2.80
72.91,2.85
73.64,2.91
74.38,2.96
75.12,3.00
75.87,3.03
76.63,3.07
77.40,3.09
78.17,3.12
78.95,3.14
79.74,3.16
80.54,3.19
81.35,3.21
82.16,3.24
82.98,3.27
83.81,3.30
84.65,3.34
85.50,3.36
86.35,3.39
87.22,3.41
88.09,3.43
88.97,3.46
89.86,3.49
90.76,3.51
91.66,3.53
92.58,3.55
93.51,3.57
94.44,3.58
95.39,3.58
96.34,3.58
97.30,3.57
98.28,3.57
99.26,3.56
100.25,3.56
101.25,3.56
102.27,3.56
103.29,3.56
104.32,3.56
105.37,3.57
106.42,3.58
107.48,3.59
108.56,3.57
109.64,3.56
110.74,3.54
111.85,3.50
112.97,3.47
114.10,3.43
115.24,3.40
116.39,3.37
117.55,3.34
118.73,3.31
119.92,3.27
121.12,3.25
122.33,3.24
123.55,3.23
124.79,3.23
126.03,3.24
127.29,3.25
128.57,3.25
129.85,3.23
131.15,3.21
132.46,3.19
133.79,3.16
135.12,3.12
136.48,3.09
137.84,3.05
139.22,3.03
140.61,3.00
142.02,2.97
143.44,2.96
144.87,2.93
146.32,2.91
147.78,2.88
149.26,2.87
150.75,2.84
152.26,2.83
153.78,2.80
155.32,2.77
156.88,2.73
158.44,2.71
160.03,2.68
161.63,2.66
163.24,2.63
164.88,2.59
166.53,2.56
168.19,2.53
169.87,2.50
171.57,2.48
173.29,2.46
175.02,2.43
176.77,2.40
178.54,2.38
180.32,2.35
182.13,2.32
183.95,2.26
185.79,2.23
187.65,2.20
189.52,2.17
191.42,2.14
193.33,2.12
195.27,2.09
197.22,2.06
199.19,2.04
201.18,2.02
203.19,2.00
205.23,1.97
207.28,1.94
209.35,1.91
211.44,1.89
213.56,1.86
215.69,1.83
217.85,1.80
220.03,1.79
222.23,1.76
224.45,1.73
226.70,1.69
228.96,1.65
231.25,1.63
233.57,1.59
235.90,1.55
238.26,1.52
240.64,1.49
243.05,1.48
245.48,1.46
247.93,1.42
250.41,1.40
252.92,1.37
255.45,1.34
258.00,1.31
260.58,1.27
263.19,1.23
265.82,1.19
268.48,1.17
271.16,1.15
273.87,1.11
276.61,1.08
279.38,1.06
282.17,1.04
284.99,1.02
287.84,0.98
290.72,0.95
293.63,0.93
296.57,0.90
299.53,0.88
302.53,0.86
305.55,0.83
308.61,0.80
311.69,0.76
314.81,0.74
317.96,0.71
321.14,0.68
324.35,0.65
327.59,0.63
330.87,0.63
334.18,0.63
337.52,0.65
340.90,0.65
344.30,0.65
347.75,0.64
351.23,0.63
354.74,0.61
358.28,0.58
361.87,0.55
365.49,0.52
369.14,0.48
372.83,0.45
376.56,0.41
380.33,0.38
384.13,0.35
387.97,0.33
391.85,0.31
395.77,0.30
399.73,0.29
403.72,0.30
407.76,0.31
411.84,0.33
415.96,0.34
420.12,0.34
424.32,0.32
428.56,0.31
432.85,0.29
437.18,0.26
441.55,0.23
445.96,0.20
450.42,0.16
454.93,0.13
459.48,0.09
464.07,0.07
468.71,0.04
473.40,0.00
478.13,-0.01
482.91,-0.03
487.74,-0.03
492.62,-0.03
497.55,-0.02
502.52,-0.01
507.55,-0.01
512.62,-0.01
517.75,-0.01
522.93,-0.01
528.16,-0.01
533.44,-0.01
538.77,-0.01
544.16,-0.01
549.60,-0.01
555.10,-0.01
560.65,-0.01
566.25,-0.01
571.92,-0.01
577.64,-0.02
583.41,-0.03
589.25,-0.03
595.14,-0.02
601.09,-0.01
607.10,0.01
613.17,0.03
619.30,0.07
625.50,0.11
631.75,0.15
638.07,0.18
644.45,0.20
650.89,0.22
657.40,0.22
663.98,0.22
670.62,0.21
677.32,0.20
684.10,0.18
690.94,0.15
697.85,0.11
704.83,0.07
711.87,0.03
718.99,-0.00
726.18,-0.01
733.44,-0.03
740.78,-0.03
748.19,-0.02
755.67,-0.02
763.23,-0.01
770.86,-0.01
778.57,-0.01
786.35,-0.01
794.22,-0.01
802.16,-0.01
810.18,-0.01
818.28,-0.01
826.46,-0.01
834.73,-0.01
843.08,-0.01
851.51,-0.01
860.02,-0.01
868.62,-0.01
877.31,-0.01
886.08,-0.01
894.94,-0.01
903.89,-0.01
912.93,-0.01
922.06,-0.01
931.28,-0.01
940.59,-0.01
950.00,-0.02
959.50,-0.03
969.09,-0.03
978.78,-0.03
988.57,-0.02
998.46,-0.01
1008.44,0.01
1018.53,0.04
1028.71,0.07
1039.00,0.11
1049.39,0.14
1059.88,0.17
1070.48,0.20
1081.19,0.22
1092.00,0.25
1102.92,0.27
1113.95,0.30
1125.09,0.33
1136.34,0.36
1147.70,0.39
1159.18,0.41
1170.77,0.43
1182.48,0.45
1194.30,0.47
1206.25,0.50
1218.31,0.54
1230.49,0.58
1242.80,0.63
1255.22,0.68
1267.78,0.72
1280.45,0.75
1293.26,0.78
1306.19,0.80
1319.25,0.82
1332.45,0.86
1345.77,0.90
1359.23,0.93
1372.82,0.97
1386.55,1.02
1400.41,1.06
1414.42,1.10
1428.56,1.15
1442.85,1.20
1457.28,1.25
1471.85,1.31
1486.57,1.39
1501.43,1.48
1516.45,1.58
1531.61,1.69
1546.93,1.81
1562.40,1.93
1578.02,2.07
1593.80,2.25
1609.74,2.45
1625.84,2.67
1642.10,2.91
1658.52,3.17
1675.10,3.46
1691.85,3.76
1708.77,4.09
1725.86,4.44
1743.12,4.80
1760.55,5.18
1778.15,5.54
1795.94,5.90
1813.90,6.24
1832.03,6.58
1850.36,6.91
1868.86,7.19
1887.55,7.46
1906.42,7.71
1925.49,7.95
1944.74,8.16
1964.19,8.34
1983.83,8.51
2003.67,8.65
2023.71,8.77
2043.94,8.86
2064.38,8.94
2085.03,9.01
2105.88,9.06
2126.94,9.09
2148.20,9.12
2169.69,9.11
2191.38,9.08
2213.30,9.05
2235.43,9.00
2257.78,8.94
2280.36,8.86
2303.17,8.78
2326.20,8.71
2349.46,8.63
2372.95,8.54
2396.68,8.46
2420.65,8.37
2444.86,8.28
2469.31,8.19
2494.00,8.11
2518.94,8.01
2544.13,7.91
2569.57,7.80
2595.27,7.69
2621.22,7.58
2647.43,7.46
2673.90,7.33
2700.64,7.21
2727.65,7.08
2754.93,6.94
2782.48,6.80
2810.30,6.66
2838.40,6.51
2866.79,6.34
2895.46,6.17
2924.41,6.00
2953.65,5.82
2983.19,5.63
3013.02,5.44
3043.15,5.24
3073.58,5.02
3104.32,4.83
3135.36,4.65
3166.72,4.46
3198.38,4.29
3230.37,4.14
3262.67,4.02
3295.30,3.94
3328.25,3.90
3361.53,3.90
3395.15,3.94
3429.10,4.02
3463.39,4.13
3498.03,4.28
3533.01,4.47
3568.34,4.69
3604.02,4.93
3640.06,5.18
3676.46,5.44
3713.22,5.71
3750.36,5.97
3787.86,6.23
3825.74,6.47
3864.00,6.68
3902.64,6.89
3941.66,7.08
3981.08,7.24
4020.89,7.38
4061.10,7.51
4101.71,7.60
4142.73,7.66
4184.15,7.69
4226.00,7.70
4268.26,7.67
4310.94,7.61
4354.05,7.53
4397.59,7.44
4441.56,7.34
4485.98,7.24
4530.84,7.13
4576.15,7.02
4621.91,6.93
4668.13,6.86
4714.81,6.83
4761.96,6.81
4809.58,6.82
4857.67,6.84
4906.25,6.90
4955.31,6.99
5004.87,7.08
5054.91,7.19
5105.46,7.31
5156.52,7.44
5208.08,7.59
5260.16,7.74
5312.77,7.91
5365.89,8.08
5419.55,8.25
5473.75,8.44
5528.49,8.62
5583.77,8.80
5639.61,8.99
5696.00,9.18
5752.96,9.38
5810.49,9.58
5868.60,9.79
5927.28,10.01
5986.56,10.22
6046.42,10.42
6106.89,10.59
6167.96,10.75
6229.64,10.90
6291.93,11.04
6354.85,11.17
6418.40,11.29
6482.58,11.37
6547.41,11.44
6612.88,11.47
6679.01,11.45
6745.80,11.40
6813.26,11.31
6881.39,11.18
6950.21,11.03
7019.71,10.85
7089.91,10.64
7160.81,10.38
7232.41,10.08
7304.74,9.72
7377.79,9.32
7451.56,8.88
7526.08,8.39
7601.34,7.85
7677.35,7.28
7754.13,6.67
7831.67,6.02
7909.98,5.35
7989.08,4.66
8068.98,3.96
8149.67,3.27
8231.16,2.64
8313.47,2.07
8396.61,1.57
8480.57,1.17
8565.38,0.87
8651.03,0.65
8737.54,0.53
8824.92,0.50
8913.17,0.55
9002.30,0.68
9092.32,0.86
9183.25,1.08
9275.08,1.32
9367.83,1.58
9461.51,1.86
9556.12,2.12
9651.68,2.37
9748.20,2.61
9845.68,2.83
9944.14,3.04
10043.58,3.25
10144.02,3.44
10245.46,3.62
10347.91,3.78
10451.39,3.92
10555.91,4.03
10661.46,4.10
10768.08,4.14
10875.76,4.17
10984.52,4.16
11094.36,4.13
11205.31,4.07
11317.36,4.00
11430.53,3.90
11544.84,3.78
11660.29,3.63
11776.89,3.47
11894.66,3.27
12013.60,3.06
12133.74,2.82
12255.08,2.56
12377.63,2.28
12501.41,1.98
12626.42,1.65
12752.68,1.29
12880.21,0.90
13009.01,0.48
13139.10,0.03
13270.49,-0.46
13403.20,-1.00
13537.23,-1.56
13672.60,-2.15
13809.33,-2.75
13947.42,-3.37
14086.90,-3.95
14227.77,-4.51
14370.04,-5.03
14513.74,-5.49
14658.88,-5.88
14805.47,-6.22
14953.52,-6.48
15103.06,-6.66
15254.09,-6.79
15406.63,-6.87
15560.70,-6.90
15716.30,-6.92
15873.47,-6.94
16032.20,-6.99
16192.52,-7.08
16354.45,-7.20
16517.99,-7.35
16683.17,-7.56
16850.01,-7.80
17018.51,-8.06
17188.69,-8.32
17360.58,-8.59
17534.18,-8.86
17709.53,-9.12
17886.62,-9.38
18065.49,-9.63
18246.14,-9.85
18428.60,-10.04
18612.89,-10.22
18799.02,-10.39
18987.01,-10.55
19176.88,-10.69
19368.65,-10.82
19562.33,-10.94
19757.96,-11.04
19955.54,-11.13
