frequency,raw
20,-16.19
21,-15.78
22,-15.30
23,-14.84
24,-14.41
25,-13.99
26,-13.56
27,-13.15
28,-12.75
29,-12.36
30,-12.02
31,-11.68
32,-11.35
33,-11.03
34,-10.73
35,-10.48
36,-10.19
37,-9.95
38,-9.70
39,-9.46
40,-9.24
41,-8.99
42,-8.78
43,-8.57
44,-8.36
45,-8.12
46,-7.94
47,-7.73
48,-7.55
49,-7.39
50,-7.20
51,-7.03
52,-6.87
53,-6.71
54,-6.55
55,-6.41
56,-6.27
57,-6.16
58,-6.05
59,-5.92
60,-5.82
61,-5.71
62,-5.62
63,-5.52
64,-5.44
65,-5.36
66,-5.28
67,-5.18
68,-5.08
69,-5.00
70,-4.92
71,-4.82
72,-4.74
73,-4.67
74,-4.60
75,-4.53
76,-4.46
77,-4.40
78,-4.35
79,-4.31
80,-4.27
81,-4.25
82,-4.21
83,-4.17
84,-4.15
85,-4.12
86,-4.10
87,-4.09
88,-4.07
89,-4.07
90,-4.09
91,-4.11
92,-4.12
93,-4.16
94,-4.21
95,-4.22
96,-4.27
97,-4.32
98,-4.38
99,-4.43
100,-4.48
101,-4.53
102,-4.60
104,-4.71
105,-4.76
106,-4.85
107,-4.91
108,-4.98
109,-5.07
110,-5.17
111,-5.28
112,-5.40
113,-5.52
114,-5.64
115,-5.77
117,-6.01
118,-6.13
119,-6.24
120,-6.33
121,-6.43
123,-6.58
124,-6.66
125,-6.71
126,-6.78
128,-6.92
129,-7.00
130,-7.10
131,-7.19
133,-7.42
134,-7.55
135,-7.68
137,-7.98
138,-8.11
140,-8.38
141,-8.49
142,-8.58
144,-8.71
145,-8.75
147,-8.74
148,-8.71
150,-8.61
151,-8.55
153,-8.39
154,-8.31
156,-8.11
157,-8.02
159,-7.82
160,-7.72
162,-7.55
164,-7.35
165,-7.25
167,-7.06
169,-6.86
170,-6.78
172,-6.58
174,-6.38
175,-6.27
177,-6.06
179,-5.87
181,-5.65
183,-5.45
184,-5.37
186,-5.19
188,-5.02
190,-4.90
192,-4.77
194,-4.66
196,-4.58
198,-4.48
200,-4.35
202,-4.20
204,-4.05
206,-3.92
208,-3.77
210,-3.61
212,-3.50
214,-3.35
216,-3.25
218,-3.14
221,-2.99
223,-2.90
225,-2.81
227,-2.72
229,-2.65
232,-2.55
234,-2.47
236,-2.42
239,-2.30
241,-2.24
244,-2.15
246,-2.08
248,-2.02
251,-1.93
253,-1.86
256,-1.78
259,-1.69
261,-1.63
264,-1.56
266,-1.50
269,-1.42
272,-1.36
274,-1.32
277,-1.26
280,-1.18
283,-1.13
286,-1.07
288,-1.06
291,-1.01
294,-0.96
297,-0.91
300,-0.88
303,-0.87
306,-0.82
309,-0.79
312,-0.77
316,-0.73
319,-0.72
322,-0.68
325,-0.65
328,-0.63
332,-0.61
335,-0.59
338,-0.57
342,-0.54
345,-0.54
349,-0.51
352,-0.49
356,-0.49
359,-0.47
363,-0.44
366,-0.44
370,-0.42
374,-0.40
377,-0.40
381,-0.37
385,-0.35
389,-0.34
393,-0.31
397,-0.30
401,-0.28
405,-0.26
409,-0.26
413,-0.23
417,-0.21
421,-0.21
425,-0.18
430,-0.16
434,-0.15
438,-0.11
443,-0.11
447,-0.07
451,-0.07
456,-0.02
460,0.01
465,0.03
470,0.07
474,0.11
479,0.12
484,0.17
489,0.22
494,0.26
499,0.31
504,0.36
509,0.39
514,0.44
519,0.49
524,0.54
529,0.60
535,0.67
540,0.74
545,0.82
551,0.90
556,1.00
562,1.09
568,1.19
573,1.28
579,1.44
585,1.57
591,1.72
596,1.87
602,2.03
608,2.23
615,2.48
621,2.71
627,2.98
633,3.25
639,3.52
646,3.82
652,4.04
659,4.21
665,4.17
672,3.88
679,3.38
686,2.69
692,2.01
699,1.15
706,0.32
713,-0.39
721,-1.06
728,-1.50
735,-1.83
742,-2.04
750,-2.19
757,-2.23
765,-2.23
773,-2.18
780,-2.11
788,-2.00
796,-1.88
804,-1.77
812,-1.65
820,-1.55
828,-1.47
837,-1.43
845,-1.39
853,-1.39
862,-1.39
871,-1.39
879,-1.37
888,-1.29
897,-1.21
906,-1.10
915,-0.96
924,-0.84
933,-0.71
943,-0.60
952,-0.48
962,-0.37
971,-0.28
981,-0.17
991,-0.07
1001,0.01
1011,0.09
1021,0.19
1031,0.27
1041,0.35
1052,0.45
1062,0.52
1073,0.61
1084,0.69
1094,0.77
1105,0.86
1116,0.97
1128,1.08
1139,1.18
1150,1.28
1162,1.38
1173,1.48
1185,1.58
1197,1.69
1209,1.79
1221,1.92
1233,2.02
1246,2.13
1258,2.27
1271,2.38
1283,2.48
1296,2.62
1309,2.73
1322,2.87
1335,2.98
1349,3.13
1362,3.26
1376,3.43
1390,3.58
1404,3.75
1418,3.90
1432,4.05
1446,4.19
1461,4.35
1475,4.50
1490,4.65
1505,4.82
1520,4.98
1535,5.15
1550,5.30
1566,5.47
1582,5.62
1597,5.75
1613,5.91
1629,6.05
1646,6.21
1662,6.34
1679,6.50
1696,6.64
1713,6.79
1730,6.94
1747,7.08
1764,7.21
1782,7.34
1800,7.46
1818,7.58
1836,7.69
1854,7.77
1873,7.84
1892,7.89
1911,7.89
1930,7.85
1949,7.78
1969,7.69
1988,7.57
2008,7.44
2028,7.28
2048,7.09
2069,6.86
2090,6.62
2111,6.33
2132,6.01
2153,5.76
2175,5.50
2196,5.37
2218,5.33
2240,5.37
2263,5.43
2285,5.47
2308,5.49
2331,5.51
2355,5.54
2378,5.54
2402,5.56
2426,5.56
2450,5.56
2475,5.53
2500,5.47
2525,5.34
2550,5.18
2575,5.03
2601,4.85
2627,4.68
2653,4.58
2680,4.50
2707,4.45
2734,4.41
2761,4.40
2789,4.36
2817,4.33
2845,4.26
2873,4.18
2902,4.08
2931,3.98
2960,3.90
2990,3.82
3020,3.78
3050,3.81
3080,3.88
3111,4.01
3142,4.19
3174,4.38
3206,4.61
3238,4.82
3270,5.04
3303,5.22
3336,5.37
3369,5.49
3403,5.58
3437,5.58
3471,5.51
3506,5.40
3541,5.25
3576,5.06
3612,4.83
3648,4.60
3685,4.37
3721,4.14
3759,3.89
3796,3.61
3834,3.30
3873,2.97
3911,2.67
3950,2.37
3990,2.08
4030,1.85
4070,1.62
4111,1.43
4152,1.26
4193,1.10
4235,0.93
4278,0.77
4321,0.59
4364,0.44
4407,0.32
4451,0.17
4496,0.07
4541,-0.04
4586,-0.16
4632,-0.31
4679,-0.48
4725,-0.64
4773,-0.76
4820,-0.86
4868,-0.77
4917,-0.66
4966,-0.51
5016,-0.36
5066,-0.24
5117,-0.34
5168,-0.57
5220,-0.84
5272,-1.08
5325,-0.94
5378,-0.53
5432,0.03
5486,0.61
5541,1.18
5596,1.63
5652,1.96
5709,2.22
5766,2.45
5823,2.63
5882,2.79
5940,2.93
6000,3.07
6060,3.20
6120,3.38
6182,3.54
6244,3.74
6306,3.95
6369,4.17
6433,4.43
6497,4.73
6562,5.09
6628,5.48
6694,5.91
6761,6.33
6828,6.76
6897,7.17
6966,7.49
7035,7.72
7106,7.86
7177,7.73
7249,7.50
7321,7.19
7394,6.82
7468,6.43
7543,6.04
7618,5.73
7694,5.48
7771,5.31
7849,5.19
7928,5.20
8007,5.32
8087,5.49
8168,5.67
8250,5.82
8332,5.96
8415,6.06
8499,6.10
8584,6.00
8670,5.73
8757,5.31
8845,4.66
8933,3.86
9022,2.88
9113,1.78
9204,0.65
9296,-0.51
9389,-1.65
9483,-2.74
9577,-3.66
9673,-4.40
9770,-4.98
9868,-5.33
9966,-5.50
10066,-5.42
10167,-5.19
10268,-4.94
10371,-4.66
10475,-4.35
10579,-4.08
10685,-3.77
10792,-3.47
10900,-3.12
11009,-2.74
11119,-2.34
11230,-2.01
11343,-1.69
11456,-1.41
11571,-1.12
11686,-0.74
11803,-0.30
11921,0.23
12040,0.74
12161,1.19
12282,1.51
12405,1.60
12529,1.31
12655,0.89
12781,0.33
12909,-0.30
13038,-0.99
13168,-1.69
13300,-2.42
13433,-3.09
13567,-3.74
13703,-4.35
13840,-4.96
13978,-5.55
14118,-6.16
14259,-6.90
14402,-7.76
14546,-8.83
14692,-10.11
14838,-11.49
14987,-12.91
15137,-14.31
15288,-15.33
15441,-15.97
15595,-16.12
15751,-15.45
15909,-14.49
16068,-13.19
16229,-11.91
16391,-10.90
16555,-10.13
16720,-10.29
16888,-11.09
17056,-12.32
17227,-14.03
17399,-16.22
17573,-18.99
17749,-21.02
17926,-22.53
18106,-24.43
18287,-26.33
18470,-28.22
18654,-30.11
18841,-32.01
19029,-33.90
19220,-35.81
19412,-37.70
19606,-39.59
19802,-41.49
20000,-43.38
