frequency,raw
20.00,3.04
20.20,3.07
20.40,3.09
20.61,3.12
20.81,3.15
21.02,3.17
21.23,3.20
21.44,3.23
21.66,3.25
21.87,3.28
22.09,3.33
22.31,3.36
22.54,3.40
22.76,3.44
22.99,3.47
23.22,3.51
23.45,3.55
23.69,3.58
23.92,3.62
24.16,3.66
24.40,3.69
24.65,3.73
24.89,3.77
25.14,3.81
25.39,3.86
25.65,3.90
25.91,3.94
26.16,3.99
26.43,4.03
26.69,4.07
26.96,4.11
27.23,4.16
27.50,4.19
27.77,4.24
28.05,4.29
28.33,4.33
28.62,4.38
28.90,4.42
29.19,4.45
29.48,4.50
29.78,4.54
30.08,4.58
30.38,4.61
30.68,4.65
30.99,4.69
31.30,4.71
31.61,4.75
31.93,4.77
32.24,4.80
32.57,4.83
32.89,4.85
33.22,4.89
33.55,4.91
33.89,4.93
34.23,4.96
34.57,4.99
34.92,5.02
35.27,5.04
35.62,5.07
35.97,5.09
36.33,5.12
36.70,5.14
37.06,5.17
37.43,5.19
37.81,5.21
38.19,5.24
38.57,5.26
38.95,5.29
39.34,5.32
39.74,5.35
40.14,5.38
40.54,5.40
40.94,5.44
41.35,5.47
41.76,5.51
42.18,5.54
42.60,5.58
43.03,5.61
43.46,5.64
43.90,5.68
44.33,5.70
44.78,5.72
45.23,5.75
45.68,5.76
46.13,5.79
46.60,5.80
47.06,5.81
47.53,5.81
48.01,5.81
48.49,5.81
48.97,5.81
49.46,5.81
49.96,5.80
50.46,5.81
50.96,5.80
51.47,5.79
51.99,5.79
52.51,5.78
53.03,5.78
53.56,5.78
54.10,5.78
54.64,5.77
55.18,5.77
55.74,5.77
56.29,5.77
56.86,5.77
57.42,5.78
58.00,5.78
58.58,5.79
59.16,5.80
59.76,5.80
60.35,5.81
60.96,5.81
61.57,5.83
62.18,5.84
62.80,5.85
63.43,5.86
64.07,5.87
64.71,5.89
65.35,5.91
66.01,5.93
66.67,5.95
67.33,5.98
68.01,6.00
68.69,6.03
69.37,6.05
70.07,6.08
70.77,6.11
71.48,6.14
72.19,6.15
72.91,6.18
73.64,6.20
74.38,6.21
75.12,6.24
75.87,6.25
76.63,6.26
77.40,6.27
78.17,6.28
78.95,6.29
79.74,6.30
80.54,6.30
81.35,6.31
82.16,6.32
82.98,6.32
83.81,6.32
84.65,6.31
85.50,6.31
86.35,6.31
87.22,6.30
88.09,6.31
88.97,6.30
89.86,6.29
90.76,6.29
91.66,6.28
92.58,6.27
93.51,6.26
94.44,6.26
95.39,6.25
96.34,6.24
97.30,6.23
98.28,6.23
99.26,6.22
100.25,6.21
101.25,6.20
102.27,6.19
103.29,6.17
104.32,6.16
105.37,6.15
106.42,6.12
107.48,6.11
108.56,6.09
109.64,6.07
110.74,6.05
111.85,6.03
112.97,6.01
114.10,5.98
115.24,5.96
116.39,5.94
117.55,5.90
118.73,5.87
119.92,5.85
121.12,5.81
122.33,5.78
123.55,5.75
124.79,5.71
126.03,5.68
127.29,5.64
128.57,5.61
129.85,5.58
131.15,5.54
132.46,5.51
133.79,5.47
135.12,5.43
136.48,5.39
137.84,5.35
139.22,5.31
140.61,5.27
142.02,5.23
143.44,5.19
144.87,5.14
146.32,5.11
147.78,5.06
149.26,5.02
150.75,4.96
152.26,4.91
153.78,4.86
155.32,4.81
156.88,4.75
158.44,4.69
160.03,4.64
161.63,4.57
163.24,4.51
164.88,4.45
166.53,4.38
168.19,4.31
169.87,4.23
171.57,4.16
173.29,4.08
175.02,4.00
176.77,3.92
178.54,3.84
180.32,3.76
182.13,3.67
183.95,3.58
185.79,3.51
187.65,3.42
189.52,3.33
191.42,3.25
193.33,3.16
195.27,3.07
197.22,2.98
199.19,2.90
201.18,2.81
203.19,2.70
205.23,2.61
207.28,2.51
209.35,2.40
211.44,2.30
213.56,2.19
215.69,2.08
217.85,1.96
220.03,1.86
222.23,1.75
224.45,1.64
226.70,1.53
228.96,1.43
231.25,1.32
233.57,1.22
235.90,1.13
238.26,1.04
240.64,0.95
243.05,0.88
245.48,0.79
247.93,0.72
250.41,0.66
252.92,0.60
255.45,0.53
258.00,0.47
260.58,0.41
263.19,0.33
265.82,0.26
268.48,0.19
271.16,0.11
273.87,0.02
276.61,-0.06
279.38,-0.15
282.17,-0.24
284.99,-0.33
287.84,-0.43
290.72,-0.51
293.63,-0.60
296.57,-0.68
299.53,-0.77
302.53,-0.85
305.55,-0.94
308.61,-1.01
311.69,-1.09
314.81,-1.16
317.96,-1.23
321.14,-1.29
324.35,-1.36
327.59,-1.41
330.87,-1.46
334.18,-1.52
337.52,-1.56
340.90,-1.60
344.30,-1.65
347.75,-1.69
351.23,-1.72
354.74,-1.76
358.28,-1.82
361.87,-1.86
365.49,-1.90
369.14,-1.93
372.83,-1.95
376.56,-1.97
380.33,-1.99
384.13,-1.99
387.97,-2.00
391.85,-1.99
395.77,-1.98
399.73,-1.96
403.72,-1.94
407.76,-1.91
411.84,-1.88
415.96,-1.83
420.12,-1.79
424.32,-1.74
428.56,-1.69
432.85,-1.64
437.18,-1.57
441.55,-1.51
445.96,-1.45
450.42,-1.38
454.93,-1.32
459.48,-1.25
464.07,-1.19
468.71,-1.13
473.40,-1.06
478.13,-0.99
482.91,-0.92
487.74,-0.85
492.62,-0.77
497.55,-0.70
502.52,-0.63
507.55,-0.55
512.62,-0.48
517.75,-0.39
522.93,-0.32
528.16,-0.23
533.44,-0.15
538.77,-0.07
544.16,0.02
549.60,0.10
555.10,0.19
560.65,0.27
566.25,0.36
571.92,0.44
577.64,0.52
583.41,0.59
589.25,0.68
595.14,0.74
601.09,0.81
607.10,0.88
613.17,0.94
619.30,1.01
625.50,1.07
631.75,1.12
638.07,1.18
644.45,1.24
650.89,1.30
657.40,1.37
663.98,1.43
670.62,1.49
677.32,1.56
684.10,1.62
690.94,1.69
697.85,1.76
704.83,1.82
711.87,1.88
718.99,1.95
726.18,1.99
733.44,2.05
740.78,2.10
748.19,2.14
755.67,2.20
763.23,2.23
770.86,2.26
778.57,2.28
786.35,2.29
794.22,2.30
802.16,2.29
810.18,2.27
818.28,2.25
826.46,2.21
834.73,2.16
843.08,2.10
851.51,2.02
860.02,1.92
868.62,1.82
877.31,1.68
886.08,1.52
894.94,1.35
903.89,1.15
912.93,0.92
922.06,0.70
931.28,0.46
940.59,0.25
950.00,0.07
959.50,-0.09
969.09,-0.17
978.78,-0.19
988.57,-0.15
998.46,-0.03
1008.44,0.15
1018.53,0.36
1028.71,0.59
1039.00,0.82
1049.39,1.02
1059.88,1.19
1070.48,1.29
1081.19,1.37
1092.00,1.40
1102.92,1.38
1113.95,1.34
1125.09,1.29
1136.34,1.23
1147.70,1.18
1159.18,1.13
1170.77,1.09
1182.48,1.06
1194.30,1.04
1206.25,1.02
1218.31,1.02
1230.49,1.00
1242.80,1.01
1255.22,1.02
1267.78,1.04
1280.45,1.06
1293.26,1.09
1306.19,1.14
1319.25,1.19
1332.45,1.26
1345.77,1.33
1359.23,1.40
1372.82,1.49
1386.55,1.57
1400.41,1.66
1414.42,1.74
1428.56,1.82
1442.85,1.90
1457.28,1.98
1471.85,2.05
1486.57,2.11
1501.43,2.17
1516.45,2.21
1531.61,2.26
1546.93,2.29
1562.40,2.31
1578.02,2.33
1593.80,2.36
1609.74,2.39
1625.84,2.41
1642.10,2.44
1658.52,2.47
1675.10,2.52
1691.85,2.57
1708.77,2.63
1725.86,2.69
1743.12,2.76
1760.55,2.84
1778.15,2.91
1795.94,2.98
1813.90,3.07
1832.03,3.14
1850.36,3.23
1868.86,3.30
1887.55,3.38
1906.42,3.47
1925.49,3.56
1944.74,3.65
1964.19,3.74
1983.83,3.84
2003.67,3.95
2023.71,4.07
2043.94,4.19
2064.38,4.31
2085.03,4.44
2105.88,4.57
2126.94,4.70
2148.20,4.84
2169.69,4.97
2191.38,5.10
2213.30,5.24
2235.43,5.36
2257.78,5.51
2280.36,5.64
2303.17,5.79
2326.20,5.95
2349.46,6.11
2372.95,6.30
2396.68,6.49
2420.65,6.69
2444.86,6.90
2469.31,7.12
2494.00,7.34
2518.94,7.54
2544.13,7.74
2569.57,7.90
2595.27,8.06
2621.22,8.17
2647.43,8.26
2673.90,8.33
2700.64,8.38
2727.65,8.41
2754.93,8.45
2782.48,8.47
2810.30,8.50
2838.40,8.52
2866.79,8.54
2895.46,8.55
2924.41,8.55
2953.65,8.55
2983.19,8.51
3013.02,8.46
3043.15,8.40
3073.58,8.30
3104.32,8.19
3135.36,8.07
3166.72,7.93
3198.38,7.81
3230.37,7.70
3262.67,7.62
3295.30,7.58
3328.25,7.57
3361.53,7.60
3395.15,7.68
3429.10,7.76
3463.39,7.86
3498.03,7.92
3533.01,7.95
3568.34,7.94
3604.02,7.83
3640.06,7.66
3676.46,7.44
3713.22,7.14
3750.36,6.83
3787.86,6.51
3825.74,6.19
3864.00,5.92
3902.64,5.68
3941.66,5.46
3981.08,5.30
4020.89,5.16
4061.10,5.05
4101.71,4.91
4142.73,4.79
4184.15,4.65
4226.00,4.47
4268.26,4.31
4310.94,4.14
4354.05,3.98
4397.59,3.85
4441.56,3.74
4485.98,3.68
4530.84,3.67
4576.15,3.72
4621.91,3.83
4668.13,4.03
4714.81,4.29
4761.96,4.60
4809.58,5.01
4857.67,5.45
4906.25,5.92
4955.31,6.43
5004.87,6.94
5054.91,7.42
5105.46,7.87
5156.52,8.25
5208.08,8.57
5260.16,8.82
5312.77,8.98
5365.89,9.07
5419.55,9.08
5473.75,8.99
5528.49,8.82
5583.77,8.58
5639.61,8.22
5696.00,7.80
5752.96,7.31
5810.49,6.75
5868.60,6.16
5927.28,5.56
5986.56,4.98
6046.42,4.45
6106.89,3.95
6167.96,3.50
6229.64,3.10
6291.93,2.72
6354.85,2.36
6418.40,2.00
6482.58,1.65
6547.41,1.29
6612.88,0.92
6679.01,0.56
6745.80,0.22
6813.26,-0.08
6881.39,-0.32
6950.21,-0.50
7019.71,-0.59
7089.91,-0.54
7160.81,-0.39
7232.41,-0.10
7304.74,0.40
7377.79,1.02
7451.56,1.79
7526.08,2.78
7601.34,3.86
7677.35,5.01
7754.13,6.25
7831.67,7.46
7909.98,8.65
7989.08,9.73
8068.98,10.70
8149.67,11.56
8231.16,12.29
8313.47,12.87
8396.61,13.38
8480.57,13.81
8565.38,14.10
8651.03,14.32
8737.54,14.44
8824.92,14.33
8913.17,14.07
9002.30,13.65
9092.32,12.96
9183.25,12.08
9275.08,11.06
9367.83,9.87
9461.51,8.62
9556.12,7.38
9651.68,6.21
9748.20,5.22
9845.68,4.39
9944.14,3.71
10043.58,3.29
10144.02,3.01
10245.46,2.83
10347.91,2.78
10451.39,2.75
10555.91,2.74
10661.46,2.71
10768.08,2.68
10875.76,2.65
10984.52,2.66
11094.36,2.73
11205.31,2.87
11317.36,3.09
11430.53,3.41
11544.84,3.75
11660.29,4.09
11776.89,4.37
11894.66,4.57
12013.60,4.69
12133.74,4.66
12255.08,4.51
12377.63,4.26
12501.41,3.88
12626.42,3.43
12752.68,2.94
12880.21,2.39
13009.01,1.82
13139.10,1.25
13270.49,0.69
13403.20,0.14
13537.23,-0.38
13672.60,-0.87
13809.33,-1.26
13947.42,-1.63
14086.90,-1.99
14227.77,-2.43
14370.04,-2.98
14513.74,-3.66
14658.88,-4.59
14805.47,-5.79
14953.52,-7.14
15103.06,-8.63
15254.09,-10.16
15406.63,-11.58
15560.70,-12.85
15716.30,-13.71
15873.47,-14.35
16032.20,-14.75
16192.52,-14.69
16354.45,-14.42
16517.99,-14.00
16683.17,-13.37
16850.01,-12.70
17018.51,-12.00
17188.69,-11.34
17360.58,-10.78
17534.18,-10.31
17709.53,-9.93
17886.62,-9.75
18065.49,-9.71
18246.14,-9.78
18428.60,-9.89
18612.89,-9.92
18799.02,-9.87
18987.01,-9.62
19176.88,-9.21
19368.65,-8.68
19562.33,-8.04
19757.96,-7.43
19955.54,-6.87
