frequency,raw,error,smoothed,error_smoothed,equalization,parametric_eq,fixed_band_eq,equalized_raw,equalized_smoothed,target
20.00,9.96,4.08,9.96,4.08,-4.08,-4.16,-2.01,5.88,5.88,5.88
20.20,9.97,4.10,9.97,4.10,-4.10,-4.17,-2.06,5.86,5.87,5.87
20.40,9.98,4.12,9.98,4.13,-4.13,-4.17,-2.12,5.85,5.85,5.86
20.61,10.00,4.15,9.99,4.15,-4.15,-4.18,-2.18,5.85,5.84,5.85
20.81,10.01,4.18,10.01,4.18,-4.17,-4.19,-2.25,5.84,5.83,5.83
21.02,10.02,4.20,10.02,4.20,-4.19,-4.19,-2.31,5.82,5.82,5.82
21.23,10.03,4.22,10.03,4.22,-4.21,-4.20,-2.38,5.81,5.81,5.81
21.44,10.04,4.22,10.04,4.23,-4.23,-4.21,-2.44,5.80,5.80,5.81
21.66,10.05,4.25,10.05,4.25,-4.25,-4.21,-2.51,5.79,5.79,5.80
21.87,10.06,4.26,10.06,4.27,-4.27,-4.22,-2.59,5.79,5.79,5.79
22.09,10.07,4.29,10.07,4.29,-4.29,-4.23,-2.66,5.78,5.78,5.77
22.31,10.08,4.30,10.08,4.31,-4.30,-4.23,-2.74,5.77,5.77,5.77
22.54,10.09,4.32,10.09,4.32,-4.32,-4.24,-2.81,5.77,5.77,5.76
22.76,10.10,4.33,10.10,4.34,-4.34,-4.25,-2.89,5.76,5.76,5.76
22.99,10.11,4.35,10.11,4.35,-4.35,-4.26,-2.97,5.75,5.75,5.75
23.22,10.12,4.38,10.12,4.37,-4.37,-4.26,-3.06,5.75,5.75,5.74
23.45,10.13,4.38,10.13,4.38,-4.38,-4.27,-3.14,5.74,5.74,5.75
23.69,10.14,4.40,10.14,4.40,-4.40,-4.28,-3.23,5.74,5.74,5.74
23.92,10.15,4.42,10.15,4.41,-4.41,-4.29,-3.32,5.74,5.74,5.73
24.16,10.16,4.42,10.16,4.42,-4.42,-4.30,-3.41,5.74,5.74,5.74
24.40,10.17,4.43,10.17,4.43,-4.43,-4.31,-3.50,5.73,5.73,5.74
24.65,10.18,4.44,10.18,4.44,-4.45,-4.31,-3.60,5.73,5.73,5.74
24.89,10.19,4.45,10.19,4.45,-4.46,-4.32,-3.69,5.73,5.73,5.74
25.14,10.20,4.47,10.20,4.47,-4.47,-4.33,-3.78,5.73,5.73,5.73
25.39,10.21,4.48,10.21,4.48,-4.48,-4.34,-3.88,5.73,5.73,5.73
25.65,10.22,4.49,10.22,4.49,-4.49,-4.35,-3.98,5.73,5.73,5.72
25.91,10.23,4.50,10.23,4.50,-4.50,-4.36,-4.07,5.73,5.73,5.72
26.16,10.24,4.50,10.23,4.50,-4.51,-4.37,-4.17,5.73,5.73,5.73
26.43,10.24,4.51,10.24,4.51,-4.51,-4.38,-4.27,5.72,5.73,5.73
26.69,10.25,4.52,10.25,4.52,-4.52,-4.39,-4.36,5.73,5.73,5.73
26.96,10.26,4.53,10.26,4.53,-4.53,-4.40,-4.46,5.73,5.73,5.73
27.23,10.27,4.54,10.27,4.54,-4.53,-4.41,-4.55,5.73,5.73,5.73
27.50,10.28,4.55,10.27,4.54,-4.54,-4.42,-4.64,5.74,5.73,5.73
27.77,10.28,4.54,10.28,4.55,-4.55,-4.43,-4.73,5.73,5.73,5.74
28.05,10.29,4.55,10.29,4.55,-4.55,-4.44,-4.82,5.74,5.74,5.74
28.33,10.30,4.55,10.30,4.55,-4.56,-4.45,-4.90,5.74,5.74,5.74
28.62,10.31,4.56,10.31,4.56,-4.56,-4.46,-4.98,5.75,5.75,5.74
28.90,10.32,4.57,10.31,4.56,-4.57,-4.47,-5.05,5.75,5.75,5.75
29.19,10.32,4.57,10.32,4.57,-4.57,-4.48,-5.13,5.74,5.75,5.75
29.48,10.33,4.58,10.33,4.58,-4.58,-4.50,-5.19,5.75,5.75,5.75
29.78,10.34,4.59,10.33,4.59,-4.59,-4.51,-5.25,5.75,5.75,5.75
30.08,10.34,4.59,10.34,4.60,-4.60,-4.52,-5.30,5.74,5.74,5.75
30.38,10.35,4.61,10.34,4.61,-4.61,-4.53,-5.35,5.74,5.74,5.73
30.68,10.35,4.62,10.35,4.62,-4.62,-4.54,-5.39,5.73,5.73,5.73
30.99,10.36,4.63,10.36,4.63,-4.63,-4.56,-5.43,5.73,5.73,5.73
31.30,10.37,4.64,10.36,4.64,-4.64,-4.57,-5.45,5.73,5.72,5.73
31.61,10.37,4.64,10.37,4.65,-4.65,-4.58,-5.48,5.72,5.72,5.73
31.93,10.38,4.67,10.37,4.66,-4.66,-4.60,-5.49,5.72,5.71,5.70
32.24,10.38,4.67,10.38,4.67,-4.67,-4.61,-5.50,5.71,5.71,5.71
32.57,10.39,4.69,10.39,4.69,-4.68,-4.62,-5.50,5.70,5.70,5.70
32.89,10.40,4.70,10.39,4.69,-4.69,-4.63,-5.50,5.70,5.70,5.70
33.22,10.40,4.70,10.40,4.71,-4.71,-4.65,-5.49,5.69,5.69,5.70
33.55,10.41,4.71,10.40,4.71,-4.72,-4.66,-5.48,5.69,5.68,5.69
33.89,10.41,4.73,10.41,4.73,-4.73,-4.68,-5.46,5.68,5.68,5.68
34.23,10.41,4.74,10.41,4.74,-4.74,-4.69,-5.44,5.67,5.67,5.67
34.57,10.42,4.75,10.42,4.75,-4.75,-4.71,-5.41,5.67,5.67,5.66
34.92,10.43,4.78,10.42,4.76,-4.76,-4.72,-5.38,5.67,5.67,5.65
35.27,10.43,4.76,10.42,4.77,-4.76,-4.74,-5.35,5.66,5.66,5.67
35.62,10.42,4.77,10.42,4.77,-4.77,-4.75,-5.32,5.64,5.65,5.65
35.97,10.42,4.77,10.41,4.77,-4.78,-4.77,-5.28,5.64,5.63,5.64
36.33,10.41,4.78,10.41,4.78,-4.79,-4.78,-5.25,5.62,5.62,5.63
36.70,10.41,4.80,10.40,4.80,-4.80,-4.80,-5.21,5.61,5.61,5.61
37.06,10.40,4.81,10.40,4.81,-4.81,-4.81,-5.17,5.59,5.59,5.59
37.43,10.40,4.82,10.39,4.82,-4.82,-4.83,-5.14,5.58,5.58,5.58
37.81,10.39,4.82,10.39,4.83,-4.83,-4.84,-5.10,5.56,5.56,5.56
38.19,10.39,4.85,10.38,4.84,-4.84,-4.86,-5.07,5.55,5.54,5.54
38.57,10.38,4.85,10.38,4.85,-4.85,-4.88,-5.03,5.52,5.52,5.53
38.95,10.37,4.86,10.37,4.86,-4.86,-4.89,-5.00,5.50,5.50,5.51
39.34,10.36,4.87,10.36,4.88,-4.87,-4.91,-4.97,5.48,5.49,5.49
39.74,10.36,4.90,10.35,4.89,-4.88,-4.93,-4.94,5.47,5.47,5.46
40.14,10.35,4.90,10.34,4.90,-4.89,-4.95,-4.92,5.45,5.45,5.45
40.54,10.33,4.90,10.33,4.90,-4.90,-4.96,-4.90,5.42,5.43,5.43
40.94,10.32,4.91,10.32,4.91,-4.91,-4.98,-4.88,5.41,5.41,5.41
41.35,10.31,4.92,10.31,4.92,-4.92,-5.00,-4.86,5.39,5.39,5.39
41.76,10.30,4.93,10.29,4.92,-4.92,-5.02,-4.85,5.37,5.37,5.36
42.18,10.28,4.92,10.28,4.93,-4.93,-5.04,-4.84,5.35,5.35,5.36
42.60,10.27,4.94,10.27,4.93,-4.93,-5.05,-4.83,5.33,5.33,5.33
43.03,10.26,4.94,10.25,4.94,-4.94,-5.07,-4.83,5.32,5.31,5.32
43.46,10.24,4.95,10.24,4.95,-4.95,-5.09,-4.83,5.29,5.29,5.29
43.90,10.22,4.95,10.22,4.95,-4.95,-5.11,-4.83,5.27,5.27,5.27
44.33,10.21,4.96,10.21,4.96,-4.96,-5.13,-4.84,5.25,5.25,5.24
44.78,10.20,4.97,10.19,4.97,-4.97,-5.15,-4.85,5.23,5.23,5.23
45.23,10.18,4.97,10.18,4.98,-4.98,-5.17,-4.87,5.20,5.20,5.21
45.68,10.16,4.99,10.16,4.99,-4.99,-5.19,-4.89,5.17,5.17,5.17
46.13,10.15,5.01,10.14,5.00,-5.00,-5.21,-4.91,5.15,5.14,5.14
46.60,10.13,5.01,10.13,5.01,-5.02,-5.23,-4.93,5.11,5.11,5.11
47.06,10.12,5.03,10.11,5.03,-5.03,-5.25,-4.96,5.08,5.08,5.08
47.53,10.10,5.04,10.10,5.05,-5.06,-5.27,-5.00,5.04,5.04,5.05
48.01,10.09,5.08,10.09,5.08,-5.08,-5.29,-5.03,5.01,5.01,5.00
48.49,10.08,5.10,10.08,5.10,-5.10,-5.31,-5.07,4.97,4.97,4.97
48.97,10.07,5.13,10.07,5.13,-5.13,-5.33,-5.11,4.94,4.94,4.93
49.46,10.06,5.15,10.06,5.16,-5.16,-5.35,-5.16,4.90,4.90,4.90
49.96,10.05,5.20,10.05,5.19,-5.19,-5.37,-5.20,4.86,4.86,4.85
50.46,10.05,5.22,10.04,5.22,-5.21,-5.39,-5.25,4.83,4.83,4.83
50.96,10.04,5.24,10.04,5.25,-5.24,-5.41,-5.31,4.80,4.80,4.80
51.47,10.04,5.27,10.03,5.27,-5.27,-5.43,-5.36,4.77,4.76,4.76
51.99,10.03,5.31,10.03,5.30,-5.30,-5.46,-5.42,4.73,4.73,4.72
52.51,10.03,5.33,10.03,5.33,-5.33,-5.48,-5.47,4.69,4.69,4.70
53.03,10.03,5.35,10.03,5.36,-5.37,-5.50,-5.53,4.66,4.66,4.67
53.56,10.04,5.40,10.04,5.40,-5.41,-5.52,-5.59,4.63,4.63,4.64
54.10,10.05,5.45,10.05,5.44,-5.45,-5.54,-5.65,4.60,4.60,4.59
54.64,10.06,5.49,10.06,5.49,-5.49,-5.56,-5.70,4.57,4.57,4.57
55.18,10.07,5.53,10.07,5.54,-5.53,-5.58,-5.76,4.54,4.54,4.53
55.74,10.08,5.58,10.07,5.57,-5.57,-5.61,-5.82,4.51,4.51,4.50
56.29,10.08,5.60,10.08,5.60,-5.60,-5.63,-5.87,4.48,4.48,4.48
56.86,10.08,5.63,10.08,5.63,-5.63,-5.65,-5.92,4.45,4.45,4.45
57.42,10.08,5.66,10.08,5.66,-5.66,-5.67,-5.97,4.42,4.42,4.41
58.00,10.08,5.69,10.07,5.69,-5.68,-5.69,-6.02,4.40,4.39,4.38
58.58,10.07,5.70,10.07,5.70,-5.70,-5.72,-6.06,4.37,4.37,4.36
59.16,10.06,5.71,10.06,5.72,-5.72,-5.74,-6.10,4.33,4.34,4.34
59.76,10.05,5.73,10.05,5.74,-5.75,-5.76,-6.14,4.30,4.30,4.31
60.35,10.04,5.77,10.03,5.76,-5.77,-5.78,-6.17,4.27,4.26,4.27
60.96,10.02,5.79,10.02,5.79,-5.80,-5.80,-6.20,4.22,4.22,4.23
61.57,10.00,5.82,10.00,5.82,-5.82,-5.82,-6.22,4.18,4.18,4.18
62.18,9.98,5.84,9.98,5.85,-5.84,-5.84,-6.24,4.13,4.14,4.13
62.80,9.97,5.88,9.96,5.88,-5.87,-5.87,-6.25,4.10,4.10,4.09
63.43,9.95,5.90,9.95,5.90,-5.89,-5.89,-6.25,4.06,4.05,4.04
64.07,9.93,5.92,9.92,5.92,-5.91,-5.91,-6.26,4.01,4.01,4.01
64.71,9.90,5.93,9.90,5.93,-5.93,-5.93,-6.25,3.97,3.97,3.97
65.35,9.88,5.94,9.88,5.94,-5.95,-5.95,-6.24,3.93,3.93,3.93
66.01,9.86,5.96,9.86,5.96,-5.96,-5.97,-6.23,3.89,3.89,3.90
66.67,9.84,5.97,9.84,5.98,-5.98,-5.99,-6.22,3.86,3.86,3.87
67.33,9.82,6.00,9.81,5.99,-5.99,-6.01,-6.20,3.83,3.82,3.82
68.01,9.79,6.00,9.79,6.01,-6.01,-6.03,-6.17,3.78,3.79,3.79
68.69,9.78,6.03,9.77,6.03,-6.02,-6.05,-6.15,3.75,3.75,3.75
69.37,9.76,6.04,9.75,6.04,-6.04,-6.07,-6.12,3.71,3.71,3.71
70.07,9.74,6.07,9.74,6.07,-6.07,-6.09,-6.09,3.67,3.67,3.67
70.77,9.72,6.09,9.72,6.09,-6.10,-6.11,-6.06,3.62,3.62,3.63
71.48,9.72,6.13,9.71,6.13,-6.14,-6.13,-6.02,3.58,3.57,3.59
72.19,9.71,6.16,9.71,6.17,-6.18,-6.15,-5.99,3.53,3.53,3.55
72.91,9.72,6.22,9.72,6.21,-6.22,-6.17,-5.96,3.50,3.50,3.50
73.64,9.73,6.26,9.73,6.26,-6.26,-6.19,-5.92,3.47,3.46,3.46
74.38,9.74,6.31,9.74,6.31,-6.30,-6.21,-5.89,3.43,3.44,3.42
75.12,9.75,6.35,9.74,6.35,-6.34,-6.23,-5.86,3.41,3.40,3.39
75.87,9.75,6.38,9.75,6.38,-6.38,-6.24,-5.83,3.37,3.37,3.37
76.63,9.74,6.41,9.74,6.41,-6.40,-6.26,-5.81,3.33,3.34,3.32
77.40,9.73,6.42,9.72,6.43,-6.43,-6.28,-5.78,3.30,3.30,3.30
78.17,9.71,6.45,9.71,6.44,-6.44,-6.30,-5.76,3.27,3.27,3.26
78.95,9.69,6.44,9.69,6.45,-6.45,-6.31,-5.74,3.24,3.24,3.25
79.74,9.68,6.46,9.67,6.46,-6.46,-6.33,-5.72,3.22,3.21,3.21
80.54,9.65,6.46,9.65,6.46,-6.46,-6.35,-5.71,3.19,3.19,3.19
81.35,9.62,6.46,9.62,6.46,-6.46,-6.36,-5.70,3.15,3.16,3.15
82.16,9.60,6.46,9.59,6.46,-6.46,-6.38,-5.69,3.13,3.13,3.14
82.98,9.57,6.47,9.57,6.47,-6.47,-6.39,-5.69,3.10,3.10,3.10
83.81,9.54,6.47,9.54,6.47,-6.47,-6.41,-5.69,3.06,3.07,3.07
84.65,9.51,6.47,9.51,6.48,-6.48,-6.42,-5.70,3.03,3.03,3.03
85.50,9.49,6.48,9.49,6.48,-6.49,-6.44,-5.71,3.00,3.00,3.00
86.35,9.47,6.49,9.47,6.50,-6.50,-6.45,-5.72,2.97,2.97,2.97
87.22,9.45,6.51,9.45,6.51,-6.51,-6.47,-5.74,2.94,2.94,2.94
88.09,9.44,6.53,9.43,6.52,-6.52,-6.48,-5.76,2.91,2.91,2.91
88.97,9.42,6.54,9.42,6.54,-6.54,-6.50,-5.79,2.88,2.88,2.88
89.86,9.40,6.55,9.40,6.56,-6.56,-6.51,-5.82,2.84,2.84,2.84
90.76,9.38,6.57,9.38,6.57,-6.57,-6.52,-5.86,2.80,2.81,2.81
91.66,9.37,6.60,9.36,6.59,-6.59,-6.54,-5.90,2.78,2.77,2.77
92.58,9.35,6.60,9.35,6.61,-6.60,-6.55,-5.94,2.74,2.74,2.74
93.51,9.33,6.62,9.33,6.62,-6.62,-6.56,-5.99,2.71,2.71,2.71
94.44,9.31,6.63,9.30,6.63,-6.63,-6.57,-6.04,2.68,2.67,2.67
95.39,9.28,6.65,9.28,6.65,-6.64,-6.58,-6.10,2.63,2.63,2.63
96.34,9.25,6.66,9.25,6.66,-6.65,-6.60,-6.16,2.59,2.59,2.59
97.30,9.22,6.66,9.21,6.66,-6.67,-6.61,-6.22,2.55,2.55,2.55
98.28,9.18,6.67,9.18,6.67,-6.68,-6.62,-6.29,2.50,2.51,2.51
99.26,9.16,6.69,9.16,6.69,-6.69,-6.63,-6.36,2.47,2.47,2.47
100.25,9.14,6.70,9.14,6.70,-6.70,-6.64,-6.43,2.43,2.43,2.43
101.25,9.12,6.71,9.12,6.72,-6.72,-6.65,-6.51,2.40,2.40,2.41
102.27,9.11,6.73,9.10,6.73,-6.73,-6.66,-6.58,2.38,2.37,2.38
103.29,9.09,6.75,9.09,6.74,-6.74,-6.67,-6.66,2.34,2.34,2.34
104.32,9.07,6.75,9.07,6.75,-6.75,-6.68,-6.75,2.31,2.31,2.31
105.37,9.05,6.76,9.05,6.77,-6.76,-6.69,-6.83,2.28,2.28,2.28
106.42,9.03,6.77,9.03,6.77,-6.77,-6.70,-6.91,2.26,2.26,2.26
107.48,9.01,6.79,9.00,6.78,-6.77,-6.71,-6.99,2.23,2.23,2.22
108.56,8.98,6.79,8.98,6.79,-6.78,-6.72,-7.08,2.20,2.20,2.19
109.64,8.95,6.78,8.94,6.78,-6.78,-6.73,-7.16,2.16,2.16,2.16
110.74,8.91,6.78,8.91,6.78,-6.79,-6.74,-7.24,2.12,2.12,2.13
111.85,8.87,6.78,8.87,6.78,-6.79,-6.75,-7.31,2.07,2.08,2.09
112.97,8.85,6.79,8.85,6.79,-6.80,-6.76,-7.39,2.05,2.04,2.06
114.10,8.83,6.80,8.83,6.80,-6.81,-6.77,-7.46,2.02,2.02,2.03
115.24,8.81,6.83,8.81,6.82,-6.82,-6.78,-7.52,1.99,1.99,1.98
116.39,8.79,6.84,8.78,6.84,-6.83,-6.78,-7.58,1.96,1.95,1.94
117.55,8.76,6.85,8.76,6.85,-6.84,-6.79,-7.63,1.92,1.92,1.91
118.73,8.73,6.85,8.73,6.85,-6.85,-6.80,-7.68,1.88,1.88,1.87
119.92,8.70,6.85,8.70,6.85,-6.86,-6.81,-7.72,1.84,1.84,1.85
121.12,8.68,6.85,8.68,6.86,-6.86,-6.82,-7.76,1.82,1.82,1.82
122.33,8.66,6.87,8.66,6.86,-6.87,-6.82,-7.78,1.79,1.79,1.79
123.55,8.64,6.87,8.63,6.87,-6.87,-6.83,-7.80,1.77,1.76,1.77
124.79,8.61,6.87,8.61,6.87,-6.87,-6.84,-7.80,1.73,1.73,1.73
126.03,8.57,6.86,8.58,6.88,-6.88,-6.85,-7.80,1.69,1.70,1.70
127.29,8.56,6.88,8.55,6.88,-6.88,-6.85,-7.79,1.68,1.67,1.67
128.57,8.53,6.90,8.52,6.89,-6.88,-6.86,-7.78,1.65,1.64,1.63
129.85,8.49,6.89,8.49,6.89,-6.88,-6.87,-7.75,1.61,1.61,1.60
131.15,8.44,6.87,8.45,6.88,-6.88,-6.87,-7.72,1.56,1.57,1.56
132.46,8.41,6.87,8.40,6.87,-6.88,-6.88,-7.67,1.53,1.53,1.53
133.79,8.38,6.88,8.37,6.87,-6.88,-6.88,-7.63,1.50,1.49,1.50
135.12,8.33,6.86,8.34,6.86,-6.88,-6.89,-7.57,1.45,1.46,1.47
136.48,8.31,6.86,8.31,6.87,-6.88,-6.89,-7.52,1.43,1.43,1.44
137.84,8.29,6.88,8.29,6.88,-6.88,-6.90,-7.45,1.40,1.41,1.41
139.22,8.28,6.90,8.27,6.89,-6.88,-6.90,-7.38,1.39,1.39,1.37
140.61,8.25,6.90,8.24,6.90,-6.88,-6.91,-7.31,1.37,1.36,1.35
142.02,8.21,6.89,8.21,6.89,-6.88,-6.91,-7.24,1.33,1.33,1.32
143.44,8.18,6.88,8.17,6.88,-6.87,-6.91,-7.16,1.31,1.30,1.30
144.87,8.14,6.86,8.14,6.86,-6.86,-6.92,-7.08,1.27,1.27,1.28
146.32,8.10,6.85,8.10,6.85,-6.85,-6.92,-7.00,1.25,1.25,1.25
147.78,8.06,6.83,8.06,6.83,-6.84,-6.92,-6.93,1.22,1.21,1.23
149.26,8.02,6.82,8.02,6.82,-6.83,-6.92,-6.85,1.19,1.19,1.20
150.75,7.99,6.82,7.99,6.81,-6.82,-6.92,-6.77,1.16,1.17,1.17
152.26,7.97,6.81,7.96,6.81,-6.82,-6.92,-6.70,1.15,1.15,1.15
153.78,7.94,6.81,7.94,6.81,-6.81,-6.92,-6.62,1.13,1.13,1.13
155.32,7.93,6.82,7.92,6.82,-6.81,-6.92,-6.55,1.12,1.11,1.10
156.88,7.89,6.81,7.89,6.81,-6.80,-6.91,-6.48,1.09,1.09,1.08
158.44,7.86,6.81,7.85,6.80,-6.80,-6.91,-6.42,1.06,1.05,1.05
160.03,7.81,6.78,7.81,6.79,-6.80,-6.91,-6.35,1.01,1.02,1.02
161.63,7.78,6.79,7.78,6.78,-6.79,-6.90,-6.30,0.98,0.98,0.99
163.24,7.75,6.79,7.74,6.78,-6.79,-6.90,-6.24,0.95,0.95,0.96
164.88,7.71,6.78,7.71,6.79,-6.79,-6.89,-6.19,0.91,0.92,0.93
166.53,7.69,6.79,7.69,6.79,-6.79,-6.89,-6.14,0.90,0.90,0.89
168.19,7.67,6.79,7.66,6.79,-6.79,-6.88,-6.10,0.88,0.87,0.87
169.87,7.63,6.79,7.63,6.80,-6.78,-6.87,-6.06,0.84,0.85,0.84
171.57,7.60,6.80,7.59,6.79,-6.78,-6.86,-6.03,0.82,0.82,0.80
173.29,7.56,6.78,7.54,6.77,-6.77,-6.85,-5.99,0.79,0.77,0.77
175.02,7.48,6.74,7.49,6.75,-6.76,-6.84,-5.97,0.72,0.73,0.74
176.77,7.44,6.73,7.44,6.74,-6.75,-6.83,-5.95,0.69,0.69,0.70
178.54,7.40,6.73,7.39,6.73,-6.73,-6.81,-5.93,0.66,0.66,0.67
180.32,7.36,6.73,7.36,6.72,-6.72,-6.80,-5.92,0.64,0.64,0.63
182.13,7.32,6.71,7.31,6.71,-6.71,-6.78,-5.91,0.61,0.60,0.60
183.95,7.26,6.68,7.26,6.70,-6.70,-6.77,-5.91,0.56,0.57,0.57
185.79,7.22,6.69,7.22,6.69,-6.69,-6.75,-5.91,0.53,0.53,0.53
187.65,7.19,6.69,7.18,6.68,-6.68,-6.73,-5.91,0.50,0.50,0.50
189.52,7.15,6.68,7.15,6.68,-6.68,-6.71,-5.92,0.47,0.47,0.47
191.42,7.11,6.67,7.11,6.67,-6.67,-6.69,-5.93,0.44,0.44,0.44
193.33,7.07,6.65,7.07,6.66,-6.66,-6.67,-5.95,0.41,0.41,0.41
195.27,7.03,6.65,7.02,6.65,-6.65,-6.65,-5.97,0.38,0.38,0.38
197.22,6.98,6.64,6.98,6.64,-6.63,-6.63,-6.00,0.34,0.35,0.34
199.19,6.94,6.62,6.93,6.62,-6.62,-6.60,-6.02,0.32,0.32,0.32
201.18,6.89,6.60,6.89,6.60,-6.60,-6.58,-6.05,0.29,0.29,0.28
203.19,6.84,6.57,6.84,6.57,-6.57,-6.55,-6.08,0.27,0.27,0.27
205.23,6.80,6.54,6.79,6.55,-6.54,-6.53,-6.12,0.25,0.25,0.25
207.28,6.75,6.52,6.75,6.52,-6.51,-6.50,-6.16,0.23,0.23,0.23
209.35,6.70,6.49,6.69,6.49,-6.48,-6.47,-6.19,0.21,0.21,0.20
211.44,6.64,6.46,6.64,6.45,-6.46,-6.44,-6.23,0.18,0.18,0.18
213.56,6.58,6.41,6.58,6.42,-6.43,-6.41,-6.27,0.15,0.15,0.17
215.69,6.54,6.39,6.53,6.39,-6.40,-6.38,-6.31,0.13,0.13,0.15
217.85,6.49,6.36,6.49,6.37,-6.38,-6.34,-6.35,0.11,0.12,0.12
220.03,6.46,6.36,6.46,6.36,-6.35,-6.31,-6.39,0.11,0.11,0.10
222.23,6.43,6.35,6.42,6.34,-6.32,-6.28,-6.42,0.11,0.09,0.08
224.45,6.37,6.30,6.37,6.30,-6.29,-6.24,-6.46,0.07,0.08,0.07
226.70,6.32,6.27,6.32,6.27,-6.26,-6.21,-6.49,0.05,0.05,0.05
228.96,6.27,6.22,6.27,6.23,-6.23,-6.17,-6.51,0.03,0.04,0.05
231.25,6.23,6.20,6.23,6.20,-6.20,-6.13,-6.54,0.03,0.03,0.03
233.57,6.19,6.17,6.18,6.16,-6.16,-6.09,-6.56,0.02,0.02,0.02
235.90,6.13,6.12,6.13,6.13,-6.13,-6.05,-6.57,0.00,0.01,0.01
238.26,6.09,6.10,6.09,6.09,-6.09,-6.01,-6.58,-0.00,-0.00,-0.01
240.64,6.05,6.05,6.04,6.05,-6.05,-5.97,-6.58,-0.01,-0.01,0.00
243.05,6.01,6.01,6.01,6.02,-6.02,-5.93,-6.57,-0.01,-0.01,-0.01
245.48,5.97,5.98,5.97,5.98,-5.98,-5.89,-6.56,-0.02,-0.02,-0.02
247.93,5.93,5.95,5.93,5.95,-5.95,-5.85,-6.54,-0.02,-0.02,-0.02
250.41,5.90,5.91,5.89,5.91,-5.91,-5.80,-6.51,-0.01,-0.01,-0.01
252.92,5.86,5.86,5.86,5.87,-5.87,-5.76,-6.48,-0.01,-0.01,-0.01
255.45,5.83,5.84,5.82,5.83,-5.83,-5.71,-6.43,-0.00,-0.01,-0.01
258.00,5.79,5.80,5.78,5.79,-5.79,-5.67,-6.39,-0.00,-0.00,-0.01
260.58,5.74,5.74,5.74,5.75,-5.75,-5.62,-6.33,-0.01,-0.01,-0.01
263.19,5.70,5.70,5.69,5.70,-5.70,-5.58,-6.27,-0.01,-0.01,-0.00
265.82,5.64,5.65,5.65,5.65,-5.66,-5.53,-6.20,-0.02,-0.01,-0.01
268.48,5.61,5.61,5.60,5.61,-5.61,-5.48,-6.12,-0.01,-0.01,-0.01
271.16,5.57,5.57,5.56,5.56,-5.56,-5.43,-6.04,0.01,-0.00,-0.00
273.87,5.51,5.51,5.51,5.52,-5.51,-5.39,-5.95,0.00,0.01,-0.01
276.61,5.46,5.46,5.45,5.46,-5.45,-5.34,-5.86,0.01,0.00,-0.00
279.38,5.39,5.40,5.39,5.40,-5.39,-5.29,-5.77,-0.01,-0.00,-0.02
282.17,5.33,5.34,5.33,5.33,-5.34,-5.24,-5.67,-0.01,-0.01,-0.01
284.99,5.27,5.26,5.26,5.26,-5.27,-5.19,-5.57,-0.01,-0.01,0.00
287.84,5.20,5.19,5.21,5.20,-5.21,-5.14,-5.47,-0.01,-0.00,0.01
290.72,5.16,5.15,5.16,5.14,-5.15,-5.09,-5.36,0.01,0.01,0.01
293.63,5.12,5.09,5.11,5.09,-5.08,-5.04,-5.26,0.04,0.03,0.02
296.57,5.06,5.03,5.06,5.03,-5.02,-4.99,-5.15,0.04,0.04,0.03
299.53,5.00,4.96,5.00,4.96,-4.95,-4.94,-5.05,0.04,0.04,0.03
302.53,4.93,4.88,4.93,4.89,-4.89,-4.88,-4.94,0.04,0.04,0.05
305.55,4.88,4.83,4.88,4.82,-4.83,-4.83,-4.83,0.05,0.05,0.05
308.61,4.83,4.76,4.82,4.76,-4.77,-4.78,-4.73,0.06,0.05,0.06
311.69,4.78,4.71,4.78,4.71,-4.71,-4.73,-4.62,0.06,0.07,0.07
314.81,4.74,4.66,4.74,4.65,-4.66,-4.68,-4.52,0.08,0.08,0.08
317.96,4.70,4.61,4.70,4.61,-4.61,-4.62,-4.42,0.09,0.09,0.09
321.14,4.66,4.55,4.66,4.56,-4.56,-4.57,-4.32,0.10,0.10,0.10
324.35,4.63,4.53,4.62,4.52,-4.51,-4.52,-4.22,0.11,0.11,0.10
327.59,4.59,4.46,4.59,4.47,-4.47,-4.47,-4.13,0.12,0.12,0.13
330.87,4.56,4.43,4.55,4.43,-4.43,-4.41,-4.03,0.13,0.13,0.12
334.18,4.52,4.38,4.52,4.38,-4.38,-4.36,-3.94,0.13,0.13,0.13
337.52,4.48,4.34,4.48,4.34,-4.34,-4.31,-3.85,0.14,0.14,0.14
340.90,4.45,4.29,4.45,4.29,-4.30,-4.25,-3.77,0.15,0.15,0.16
344.30,4.42,4.25,4.42,4.25,-4.26,-4.20,-3.69,0.16,0.16,0.17
347.75,4.39,4.21,4.39,4.22,-4.21,-4.15,-3.60,0.18,0.18,0.17
351.23,4.36,4.19,4.35,4.17,-4.16,-4.09,-3.53,0.19,0.19,0.17
354.74,4.32,4.12,4.31,4.12,-4.12,-4.04,-3.45,0.20,0.20,0.20
358.28,4.26,4.06,4.27,4.07,-4.06,-3.99,-3.38,0.19,0.20,0.20
361.87,4.22,4.01,4.22,4.01,-4.01,-3.93,-3.31,0.21,0.21,0.21
365.49,4.18,3.96,4.17,3.96,-3.96,-3.88,-3.24,0.22,0.22,0.21
369.14,4.13,3.89,4.13,3.90,-3.90,-3.83,-3.17,0.23,0.23,0.23
372.83,4.08,3.84,4.07,3.84,-3.84,-3.77,-3.11,0.24,0.23,0.24
376.56,4.02,3.78,4.02,3.78,-3.78,-3.72,-3.05,0.23,0.24,0.24
380.33,3.97,3.72,3.97,3.72,-3.73,-3.67,-2.99,0.24,0.25,0.25
384.13,3.94,3.67,3.93,3.67,-3.67,-3.61,-2.94,0.27,0.26,0.27
387.97,3.89,3.61,3.89,3.61,-3.61,-3.56,-2.88,0.28,0.28,0.28
391.85,3.84,3.55,3.84,3.55,-3.54,-3.51,-2.83,0.29,0.29,0.28
395.77,3.79,3.49,3.78,3.49,-3.48,-3.46,-2.78,0.31,0.30,0.29
399.73,3.72,3.42,3.72,3.42,-3.42,-3.40,-2.74,0.30,0.31,0.30
403.72,3.67,3.34,3.67,3.35,-3.35,-3.35,-2.69,0.31,0.31,0.33
407.76,3.62,3.29,3.61,3.28,-3.29,-3.30,-2.65,0.33,0.33,0.33
411.84,3.56,3.22,3.56,3.22,-3.22,-3.24,-2.60,0.34,0.34,0.34
415.96,3.51,3.15,3.51,3.16,-3.15,-3.19,-2.56,0.36,0.35,0.36
420.12,3.46,3.10,3.45,3.09,-3.09,-3.14,-2.52,0.37,0.36,0.36
424.32,3.39,3.02,3.39,3.02,-3.03,-3.08,-2.49,0.36,0.37,0.37
428.56,3.34,2.95,3.34,2.96,-2.97,-3.03,-2.45,0.37,0.37,0.38
432.85,3.29,2.89,3.29,2.90,-2.90,-2.98,-2.41,0.38,0.38,0.39
437.18,3.24,2.84,3.24,2.84,-2.84,-2.93,-2.38,0.39,0.40,0.39
441.55,3.20,2.79,3.19,2.79,-2.78,-2.87,-2.34,0.42,0.41,0.40
445.96,3.15,2.74,3.14,2.73,-2.72,-2.82,-2.31,0.43,0.42,0.41
450.42,3.08,2.66,3.08,2.66,-2.66,-2.77,-2.28,0.42,0.42,0.42
454.93,3.02,2.59,3.02,2.59,-2.60,-2.71,-2.24,0.42,0.42,0.43
459.48,2.97,2.53,2.97,2.53,-2.54,-2.66,-2.21,0.43,0.43,0.44
464.07,2.93,2.47,2.93,2.47,-2.47,-2.61,-2.18,0.46,0.46,0.46
468.71,2.89,2.42,2.88,2.41,-2.41,-2.55,-2.15,0.48,0.47,0.47
473.40,2.83,2.35,2.83,2.35,-2.34,-2.50,-2.11,0.49,0.49,0.48
478.13,2.77,2.28,2.77,2.28,-2.28,-2.45,-2.08,0.49,0.49,0.49
482.91,2.71,2.21,2.71,2.21,-2.22,-2.39,-2.04,0.49,0.49,0.50
487.74,2.65,2.14,2.65,2.14,-2.15,-2.34,-2.01,0.49,0.50,0.51
492.62,2.60,2.08,2.60,2.09,-2.09,-2.28,-1.98,0.51,0.51,0.52
497.55,2.56,2.03,2.55,2.03,-2.03,-2.23,-1.94,0.53,0.53,0.53
502.52,2.51,1.97,2.51,1.97,-1.96,-2.17,-1.90,0.54,0.55,0.53
507.55,2.46,1.90,2.46,1.91,-1.90,-2.12,-1.87,0.56,0.56,0.55
512.62,2.41,1.84,2.40,1.84,-1.84,-2.06,-1.83,0.57,0.56,0.56
517.75,2.35,1.76,2.35,1.77,-1.78,-2.01,-1.79,0.57,0.57,0.58
522.93,2.30,1.70,2.30,1.71,-1.71,-1.95,-1.75,0.58,0.59,0.59
