frequency,raw,error,smoothed,error_smoothed,equalization,parametric_eq,equalized_raw,equalized_smoothed,target
20,-24.37,-24.32,-24.25,-24.21,6.00,2.51,-18.37,-18.25,-0.04
21,-23.54,-23.50,-23.60,-23.55,6.00,2.89,-17.54,-17.60,-0.04
22,-23.00,-22.96,-22.96,-22.92,6.00,3.30,-17.00,-16.96,-0.04
23,-22.29,-22.25,-22.34,-22.30,6.00,3.75,-16.29,-16.34,-0.04
24,-21.65,-21.61,-21.74,-21.71,6.00,4.23,-15.65,-15.74,-0.04
25,-20.97,-20.93,-21.17,-21.13,6.00,4.72,-14.97,-15.17,-0.04
26,-20.65,-20.61,-20.61,-20.58,6.00,5.22,-14.65,-14.61,-0.03
27,-20.12,-20.08,-20.08,-20.05,6.00,5.70,-14.12,-14.08,-0.03
28,-19.61,-19.58,-19.56,-19.53,6.00,6.14,-13.61,-13.56,-0.03
29,-19.14,-19.11,-19.07,-19.04,6.00,6.52,-13.14,-13.07,-0.03
30,-18.48,-18.45,-18.60,-18.57,6.00,6.80,-12.48,-12.60,-0.03
31,-18.30,-18.27,-18.15,-18.12,6.00,6.98,-12.30,-12.15,-0.03
32,-17.78,-17.74,-17.72,-17.68,6.00,7.06,-11.78,-11.72,-0.03
33,-17.32,-17.28,-17.31,-17.27,6.00,7.05,-11.32,-11.31,-0.04
34,-16.86,-16.82,-16.92,-16.88,6.00,6.98,-10.86,-10.92,-0.04
35,-16.41,-16.37,-16.55,-16.51,6.00,6.85,-10.41,-10.55,-0.04
36,-16.19,-16.14,-16.20,-16.15,6.00,6.70,-10.19,-10.20,-0.05
37,-15.92,-15.87,-15.87,-15.82,6.00,6.54,-9.92,-9.87,-0.05
38,-15.45,-15.39,-15.56,-15.51,6.00,6.38,-9.45,-9.56,-0.06
39,-15.27,-15.21,-15.27,-15.21,6.00,6.24,-9.27,-9.27,-0.06
40,-15.01,-14.94,-15.00,-14.93,6.00,6.12,-9.01,-9.00,-0.07
41,-14.81,-14.73,-14.74,-14.66,6.00,6.03,-8.81,-8.74,-0.08
42,-14.41,-14.32,-14.50,-14.40,6.00,5.95,-8.41,-8.50,-0.09
43,-14.36,-14.26,-14.26,-14.16,6.00,5.91,-8.36,-8.26,-0.10
44,-13.90,-13.78,-14.03,-13.92,6.00,5.89,-7.90,-8.03,-0.12
45,-13.90,-13.77,-13.81,-13.68,6.00,5.89,-7.90,-7.81,-0.13
46,-13.61,-13.46,-13.59,-13.44,6.00,5.91,-7.61,-7.59,-0.14
47,-13.45,-13.29,-13.37,-13.21,6.00,5.95,-7.45,-7.37,-0.16
48,-13.17,-12.99,-13.15,-12.97,6.00,6.01,-7.17,-7.15,-0.18
49,-12.86,-12.66,-12.93,-12.73,6.00,6.09,-6.86,-6.93,-0.20
50,-12.76,-12.54,-12.70,-12.48,6.00,6.18,-6.76,-6.70,-0.22
51,-12.72,-12.48,-12.47,-12.23,6.00,6.27,-6.72,-6.47,-0.24
52,-12.27,-12.01,-12.24,-11.98,6.00,6.38,-6.27,-6.24,-0.26
53,-11.85,-11.56,-12.01,-11.72,6.00,6.48,-5.85,-6.01,-0.29
54,-11.85,-11.54,-11.78,-11.47,6.00,6.59,-5.85,-5.78,-0.31
55,-11.62,-11.28,-11.56,-11.23,6.00,6.69,-5.62,-5.56,-0.33
56,-11.39,-11.03,-11.35,-10.99,6.00,6.78,-5.39,-5.35,-0.36
57,-11.17,-10.78,-11.16,-10.77,6.00,6.87,-5.17,-5.16,-0.39
58,-10.94,-10.53,-10.98,-10.57,6.00,6.93,-4.94,-4.98,-0.41
59,-10.71,-10.27,-10.82,-10.38,6.00,6.99,-4.71,-4.82,-0.44
60,-10.71,-10.24,-10.69,-10.23,6.00,7.02,-4.71,-4.69,-0.47
61,-10.48,-9.98,-10.59,-10.09,6.00,7.04,-4.48,-4.59,-0.50
62,-10.48,-9.95,-10.51,-9.99,6.00,7.03,-4.48,-4.51,-0.53
63,-10.25,-9.69,-10.46,-9.90,6.00,7.01,-4.25,-4.46,-0.55
64,-10.25,-9.66,-10.42,-9.84,6.00,6.97,-4.25,-4.42,-0.58
65,-10.25,-9.64,-10.40,-9.79,6.00,6.90,-4.25,-4.40,-0.61
66,-10.25,-9.61,-10.40,-9.75,6.00,6.83,-4.25,-4.40,-0.64
67,-10.48,-9.81,-10.39,-9.72,6.00,6.74,-4.48,-4.39,-0.67
68,-10.58,-9.88,-10.39,-9.68,6.00,6.64,-4.58,-4.39,-0.70
69,-10.68,-9.95,-10.37,-9.64,6.00,6.53,-4.68,-4.37,-0.73
70,-10.48,-9.72,-10.34,-9.58,6.00,6.41,-4.48,-4.34,-0.76
71,-10.48,-9.69,-10.29,-9.50,6.00,6.29,-4.48,-4.29,-0.79
72,-10.25,-9.43,-10.23,-9.41,6.00,6.17,-4.25,-4.23,-0.82
73,-10.25,-9.40,-10.14,-9.29,6.00,6.05,-4.25,-4.14,-0.85
74,-10.03,-9.15,-10.04,-9.16,6.00,5.92,-4.03,-4.04,-0.88
75,-9.86,-8.95,-9.92,-9.01,6.00,5.80,-3.86,-3.92,-0.91
76,-9.74,-8.80,-9.79,-8.85,6.00,5.68,-3.74,-3.79,-0.94
77,-9.57,-8.60,-9.66,-8.69,6.00,5.57,-3.57,-3.66,-0.97
78,-9.51,-8.51,-9.52,-8.52,6.00,5.45,-3.51,-3.52,-1.00
79,-9.34,-8.31,-9.37,-8.35,6.00,5.35,-3.34,-3.37,-1.03
80,-9.11,-8.05,-9.24,-8.18,6.00,5.25,-3.11,-3.24,-1.05
81,-9.11,-8.02,-9.10,-8.02,6.00,5.15,-3.11,-3.10,-1.08
82,-9.10,-7.99,-8.97,-7.86,6.00,5.06,-3.10,-2.97,-1.11
83,-8.78,-7.64,-8.85,-7.71,6.00,4.98,-2.78,-2.85,-1.14
84,-8.66,-7.49,-8.74,-7.57,6.00,4.90,-2.66,-2.74,-1.17
85,-8.66,-7.46,-8.62,-7.43,6.00,4.82,-2.66,-2.62,-1.20
86,-8.53,-7.30,-8.52,-7.29,6.00,4.76,-2.53,-2.52,-1.23
87,-8.43,-7.18,-8.41,-7.16,6.00,4.69,-2.43,-2.41,-1.25
88,-8.38,-7.10,-8.31,-7.03,6.00,4.64,-2.38,-2.31,-1.28
89,-8.20,-6.89,-8.21,-6.91,6.00,4.58,-2.20,-2.21,-1.31
90,-8.02,-6.69,-8.11,-6.78,6.00,4.54,-2.02,-2.11,-1.33
91,-7.98,-6.62,-8.01,-6.66,6.00,4.49,-1.98,-2.01,-1.36
92,-7.98,-6.60,-7.92,-6.54,6.00,4.46,-1.98,-1.92,-1.38
93,-7.84,-6.43,-7.82,-6.42,6.00,4.42,-1.84,-1.82,-1.41
94,-7.75,-6.32,-7.72,-6.30,6.00,4.39,-1.75,-1.72,-1.43
95,-7.74,-6.29,-7.62,-6.18,5.98,4.37,-1.76,-1.64,-1.45
96,-7.52,-6.05,-7.53,-6.06,5.94,4.34,-1.58,-1.59,-1.47
97,-7.41,-5.92,-7.44,-5.94,5.87,4.33,-1.53,-1.56,-1.49
98,-7.29,-5.78,-7.34,-5.83,5.80,4.31,-1.49,-1.55,-1.51
99,-7.29,-5.76,-7.26,-5.72,5.71,4.30,-1.58,-1.55,-1.53
100,-7.07,-5.52,-7.17,-5.61,5.61,4.29,-1.46,-1.56,-1.55
101,-7.06,-5.49,-7.09,-5.51,5.51,4.28,-1.55,-1.58,-1.57
102,-7.06,-5.47,-7.01,-5.41,5.41,4.28,-1.65,-1.60,-1.59
104,-6.84,-5.20,-6.93,-5.31,5.31,4.27,-1.53,-1.62,-1.64
105,-6.84,-5.18,-6.86,-5.21,5.21,4.27,-1.62,-1.64,-1.66
106,-6.84,-5.17,-6.78,-5.12,5.12,4.27,-1.72,-1.66,-1.67
107,-6.84,-5.15,-6.71,-5.03,5.03,4.27,-1.81,-1.68,-1.69
108,-6.64,-4.93,-6.64,-4.94,4.94,4.27,-1.70,-1.70,-1.70
109,-6.61,-4.89,-6.56,-4.85,4.85,4.27,-1.76,-1.72,-1.72
110,-6.38,-4.64,-6.49,-4.75,4.75,4.28,-1.62,-1.74,-1.74
111,-6.38,-4.63,-6.41,-4.66,4.66,4.28,-1.72,-1.75,-1.75
112,-6.38,-4.61,-6.34,-4.56,4.56,4.28,-1.81,-1.77,-1.77
113,-6.36,-4.57,-6.26,-4.47,4.47,4.28,-1.89,-1.79,-1.79
114,-6.15,-4.35,-6.19,-4.37,4.37,4.28,-1.78,-1.81,-1.80
115,-6.15,-4.33,-6.11,-4.27,4.27,4.28,-1.88,-1.84,-1.82
117,-5.92,-4.05,-6.03,-4.17,4.17,4.28,-1.74,-1.86,-1.87
118,-5.92,-4.03,-5.96,-4.07,4.07,4.27,-1.84,-1.88,-1.89
119,-5.92,-4.01,-5.88,-3.98,3.98,4.26,-1.94,-1.91,-1.91
120,-5.92,-3.99,-5.81,-3.88,3.88,4.26,-2.04,-1.93,-1.93
121,-5.70,-3.75,-5.73,-3.78,3.78,4.25,-1.92,-1.96,-1.95
123,-5.70,-3.71,-5.66,-3.68,3.68,4.22,-2.02,-1.98,-1.99
124,-5.51,-3.50,-5.59,-3.59,3.59,4.21,-1.92,-2.01,-2.01
125,-5.47,-3.44,-5.52,-3.49,3.49,4.19,-1.98,-2.03,-2.03
126,-5.47,-3.42,-5.46,-3.40,3.40,4.17,-2.07,-2.06,-2.05
128,-5.47,-3.37,-5.39,-3.31,3.31,4.13,-2.16,-2.08,-2.09
129,-5.38,-3.27,-5.32,-3.22,3.22,4.10,-2.16,-2.11,-2.11
130,-5.24,-3.11,-5.26,-3.13,3.13,4.08,-2.11,-2.13,-2.13
131,-5.24,-3.09,-5.20,-3.04,3.04,4.05,-2.19,-2.16,-2.15
133,-5.24,-3.05,-5.15,-2.97,2.97,3.99,-2.27,-2.18,-2.19
134,-5.06,-2.85,-5.10,-2.90,2.90,3.96,-2.16,-2.21,-2.21
135,-5.01,-2.79,-5.06,-2.83,2.83,3.93,-2.17,-2.23,-2.22
137,-5.01,-2.75,-5.04,-2.78,2.78,3.86,-2.23,-2.25,-2.26
138,-5.01,-2.74,-5.02,-2.74,2.74,3.83,-2.26,-2.27,-2.27
140,-5.01,-2.70,-5.02,-2.72,2.72,3.75,-2.29,-2.30,-2.31
141,-5.01,-2.69,-5.03,-2.71,2.71,3.72,-2.30,-2.32,-2.32
142,-5.01,-2.68,-5.05,-2.71,2.71,3.68,-2.29,-2.34,-2.33
144,-5.01,-2.65,-5.09,-2.73,2.73,3.61,-2.27,-2.36,-2.36
145,-5.01,-2.63,-5.14,-2.77,2.77,3.57,-2.24,-2.38,-2.37
147,-5.24,-2.84,-5.20,-2.81,2.81,3.50,-2.43,-2.40,-2.40
148,-5.24,-2.83,-5.27,-2.86,2.86,3.47,-2.38,-2.41,-2.41
150,-5.24,-2.80,-5.34,-2.91,2.91,3.40,-2.33,-2.43,-2.44
151,-5.37,-2.92,-5.40,-2.96,2.96,3.36,-2.41,-2.45,-2.45
153,-5.49,-3.02,-5.46,-3.00,3.00,3.30,-2.49,-2.46,-2.47
154,-5.66,-3.18,-5.51,-3.03,3.03,3.26,-2.63,-2.48,-2.48
156,-5.70,-3.20,-5.55,-3.05,3.05,3.20,-2.65,-2.49,-2.50
157,-5.70,-3.19,-5.56,-3.05,3.05,3.17,-2.64,-2.51,-2.50
159,-5.70,-3.17,-5.56,-3.04,3.04,3.11,-2.66,-2.52,-2.52
160,-5.63,-3.10,-5.55,-3.01,3.01,3.09,-2.61,-2.54,-2.53
162,-5.47,-2.92,-5.52,-2.97,2.97,3.03,-2.50,-2.55,-2.55
164,-5.47,-2.90,-5.47,-2.91,2.91,2.98,-2.55,-2.56,-2.56
165,-5.47,-2.90,-5.42,-2.85,2.85,2.96,-2.62,-2.57,-2.57
167,-5.24,-2.65,-5.36,-2.78,2.78,2.91,-2.46,-2.58,-2.58
169,-5.24,-2.64,-5.30,-2.71,2.71,2.87,-2.53,-2.59,-2.60
170,-5.24,-2.64,-5.25,-2.64,2.64,2.85,-2.60,-2.60,-2.60
172,-5.24,-2.62,-5.19,-2.58,2.58,2.81,-2.66,-2.61,-2.61
174,-5.02,-2.39,-5.14,-2.52,2.52,2.78,-2.50,-2.62,-2.63
175,-5.01,-2.38,-5.10,-2.47,2.47,2.76,-2.54,-2.63,-2.63
177,-5.01,-2.37,-5.06,-2.42,2.42,2.73,-2.58,-2.64,-2.64
179,-5.01,-2.36,-5.03,-2.38,2.38,2.71,-2.62,-2.65,-2.65
181,-5.01,-2.35,-5.00,-2.35,2.35,2.68,-2.66,-2.65,-2.66
183,-5.01,-2.35,-4.98,-2.32,2.32,2.66,-2.69,-2.66,-2.66
184,-5.01,-2.35,-4.95,-2.29,2.29,2.65,-2.72,-2.67,-2.66
186,-5.01,-2.34,-4.93,-2.26,2.26,2.64,-2.75,-2.67,-2.67
188,-5.01,-2.33,-4.90,-2.23,2.23,2.62,-2.78,-2.67,-2.67
190,-5.01,-2.33,-4.88,-2.20,2.20,2.61,-2.81,-2.68,-2.68
192,-4.94,-2.26,-4.86,-2.18,2.18,2.60,-2.76,-2.68,-2.68
194,-4.78,-2.09,-4.84,-2.16,2.16,2.59,-2.62,-2.68,-2.69
196,-4.78,-2.09,-4.84,-2.15,2.15,2.59,-2.63,-2.69,-2.69
198,-4.78,-2.09,-4.84,-2.15,2.15,2.58,-2.63,-2.69,-2.69
200,-4.78,-2.09,-4.86,-2.16,2.16,2.58,-2.61,-2.69,-2.69
202,-4.78,-2.09,-4.89,-2.19,2.19,2.58,-2.58,-2.69,-2.69
204,-4.86,-2.17,-4.93,-2.24,2.24,2.57,-2.62,-2.69,-2.69
206,-5.01,-2.31,-5.00,-2.30,2.30,2.57,-2.71,-2.69,-2.69
208,-5.01,-2.31,-5.07,-2.38,2.38,2.58,-2.63,-2.69,-2.69
210,-5.01,-2.32,-5.16,-2.47,2.47,2.58,-2.54,-2.69,-2.69
212,-5.19,-2.50,-5.26,-2.57,2.57,2.58,-2.62,-2.69,-2.69
214,-5.44,-2.75,-5.36,-2.67,2.67,2.58,-2.77,-2.69,-2.69
216,-5.47,-2.78,-5.46,-2.77,2.77,2.58,-2.70,-2.69,-2.69
218,-5.70,-3.01,-5.56,-2.87,2.87,2.59,-2.83,-2.69,-2.69
221,-5.70,-3.01,-5.64,-2.95,2.95,2.59,-2.75,-2.69,-2.69
223,-5.70,-3.01,-5.71,-3.03,3.03,2.59,-2.67,-2.69,-2.69
225,-5.84,-3.15,-5.77,-3.08,3.08,2.59,-2.76,-2.69,-2.69
227,-5.92,-3.23,-5.81,-3.12,3.12,2.60,-2.80,-2.68,-2.68
229,-5.92,-3.24,-5.82,-3.14,3.14,2.60,-2.78,-2.68,-2.68
232,-5.92,-3.24,-5.83,-3.15,3.15,2.59,-2.77,-2.68,-2.68
234,-5.88,-3.20,-5.81,-3.13,3.13,2.59,-2.74,-2.68,-2.68
236,-5.70,-3.02,-5.79,-3.11,3.11,2.59,-2.59,-2.68,-2.67
239,-5.70,-3.02,-5.75,-3.08,3.08,2.58,-2.62,-2.67,-2.67
241,-5.70,-3.03,-5.71,-3.04,3.04,2.57,-2.66,-2.67,-2.67
244,-5.69,-3.02,-5.66,-2.99,2.99,2.56,-2.70,-2.67,-2.67
246,-5.48,-2.81,-5.61,-2.95,2.95,2.55,-2.53,-2.67,-2.67
248,-5.47,-2.81,-5.57,-2.90,2.90,2.54,-2.56,-2.66,-2.66
251,-5.47,-2.81,-5.52,-2.86,2.86,2.52,-2.61,-2.66,-2.66
253,-5.47,-2.81,-5.48,-2.82,2.82,2.51,-2.64,-2.66,-2.65
256,-5.47,-2.82,-5.44,-2.79,2.79,2.49,-2.68,-2.65,-2.65
259,-5.47,-2.82,-5.40,-2.75,2.75,2.46,-2.72,-2.65,-2.65
261,-5.29,-2.65,-5.36,-2.72,2.72,2.44,-2.57,-2.64,-2.64
264,-5.24,-2.60,-5.31,-2.68,2.68,2.41,-2.56,-2.64,-2.64
266,-5.24,-2.61,-5.26,-2.63,2.63,2.39,-2.61,-2.63,-2.63
269,-5.24,-2.61,-5.20,-2.58,2.58,2.36,-2.66,-2.62,-2.62
272,-5.24,-2.62,-5.14,-2.52,2.52,2.33,-2.72,-2.62,-2.62
274,-5.15,-2.54,-5.06,-2.45,2.45,2.30,-2.70,-2.61,-2.61
277,-5.01,-2.41,-4.97,-2.37,2.37,2.26,-2.64,-2.60,-2.60
280,-5.01,-2.42,-4.87,-2.28,2.28,2.23,-2.73,-2.59,-2.59
283,-4.78,-2.20,-4.77,-2.19,2.19,2.19,-2.59,-2.58,-2.58
286,-4.70,-2.13,-4.66,-2.09,2.09,2.15,-2.61,-2.57,-2.57
288,-4.56,-2.00,-4.55,-1.99,1.99,2.12,-2.57,-2.56,-2.56
291,-4.47,-1.92,-4.43,-1.89,1.89,2.09,-2.58,-2.55,-2.55
294,-4.20,-1.66,-4.33,-1.79,1.79,2.05,-2.40,-2.53,-2.53
297,-4.10,-1.58,-4.23,-1.71,1.71,2.01,-2.39,-2.52,-2.52
300,-4.10,-1.59,-4.14,-1.64,1.64,1.97,-2.46,-2.50,-2.50
303,-4.09,-1.60,-4.06,-1.57,1.57,1.93,-2.51,-2.49,-2.49
306,-3.87,-1.40,-4.00,-1.53,1.53,1.89,-2.34,-2.47,-2.47
309,-3.87,-1.41,-3.94,-1.49,1.49,1.86,-2.38,-2.45,-2.45
312,-3.87,-1.43,-3.90,-1.47,1.47,1.82,-2.40,-2.43,-2.43
316,-3.87,-1.45,-3.87,-1.46,1.46,1.78,-2.41,-2.42,-2.42
319,-3.87,-1.47,-3.85,-1.45,1.45,1.74,-2.42,-2.40,-2.40
322,-3.87,-1.49,-3.83,-1.45,1.45,1.71,-2.42,-2.38,-2.38
325,-3.87,-1.51,-3.81,-1.46,1.46,1.68,-2.41,-2.36,-2.36
328,-3.87,-1.53,-3.80,-1.46,1.46,1.65,-2.41,-2.34,-2.34
332,-3.87,-1.55,-3.78,-1.47,1.47,1.61,-2.40,-2.32,-2.32
335,-3.87,-1.57,-3.77,-1.47,1.47,1.58,-2.40,-2.30,-2.30
338,-3.72,-1.44,-3.75,-1.47,1.47,1.56,-2.25,-2.28,-2.27
342,-3.64,-1.38,-3.73,-1.47,1.47,1.52,-2.17,-2.26,-2.25
345,-3.64,-1.40,-3.70,-1.47,1.47,1.50,-2.17,-2.24,-2.23
349,-3.64,-1.42,-3.68,-1.47,1.47,1.47,-2.17,-2.22,-2.22
352,-3.64,-1.44,-3.66,-1.46,1.46,1.45,-2.18,-2.20,-2.20
356,-3.64,-1.46,-3.63,-1.45,1.45,1.42,-2.18,-2.18,-2.18
359,-3.64,-1.48,-3.61,-1.45,1.45,1.40,-2.19,-2.16,-2.16
363,-3.64,-1.50,-3.58,-1.44,1.44,1.37,-2.20,-2.14,-2.14
366,-3.64,-1.51,-3.56,-1.43,1.43,1.36,-2.20,-2.13,-2.13
370,-3.62,-1.51,-3.54,-1.43,1.43,1.34,-2.19,-2.11,-2.11
374,-3.42,-1.32,-3.51,-1.42,1.42,1.31,-2.00,-2.09,-2.09
377,-3.42,-1.34,-3.49,-1.41,1.41,1.30,-2.01,-2.08,-2.08
381,-3.42,-1.35,-3.47,-1.41,1.41,1.28,-2.01,-2.07,-2.07
385,-3.42,-1.37,-3.45,-1.40,1.40,1.26,-2.02,-2.05,-2.05
389,-3.42,-1.38,-3.43,-1.39,1.39,1.25,-2.03,-2.04,-2.04
393,-3.42,-1.39,-3.41,-1.38,1.38,1.23,-2.04,-2.03,-2.03
397,-3.42,-1.40,-3.39,-1.37,1.37,1.22,-2.05,-2.02,-2.02
401,-3.42,-1.41,-3.37,-1.36,1.36,1.21,-2.06,-2.01,-2.01
405,-3.42,-1.42,-3.34,-1.35,1.35,1.20,-2.07,-2.00,-2.00
409,-3.42,-1.43,-3.32,-1.33,1.33,1.18,-2.08,-1.99,-1.99
413,-3.23,-1.25,-3.30,-1.32,1.32,1.17,-1.91,-1.98,-1.98
417,-3.19,-1.22,-3.27,-1.30,1.30,1.16,-1.89,-1.97,-1.97
421,-3.19,-1.23,-3.24,-1.28,1.28,1.15,-1.90,-1.96,-1.96
425,-3.19,-1.24,-3.22,-1.26,1.26,1.14,-1.92,-1.95,-1.95
430,-3.19,-1.24,-3.19,-1.24,1.24,1.13,-1.94,-1.94,-1.94
434,-3.19,-1.25,-3.16,-1.22,1.22,1.13,-1.97,-1.94,-1.94
438,-3.19,-1.26,-3.13,-1.20,1.20,1.12,-1.99,-1.93,-1.93
443,-3.19,-1.27,-3.10,-1.18,1.18,1.11,-2.01,-1.92,-1.92
447,-2.97,-1.06,-3.06,-1.15,1.15,1.10,-1.81,-1.91,-1.91
451,-2.96,-1.06,-3.03,-1.13,1.13,1.09,-1.83,-1.90,-1.90
456,-2.96,-1.07,-2.99,-1.10,1.10,1.08,-1.86,-1.89,-1.89
460,-2.96,-1.08,-2.95,-1.07,1.07,1.07,-1.89,-1.88,-1.88
465,-2.96,-1.09,-2.90,-1.03,1.03,1.06,-1.92,-1.87,-1.87
470,-2.96,-1.10,-2.85,-1.00,1.00,1.05,-1.96,-1.86,-1.86
474,-2.80,-0.95,-2.80,-0.96,0.96,1.04,-1.84,-1.84,-1.84
479,-2.73,-0.90,-2.75,-0.92,0.92,1.03,-1.81,-1.83,-1.83
484,-2.73,-0.91,-2.70,-0.88,0.88,1.02,-1.85,-1.82,-1.82
489,-2.66,-0.85,-2.64,-0.84,0.84,1.01,-1.82,-1.80,-1.80
494,-2.51,-0.72,-2.59,-0.80,0.80,0.99,-1.71,-1.79,-1.79
499,-2.51,-0.74,-2.53,-0.76,0.76,0.98,-1.75,-1.77,-1.77
504,-2.51,-0.75,-2.48,-0.73,0.73,0.96,-1.78,-1.75,-1.76
509,-2.51,-0.77,-2.43,-0.69,0.69,0.95,-1.82,-1.74,-1.74
514,-2.28,-0.56,-2.38,-0.66,0.66,0.93,-1.62,-1.72,-1.72
519,-2.28,-0.58,-2.33,-0.63,0.63,0.92,-1.64,-1.70,-1.70
524,-2.28,-0.60,-2.29,-0.61,0.61,0.90,-1.67,-1.68,-1.68
529,-2.28,-0.62,-2.24,-0.59,0.59,0.88,-1.69,-1.66,-1.66
535,-2.28,-0.64,-2.21,-0.57,0.57,0.86,-1.71,-1.63,-1.64
540,-2.28,-0.67,-2.17,-0.56,0.56,0.84,-1.72,-1.61,-1.61
545,-2.09,-0.50,-2.14,-0.55,0.55,0.82,-1.54,-1.59,-1.59
551,-2.05,-0.48,-2.11,-0.55,0.55,0.80,-1.50,-1.57,-1.57
556,-2.05,-0.51,-2.09,-0.55,0.55,0.78,-1.50,-1.54,-1.54
562,-2.05,-0.53,-2.07,-0.55,0.55,0.76,-1.49,-1.52,-1.52
568,-2.05,-0.56,-2.06,-0.57,0.57,0.73,-1.48,-1.49,-1.49
573,-2.05,-0.58,-2.05,-0.58,0.58,0.71,-1.47,-1.47,-1.47
579,-2.05,-0.61,-2.05,-0.60,0.60,0.69,-1.45,-1.44,-1.44
585,-2.05,-0.63,-2.05,-0.63,0.63,0.67,-1.42,-1.42,-1.42
591,-2.05,-0.65,-2.05,-0.66,0.66,0.64,-1.39,-1.39,-1.39
596,-2.05,-0.68,-2.06,-0.69,0.69,0.62,-1.36,-1.37,-1.37
602,-2.05,-0.70,-2.07,-0.72,0.72,0.60,-1.33,-1.35,-1.35
608,-2.05,-0.73,-2.07,-0.75,0.75,0.58,-1.30,-1.32,-1.32
615,-2.05,-0.75,-2.08,-0.78,0.78,0.55,-1.27,-1.30,-1.30
621,-2.05,-0.77,-2.08,-0.80,0.80,0.53,-1.25,-1.28,-1.28
627,-2.05,-0.79,-2.07,-0.81,0.81,0.50,-1.24,-1.26,-1.26
633,-2.05,-0.81,-2.05,-0.81,0.81,0.48,-1.23,-1.24,-1.24
639,-2.05,-0.83,-2.02,-0.81,0.81,0.46,-1.24,-1.22,-1.21
646,-2.05,-0.85,-1.98,-0.78,0.78,0.44,-1.27,-1.19,-1.19
652,-2.05,-0.87,-1.92,-0.75,0.75,0.41,-1.30,-1.17,-1.17
659,-2.05,-0.89,-1.85,-0.70,0.70,0.39,-1.35,-1.15,-1.15
665,-1.86,-0.72,-1.77,-0.64,0.64,0.37,-1.22,-1.14,-1.14
672,-1.81,-0.69,-1.69,-0.57,0.57,0.35,-1.24,-1.12,-1.12
679,-1.54,-0.44,-1.59,-0.50,0.50,0.32,-1.04,-1.10,-1.10
686,-1.37,-0.29,-1.49,-0.42,0.42,0.30,-0.95,-1.08,-1.08
692,-1.27,-0.21,-1.40,-0.34,0.34,0.28,-0.93,-1.06,-1.06
699,-1.14,-0.10,-1.31,-0.27,0.27,0.26,-0.87,-1.04,-1.04
706,-1.14,-0.12,-1.22,-0.20,0.20,0.24,-0.94,-1.02,-1.02
713,-1.14,-0.14,-1.14,-0.14,0.14,0.22,-0.99,-1.00,-1.00
721,-1.14,-0.16,-1.07,-0.10,0.10,0.20,-1.04,-0.98,-0.98
728,-1.14,-0.18,-1.02,-0.06,0.06,0.18,-1.08,-0.96,-0.96
735,-1.05,-0.11,-0.98,-0.04,0.04,0.16,-1.01,-0.94,-0.94
742,-0.91,0.01,-0.95,-0.03,0.03,0.14,-0.88,-0.92,-0.92
750,-0.91,-0.01,-0.94,-0.04,0.04,0.12,-0.87,-0.90,-0.90
757,-0.91,-0.03,-0.94,-0.06,0.06,0.10,-0.85,-0.88,-0.88
765,-0.91,-0.05,-0.95,-0.09,0.09,0.08,-0.81,-0.86,-0.86
773,-0.91,-0.07,-0.98,-0.14,0.14,0.06,-0.77,-0.84,-0.84
780,-0.91,-0.09,-1.02,-0.20,0.20,0.04,-0.71,-0.82,-0.82
788,-0.91,-0.10,-1.06,-0.26,0.26,0.03,-0.65,-0.80,-0.80
796,-1.05,-0.26,-1.11,-0.32,0.32,0.01,-0.73,-0.79,-0.79
804,-1.14,-0.37,-1.16,-0.39,0.39,-0.01,-0.75,-0.77,-0.77
812,-1.14,-0.38,-1.20,-0.44,0.44,-0.03,-0.70,-0.76,-0.76
820,-1.37,-0.62,-1.23,-0.48,0.48,-0.05,-0.89,-0.74,-0.74
828,-1.37,-0.64,-1.24,-0.51,0.51,-0.07,-0.86,-0.73,-0.73
837,-1.37,-0.65,-1.23,-0.51,0.51,-0.09,-0.86,-0.72,-0.72
845,-1.37,-0.66,-1.20,-0.49,0.49,-0.11,-0.87,-0.71,-0.71
853,-1.37,-0.67,-1.15,-0.45,0.45,-0.13,-0.92,-0.70,-0.70
862,-1.18,-0.49,-1.09,-0.39,0.39,-0.15,-0.79,-0.69,-0.69
871,-1.14,-0.45,-1.00,-0.31,0.31,-0.17,-0.82,-0.69,-0.69
879,-0.90,-0.22,-0.90,-0.22,0.22,-0.19,-0.68,-0.68,-0.68
888,-0.68,-0.01,-0.80,-0.12,0.12,-0.21,-0.55,-0.67,-0.67
897,-0.59,0.08,-0.69,-0.02,0.02,-0.23,-0.56,-0.67,-0.67
906,-0.45,0.21,-0.59,0.07,-0.07,-0.25,-0.52,-0.66,-0.66
915,-0.30,0.36,-0.49,0.16,-0.16,-0.27,-0.46,-0.66,-0.66
924,-0.23,0.42,-0.40,0.24,-0.24,-0.29,-0.47,-0.65,-0.65
933,-0.23,0.42,-0.33,0.31,-0.31,-0.31,-0.54,-0.64,-0.64
943,-0.23,0.41,-0.26,0.38,-0.38,-0.34,-0.60,-0.64,-0.64
952,-0.23,0.40,-0.20,0.43,-0.43,-0.36,-0.66,-0.63,-0.63
962,-0.23,0.39,-0.14,0.48,-0.48,-0.38,-0.70,-0.62,-0.62
971,-0.23,0.38,-0.09,0.52,-0.52,-0.41,-0.75,-0.61,-0.61
981,-0.23,0.37,-0.04,0.56,-0.56,-0.43,-0.79,-0.60,-0.60
991,-0.02,0.57,0.02,0.61,-0.61,-0.46,-0.62,-0.59,-0.59
1001,0.00,0.58,0.07,0.65,-0.65,-0.48,-0.65,-0.58,-0.58
1011,0.05,0.62,0.12,0.69,-0.69,-0.51,-0.64,-0.56,-0.57
1021,0.23,0.78,0.18,0.73,-0.73,-0.54,-0.50,-0.55,-0.55
1031,0.23,0.77,0.23,0.76,-0.76,-0.56,-0.53,-0.53,-0.54
1041,0.23,0.75,0.27,0.78,-0.78,-0.59,-0.55,-0.52,-0.52
1052,0.41,0.91,0.30,0.79,-0.79,-0.62,-0.38,-0.50,-0.50
1062,0.46,0.94,0.31,0.79,-0.79,-0.65,-0.33,-0.48,-0.48
1073,0.46,0.92,0.32,0.77,-0.77,-0.68,-0.31,-0.46,-0.46
1084,0.46,0.90,0.31,0.74,-0.74,-0.71,-0.28,-0.44,-0.44
1094,0.38,0.80,0.29,0.70,-0.70,-0.74,-0.32,-0.42,-0.42
1105,0.23,0.63,0.26,0.65,-0.65,-0.78,-0.42,-0.39,-0.39
1116,0.23,0.60,0.23,0.60,-0.60,-0.81,-0.37,-0.37,-0.37
1128,0.23,0.58,0.21,0.56,-0.56,-0.85,-0.32,-0.35,-0.35
1139,0.23,0.56,0.20,0.52,-0.52,-0.89,-0.29,-0.32,-0.32
1150,0.00,0.30,0.20,0.50,-0.50,-0.92,-0.50,-0.30,-0.30
1162,0.07,0.35,0.22,0.50,-0.50,-0.96,-0.43,-0.28,-0.28
1173,0.23,0.49,0.27,0.53,-0.53,-1.00,-0.30,-0.26,-0.26
1185,0.23,0.47,0.35,0.59,-0.59,-1.04,-0.36,-0.24,-0.24
1197,0.23,0.45,0.45,0.67,-0.67,-1.08,-0.44,-0.22,-0.22
1209,0.43,0.64,0.58,0.78,-0.78,-1.12,-0.35,-0.21,-0.20
1221,0.69,0.88,0.73,0.92,-0.92,-1.17,-0.23,-0.19,-0.19
1233,0.95,1.13,0.89,1.07,-1.07,-1.21,-0.12,-0.18,-0.18
1246,1.14,1.31,1.07,1.24,-1.24,-1.26,-0.10,-0.17,-0.17
1258,1.25,1.41,1.25,1.42,-1.42,-1.30,-0.17,-0.16,-0.16
1271,1.44,1.60,1.44,1.60,-1.60,-1.35,-0.15,-0.16,-0.16
1283,1.74,1.90,1.61,1.77,-1.77,-1.40,-0.03,-0.16,-0.15
1296,2.03,2.19,1.78,1.94,-1.94,-1.45,0.09,-0.16,-0.16
1309,2.05,2.21,1.94,2.10,-2.10,-1.50,-0.05,-0.16,-0.16
1322,2.05,2.22,2.08,2.25,-2.25,-1.56,-0.20,-0.17,-0.16
1335,2.13,2.30,2.21,2.38,-2.38,-1.61,-0.25,-0.17,-0.17
1349,2.28,2.46,2.32,2.50,-2.50,-1.67,-0.22,-0.18,-0.18
1362,2.43,2.62,2.42,2.61,-2.61,-1.73,-0.18,-0.19,-0.19
1376,2.51,2.72,2.50,2.71,-2.71,-1.79,-0.20,-0.21,-0.20
1390,2.51,2.73,2.58,2.80,-2.80,-1.85,-0.29,-0.22,-0.22
1404,2.74,2.97,2.64,2.87,-2.87,-1.91,-0.13,-0.23,-0.23
1418,2.74,2.99,2.70,2.94,-2.94,-1.98,-0.20,-0.25,-0.24
1432,2.74,3.00,2.74,3.00,-3.00,-2.04,-0.26,-0.26,-0.26
1446,2.74,3.01,2.79,3.06,-3.06,-2.11,-0.31,-0.27,-0.27
1461,2.74,3.02,2.82,3.10,-3.10,-2.18,-0.36,-0.28,-0.28
1475,2.74,3.03,2.85,3.14,-3.14,-2.25,-0.40,-0.29,-0.29
1490,2.96,3.26,2.87,3.17,-3.17,-2.32,-0.21,-0.30,-0.30
1505,2.96,3.26,2.89,3.19,-3.19,-2.39,-0.23,-0.30,-0.30
