frequency,raw,error,smoothed,error_smoothed,equalization,parametric_eq,equalized_raw,equalized_smoothed,target
20,11.41,5.88,11.42,5.89,-5.89,-2.62,5.52,5.53,5.53
21,11.41,5.88,11.42,5.89,-5.89,-3.00,5.52,5.52,5.53
22,11.42,5.90,11.41,5.89,-5.89,-3.40,5.53,5.52,5.52
23,11.41,5.90,11.40,5.89,-5.89,-3.84,5.52,5.51,5.51
24,11.39,5.89,11.39,5.89,-5.89,-4.31,5.50,5.50,5.50
25,11.38,5.88,11.38,5.89,-5.89,-4.79,5.49,5.50,5.50
26,11.37,5.88,11.36,5.88,-5.88,-5.26,5.49,5.49,5.49
27,11.35,5.87,11.34,5.87,-5.87,-5.72,5.48,5.48,5.48
28,11.33,5.87,11.32,5.86,-5.86,-6.12,5.47,5.47,5.46
29,11.30,5.85,11.30,5.84,-5.84,-6.45,5.46,5.45,5.45
30,11.27,5.83,11.27,5.83,-5.83,-6.69,5.44,5.44,5.44
31,11.23,5.80,11.23,5.81,-5.81,-6.82,5.42,5.43,5.43
32,11.20,5.79,11.20,5.78,-5.78,-6.84,5.42,5.41,5.41
33,11.16,5.76,11.16,5.76,-5.76,-6.78,5.40,5.40,5.40
34,11.11,5.73,11.12,5.73,-5.73,-6.65,5.38,5.38,5.38
35,11.07,5.70,11.07,5.71,-5.71,-6.47,5.36,5.37,5.37
36,11.03,5.68,11.03,5.68,-5.68,-6.27,5.35,5.35,5.35
37,10.98,5.65,10.98,5.65,-5.65,-6.06,5.33,5.33,5.33
38,10.93,5.62,10.93,5.62,-5.62,-5.86,5.31,5.31,5.31
39,10.88,5.59,10.88,5.58,-5.58,-5.67,5.30,5.29,5.29
40,10.82,5.55,10.82,5.55,-5.55,-5.50,5.27,5.27,5.27
41,10.77,5.52,10.77,5.52,-5.52,-5.35,5.25,5.24,5.25
42,10.71,5.48,10.71,5.49,-5.49,-5.23,5.22,5.22,5.23
43,10.65,5.45,10.66,5.46,-5.46,-5.13,5.19,5.20,5.20
44,10.60,5.42,10.61,5.43,-5.43,-5.06,5.17,5.18,5.18
45,10.54,5.39,10.55,5.40,-5.40,-5.00,5.14,5.15,5.15
46,10.48,5.36,10.48,5.36,-5.36,-4.97,5.12,5.12,5.12
47,10.42,5.32,10.42,5.33,-5.33,-4.95,5.09,5.09,5.10
48,10.35,5.28,10.35,5.29,-5.29,-4.95,5.06,5.06,5.07
49,10.30,5.26,10.29,5.26,-5.26,-4.96,5.04,5.03,5.04
50,10.26,5.26,10.22,5.22,-5.22,-4.99,5.04,5.00,5.00
51,10.20,5.23,10.15,5.18,-5.18,-5.02,5.02,4.97,4.97
52,10.08,5.14,10.08,5.14,-5.14,-5.06,4.94,4.93,4.94
53,9.95,5.05,10.00,5.10,-5.10,-5.11,4.85,4.90,4.90
54,9.88,5.01,9.93,5.07,-5.07,-5.15,4.81,4.86,4.87
55,9.85,5.02,9.85,5.03,-5.03,-5.20,4.82,4.82,4.83
56,9.81,5.02,9.78,4.99,-4.99,-5.24,4.82,4.79,4.79
57,9.73,4.98,9.71,4.96,-4.96,-5.28,4.77,4.75,4.75
58,9.62,4.91,9.63,4.93,-4.93,-5.30,4.69,4.71,4.71
59,9.53,4.86,9.56,4.90,-4.90,-5.32,4.63,4.67,4.67
60,9.48,4.85,9.49,4.87,-4.87,-5.33,4.61,4.62,4.63
61,9.42,4.84,9.42,4.84,-4.84,-5.32,4.58,4.58,4.58
62,9.37,4.83,9.36,4.82,-4.82,-5.31,4.55,4.54,4.54
63,9.30,4.80,9.29,4.79,-4.79,-5.27,4.51,4.50,4.50
64,9.23,4.78,9.21,4.77,-4.77,-5.23,4.46,4.45,4.45
65,9.15,4.75,9.14,4.74,-4.74,-5.18,4.41,4.40,4.40
66,9.07,4.71,9.07,4.72,-4.72,-5.12,4.35,4.35,4.36
67,9.00,4.69,9.01,4.70,-4.70,-5.05,4.30,4.31,4.31
68,8.92,4.66,8.94,4.68,-4.68,-4.97,4.24,4.26,4.26
69,8.84,4.63,8.86,4.65,-4.65,-4.89,4.19,4.21,4.21
70,8.78,4.62,8.79,4.63,-4.63,-4.80,4.15,4.16,4.16
71,8.71,4.60,8.71,4.60,-4.60,-4.71,4.11,4.10,4.11
72,8.64,4.58,8.62,4.57,-4.57,-4.62,4.07,4.05,4.06
73,8.58,4.57,8.55,4.55,-4.55,-4.53,4.03,4.00,4.01
74,8.50,4.54,8.47,4.52,-4.52,-4.44,3.98,3.95,3.96
75,8.40,4.50,8.39,4.49,-4.49,-4.35,3.91,3.89,3.90
76,8.30,4.45,8.31,4.47,-4.47,-4.26,3.83,3.84,3.85
77,8.20,4.40,8.23,4.44,-4.44,-4.18,3.76,3.79,3.80
78,8.12,4.37,8.15,4.41,-4.41,-4.09,3.71,3.74,3.74
79,8.04,4.35,8.07,4.39,-4.39,-4.02,3.65,3.69,3.69
80,7.98,4.34,7.99,4.36,-4.36,-3.94,3.62,3.63,3.64
81,7.92,4.34,7.91,4.34,-4.34,-3.87,3.58,3.58,3.58
82,7.85,4.32,7.83,4.31,-4.31,-3.81,3.54,3.52,3.53
83,7.77,4.29,7.76,4.29,-4.29,-3.75,3.48,3.47,3.48
84,7.70,4.28,7.68,4.27,-4.27,-3.69,3.43,3.41,3.42
85,7.63,4.26,7.61,4.25,-4.25,-3.64,3.38,3.36,3.37
86,7.54,4.22,7.54,4.22,-4.22,-3.59,3.32,3.31,3.32
87,7.46,4.20,7.46,4.20,-4.20,-3.55,3.26,3.26,3.26
88,7.37,4.16,7.39,4.18,-4.18,-3.51,3.19,3.20,3.21
89,7.29,4.14,7.31,4.16,-4.16,-3.47,3.13,3.15,3.15
90,7.22,4.12,7.23,4.14,-4.14,-3.44,3.08,3.10,3.10
91,7.15,4.10,7.16,4.11,-4.11,-3.41,3.04,3.04,3.05
92,7.08,4.08,7.08,4.09,-4.09,-3.39,2.99,2.99,3.00
93,7.01,4.07,7.01,4.06,-4.06,-3.37,2.95,2.94,2.94
94,6.93,4.04,6.93,4.04,-4.04,-3.35,2.89,2.89,2.89
95,6.86,4.02,6.85,4.01,-4.01,-3.33,2.85,2.84,2.84
96,6.78,3.99,6.76,3.98,-3.98,-3.32,2.80,2.79,2.79
97,6.70,3.96,6.68,3.95,-3.95,-3.31,2.75,2.73,2.74
98,6.61,3.92,6.60,3.92,-3.92,-3.30,2.69,2.68,2.69
99,6.52,3.88,6.51,3.88,-3.88,-3.29,2.64,2.63,2.64
100,6.42,3.83,6.42,3.85,-3.85,-3.29,2.57,2.57,2.59
101,6.33,3.79,6.34,3.82,-3.82,-3.29,2.51,2.52,2.54
102,6.25,3.76,6.25,3.78,-3.78,-3.29,2.47,2.47,2.49
104,6.12,3.72,6.16,3.75,-3.75,-3.29,2.37,2.41,2.40
105,6.05,3.70,6.07,3.71,-3.71,-3.29,2.34,2.36,2.35
106,5.99,3.69,5.99,3.68,-3.68,-3.29,2.31,2.31,2.30
107,5.91,3.65,5.90,3.64,-3.64,-3.30,2.27,2.26,2.26
108,5.83,3.62,5.82,3.61,-3.61,-3.30,2.22,2.21,2.21
109,5.74,3.57,5.74,3.58,-3.58,-3.30,2.16,2.16,2.17
110,5.65,3.53,5.66,3.54,-3.54,-3.30,2.11,2.12,2.12
111,5.57,3.49,5.58,3.51,-3.51,-3.31,2.06,2.07,2.08
112,5.50,3.46,5.50,3.47,-3.47,-3.31,2.03,2.03,2.04
113,5.43,3.44,5.42,3.44,-3.44,-3.31,1.99,1.99,1.99
114,5.36,3.41,5.34,3.40,-3.40,-3.31,1.96,1.94,1.95
115,5.29,3.38,5.26,3.36,-3.36,-3.30,1.93,1.89,1.91
117,5.15,3.32,5.17,3.32,-3.32,-3.30,1.83,1.85,1.83
118,5.08,3.29,5.08,3.28,-3.28,-3.29,1.80,1.80,1.79
119,5.00,3.24,4.99,3.24,-3.24,-3.28,1.76,1.75,1.76
120,4.93,3.21,4.91,3.20,-3.20,-3.27,1.73,1.71,1.72
121,4.85,3.17,4.82,3.16,-3.16,-3.26,1.69,1.66,1.68
123,4.70,3.09,4.74,3.12,-3.12,-3.23,1.58,1.62,1.61
124,4.62,3.05,4.65,3.08,-3.08,-3.21,1.54,1.57,1.57
125,4.55,3.01,4.56,3.03,-3.03,-3.19,1.52,1.53,1.54
126,4.48,2.98,4.48,2.99,-2.99,-3.17,1.49,1.49,1.50
128,4.36,2.92,4.39,2.94,-2.94,-3.13,1.42,1.45,1.44
129,4.30,2.89,4.30,2.89,-2.89,-3.10,1.41,1.41,1.41
130,4.23,2.86,4.21,2.84,-2.84,-3.07,1.39,1.37,1.37
131,4.17,2.83,4.12,2.79,-2.79,-3.04,1.38,1.32,1.34
133,4.03,2.75,4.02,2.74,-2.74,-2.98,1.29,1.28,1.28
134,3.95,2.70,3.93,2.68,-2.68,-2.94,1.27,1.24,1.25
135,3.86,2.64,3.84,2.63,-2.63,-2.91,1.23,1.21,1.22
137,3.71,2.54,3.74,2.57,-2.57,-2.83,1.14,1.17,1.17
138,3.64,2.50,3.64,2.51,-2.51,-2.80,1.13,1.13,1.14
140,3.50,2.41,3.54,2.45,-2.45,-2.72,1.05,1.09,1.09
141,3.43,2.37,3.45,2.39,-2.39,-2.68,1.04,1.06,1.06
142,3.36,2.32,3.35,2.33,-2.33,-2.64,1.03,1.02,1.04
144,3.24,2.25,3.25,2.27,-2.27,-2.56,0.97,0.99,0.99
145,3.18,2.22,3.16,2.21,-2.21,-2.51,0.97,0.95,0.96
147,3.07,2.15,3.07,2.15,-2.15,-2.43,0.92,0.92,0.92
148,3.00,2.10,2.99,2.10,-2.10,-2.39,0.90,0.89,0.89
150,2.88,2.03,2.90,2.04,-2.04,-2.31,0.84,0.86,0.85
151,2.83,2.00,2.82,1.99,-1.99,-2.27,0.84,0.83,0.83
153,2.72,1.93,2.73,1.93,-1.93,-2.19,0.79,0.80,0.79
154,2.66,1.89,2.65,1.88,-1.88,-2.15,0.78,0.77,0.77
156,2.55,1.82,2.56,1.83,-1.83,-2.07,0.72,0.74,0.73
157,2.49,1.78,2.48,1.77,-1.77,-2.03,0.72,0.71,0.71
159,2.38,1.70,2.39,1.72,-1.72,-1.95,0.66,0.68,0.68
160,2.34,1.68,2.31,1.67,-1.67,-1.92,0.67,0.65,0.66
162,2.23,1.61,2.23,1.61,-1.61,-1.84,0.62,0.62,0.62
164,2.13,1.54,2.16,1.56,-1.56,-1.77,0.57,0.59,0.59
165,2.09,1.52,2.08,1.51,-1.51,-1.74,0.58,0.57,0.57
167,1.99,1.45,2.00,1.46,-1.46,-1.67,0.53,0.54,0.54
169,1.91,1.40,1.93,1.41,-1.41,-1.61,0.50,0.52,0.51
170,1.86,1.36,1.85,1.36,-1.36,-1.57,0.50,0.49,0.50
172,1.78,1.31,1.78,1.31,-1.31,-1.51,0.47,0.47,0.47
174,1.70,1.26,1.70,1.26,-1.26,-1.45,0.44,0.44,0.44
175,1.66,1.23,1.63,1.21,-1.21,-1.42,0.45,0.42,0.43
177,1.58,1.17,1.55,1.15,-1.15,-1.37,0.42,0.40,0.41
179,1.49,1.11,1.48,1.11,-1.11,-1.31,0.38,0.38,0.38
181,1.41,1.05,1.41,1.06,-1.06,-1.26,0.35,0.35,0.36
183,1.31,0.98,1.34,1.01,-1.01,-1.21,0.30,0.33,0.33
184,1.27,0.95,1.28,0.96,-0.96,-1.18,0.30,0.31,0.32
186,1.20,0.90,1.22,0.92,-0.92,-1.13,0.28,0.29,0.30
188,1.14,0.86,1.15,0.88,-0.88,-1.08,0.26,0.27,0.28
190,1.08,0.82,1.10,0.84,-0.84,-1.04,0.24,0.25,0.26
192,1.04,0.80,1.04,0.81,-0.81,-0.99,0.23,0.24,0.24
194,0.99,0.77,0.99,0.77,-0.77,-0.95,0.22,0.22,0.22
196,0.96,0.75,0.94,0.74,-0.74,-0.91,0.22,0.20,0.21
198,0.91,0.72,0.90,0.71,-0.71,-0.87,0.20,0.18,0.19
200,0.86,0.69,0.86,0.68,-0.68,-0.83,0.18,0.17,0.17
202,0.81,0.65,0.81,0.65,-0.65,-0.79,0.16,0.16,0.16
204,0.76,0.62,0.77,0.62,-0.62,-0.76,0.13,0.14,0.14
206,0.72,0.59,0.73,0.60,-0.60,-0.72,0.12,0.13,0.13
208,0.67,0.56,0.68,0.57,-0.57,-0.69,0.10,0.11,0.11
210,0.64,0.54,0.63,0.53,-0.53,-0.66,0.11,0.10,0.10
212,0.60,0.51,0.58,0.50,-0.50,-0.62,0.10,0.08,0.09
214,0.56,0.49,0.54,0.47,-0.47,-0.59,0.09,0.07,0.07
216,0.52,0.46,0.49,0.44,-0.44,-0.56,0.08,0.05,0.06
218,0.46,0.41,0.45,0.41,-0.41,-0.53,0.05,0.04,0.05
221,0.38,0.35,0.40,0.37,-0.37,-0.49,0.01,0.03,0.03
223,0.34,0.32,0.36,0.34,-0.34,-0.46,-0.00,0.02,0.02
225,0.30,0.29,0.32,0.32,-0.32,-0.43,-0.02,0.00,0.01
227,0.26,0.26,0.28,0.29,-0.29,-0.41,-0.03,-0.01,0.00
229,0.24,0.25,0.25,0.26,-0.26,-0.38,-0.02,-0.02,-0.01
232,0.21,0.23,0.21,0.24,-0.24,-0.34,-0.03,-0.03,-0.02
234,0.19,0.22,0.18,0.22,-0.22,-0.32,-0.03,-0.04,-0.03
236,0.16,0.20,0.15,0.20,-0.20,-0.29,-0.04,-0.05,-0.04
239,0.13,0.18,0.12,0.18,-0.18,-0.26,-0.05,-0.06,-0.05
241,0.10,0.16,0.10,0.17,-0.17,-0.24,-0.07,-0.06,-0.06
244,0.08,0.15,0.08,0.15,-0.15,-0.21,-0.07,-0.07,-0.07
246,0.06,0.14,0.05,0.13,-0.13,-0.18,-0.07,-0.08,-0.08
248,0.03,0.12,0.03,0.12,-0.12,-0.16,-0.09,-0.09,-0.09
251,-0.00,0.10,0.00,0.10,-0.10,-0.13,-0.10,-0.10,-0.10
253,-0.02,0.09,-0.02,0.08,-0.08,-0.11,-0.10,-0.11,-0.11
256,-0.05,0.07,-0.05,0.07,-0.07,-0.08,-0.12,-0.12,-0.12
259,-0.08,0.04,-0.08,0.05,-0.05,-0.06,-0.13,-0.12,-0.12
261,-0.10,0.03,-0.10,0.03,-0.03,-0.04,-0.13,-0.13,-0.13
264,-0.13,0.01,-0.13,0.01,-0.01,-0.01,-0.14,-0.14,-0.14
266,-0.15,-0.01,-0.15,-0.00,0.00,0.01,-0.15,-0.15,-0.14
269,-0.17,-0.02,-0.17,-0.02,0.02,0.04,-0.15,-0.15,-0.15
272,-0.20,-0.04,-0.20,-0.04,0.04,0.06,-0.16,-0.16,-0.16
274,-0.22,-0.05,-0.22,-0.05,0.05,0.08,-0.17,-0.17,-0.17
277,-0.24,-0.07,-0.24,-0.07,0.07,0.10,-0.17,-0.17,-0.17
280,-0.27,-0.09,-0.27,-0.09,0.09,0.13,-0.18,-0.18,-0.18
283,-0.29,-0.10,-0.29,-0.10,0.10,0.15,-0.19,-0.19,-0.19
286,-0.31,-0.12,-0.31,-0.12,0.12,0.18,-0.19,-0.19,-0.19
288,-0.33,-0.13,-0.33,-0.13,0.13,0.19,-0.20,-0.20,-0.20
291,-0.35,-0.15,-0.35,-0.15,0.15,0.22,-0.20,-0.20,-0.20
294,-0.37,-0.16,-0.37,-0.16,0.16,0.24,-0.21,-0.21,-0.21
297,-0.39,-0.18,-0.39,-0.18,0.18,0.27,-0.21,-0.21,-0.21
300,-0.41,-0.19,-0.41,-0.19,0.19,0.29,-0.22,-0.22,-0.22
303,-0.43,-0.21,-0.43,-0.21,0.21,0.32,-0.22,-0.22,-0.22
306,-0.45,-0.22,-0.45,-0.22,0.22,0.34,-0.23,-0.23,-0.23
309,-0.47,-0.24,-0.47,-0.24,0.24,0.37,-0.23,-0.23,-0.23
312,-0.49,-0.25,-0.49,-0.25,0.25,0.39,-0.24,-0.24,-0.24
316,-0.51,-0.27,-0.51,-0.27,0.27,0.42,-0.24,-0.24,-0.24
319,-0.53,-0.28,-0.53,-0.28,0.28,0.45,-0.25,-0.25,-0.25
322,-0.55,-0.30,-0.55,-0.30,0.30,0.47,-0.25,-0.25,-0.25
325,-0.57,-0.32,-0.57,-0.31,0.31,0.50,-0.26,-0.26,-0.26
328,-0.58,-0.32,-0.58,-0.32,0.32,0.52,-0.26,-0.26,-0.26
332,-0.60,-0.34,-0.60,-0.34,0.34,0.56,-0.26,-0.26,-0.26
335,-0.62,-0.35,-0.62,-0.35,0.35,0.58,-0.27,-0.27,-0.27
338,-0.64,-0.37,-0.64,-0.37,0.37,0.61,-0.27,-0.27,-0.27
342,-0.66,-0.39,-0.66,-0.39,0.39,0.65,-0.27,-0.28,-0.27
345,-0.68,-0.40,-0.68,-0.40,0.40,0.67,-0.28,-0.28,-0.28
349,-0.70,-0.42,-0.70,-0.42,0.42,0.71,-0.28,-0.28,-0.28
352,-0.72,-0.44,-0.72,-0.43,0.43,0.74,-0.29,-0.28,-0.28
356,-0.74,-0.45,-0.74,-0.45,0.45,0.77,-0.29,-0.29,-0.29
359,-0.76,-0.47,-0.76,-0.47,0.47,0.80,-0.29,-0.29,-0.29
363,-0.78,-0.49,-0.78,-0.48,0.48,0.84,-0.30,-0.29,-0.29
366,-0.80,-0.50,-0.80,-0.50,0.50,0.87,-0.30,-0.30,-0.30
370,-0.82,-0.52,-0.82,-0.52,0.52,0.90,-0.30,-0.30,-0.30
374,-0.84,-0.54,-0.84,-0.54,0.54,0.94,-0.30,-0.30,-0.30
377,-0.86,-0.56,-0.87,-0.56,0.56,0.97,-0.30,-0.31,-0.30
381,-0.89,-0.58,-0.89,-0.58,0.58,1.01,-0.31,-0.31,-0.31
385,-0.91,-0.60,-0.91,-0.60,0.60,1.05,-0.31,-0.31,-0.31
389,-0.94,-0.63,-0.94,-0.63,0.63,1.09,-0.31,-0.31,-0.31
393,-0.97,-0.66,-0.96,-0.65,0.65,1.13,-0.32,-0.31,-0.31
397,-0.99,-0.67,-0.99,-0.68,0.68,1.17,-0.31,-0.32,-0.32
401,-1.02,-0.70,-1.02,-0.70,0.70,1.21,-0.32,-0.32,-0.32
405,-1.05,-0.73,-1.05,-0.73,0.73,1.24,-0.32,-0.32,-0.32
409,-1.08,-0.76,-1.08,-0.76,0.76,1.28,-0.32,-0.33,-0.32
413,-1.11,-0.78,-1.12,-0.79,0.79,1.32,-0.32,-0.33,-0.33
417,-1.14,-0.81,-1.15,-0.82,0.82,1.36,-0.32,-0.33,-0.33
421,-1.18,-0.85,-1.18,-0.85,0.85,1.40,-0.33,-0.33,-0.33
425,-1.21,-0.88,-1.21,-0.88,0.88,1.43,-0.33,-0.34,-0.33
430,-1.25,-0.91,-1.25,-0.91,0.91,1.48,-0.34,-0.34,-0.34
434,-1.29,-0.95,-1.28,-0.94,0.94,1.51,-0.35,-0.34,-0.34
438,-1.32,-0.98,-1.31,-0.97,0.97,1.55,-0.35,-0.34,-0.34
443,-1.35,-1.01,-1.34,-1.00,1.00,1.59,-0.35,-0.34,-0.34
447,-1.38,-1.04,-1.38,-1.04,1.04,1.62,-0.34,-0.34,-0.34
451,-1.40,-1.06,-1.41,-1.07,1.07,1.65,-0.33,-0.34,-0.34
456,-1.44,-1.11,-1.44,-1.10,1.10,1.68,-0.34,-0.33,-0.33
460,-1.47,-1.14,-1.46,-1.14,1.14,1.71,-0.33,-0.33,-0.33
465,-1.49,-1.17,-1.49,-1.17,1.17,1.74,-0.32,-0.32,-0.32
470,-1.52,-1.21,-1.52,-1.21,1.21,1.77,-0.31,-0.31,-0.31
474,-1.55,-1.25,-1.55,-1.25,1.25,1.79,-0.30,-0.30,-0.30
479,-1.58,-1.29,-1.58,-1.29,1.29,1.82,-0.29,-0.29,-0.29
484,-1.61,-1.33,-1.61,-1.33,1.33,1.84,-0.28,-0.28,-0.28
489,-1.64,-1.37,-1.64,-1.38,1.38,1.86,-0.26,-0.27,-0.27
494,-1.67,-1.41,-1.68,-1.43,1.43,1.88,-0.24,-0.26,-0.26
499,-1.70,-1.46,-1.72,-1.48,1.48,1.89,-0.22,-0.25,-0.24
504,-1.75,-1.52,-1.76,-1.53,1.53,1.90,-0.22,-0.23,-0.23
509,-1.79,-1.58,-1.80,-1.58,1.58,1.91,-0.21,-0.22,-0.21
514,-1.83,-1.63,-1.84,-1.64,1.64,1.92,-0.19,-0.20,-0.20
519,-1.88,-1.70,-1.88,-1.69,1.69,1.92,-0.19,-0.19,-0.18
524,-1.94,-1.78,-1.92,-1.75,1.75,1.92,-0.19,-0.17,-0.16
529,-1.98,-1.84,-1.95,-1.80,1.80,1.93,-0.18,-0.15,-0.14
535,-2.01,-1.88,-1.99,-1.86,1.86,1.92,-0.15,-0.13,-0.13
540,-2.04,-1.94,-2.02,-1.91,1.91,1.92,-0.13,-0.11,-0.11
545,-2.05,-1.97,-2.05,-1.96,1.96,1.92,-0.09,-0.09,-0.08
551,-2.06,-2.00,-2.07,-2.01,2.01,1.91,-0.05,-0.07,-0.06
556,-2.08,-2.05,-2.09,-2.05,2.05,1.91,-0.03,-0.04,-0.03
562,-2.10,-2.09,-2.11,-2.10,2.10,1.90,-0.00,-0.01,-0.01
568,-2.12,-2.14,-2.13,-2.14,2.14,1.89,0.02,0.02,0.02
573,-2.14,-2.19,-2.14,-2.19,2.19,1.88,0.05,0.05,0.05
579,-2.16,-2.24,-2.15,-2.23,2.23,1.87,0.07,0.08,0.08
585,-2.18,-2.29,-2.17,-2.28,2.28,1.86,0.10,0.11,0.11
591,-2.19,-2.32,-2.18,-2.32,2.32,1.85,0.13,0.14,0.13
596,-2.20,-2.37,-2.20,-2.36,2.36,1.84,0.16,0.16,0.17
602,-2.20,-2.40,-2.21,-2.41,2.41,1.83,0.21,0.19,0.20
608,-2.21,-2.44,-2.23,-2.45,2.45,1.82,0.24,0.22,0.23
615,-2.22,-2.48,-2.24,-2.49,2.49,1.81,0.27,0.25,0.26
621,-2.24,-2.53,-2.25,-2.53,2.53,1.80,0.29,0.28,0.29
627,-2.25,-2.57,-2.25,-2.57,2.57,1.79,0.32,0.31,0.32
633,-2.27,-2.62,-2.26,-2.60,2.60,1.79,0.33,0.35,0.35
639,-2.29,-2.67,-2.26,-2.64,2.64,1.78,0.35,0.38,0.38
646,-2.28,-2.70,-2.25,-2.67,2.67,1.78,0.39,0.41,0.42
652,-2.27,-2.72,-2.25,-2.69,2.69,1.77,0.42,0.44,0.45
659,-2.24,-2.72,-2.24,-2.72,2.72,1.77,0.48,0.48,0.48
665,-2.22,-2.74,-2.23,-2.74,2.74,1.77,0.52,0.51,0.52
672,-2.19,-2.74,-2.22,-2.76,2.76,1.77,0.57,0.54,0.55
679,-2.17,-2.76,-2.19,-2.77,2.77,1.77,0.60,0.58,0.59
686,-2.16,-2.78,-2.17,-2.79,2.79,1.77,0.63,0.62,0.62
692,-2.15,-2.81,-2.14,-2.80,2.80,1.78,0.65,0.66,0.66
699,-2.13,-2.83,-2.11,-2.81,2.81,1.78,0.68,0.70,0.70
706,-2.10,-2.84,-2.08,-2.82,2.82,1.79,0.72,0.74,0.74
713,-2.07,-2.85,-2.05,-2.83,2.83,1.80,0.76,0.78,0.78
721,-2.02,-2.83,-2.02,-2.84,2.84,1.81,0.82,0.82,0.81
728,-1.97,-2.82,-1.99,-2.84,2.84,1.82,0.87,0.85,0.85
735,-1.94,-2.83,-1.96,-2.85,2.85,1.84,0.91,0.89,0.89
742,-1.90,-2.83,-1.93,-2.86,2.86,1.85,0.96,0.93,0.93
750,-1.88,-2.85,-1.90,-2.86,2.86,1.87,0.98,0.97,0.97
757,-1.86,-2.87,-1.87,-2.87,2.87,1.88,1.01,1.00,1.01
765,-1.84,-2.89,-1.83,-2.87,2.87,1.90,1.03,1.04,1.05
773,-1.81,-2.89,-1.80,-2.88,2.88,1.92,1.07,1.08,1.08
780,-1.78,-2.90,-1.76,-2.88,2.88,1.94,1.10,1.12,1.12
788,-1.74,-2.90,-1.73,-2.88,2.88,1.96,1.14,1.15,1.16
796,-1.70,-2.89,-1.69,-2.87,2.87,1.99,1.17,1.18,1.19
804,-1.65,-2.87,-1.65,-2.87,2.87,2.01,1.22,1.22,1.22
812,-1.60,-2.86,-1.61,-2.86,2.86,2.03,1.26,1.25,1.26
820,-1.55,-2.84,-1.56,-2.84,2.84,2.06,1.29,1.28,1.29
828,-1.51,-2.83,-1.51,-2.83,2.83,2.08,1.32,1.32,1.32
837,-1.45,-2.80,-1.46,-2.81,2.81,2.10,1.36,1.35,1.35
845,-1.40,-2.78,-1.40,-2.79,2.79,2.13,1.39,1.38,1.38
853,-1.35,-2.76,-1.35,-2.76,2.76,2.15,1.41,1.41,1.41
862,-1.29,-2.73,-1.29,-2.73,2.73,2.17,1.44,1.44,1.44
871,-1.22,-2.69,-1.22,-2.70,2.70,2.20,1.47,1.47,1.47
879,-1.17,-2.67,-1.16,-2.66,2.66,2.21,1.49,1.50,1.50
888,-1.09,-2.62,-1.09,-2.62,2.62,2.23,1.53,1.52,1.53
897,-1.02,-2.58,-1.02,-2.57,2.57,2.25,1.55,1.55,1.56
906,-0.94,-2.52,-0.95,-2.52,2.52,2.26,1.58,1.58,1.58
915,-0.87,-2.48,-0.87,-2.47,2.47,2.28,1.60,1.60,1.61
924,-0.79,-2.43,-0.78,-2.41,2.41,2.29,1.62,1.63,1.64
933,-0.71,-2.37,-0.69,-2.35,2.35,2.29,1.64,1.66,1.66
943,-0.61,-2.30,-0.60,-2.29,2.29,2.30,1.68,1.69,1.69
952,-0.52,-2.23,-0.51,-2.22,2.22,2.30,1.70,1.71,1.71
962,-0.41,-2.15,-0.41,-2.15,2.15,2.29,1.74,1.74,1.74
971,-0.31,-2.08,-0.32,-2.08,2.08,2.29,1.77,1.76,1.77
981,-0.20,-1.99,-0.22,-2.00,2.00,2.27,1.80,1.79,1.79
991,-0.09,-1.91,-0.11,-1.92,1.92,2.26,1.83,1.81,1.82
1001,0.01,-1.83,-0.00,-1.84,1.84,2.24,1.85,1.84,1.84
1011,0.11,-1.76,0.11,-1.76,1.76,2.21,1.87,1.86,1.87
1021,0.22,-1.68,0.22,-1.67,1.67,2.19,1.89,1.89,1.90
1031,0.32,-1.60,0.34,-1.57,1.57,2.15,1.89,1.92,1.92
1041,0.44,-1.51,0.46,-1.48,1.48,2.12,1.92,1.94,1.95
1052,0.57,-1.41,0.59,-1.38,1.38,2.08,1.95,1.97,1.98
1062,0.69,-1.32,0.72,-1.28,1.28,2.04,1.97,2.00,2.01
1073,0.84,-1.20,0.85,-1.19,1.19,1.99,2.03,2.03,2.04
1084,0.98,-1.09,0.97,-1.09,1.09,1.93,2.07,2.06,2.07
1094,1.10,-1.00,1.10,-0.99,0.99,1.88,2.09,2.09,2.10
1105,1.24,-0.89,1.23,-0.90,0.90,1.82,2.14,2.13,2.13
1116,1.37,-0.79,1.36,-0.81,0.81,1.76,2.18,2.16,2.16
1128,1.51,-0.68,1.48,-0.72,0.72,1.70,2.23,2.20,2.19
1139,1.61,-0.61,1.59,-0.64,0.64,1.63,2.25,2.23,2.22
1150,1.71,-0.54,1.69,-0.56,0.56,1.57,2.27,2.26,2.25
1162,1.81,-0.47,1.79,-0.50,0.50,1.49,2.31,2.29,2.28
1173,1.89,-0.42,1.88,-0.43,0.43,1.43,2.32,2.31,2.31
1185,1.98,-0.37,1.97,-0.37,0.37,1.35,2.35,2.34,2.35
1197,2.06,-0.32,2.06,-0.31,0.31,1.28,2.37,2.37,2.38
1209,2.13,-0.28,2.14,-0.26,0.26,1.20,2.39,2.41,2.41
1221,2.20,-0.24,2.23,-0.21,0.21,1.12,2.41,2.44,2.44
1233,2.27,-0.20,2.31,-0.17,0.17,1.05,2.44,2.47,2.47
1246,2.36,-0.15,2.38,-0.12,0.12,0.97,2.48,2.50,2.51
1258,2.44,-0.10,2.46,-0.08,0.08,0.89,2.52,2.54,2.54
1271,2.54,-0.03,2.53,-0.04,0.04,0.81,2.58,2.57,2.57
1283,2.63,0.02,2.61,0.00,-0.00,0.73,2.63,2.61,2.61
1296,2.71,0.07,2.68,0.04,-0.04,0.65,2.67,2.64,2.64
1309,2.78,0.10,2.75,0.07,-0.07,0.57,2.71,2.67,2.68
1322,2.84,0.13,2.82,0.10,-0.10,0.49,2.74,2.71,2.71
1335,2.88,0.13,2.88,0.13,-0.13,0.41,2.75,2.75,2.75
1349,2.93,0.14,2.95,0.16,-0.16,0.33,2.77,2.79,2.79
1362,2.98,0.16,3.01,0.18,-0.18,0.25,2.80,2.83,2.82
1376,3.04,0.18,3.07,0.20,-0.20,0.16,2.84,2.87,2.86
1390,3.10,0.20,3.12,0.22,-0.22,0.08,2.88,2.90,2.90
1404,3.18,0.24,3.17,0.23,-0.23,-0.00,2.95,2.93,2.94
1418,3.24,0.26,3.22,0.25,-0.25,-0.08,2.99,2.97,2.98
1432,3.31,0.29,3.27,0.27,-0.27,-0.16,3.04,3.00,3.02
1446,3.35,0.30,3.33,0.28,-0.28,-0.24,3.07,3.04,3.05
1461,3.39,0.30,3.38,0.30,-0.30,-0.33,3.09,3.08,3.09
1475,3.43,0.30,3.44,0.32,-0.32,-0.41,3.11,3.12,3.13
1490,3.47,0.30,3.50,0.34,-0.34,-0.49,3.13,3.16,3.17
1505,3.53,0.32,3.56,0.35,-0.35,-0.57,3.18,3.21,3.21
1520,3.59,0.34,3.62,0.37,-0.37,-0.65,3.22,3.24,3.25
1535,3.67,0.38,3.68,0.40,-0.40,-0.73,3.27,3.28,3.29
1550,3.75,0.41,3.74,0.42,-0.42,-0.81,3.33,3.32,3.34
1566,3.83,0.45,3.81,0.45,-0.45,-0.90,3.38,3.37,3.38
1582,3.90,0.48,3.88,0.47,-0.47,-0.98,3.43,3.41,3.42
1597,3.97,0.50,3.95,0.50,-0.50,-1.06,3.47,3.45,3.47
1613,4.03,0.52,4.03,0.53,-0.53,-1.14,3.50,3.50,3.51
1629,4.10,0.54,4.10,0.56,-0.56,-1.21,3.54,3.54,3.56
1646,4.18,0.57,4.18,0.59,-0.59,-1.30,3.59,3.59,3.61
1662,4.25,0.60,4.26,0.63,-0.63,-1.37,3.62,3.63,3.65
1679,4.33,0.63,4.34,0.66,-0.66,-1.45,3.67,3.67,3.70
1696,4.41,0.66,4.42,0.70,-0.70,-1.52,3.71,3.72,3.75
1713,4.49,0.70,4.50,0.74,-0.74,-1.60,3.75,3.76,3.79
1730,4.58,0.74,4.59,0.78,-0.78,-1.67,3.80,3.81,3.84
1747,4.68,0.79,4.68,0.82,-0.82,-1.73,3.86,3.86,3.89
1764,4.77,0.83,4.77,0.86,-0.86,-1.80,3.91,3.92,3.94
1782,4.88,0.89,4.87,0.90,-0.90,-1.86,3.98,3.97,3.99
1800,4.98,0.94,4.97,0.94,-0.94,-1.92,4.04,4.03,4.04
1818,5.09,1.00,5.07,0.99,-0.99,-1.98,4.10,4.09,4.09
1836,5.18,1.03,5.18,1.03,-1.03,-2.03,4.15,4.15,4.15
1854,5.28,1.07,5.28,1.07,-1.07,-2.08,4.21,4.21,4.21
1873,5.39,1.12,5.39,1.12,-1.12,-2.13,4.27,4.27,4.27
1892,5.50,1.16,5.50,1.16,-1.16,-2.17,4.34,4.34,4.34
1911,5.62,1.21,5.61,1.21,-1.21,-2.20,4.41,4.40,4.41
1930,5.73,1.25,5.73,1.25,-1.25,-2.23,4.48,4.47,4.48
