frequency,raw,smoothed,error,error_smoothed,equalization,parametric_eq,fixed_band_eq,equalized_raw,equalized_smoothed,target
20.00,3.23,3.23,-0.62,-0.61,0.62,0.99,0.36,3.85,3.85,3.85
20.20,3.19,3.19,-0.69,-0.68,0.69,0.98,0.37,3.88,3.88,3.88
20.40,3.16,3.15,-0.75,-0.75,0.75,0.97,0.38,3.91,3.90,3.91
20.61,3.12,3.12,-0.80,-0.81,0.81,0.96,0.39,3.93,3.93,3.92
20.81,3.08,3.08,-0.88,-0.87,0.86,0.95,0.40,3.94,3.95,3.95
21.02,3.05,3.05,-0.93,-0.92,0.91,0.94,0.42,3.96,3.97,3.98
21.23,3.03,3.03,-0.96,-0.97,0.96,0.94,0.43,3.99,3.99,3.99
21.44,3.01,3.01,-0.99,-1.00,1.00,0.93,0.44,4.01,4.00,4.00
21.66,2.98,2.98,-1.03,-1.03,1.03,0.92,0.46,4.01,4.01,4.01
21.87,2.96,2.96,-1.05,-1.06,1.06,0.91,0.47,4.02,4.02,4.01
22.09,2.94,2.94,-1.08,-1.08,1.09,0.90,0.48,4.03,4.03,4.02
22.31,2.92,2.92,-1.10,-1.10,1.11,0.89,0.50,4.03,4.03,4.02
22.54,2.90,2.89,-1.12,-1.13,1.12,0.88,0.52,4.02,4.02,4.02
22.76,2.87,2.87,-1.15,-1.14,1.13,0.87,0.53,4.00,4.00,4.02
22.99,2.85,2.86,-1.16,-1.16,1.14,0.86,0.55,3.99,4.00,4.01
23.22,2.85,2.85,-1.16,-1.16,1.15,0.85,0.56,4.00,4.00,4.01
23.45,2.86,2.86,-1.15,-1.15,1.15,0.84,0.58,4.01,4.01,4.01
23.69,2.86,2.86,-1.15,-1.14,1.16,0.83,0.60,4.02,4.03,4.01
23.92,2.87,2.86,-1.14,-1.15,1.18,0.82,0.61,4.04,4.04,4.01
24.16,2.85,2.85,-1.16,-1.16,1.19,0.81,0.63,4.04,4.04,4.01
24.40,2.82,2.82,-1.19,-1.19,1.20,0.81,0.65,4.02,4.02,4.01
24.65,2.79,2.78,-1.21,-1.22,1.21,0.80,0.67,4.00,3.99,4.00
24.89,2.75,2.76,-1.25,-1.24,1.21,0.79,0.69,3.96,3.98,4.00
25.14,2.76,2.76,-1.24,-1.24,1.21,0.78,0.71,3.97,3.97,4.00
25.39,2.78,2.78,-1.22,-1.22,1.20,0.77,0.72,3.98,3.98,4.00
25.65,2.81,2.81,-1.19,-1.19,1.18,0.76,0.74,3.99,3.99,4.00
25.91,2.84,2.84,-1.15,-1.15,1.16,0.75,0.76,4.00,4.00,3.99
26.16,2.87,2.87,-1.12,-1.12,1.13,0.74,0.78,4.00,4.00,3.99
26.43,2.89,2.90,-1.10,-1.09,1.10,0.73,0.80,3.99,4.00,3.99
26.69,2.92,2.92,-1.06,-1.06,1.08,0.72,0.81,4.00,4.00,3.98
26.96,2.95,2.94,-1.03,-1.04,1.06,0.71,0.83,4.01,4.00,3.98
27.23,2.95,2.95,-1.03,-1.03,1.05,0.70,0.85,4.00,3.99,3.98
27.50,2.94,2.94,-1.04,-1.04,1.03,0.69,0.86,3.97,3.97,3.98
27.77,2.93,2.94,-1.04,-1.04,1.01,0.68,0.88,3.94,3.95,3.97
28.05,2.94,2.94,-1.03,-1.02,1.00,0.67,0.89,3.94,3.94,3.97
28.33,2.97,2.97,-0.99,-0.99,0.98,0.66,0.90,3.95,3.95,3.96
28.62,3.00,3.00,-0.96,-0.95,0.96,0.65,0.91,3.96,3.96,3.95
28.90,3.04,3.03,-0.91,-0.92,0.94,0.63,0.92,3.98,3.97,3.95
29.19,3.06,3.06,-0.88,-0.89,0.91,0.62,0.93,3.97,3.96,3.94
29.48,3.07,3.07,-0.88,-0.88,0.87,0.61,0.94,3.94,3.94,3.95
29.78,3.08,3.08,-0.86,-0.86,0.84,0.60,0.95,3.92,3.92,3.94
30.08,3.10,3.11,-0.84,-0.83,0.80,0.59,0.95,3.90,3.91,3.94
30.38,3.15,3.15,-0.77,-0.78,0.78,0.58,0.95,3.92,3.92,3.92
30.68,3.19,3.19,-0.73,-0.73,0.75,0.57,0.95,3.94,3.94,3.92
30.99,3.24,3.23,-0.67,-0.69,0.72,0.56,0.95,3.96,3.94,3.91
31.30,3.24,3.24,-0.67,-0.67,0.69,0.55,0.95,3.93,3.92,3.91
31.61,3.24,3.24,-0.67,-0.66,0.65,0.54,0.95,3.89,3.89,3.91
31.93,3.24,3.25,-0.65,-0.65,0.62,0.53,0.94,3.86,3.86,3.89
32.24,3.27,3.28,-0.61,-0.61,0.58,0.52,0.93,3.85,3.86,3.88
32.57,3.32,3.32,-0.56,-0.56,0.55,0.51,0.92,3.87,3.87,3.88
32.89,3.37,3.36,-0.51,-0.51,0.52,0.50,0.91,3.89,3.89,3.88
33.22,3.39,3.39,-0.47,-0.47,0.50,0.49,0.90,3.89,3.89,3.86
33.55,3.41,3.41,-0.45,-0.45,0.47,0.48,0.88,3.88,3.88,3.86
33.89,3.42,3.42,-0.43,-0.43,0.44,0.47,0.87,3.86,3.86,3.85
34.23,3.43,3.43,-0.41,-0.42,0.41,0.46,0.85,3.84,3.84,3.84
34.57,3.43,3.43,-0.40,-0.40,0.39,0.45,0.83,3.82,3.81,3.83
34.92,3.43,3.44,-0.39,-0.38,0.36,0.44,0.81,3.79,3.80,3.82
35.27,3.46,3.46,-0.36,-0.35,0.34,0.43,0.79,3.80,3.80,3.81
35.62,3.49,3.49,-0.31,-0.31,0.32,0.42,0.77,3.81,3.81,3.80
35.97,3.53,3.52,-0.26,-0.27,0.29,0.41,0.74,3.82,3.81,3.79
36.33,3.53,3.53,-0.25,-0.25,0.26,0.40,0.72,3.79,3.79,3.78
36.70,3.53,3.53,-0.24,-0.23,0.23,0.39,0.70,3.76,3.76,3.77
37.06,3.54,3.55,-0.22,-0.21,0.20,0.37,0.67,3.74,3.74,3.76
37.43,3.57,3.57,-0.18,-0.17,0.17,0.36,0.65,3.74,3.74,3.75
37.81,3.61,3.60,-0.13,-0.13,0.14,0.35,0.62,3.75,3.75,3.74
38.19,3.63,3.62,-0.09,-0.10,0.12,0.34,0.59,3.75,3.74,3.72
38.57,3.63,3.63,-0.09,-0.08,0.09,0.33,0.57,3.72,3.72,3.72
38.95,3.63,3.64,-0.07,-0.06,0.06,0.32,0.54,3.69,3.69,3.70
39.34,3.65,3.65,-0.04,-0.04,0.03,0.31,0.51,3.68,3.68,3.69
39.74,3.67,3.67,-0.00,-0.01,0.00,0.30,0.49,3.67,3.67,3.67
40.14,3.69,3.69,0.02,0.02,-0.02,0.29,0.46,3.67,3.67,3.67
40.54,3.70,3.70,0.05,0.05,-0.04,0.28,0.43,3.66,3.66,3.65
40.94,3.72,3.71,0.07,0.07,-0.06,0.27,0.41,3.66,3.65,3.65
41.35,3.72,3.72,0.09,0.09,-0.08,0.26,0.38,3.64,3.64,3.63
41.76,3.72,3.72,0.10,0.10,-0.10,0.25,0.35,3.62,3.63,3.62
42.18,3.72,3.72,0.10,0.11,-0.11,0.24,0.33,3.61,3.61,3.62
42.60,3.72,3.72,0.12,0.11,-0.12,0.23,0.30,3.60,3.60,3.60
43.03,3.72,3.72,0.13,0.13,-0.14,0.22,0.27,3.58,3.58,3.59
43.46,3.72,3.72,0.14,0.15,-0.15,0.21,0.25,3.57,3.57,3.58
43.90,3.72,3.72,0.17,0.17,-0.17,0.20,0.22,3.55,3.55,3.55
44.33,3.72,3.72,0.19,0.19,-0.19,0.19,0.20,3.53,3.53,3.53
44.78,3.72,3.72,0.21,0.21,-0.21,0.18,0.17,3.51,3.51,3.51
45.23,3.72,3.72,0.23,0.23,-0.23,0.17,0.15,3.49,3.49,3.49
45.68,3.72,3.72,0.24,0.24,-0.24,0.16,0.12,3.48,3.48,3.48
46.13,3.72,3.72,0.26,0.26,-0.25,0.15,0.10,3.47,3.47,3.46
46.60,3.72,3.72,0.27,0.28,-0.26,0.14,0.07,3.46,3.46,3.45
47.06,3.71,3.70,0.28,0.27,-0.26,0.13,0.05,3.45,3.43,3.43
47.53,3.67,3.67,0.26,0.25,-0.26,0.12,0.02,3.41,3.40,3.41
48.01,3.62,3.64,0.22,0.25,-0.26,0.11,-0.00,3.36,3.38,3.40
48.49,3.62,3.62,0.25,0.26,-0.26,0.10,-0.03,3.36,3.36,3.37
48.97,3.63,3.60,0.29,0.27,-0.27,0.09,-0.05,3.36,3.34,3.34
49.46,3.58,3.58,0.27,0.27,-0.27,0.08,-0.07,3.31,3.31,3.30
49.96,3.53,3.55,0.26,0.27,-0.28,0.07,-0.10,3.25,3.27,3.27
50.46,3.53,3.53,0.27,0.27,-0.29,0.06,-0.12,3.24,3.24,3.26
50.96,3.53,3.53,0.29,0.30,-0.30,0.05,-0.14,3.23,3.23,3.24
51.47,3.53,3.53,0.32,0.32,-0.31,0.04,-0.17,3.22,3.22,3.21
51.99,3.53,3.51,0.35,0.33,-0.32,0.03,-0.19,3.21,3.20,3.18
52.51,3.48,3.48,0.31,0.32,-0.32,0.02,-0.21,3.16,3.16,3.17
53.03,3.44,3.46,0.30,0.32,-0.32,0.01,-0.23,3.12,3.14,3.14
53.56,3.44,3.44,0.32,0.32,-0.32,0.00,-0.25,3.12,3.12,3.12
54.10,3.43,3.42,0.34,0.33,-0.31,-0.01,-0.27,3.12,3.11,3.09
54.64,3.39,3.39,0.32,0.32,-0.30,-0.02,-0.29,3.09,3.09,3.07
55.18,3.34,3.34,0.30,0.30,-0.30,-0.03,-0.31,3.04,3.04,3.04
55.74,3.28,3.29,0.27,0.27,-0.30,-0.04,-0.33,2.98,2.99,3.01
56.29,3.25,3.25,0.25,0.26,-0.30,-0.05,-0.35,2.95,2.96,3.00
56.86,3.24,3.24,0.27,0.27,-0.29,-0.06,-0.37,2.95,2.95,2.97
57.42,3.24,3.24,0.30,0.30,-0.29,-0.07,-0.38,2.95,2.95,2.94
58.00,3.24,3.24,0.32,0.32,-0.28,-0.08,-0.40,2.96,2.95,2.92
58.58,3.22,3.21,0.32,0.31,-0.28,-0.09,-0.41,2.94,2.93,2.90
59.16,3.18,3.16,0.30,0.28,-0.28,-0.10,-0.43,2.90,2.89,2.88
59.76,3.09,3.11,0.23,0.25,-0.27,-0.11,-0.44,2.82,2.84,2.86
60.35,3.05,3.07,0.22,0.24,-0.25,-0.12,-0.45,2.80,2.81,2.83
60.96,3.05,3.03,0.25,0.23,-0.24,-0.13,-0.46,2.81,2.79,2.80
61.57,3.00,3.00,0.24,0.23,-0.23,-0.14,-0.47,2.77,2.77,2.76
62.18,2.95,2.95,0.22,0.22,-0.22,-0.15,-0.48,2.73,2.73,2.73
62.80,2.90,2.90,0.20,0.21,-0.22,-0.16,-0.49,2.68,2.69,2.70
63.43,2.87,2.87,0.20,0.20,-0.21,-0.17,-0.50,2.66,2.66,2.67
64.07,2.85,2.86,0.21,0.22,-0.21,-0.18,-0.51,2.64,2.65,2.64
64.71,2.85,2.84,0.23,0.23,-0.21,-0.19,-0.51,2.64,2.64,2.61
65.35,2.82,2.81,0.23,0.22,-0.20,-0.20,-0.52,2.62,2.61,2.59
66.01,2.76,2.76,0.20,0.20,-0.20,-0.21,-0.52,2.56,2.56,2.56
66.67,2.69,2.71,0.16,0.18,-0.19,-0.22,-0.52,2.50,2.51,2.53
67.33,2.66,2.67,0.16,0.17,-0.19,-0.23,-0.53,2.47,2.48,2.50
68.01,2.66,2.65,0.19,0.18,-0.18,-0.24,-0.53,2.48,2.47,2.47
68.69,2.63,2.63,0.19,0.19,-0.17,-0.25,-0.53,2.46,2.46,2.44
69.37,2.59,2.59,0.18,0.18,-0.17,-0.26,-0.53,2.42,2.42,2.41
70.07,2.55,2.54,0.18,0.16,-0.17,-0.27,-0.53,2.38,2.37,2.37
70.77,2.49,2.50,0.14,0.15,-0.17,-0.28,-0.53,2.32,2.33,2.35
71.48,2.47,2.48,0.15,0.17,-0.18,-0.30,-0.53,2.29,2.30,2.32
72.19,2.47,2.47,0.19,0.19,-0.19,-0.31,-0.53,2.28,2.28,2.28
72.91,2.47,2.45,0.22,0.20,-0.20,-0.32,-0.52,2.27,2.25,2.24
73.64,2.41,2.42,0.20,0.21,-0.20,-0.33,-0.52,2.21,2.21,2.21
74.38,2.37,2.39,0.19,0.22,-0.21,-0.34,-0.52,2.16,2.18,2.18
75.12,2.37,2.37,0.23,0.22,-0.21,-0.35,-0.52,2.16,2.16,2.14
75.87,2.37,2.35,0.26,0.23,-0.21,-0.36,-0.52,2.16,2.14,2.11
76.63,2.31,2.31,0.23,0.23,-0.21,-0.38,-0.51,2.10,2.10,2.08
77.40,2.25,2.25,0.20,0.21,-0.21,-0.39,-0.51,2.04,2.04,2.05
78.17,2.20,2.21,0.19,0.19,-0.22,-0.40,-0.51,1.98,1.99,2.01
78.95,2.18,2.18,0.19,0.20,-0.23,-0.41,-0.51,1.95,1.95,1.99
79.74,2.18,2.18,0.23,0.22,-0.25,-0.42,-0.51,1.93,1.93,1.95
80.54,2.18,2.18,0.26,0.26,-0.27,-0.44,-0.51,1.91,1.91,1.92
81.35,2.18,2.18,0.30,0.30,-0.28,-0.45,-0.51,1.90,1.90,1.88
82.16,2.18,2.18,0.33,0.33,-0.30,-0.46,-0.51,1.88,1.88,1.85
82.98,2.18,2.17,0.36,0.35,-0.31,-0.47,-0.50,1.86,1.85,1.82
83.81,2.13,2.13,0.35,0.35,-0.33,-0.49,-0.51,1.80,1.80,1.78
84.65,2.08,2.08,0.34,0.34,-0.34,-0.50,-0.51,1.74,1.74,1.74
85.50,2.03,2.03,0.32,0.33,-0.35,-0.51,-0.51,1.68,1.68,1.71
86.35,1.99,2.00,0.32,0.33,-0.37,-0.52,-0.51,1.62,1.64,1.67
87.22,1.99,1.99,0.36,0.36,-0.38,-0.54,-0.51,1.61,1.61,1.63
88.09,1.99,1.99,0.40,0.40,-0.39,-0.55,-0.51,1.60,1.60,1.59
88.97,1.99,1.99,0.43,0.43,-0.41,-0.56,-0.51,1.58,1.58,1.56
89.86,1.99,1.97,0.47,0.45,-0.44,-0.57,-0.52,1.55,1.53,1.52
90.76,1.92,1.94,0.46,0.47,-0.46,-0.59,-0.52,1.46,1.48,1.47
91.66,1.90,1.91,0.47,0.49,-0.49,-0.60,-0.52,1.41,1.42,1.43
92.58,1.90,1.89,0.52,0.50,-0.51,-0.61,-0.53,1.39,1.37,1.38
93.51,1.88,1.87,0.53,0.52,-0.53,-0.62,-0.53,1.35,1.33,1.35
94.44,1.83,1.84,0.53,0.54,-0.54,-0.64,-0.54,1.29,1.30,1.30
95.39,1.80,1.82,0.54,0.56,-0.55,-0.65,-0.54,1.25,1.26,1.26
96.34,1.80,1.78,0.60,0.58,-0.56,-0.66,-0.55,1.24,1.22,1.20
97.30,1.76,1.75,0.60,0.59,-0.57,-0.67,-0.55,1.19,1.18,1.16
98.28,1.68,1.69,0.57,0.58,-0.57,-0.69,-0.56,1.11,1.12,1.11
99.26,1.63,1.63,0.56,0.56,-0.57,-0.70,-0.57,1.06,1.05,1.07
100.25,1.56,1.58,0.54,0.55,-0.57,-0.71,-0.57,0.99,1.00,1.02
101.25,1.54,1.54,0.57,0.56,-0.58,-0.72,-0.58,0.96,0.96,0.97
102.27,1.51,1.49,0.58,0.57,-0.58,-0.73,-0.59,0.93,0.92,0.93
103.29,1.45,1.45,0.58,0.58,-0.57,-0.75,-0.60,0.88,0.88,0.87
104.32,1.40,1.41,0.56,0.58,-0.57,-0.76,-0.60,0.83,0.84,0.84
105.37,1.37,1.37,0.58,0.58,-0.57,-0.77,-0.61,0.80,0.80,0.79
106.42,1.34,1.32,0.60,0.58,-0.56,-0.78,-0.62,0.78,0.76,0.74
107.48,1.26,1.26,0.56,0.56,-0.55,-0.79,-0.63,0.71,0.71,0.70
108.56,1.18,1.19,0.54,0.54,-0.54,-0.80,-0.63,0.64,0.64,0.64
109.64,1.10,1.12,0.51,0.52,-0.53,-0.81,-0.64,0.57,0.58,0.59
110.74,1.07,1.05,0.52,0.51,-0.53,-0.82,-0.65,0.54,0.52,0.55
111.85,1.01,1.00,0.51,0.51,-0.52,-0.83,-0.66,0.49,0.48,0.50
112.97,0.94,0.97,0.50,0.53,-0.53,-0.84,-0.66,0.41,0.44,0.44
114.10,0.94,0.93,0.55,0.54,-0.53,-0.85,-0.67,0.41,0.40,0.39
115.24,0.92,0.89,0.58,0.56,-0.54,-0.86,-0.68,0.38,0.35,0.34
116.39,0.84,0.84,0.56,0.56,-0.56,-0.87,-0.68,0.28,0.28,0.28
117.55,0.77,0.79,0.54,0.57,-0.57,-0.88,-0.69,0.20,0.22,0.23
118.73,0.75,0.76,0.57,0.58,-0.59,-0.89,-0.70,0.16,0.17,0.18
119.92,0.76,0.73,0.63,0.60,-0.59,-0.90,-0.70,0.17,0.14,0.13
121.12,0.70,0.69,0.62,0.61,-0.60,-0.91,-0.70,0.10,0.09,0.08
122.33,0.62,0.65,0.59,0.62,-0.61,-0.91,-0.71,0.01,0.04,0.03
123.55,0.59,0.60,0.60,0.62,-0.61,-0.92,-0.71,-0.02,-0.01,-0.02
124.79,0.59,0.55,0.66,0.62,-0.62,-0.93,-0.71,-0.03,-0.07,-0.07
126.03,0.50,0.51,0.62,0.62,-0.64,-0.94,-0.71,-0.14,-0.13,-0.12
127.29,0.45,0.46,0.62,0.63,-0.65,-0.94,-0.72,-0.20,-0.19,-0.17
128.57,0.42,0.43,0.65,0.65,-0.67,-0.95,-0.72,-0.25,-0.24,-0.23
129.85,0.43,0.41,0.70,0.69,-0.68,-0.95,-0.72,-0.25,-0.27,-0.27
131.15,0.40,0.39,0.72,0.72,-0.70,-0.96,-0.72,-0.30,-0.31,-0.32
132.46,0.36,0.38,0.73,0.75,-0.73,-0.96,-0.71,-0.37,-0.35,-0.37
133.79,0.35,0.35,0.76,0.76,-0.75,-0.97,-0.71,-0.40,-0.41,-0.41
135.12,0.34,0.32,0.80,0.77,-0.78,-0.97,-0.71,-0.44,-0.46,-0.46
136.48,0.28,0.29,0.78,0.79,-0.81,-0.98,-0.71,-0.53,-0.52,-0.50
137.84,0.26,0.27,0.80,0.82,-0.84,-0.98,-0.71,-0.58,-0.57,-0.54
139.22,0.26,0.27,0.86,0.86,-0.86,-0.98,-0.70,-0.60,-0.59,-0.60
140.61,0.27,0.26,0.91,0.90,-0.87,-0.98,-0.70,-0.60,-0.61,-0.64
142.02,0.27,0.25,0.93,0.92,-0.88,-0.99,-0.70,-0.61,-0.64,-0.66
143.44,0.20,0.22,0.90,0.92,-0.90,-0.99,-0.69,-0.70,-0.68,-0.70
144.87,0.17,0.17,0.91,0.91,-0.92,-0.99,-0.69,-0.75,-0.75,-0.74
146.32,0.14,0.12,0.92,0.90,-0.93,-0.99,-0.69,-0.79,-0.81,-0.78
147.78,0.08,0.10,0.89,0.91,-0.95,-0.99,-0.68,-0.87,-0.85,-0.81
149.26,0.07,0.07,0.92,0.93,-0.96,-0.99,-0.68,-0.89,-0.88,-0.85
150.75,0.07,0.07,0.97,0.96,-0.96,-0.99,-0.68,-0.89,-0.89,-0.90
152.26,0.07,0.07,1.00,1.00,-0.97,-0.99,-0.67,-0.90,-0.90,-0.93
153.78,0.06,0.03,1.03,1.00,-0.97,-0.99,-0.67,-0.91,-0.94,-0.97
155.32,-0.05,-0.03,0.96,0.98,-0.96,-0.99,-0.67,-1.01,-0.99,-1.01
156.88,-0.12,-0.10,0.93,0.95,-0.94,-0.99,-0.67,-1.06,-1.04,-1.05
158.44,-0.16,-0.18,0.93,0.91,-0.91,-0.99,-0.67,-1.07,-1.09,-1.09
160.03,-0.23,-0.26,0.90,0.88,-0.87,-0.98,-0.66,-1.10,-1.13,-1.13
161.63,-0.36,-0.33,0.81,0.84,-0.83,-0.98,-0.66,-1.19,-1.17,-1.17
163.24,-0.43,-0.42,0.78,0.79,-0.80,-0.98,-0.66,-1.23,-1.21,-1.21
164.88,-0.46,-0.49,0.78,0.76,-0.78,-0.97,-0.66,-1.24,-1.27,-1.24
166.53,-0.54,-0.54,0.74,0.74,-0.77,-0.97,-0.66,-1.31,-1.32,-1.28
168.19,-0.60,-0.57,0.72,0.75,-0.78,-0.97,-0.67,-1.38,-1.35,-1.32
169.87,-0.59,-0.58,0.77,0.78,-0.80,-0.96,-0.67,-1.39,-1.38,-1.36
171.57,-0.54,-0.56,0.86,0.83,-0.83,-0.96,-0.67,-1.37,-1.39,-1.40
173.29,-0.54,-0.54,0.89,0.89,-0.87,-0.95,-0.67,-1.41,-1.41,-1.43
175.02,-0.55,-0.54,0.92,0.93,-0.91,-0.94,-0.68,-1.46,-1.45,-1.47
176.77,-0.55,-0.55,0.96,0.96,-0.95,-0.94,-0.68,-1.50,-1.50,-1.51
178.54,-0.55,-0.55,1.01,1.00,-0.99,-0.93,-0.68,-1.54,-1.54,-1.56
180.32,-0.55,-0.54,1.04,1.04,-1.03,-0.93,-0.69,-1.58,-1.57,-1.59
182.13,-0.54,-0.56,1.08,1.06,-1.06,-0.92,-0.69,-1.60,-1.62,-1.62
183.95,-0.58,-0.58,1.08,1.08,-1.08,-0.91,-0.70,-1.66,-1.66,-1.66
185.79,-0.62,-0.60,1.07,1.10,-1.11,-0.90,-0.71,-1.73,-1.71,-1.69
187.65,-0.60,-0.61,1.14,1.13,-1.15,-0.90,-0.71,-1.75,-1.76,-1.74
189.52,-0.59,-0.60,1.18,1.17,-1.19,-0.89,-0.72,-1.78,-1.79,-1.77
191.42,-0.58,-0.58,1.21,1.22,-1.23,-0.88,-0.73,-1.81,-1.81,-1.80
193.33,-0.56,-0.56,1.26,1.26,-1.27,-0.87,-0.74,-1.83,-1.83,-1.82
195.27,-0.54,-0.54,1.31,1.31,-1.30,-0.86,-0.75,-1.84,-1.85,-1.85
197.22,-0.53,-0.52,1.35,1.36,-1.33,-0.85,-0.76,-1.86,-1.85,-1.88
199.19,-0.52,-0.52,1.40,1.39,-1.35,-0.84,-0.77,-1.87,-1.87,-1.92
201.18,-0.52,-0.55,1.41,1.39,-1.36,-0.83,-0.78,-1.88,-1.90,-1.93
203.19,-0.60,-0.60,1.35,1.35,-1.36,-0.82,-0.79,-1.96,-1.96,-1.95
205.23,-0.68,-0.66,1.30,1.31,-1.35,-0.81,-0.79,-2.03,-2.01,-1.98
207.28,-0.70,-0.69,1.28,1.30,-1.33,-0.80,-0.80,-2.03,-2.03,-1.98
209.35,-0.70,-0.70,1.30,1.30,-1.31,-0.79,-0.81,-2.01,-2.01,-2.01
211.44,-0.70,-0.72,1.33,1.30,-1.28,-0.78,-0.82,-1.99,-2.01,-2.03
213.56,-0.75,-0.74,1.28,1.29,-1.26,-0.77,-0.83,-2.01,-2.01,-2.03
215.69,-0.80,-0.78,1.24,1.26,-1.24,-0.76,-0.84,-2.04,-2.03,-2.04
217.85,-0.81,-0.83,1.24,1.22,-1.23,-0.74,-0.85,-2.04,-2.06,-2.05
220.03,-0.88,-0.87,1.18,1.19,-1.21,-0.73,-0.86,-2.09,-2.08,-2.06
222.23,-0.91,-0.90,1.16,1.17,-1.19,-0.72,-0.87,-2.10,-2.08,-2.07
224.45,-0.91,-0.91,1.15,1.16,-1.16,-0.71,-0.87,-2.07,-2.07,-2.06
226.70,-0.91,-0.92,1.16,1.15,-1.14,-0.70,-0.88,-2.05,-2.05,-2.07
228.96,-0.91,-0.93,1.16,1.13,-1.11,-0.68,-0.88,-2.02,-2.04,-2.07
231.25,-0.98,-0.96,1.08,1.10,-1.09,-0.67,-0.89,-2.07,-2.05,-2.06
233.57,-0.99,-0.99,1.07,1.07,-1.07,-0.66,-0.89,-2.06,-2.06,-2.06
235.90,-1.00,-1.02,1.06,1.04,-1.05,-0.64,-0.89,-2.05,-2.07,-2.06
238.26,-1.04,-1.03,1.02,1.02,-1.04,-0.63,-0.89,-2.08,-2.07,-2.06
240.64,-1.04,-1.04,1.00,1.01,-1.03,-0.62,-0.89,-2.07,-2.07,-2.05
243.05,-1.03,-1.03,1.00,1.00,-1.03,-0.60,-0.88,-2.06,-2.06,-2.03
245.48,-1.01,-1.01,1.01,1.02,-1.03,-0.59,-0.88,-2.04,-2.04,-2.02
247.93,-0.98,-0.98,1.03,1.03,-1.03,-0.57,-0.87,-2.01,-2.01,-2.01
250.41,-0.96,-0.96,1.05,1.05,-1.02,-0.56,-0.86,-1.98,-1.97,-2.01
252.92,-0.94,-0.95,1.05,1.04,-1.00,-0.55,-0.85,-1.94,-1.95,-1.99
255.45,-0.95,-0.96,1.01,1.01,-0.98,-0.53,-0.84,-1.93,-1.94,-1.96
258.00,-1.00,-1.00,0.95,0.95,-0.94,-0.52,-0.83,-1.94,-1.94,-1.95
260.58,-1.05,-1.04,0.89,0.89,-0.90,-0.50,-0.81,-1.95,-1.94,-1.94
263.19,-1.10,-1.09,0.81,0.83,-0.84,-0.49,-0.80,-1.94,-1.93,-1.91
265.82,-1.11,-1.13,0.79,0.77,-0.78,-0.47,-0.78,-1.89,-1.91,-1.90
268.48,-1.16,-1.16,0.72,0.72,-0.72,-0.46,-0.76,-1.88,-1.88,-1.88
271.16,-1.20,-1.19,0.65,0.67,-0.67,-0.44,-0.74,-1.87,-1.85,-1.85
273.87,-1.21,-1.22,0.63,0.61,-0.61,-0.43,-0.72,-1.82,-1.84,-1.84
276.61,-1.25,-1.26,0.56,0.56,-0.56,-0.41,-0.69,-1.81,-1.82,-1.81
279.38,-1.30,-1.28,0.50,0.52,-0.51,-0.40,-0.67,-1.82,-1.79,-1.80
282.17,-1.31,-1.31,0.47,0.47,-0.47,-0.38,-0.64,-1.78,-1.78,-1.78
284.99,-1.30,-1.34,0.46,0.43,-0.43,-0.37,-0.62,-1.73,-1.77,-1.76
287.84,-1.38,-1.36,0.36,0.39,-0.39,-0.35,-0.59,-1.77,-1.75,-1.74
290.72,-1.38,-1.37,0.34,0.35,-0.36,-0.34,-0.56,-1.74,-1.73,-1.72
293.63,-1.37,-1.38,0.33,0.32,-0.33,-0.32,-0.53,-1.70,-1.70,-1.70
296.57,-1.36,-1.38,0.32,0.30,-0.29,-0.31,-0.50,-1.65,-1.68,-1.68
299.53,-1.41,-1.40,0.25,0.26,-0.25,-0.29,-0.47,-1.66,-1.65,-1.66
302.53,-1.43,-1.41,0.21,0.23,-0.22,-0.28,-0.44,-1.65,-1.62,-1.64
305.55,-1.41,-1.42,0.20,0.19,-0.18,-0.26,-0.41,-1.59,-1.60,-1.61
308.61,-1.41,-1.44,0.18,0.15,-0.14,-0.24,-0.38,-1.55,-1.58,-1.59
311.69,-1.48,-1.46,0.08,0.10,-0.11,-0.23,-0.35,-1.59,-1.57,-1.57
314.81,-1.50,-1.49,0.03,0.05,-0.08,-0.21,-0.32,-1.58,-1.57,-1.53
317.96,-1.49,-1.50,0.02,0.01,-0.05,-0.20,-0.28,-1.54,-1.55,-1.51
321.14,-1.49,-1.49,0.00,0.00,-0.01,-0.18,-0.25,-1.50,-1.50,-1.50
324.35,-1.49,-1.48,-0.01,-0.01,0.03,-0.17,-0.22,-1.46,-1.45,-1.48
327.59,-1.49,-1.49,-0.04,-0.03,0.08,-0.15,-0.18,-1.41,-1.41,-1.45
330.87,-1.50,-1.52,-0.07,-0.08,0.12,-0.14,-0.15,-1.38,-1.39,-1.43
334.18,-1.56,-1.57,-0.14,-0.16,0.17,-0.12,-0.12,-1.39,-1.40,-1.42
337.52,-1.66,-1.63,-0.26,-0.24,0.22,-0.11,-0.09,-1.45,-1.42,-1.40
340.90,-1.68,-1.68,-0.31,-0.31,0.26,-0.09,-0.05,-1.42,-1.42,-1.37
344.30,-1.70,-1.70,-0.35,-0.35,0.31,-0.08,-0.02,-1.39,-1.39,-1.35
347.75,-1.70,-1.70,-0.36,-0.36,0.35,-0.06,0.02,-1.35,-1.34,-1.34
351.23,-1.69,-1.69,-0.37,-0.37,0.39,-0.04,0.05,-1.30,-1.30,-1.32
354.74,-1.69,-1.69,-0.39,-0.39,0.42,-0.03,0.08,-1.27,-1.27,-1.30
358.28,-1.69,-1.71,-0.41,-0.43,0.44,-0.01,0.12,-1.25,-1.27,-1.28
361.87,-1.75,-1.74,-0.49,-0.47,0.46,0.00,0.15,-1.29,-1.28,-1.27
365.49,-1.77,-1.76,-0.51,-0.50,0.47,0.02,0.18,-1.30,-1.28,-1.26
369.14,-1.76,-1.77,-0.51,-0.52,0.50,0.03,0.22,-1.26,-1.27,-1.25
372.83,-1.76,-1.75,-0.53,-0.52,0.53,0.05,0.25,-1.23,-1.23,-1.23
376.56,-1.75,-1.75,-0.53,-0.53,0.56,0.06,0.29,-1.19,-1.19,-1.22
380.33,-1.74,-1.76,-0.55,-0.56,0.59,0.07,0.32,-1.15,-1.16,-1.19
384.13,-1.79,-1.79,-0.60,-0.60,0.63,0.09,0.35,-1.16,-1.16,-1.19
387.97,-1.84,-1.84,-0.66,-0.67,0.66,0.10,0.39,-1.18,-1.18,-1.18
391.85,-1.90,-1.89,-0.73,-0.72,0.70,0.12,0.42,-1.20,-1.19,-1.17
395.77,-1.92,-1.92,-0.77,-0.76,0.73,0.13,0.45,-1.19,-1.18,-1.15
399.73,-1.92,-1.92,-0.78,-0.78,0.76,0.15,0.49,-1.16,-1.16,-1.14
403.72,-1.92,-1.92,-0.79,-0.79,0.79,0.16,0.52,-1.13,-1.13,-1.13
407.76,-1.92,-1.92,-0.80,-0.80,0.81,0.17,0.55,-1.11,-1.11,-1.12
411.84,-1.93,-1.93,-0.82,-0.82,0.83,0.19,0.59,-1.10,-1.10,-1.11
415.96,-1.93,-1.93,-0.83,-0.83,0.84,0.20,0.62,-1.09,-1.09,-1.10
420.12,-1.93,-1.92,-0.84,-0.84,0.86,0.22,0.65,-1.07,-1.07,-1.09
424.32,-1.92,-1.93,-0.84,-0.85,0.87,0.23,0.68,-1.05,-1.06,-1.08
428.56,-1.93,-1.95,-0.86,-0.88,0.88,0.24,0.71,-1.05,-1.07,-1.07
432.85,-1.98,-1.96,-0.92,-0.90,0.89,0.25,0.74,-1.09,-1.07,-1.06
437.18,-1.97,-1.96,-0.92,-0.91,0.89,0.27,0.77,-1.08,-1.08,-1.05
441.55,-1.93,-1.94,-0.90,-0.90,0.87,0.28,0.80,-1.06,-1.06,-1.03
445.96,-1.89,-1.89,-0.87,-0.87,0.85,0.29,0.83,-1.04,-1.04,-1.02
450.42,-1.84,-1.84,-0.83,-0.83,0.83,0.31,0.85,-1.01,-1.01,-1.02
454.93,-1.78,-1.78,-0.78,-0.78,0.79,0.32,0.88,-0.99,-0.99,-1.00
459.48,-1.72,-1.72,-0.73,-0.73,0.74,0.33,0.90,-0.98,-0.98,-0.99
464.07,-1.65,-1.66,-0.68,-0.69,0.69,0.34,0.92,-0.96,-0.96,-0.97
468.71,-1.60,-1.60,-0.65,-0.64,0.65,0.35,0.94,-0.95,-0.95,-0.95
473.40,-1.54,-1.54,-0.60,-0.60,0.61,0.37,0.96,-0.94,-0.93,-0.94
478.13,-1.48,-1.49,-0.56,-0.56,0.57,0.38,0.97,-0.91,-0.92,-0.92
482.91,-1.44,-1.44,-0.53,-0.53,0.53,0.39,0.99,-0.91,-0.90,-0.91
487.74,-1.40,-1.40,-0.51,-0.51,0.51,0.40,1.00,-0.89,-0.89,-0.89
492.62,-1.36,-1.36,-0.49,-0.49,0.49,0.41,1.01,-0.87,-0.88,-0.87
497.55,-1.33,-1.33,-0.47,-0.47,0.47,0.42,1.02,-0.86,-0.86,-0.86
502.52,-1.31,-1.31,-0.47,-0.46,0.46,0.43,1.03,-0.85,-0.85,-0.84
