frequency,raw
20.00,0.00
20.20,0.05
20.40,0.09
20.61,0.14
20.81,0.19
21.02,0.23
21.23,0.28
21.44,0.33
21.66,0.38
21.87,0.42
22.09,0.47
22.31,0.52
22.54,0.57
22.76,0.63
22.99,0.68
23.22,0.73
23.45,0.79
23.69,0.84
23.92,0.89
24.16,0.94
24.40,0.99
24.65,1.03
24.89,1.08
25.14,1.11
25.39,1.12
25.65,1.13
25.91,1.14
26.16,1.18
26.43,1.24
26.69,1.30
26.96,1.36
27.23,1.42
27.50,1.48
27.77,1.53
28.05,1.58
28.33,1.58
28.62,1.59
28.90,1.59
29.19,1.63
29.48,1.70
29.78,1.77
30.08,1.82
30.38,1.82
30.68,1.82
30.99,1.82
31.30,1.89
31.61,1.96
31.93,2.03
32.24,2.05
32.57,2.05
32.89,2.05
33.22,2.10
33.55,2.18
33.89,2.25
34.23,2.28
34.57,2.28
34.92,2.28
35.27,2.34
35.62,2.42
35.97,2.49
36.33,2.50
36.70,2.51
37.06,2.51
37.43,2.51
37.81,2.51
38.19,2.55
38.57,2.64
38.95,2.72
39.34,2.73
39.74,2.73
40.14,2.73
40.54,2.73
40.94,2.73
41.35,2.73
41.76,2.73
42.18,2.77
42.60,2.87
43.03,2.96
43.46,2.96
43.90,2.96
44.33,2.96
44.78,2.96
45.23,2.96
45.68,2.96
46.13,2.99
46.60,3.10
47.06,3.19
47.53,3.19
48.01,3.19
48.49,3.19
48.97,3.19
49.46,3.19
49.96,3.19
50.46,3.19
50.96,3.19
51.47,3.19
51.99,3.19
52.51,3.19
53.03,3.20
53.56,3.32
54.10,3.42
54.64,3.42
55.18,3.42
55.74,3.42
56.29,3.42
56.86,3.42
57.42,3.42
58.00,3.42
58.58,3.42
59.16,3.42
59.76,3.42
60.35,3.42
60.96,3.42
61.57,3.42
62.18,3.42
62.80,3.42
63.43,3.42
64.07,3.42
64.71,3.42
65.35,3.42
66.01,3.42
66.67,3.42
67.33,3.42
68.01,3.42
68.69,3.42
69.37,3.42
70.07,3.42
70.77,3.42
71.48,3.42
72.19,3.42
72.91,3.42
73.64,3.42
74.38,3.42
75.12,3.42
75.87,3.42
76.63,3.42
77.40,3.42
78.17,3.42
78.95,3.42
79.74,3.42
80.54,3.42
81.35,3.42
82.16,3.42
82.98,3.42
83.81,3.42
84.65,3.42
85.50,3.42
86.35,3.42
87.22,3.42
88.09,3.42
88.97,3.42
89.86,3.57
90.76,3.63
91.66,3.64
92.58,3.64
93.51,3.64
94.44,3.65
95.39,3.74
96.34,3.87
97.30,3.87
98.28,3.87
99.26,3.87
100.25,3.87
101.25,3.87
102.27,3.87
103.29,3.87
104.32,3.87
105.37,3.87
106.42,3.87
107.48,3.87
108.56,3.87
109.64,3.87
110.74,3.87
111.85,3.87
112.97,3.85
114.10,3.64
115.24,3.64
116.39,3.64
117.55,3.64
118.73,3.64
119.92,3.64
121.12,3.64
122.33,3.64
123.55,3.64
124.79,3.64
126.03,3.80
127.29,3.85
128.57,3.87
129.85,3.87
131.15,3.87
132.46,3.87
133.79,3.87
135.12,3.86
136.48,3.76
137.84,3.85
139.22,3.87
140.61,3.87
142.02,3.87
143.44,3.87
144.87,3.87
146.32,3.87
147.78,3.87
149.26,3.87
150.75,3.87
152.26,3.87
153.78,3.87
155.32,3.87
156.88,3.87
158.44,3.87
160.03,3.87
161.63,3.87
163.24,3.87
164.88,3.87
166.53,3.66
168.19,3.49
169.87,3.42
171.57,3.42
173.29,3.42
175.02,3.42
176.77,3.42
178.54,3.59
180.32,3.64
182.13,3.64
183.95,3.64
185.79,3.64
187.65,3.81
189.52,3.87
191.42,3.87
193.33,3.87
195.27,3.87
197.22,3.87
199.19,3.87
201.18,3.87
203.19,3.87
205.23,3.87
207.28,3.87
209.35,3.87
211.44,3.87
213.56,4.03
215.69,4.10
217.85,4.10
220.03,4.10
222.23,4.10
224.45,4.10
226.70,4.10
228.96,4.10
231.25,4.10
233.57,4.10
235.90,4.10
238.26,4.10
240.64,4.10
243.05,4.10
245.48,4.10
247.93,4.10
250.41,4.10
252.92,4.10
255.45,4.10
258.00,4.10
260.58,4.10
263.19,4.10
265.82,4.10
268.48,4.10
271.16,4.10
273.87,4.10
276.61,4.10
279.38,4.10
282.17,4.10
284.99,4.10
287.84,4.10
290.72,4.10
293.63,4.10
296.57,4.10
299.53,4.10
302.53,4.10
305.55,4.10
308.61,4.10
311.69,4.10
314.81,4.10
317.96,4.10
321.14,4.10
324.35,4.10
327.59,4.07
330.87,3.92
334.18,3.87
337.52,3.87
340.90,3.87
344.30,3.87
347.75,3.87
351.23,3.87
354.74,3.87
358.28,3.87
361.87,3.87
365.49,3.87
369.14,3.87
372.83,3.87
376.56,3.87
380.33,3.87
384.13,3.87
387.97,3.87
391.85,3.87
395.77,3.87
399.73,3.87
403.72,3.87
407.76,3.87
411.84,3.87
415.96,3.87
420.12,3.87
424.32,3.87
428.56,3.87
432.85,3.78
437.18,3.66
441.55,3.64
445.96,3.64
450.42,3.64
454.93,3.64
459.48,3.64
464.07,3.64
468.71,3.64
473.40,3.64
478.13,3.64
482.91,3.47
487.74,3.42
492.62,3.42
497.55,3.42
502.52,3.42
507.55,3.42
512.62,3.42
517.75,3.42
522.93,3.36
528.16,3.22
533.44,3.07
538.77,2.98
544.16,2.80
549.60,2.72
555.10,2.55
560.65,2.51
566.25,2.51
571.92,2.51
577.64,2.65
583.41,2.72
589.25,2.73
595.14,2.76
601.09,2.93
607.10,2.96
613.17,2.96
619.30,2.96
625.50,2.96
631.75,2.96
638.07,2.96
644.45,2.96
650.89,2.96
657.40,2.96
663.98,2.96
670.62,2.95
677.32,2.78
684.10,2.73
690.94,2.66
697.85,2.53
704.83,2.51
711.87,2.51
718.99,2.34
726.18,2.28
733.44,2.28
740.78,2.28
748.19,2.15
755.67,2.06
763.23,2.05
770.86,2.05
778.57,2.00
786.35,1.85
794.22,1.82
802.16,1.82
810.18,1.67
818.28,1.60
826.46,1.59
834.73,1.59
843.08,1.51
851.51,1.39
860.02,1.37
868.62,1.37
877.31,1.17
886.08,0.95
894.94,0.84
903.89,0.71
912.93,0.68
922.06,0.68
931.28,0.51
940.59,0.45
950.00,0.45
959.50,0.45
969.09,0.36
978.78,0.25
988.57,0.07
998.46,0.01
1008.44,-0.04
1018.53,-0.19
1028.71,-0.31
1039.00,-0.44
1049.39,-0.60
1059.88,-0.84
1070.48,-0.93
1081.19,-1.09
1092.00,-1.14
1102.92,-1.14
1113.95,-1.26
1125.09,-1.35
1136.34,-1.37
1147.70,-1.37
1159.18,-1.37
1170.77,-1.37
1182.48,-1.37
1194.30,-1.37
1206.25,-1.22
1218.31,-1.33
1230.49,-1.37
1242.80,-1.37
1255.22,-1.29
1267.78,-1.06
1280.45,-0.79
1293.26,-0.86
1306.19,-1.09
1319.25,-1.14
1332.45,-1.14
1345.77,-1.14
1359.23,-1.03
1372.82,-0.79
1386.55,-0.53
1400.41,-0.27
1414.42,-0.05
1428.56,0.00
1442.85,0.00
1457.28,0.00
1471.85,0.00
1486.57,0.18
1501.43,0.26
1516.45,0.41
1531.61,0.54
1546.93,0.76
1562.40,0.89
1578.02,1.07
1593.80,1.23
1609.74,1.48
1625.84,1.82
1642.10,2.01
1658.52,2.16
1675.10,2.26
1691.85,2.28
1708.77,2.45
1725.86,2.56
1743.12,2.76
1760.55,3.08
1778.15,3.45
1795.94,3.77
1813.90,4.04
1832.03,4.32
1850.36,4.66
1868.86,5.02
1887.55,5.40
1906.42,5.82
1925.49,6.17
1944.74,6.54
1964.19,6.91
1983.83,7.23
2003.67,7.56
2023.71,7.83
2043.94,8.10
2064.38,8.36
2085.03,8.60
2105.88,8.71
2126.94,8.85
2148.20,8.89
2169.69,8.76
2191.38,8.67
2213.30,8.49
2235.43,8.42
2257.78,8.25
2280.36,8.13
2303.17,7.90
2326.20,7.77
2349.46,7.59
2372.95,7.52
2396.68,7.34
2420.65,7.29
2444.86,7.21
2469.31,6.98
2494.00,6.71
2518.94,6.62
2544.13,6.33
2569.57,5.96
2595.27,5.67
2621.22,5.50
2647.43,5.35
2673.90,5.11
2700.64,4.76
2727.65,4.31
2754.93,4.08
2782.48,3.91
2810.30,3.77
2838.40,3.54
2866.79,3.43
2895.46,3.42
2924.41,3.59
2953.65,3.69
2983.19,3.96
3013.02,4.34
3043.15,4.73
3073.58,5.13
3104.32,5.60
3135.36,6.04
3166.72,6.48
3198.38,6.87
3230.37,7.24
3262.67,7.60
3295.30,7.99
3328.25,8.29
3361.53,8.64
3395.15,8.92
3429.10,9.18
3463.39,9.32
3498.03,9.34
3533.01,9.34
3568.34,9.37
3604.02,9.53
3640.06,9.65
3676.46,9.77
3713.22,9.80
3750.36,9.80
3787.86,9.79
3825.74,9.62
3864.00,9.57
3902.64,9.57
3941.66,9.57
3981.08,9.57
4020.89,9.57
4061.10,9.57
4101.71,9.57
4142.73,9.57
4184.15,9.48
4226.00,9.36
4268.26,9.34
4310.94,9.34
4354.05,9.34
4397.59,9.34
4441.56,9.26
4485.98,9.04
4530.84,8.65
4576.15,8.22
4621.91,7.83
4668.13,7.53
4714.81,7.28
4761.96,7.10
4809.58,6.95
4857.67,6.72
4906.25,6.62
4955.31,6.80
5004.87,7.06
5054.91,7.32
5105.46,7.58
5156.52,7.73
5208.08,7.75
5260.16,7.75
5312.77,7.77
5365.89,7.93
5419.55,7.98
5473.75,7.98
5528.49,8.10
5583.77,8.19
5639.61,8.21
5696.00,8.38
5752.96,8.49
5810.49,8.63
5868.60,8.66
5927.28,8.66
5986.56,8.66
6046.42,8.48
6106.89,8.43
6167.96,8.43
6229.64,8.43
6291.93,8.43
6354.85,8.43
6418.40,8.60
6482.58,8.68
6547.41,8.85
6612.88,8.96
6679.01,9.13
6745.80,9.47
6813.26,9.81
6881.39,10.17
6950.21,10.43
7019.71,10.53
7089.91,10.59
7160.81,10.29
7232.41,9.80
7304.74,9.28
7377.79,8.75
7451.56,8.23
7526.08,7.67
7601.34,7.08
7677.35,6.54
7754.13,6.01
7831.67,5.57
7909.98,5.08
7989.08,4.56
8068.98,4.04
8149.67,3.56
8231.16,3.27
8313.47,3.04
8396.61,2.97
8480.57,2.78
8565.38,2.78
8651.03,3.00
8737.54,3.32
8824.92,3.63
8913.17,3.99
9002.30,4.27
9092.32,4.24
9183.25,3.68
9275.08,2.91
9367.83,2.07
9461.51,1.24
9556.12,0.52
9651.68,0.13
9748.20,0.70
9845.68,1.69
9944.14,2.89
10043.58,3.85
10144.02,4.40
10245.46,4.72
10347.91,4.58
10451.39,4.32
10555.91,4.06
10661.46,3.80
10768.08,3.54
10875.76,3.27
10984.52,3.02
11094.36,2.93
11205.31,2.83
11317.36,2.97
11430.53,3.18
11544.84,3.56
11660.29,4.06
11776.89,4.69
11894.66,5.32
12013.60,5.83
12133.74,5.92
12255.08,5.38
12377.63,4.26
12501.41,2.42
12626.42,-0.67
12752.68,-5.16
12880.21,-10.31
13009.01,-14.49
13139.10,-15.28
13270.49,-13.52
13403.20,-11.38
13537.23,-9.75
13672.60,-8.83
13809.33,-8.75
13947.42,-8.86
14086.90,-8.89
14227.77,-9.13
14370.04,-9.50
14513.74,-9.75
14658.88,-9.80
14805.47,-9.67
14953.52,-9.32
15103.06,-8.71
15254.09,-7.95
15406.63,-7.07
15560.70,-6.36
15716.30,-6.16
15873.47,-6.24
16032.20,-6.01
16192.52,-5.38
16354.45,-4.70
16517.99,-4.07
16683.17,-3.66
16850.01,-3.38
17018.51,-3.22
17188.69,-3.13
17360.58,-2.68
17534.18,-1.96
17709.53,-1.19
17886.62,-0.67
18065.49,-0.71
18246.14,-1.22
18428.60,-2.19
18612.89,-3.43
18799.02,-4.80
18987.01,-5.81
19176.88,-5.96
19368.65,-4.90
19562.33,-3.05
19757.96,-0.90
19955.54,0.79
