frequency,raw,error,smoothed,error_smoothed,equalization,parametric_eq,fixed_band_eq,equalized_raw,equalized_smoothed,target
20.00,6.30,3.41,6.29,3.40,-3.44,-2.85,-1.72,2.86,2.86,2.89
20.20,6.36,3.48,6.36,3.48,-3.49,-2.88,-1.77,2.87,2.87,2.88
20.40,6.41,3.54,6.42,3.55,-3.54,-2.92,-1.82,2.87,2.88,2.87
20.61,6.47,3.60,6.47,3.61,-3.59,-2.95,-1.88,2.88,2.88,2.87
20.81,6.52,3.67,6.52,3.67,-3.63,-2.98,-1.93,2.89,2.89,2.85
21.02,6.57,3.72,6.56,3.71,-3.67,-3.01,-1.99,2.90,2.89,2.85
21.23,6.57,3.73,6.57,3.73,-3.70,-3.05,-2.05,2.87,2.87,2.84
21.44,6.56,3.71,6.57,3.72,-3.72,-3.08,-2.11,2.84,2.84,2.85
21.66,6.56,3.72,6.56,3.72,-3.73,-3.11,-2.17,2.83,2.82,2.84
21.87,6.55,3.72,6.55,3.72,-3.74,-3.14,-2.23,2.81,2.81,2.83
22.09,6.55,3.73,6.55,3.73,-3.75,-3.18,-2.30,2.80,2.81,2.82
22.31,6.56,3.74,6.56,3.74,-3.75,-3.21,-2.37,2.81,2.81,2.82
22.54,6.57,3.76,6.57,3.76,-3.76,-3.24,-2.43,2.81,2.81,2.81
22.76,6.58,3.77,6.58,3.78,-3.78,-3.27,-2.51,2.80,2.80,2.81
22.99,6.59,3.79,6.59,3.79,-3.79,-3.31,-2.58,2.80,2.80,2.79
23.22,6.60,3.81,6.60,3.81,-3.81,-3.34,-2.65,2.79,2.79,2.78
23.45,6.62,3.83,6.62,3.83,-3.83,-3.37,-2.73,2.79,2.79,2.79
23.69,6.63,3.85,6.63,3.85,-3.84,-3.40,-2.80,2.78,2.79,2.78
23.92,6.65,3.87,6.65,3.86,-3.86,-3.44,-2.88,2.79,2.78,2.78
24.16,6.66,3.87,6.67,3.87,-3.88,-3.47,-2.96,2.78,2.78,2.79
24.40,6.69,3.89,6.69,3.89,-3.90,-3.50,-3.05,2.79,2.79,2.80
24.65,6.71,3.91,6.71,3.91,-3.91,-3.53,-3.13,2.80,2.80,2.80
24.89,6.73,3.93,6.73,3.93,-3.92,-3.56,-3.21,2.81,2.81,2.80
25.14,6.74,3.94,6.74,3.94,-3.93,-3.60,-3.30,2.81,2.81,2.80
25.39,6.74,3.94,6.74,3.94,-3.93,-3.63,-3.38,2.81,2.81,2.80
25.65,6.74,3.94,6.74,3.94,-3.93,-3.66,-3.47,2.80,2.81,2.80
25.91,6.74,3.93,6.74,3.93,-3.93,-3.69,-3.55,2.80,2.80,2.81
26.16,6.74,3.92,6.74,3.93,-3.93,-3.72,-3.64,2.81,2.81,2.82
26.43,6.74,3.92,6.74,3.92,-3.93,-3.75,-3.72,2.81,2.81,2.81
26.69,6.74,3.93,6.74,3.92,-3.93,-3.78,-3.81,2.81,2.81,2.81
26.96,6.74,3.93,6.74,3.93,-3.93,-3.81,-3.89,2.81,2.81,2.81
27.23,6.75,3.94,6.75,3.94,-3.94,-3.84,-3.97,2.81,2.81,2.81
27.50,6.76,3.95,6.76,3.94,-3.95,-3.87,-4.05,2.81,2.81,2.81
27.77,6.77,3.95,6.77,3.95,-3.96,-3.90,-4.13,2.81,2.81,2.82
28.05,6.78,3.96,6.78,3.97,-3.97,-3.93,-4.21,2.81,2.81,2.82
28.33,6.80,3.99,6.80,3.99,-3.99,-3.96,-4.28,2.81,2.81,2.81
28.62,6.82,4.01,6.82,4.01,-4.00,-3.99,-4.35,2.82,2.82,2.81
28.90,6.83,4.02,6.83,4.02,-4.01,-4.02,-4.41,2.82,2.82,2.81
29.19,6.84,4.03,6.84,4.03,-4.02,-4.05,-4.48,2.82,2.82,2.81
29.48,6.84,4.03,6.84,4.03,-4.03,-4.08,-4.53,2.81,2.81,2.81
29.78,6.84,4.03,6.84,4.03,-4.03,-4.10,-4.58,2.81,2.81,2.81
30.08,6.84,4.02,6.84,4.03,-4.03,-4.13,-4.63,2.80,2.80,2.82
30.38,6.84,4.03,6.84,4.03,-4.04,-4.16,-4.67,2.80,2.80,2.81
30.68,6.84,4.04,6.84,4.04,-4.04,-4.18,-4.70,2.80,2.80,2.79
30.99,6.84,4.05,6.84,4.05,-4.05,-4.21,-4.73,2.79,2.79,2.79
31.30,6.84,4.06,6.84,4.06,-4.06,-4.24,-4.76,2.78,2.78,2.78
31.61,6.84,4.06,6.84,4.06,-4.06,-4.26,-4.78,2.78,2.78,2.78
31.93,6.84,4.07,6.84,4.07,-4.07,-4.29,-4.79,2.77,2.77,2.77
32.24,6.84,4.07,6.84,4.08,-4.08,-4.31,-4.79,2.76,2.76,2.76
32.57,6.84,4.09,6.84,4.08,-4.08,-4.34,-4.79,2.76,2.76,2.75
32.89,6.84,4.09,6.84,4.09,-4.09,-4.36,-4.79,2.75,2.75,2.75
33.22,6.84,4.09,6.84,4.09,-4.09,-4.38,-4.78,2.75,2.75,2.75
33.55,6.84,4.09,6.84,4.09,-4.09,-4.41,-4.77,2.75,2.75,2.75
33.89,6.84,4.09,6.84,4.09,-4.10,-4.43,-4.75,2.74,2.74,2.75
34.23,6.84,4.10,6.84,4.10,-4.10,-4.45,-4.73,2.74,2.74,2.74
34.57,6.84,4.10,6.84,4.10,-4.11,-4.47,-4.70,2.73,2.73,2.74
34.92,6.84,4.10,6.84,4.10,-4.10,-4.49,-4.68,2.74,2.74,2.73
35.27,6.84,4.10,6.84,4.11,-4.09,-4.51,-4.65,2.75,2.75,2.74
35.62,6.84,4.11,6.84,4.11,-4.08,-4.53,-4.62,2.76,2.76,2.73
35.97,6.84,4.11,6.82,4.10,-4.07,-4.55,-4.58,2.77,2.75,2.72
36.33,6.79,4.08,6.78,4.07,-4.06,-4.57,-4.55,2.72,2.72,2.71
36.70,6.73,4.03,6.74,4.04,-4.06,-4.59,-4.51,2.67,2.67,2.70
37.06,6.69,4.01,6.71,4.02,-4.07,-4.61,-4.48,2.62,2.63,2.68
37.43,6.71,4.05,6.70,4.04,-4.09,-4.62,-4.45,2.62,2.62,2.66
37.81,6.73,4.08,6.72,4.08,-4.10,-4.64,-4.41,2.63,2.62,2.65
38.19,6.75,4.13,6.76,4.13,-4.12,-4.65,-4.38,2.63,2.64,2.62
38.57,6.77,4.17,6.78,4.18,-4.13,-4.67,-4.35,2.63,2.64,2.60
38.95,6.80,4.23,6.77,4.20,-4.15,-4.68,-4.32,2.64,2.62,2.57
39.34,6.75,4.21,6.74,4.20,-4.17,-4.70,-4.29,2.58,2.57,2.54
39.74,6.69,4.17,6.70,4.18,-4.19,-4.71,-4.26,2.50,2.52,2.52
40.14,6.65,4.15,6.66,4.16,-4.20,-4.72,-4.24,2.45,2.46,2.50
40.54,6.65,4.18,6.65,4.17,-4.21,-4.74,-4.22,2.44,2.44,2.47
40.94,6.65,4.20,6.65,4.20,-4.22,-4.75,-4.20,2.43,2.43,2.45
41.35,6.65,4.22,6.65,4.22,-4.22,-4.76,-4.18,2.42,2.42,2.43
41.76,6.65,4.25,6.65,4.25,-4.23,-4.77,-4.17,2.42,2.42,2.40
42.18,6.65,4.27,6.66,4.27,-4.25,-4.78,-4.16,2.40,2.41,2.38
42.60,6.65,4.28,6.65,4.29,-4.26,-4.79,-4.15,2.39,2.39,2.36
43.03,6.65,4.31,6.62,4.28,-4.27,-4.79,-4.15,2.38,2.35,2.34
43.46,6.58,4.27,6.58,4.26,-4.28,-4.80,-4.15,2.30,2.30,2.31
43.90,6.51,4.22,6.54,4.25,-4.28,-4.81,-4.15,2.23,2.26,2.29
44.33,6.52,4.25,6.54,4.27,-4.28,-4.81,-4.15,2.24,2.25,2.27
44.78,6.57,4.33,6.54,4.30,-4.29,-4.82,-4.16,2.28,2.26,2.24
45.23,6.56,4.33,6.54,4.32,-4.29,-4.82,-4.17,2.26,2.24,2.23
45.68,6.49,4.30,6.50,4.31,-4.31,-4.83,-4.19,2.18,2.20,2.19
46.13,6.45,4.29,6.47,4.30,-4.32,-4.83,-4.20,2.13,2.15,2.15
46.60,6.45,4.32,6.44,4.32,-4.34,-4.83,-4.23,2.11,2.11,2.13
47.06,6.45,4.35,6.45,4.36,-4.35,-4.83,-4.25,2.10,2.10,2.10
47.53,6.45,4.38,6.45,4.39,-4.37,-4.84,-4.28,2.08,2.08,2.07
48.01,6.45,4.43,6.42,4.40,-4.39,-4.84,-4.31,2.06,2.02,2.02
48.49,6.38,4.40,6.37,4.39,-4.42,-4.84,-4.34,1.96,1.96,1.98
48.97,6.30,4.36,6.36,4.42,-4.45,-4.83,-4.37,1.85,1.91,1.94
49.46,6.36,4.45,6.36,4.46,-4.47,-4.83,-4.41,1.89,1.89,1.91
49.96,6.41,4.56,6.36,4.51,-4.48,-4.83,-4.45,1.92,1.87,1.84
50.46,6.35,4.54,6.35,4.53,-4.49,-4.83,-4.49,1.86,1.85,1.81
50.96,6.27,4.49,6.31,4.53,-4.50,-4.82,-4.53,1.77,1.81,1.78
51.47,6.26,4.51,6.26,4.52,-4.51,-4.82,-4.58,1.75,1.75,1.75
51.99,6.26,4.55,6.22,4.51,-4.53,-4.81,-4.62,1.73,1.69,1.70
52.51,6.18,4.51,6.18,4.51,-4.55,-4.81,-4.67,1.63,1.63,1.67
53.03,6.11,4.46,6.15,4.51,-4.56,-4.80,-4.72,1.55,1.58,1.65
53.56,6.14,4.54,6.14,4.53,-4.58,-4.79,-4.76,1.56,1.56,1.60
54.10,6.17,4.61,6.17,4.61,-4.59,-4.78,-4.81,1.58,1.58,1.56
54.64,6.20,4.68,6.19,4.67,-4.61,-4.78,-4.85,1.59,1.58,1.52
55.18,6.19,4.71,6.17,4.69,-4.62,-4.77,-4.90,1.56,1.55,1.48
55.74,6.11,4.67,6.11,4.66,-4.64,-4.76,-4.94,1.47,1.46,1.44
56.29,6.03,4.62,6.02,4.62,-4.65,-4.75,-4.98,1.37,1.37,1.41
56.86,5.94,4.56,5.98,4.61,-4.66,-4.73,-5.02,1.28,1.32,1.38
57.42,5.96,4.62,5.97,4.63,-4.65,-4.72,-5.06,1.31,1.32,1.34
58.00,6.02,4.70,5.97,4.65,-4.64,-4.71,-5.09,1.38,1.33,1.32
58.58,5.96,4.66,5.97,4.67,-4.64,-4.70,-5.12,1.32,1.33,1.30
59.16,5.91,4.64,5.93,4.67,-4.64,-4.68,-5.14,1.27,1.29,1.27
59.76,5.89,4.65,5.86,4.63,-4.65,-4.67,-5.16,1.23,1.21,1.24
60.35,5.83,4.64,5.82,4.63,-4.67,-4.65,-5.18,1.16,1.15,1.18
60.96,5.74,4.60,5.80,4.66,-4.67,-4.64,-5.18,1.07,1.12,1.14
61.57,5.79,4.70,5.77,4.69,-4.68,-4.62,-5.19,1.11,1.09,1.09
62.18,5.80,4.76,5.74,4.71,-4.69,-4.60,-5.19,1.11,1.06,1.04
62.80,5.68,4.70,5.70,4.72,-4.69,-4.58,-5.18,0.99,1.01,0.98
63.43,5.62,4.68,5.64,4.70,-4.70,-4.57,-5.17,0.92,0.94,0.94
64.07,5.59,4.69,5.58,4.69,-4.70,-4.55,-5.15,0.89,0.88,0.90
64.71,5.56,4.71,5.56,4.71,-4.71,-4.53,-5.13,0.85,0.85,0.85
65.35,5.53,4.71,5.53,4.71,-4.71,-4.51,-5.10,0.82,0.82,0.82
66.01,5.50,4.73,5.47,4.70,-4.71,-4.49,-5.06,0.79,0.76,0.77
66.67,5.41,4.67,5.43,4.70,-4.72,-4.47,-5.03,0.69,0.71,0.74
67.33,5.37,4.69,5.40,4.72,-4.72,-4.44,-4.98,0.65,0.68,0.68
68.01,5.40,4.76,5.38,4.74,-4.73,-4.42,-4.94,0.67,0.65,0.64
68.69,5.37,4.78,5.33,4.74,-4.73,-4.40,-4.89,0.64,0.60,0.59
69.37,5.28,4.72,5.29,4.74,-4.73,-4.38,-4.83,0.55,0.57,0.56
70.07,5.18,4.68,5.25,4.74,-4.73,-4.35,-4.78,0.45,0.52,0.50
70.77,5.25,4.79,5.19,4.73,-4.73,-4.33,-4.72,0.52,0.46,0.46
71.48,5.16,4.75,5.13,4.72,-4.74,-4.30,-4.66,0.42,0.39,0.41
72.19,5.03,4.67,5.07,4.71,-4.74,-4.28,-4.60,0.29,0.33,0.36
72.91,4.98,4.67,5.02,4.70,-4.74,-4.25,-4.54,0.24,0.28,0.31
73.64,5.03,4.76,5.01,4.74,-4.74,-4.23,-4.47,0.29,0.27,0.26
74.38,5.03,4.80,5.00,4.78,-4.74,-4.20,-4.41,0.29,0.26,0.23
75.12,4.96,4.78,4.96,4.77,-4.74,-4.18,-4.35,0.22,0.22,0.18
75.87,4.87,4.72,4.89,4.74,-4.73,-4.15,-4.29,0.14,0.16,0.15
76.63,4.81,4.70,4.83,4.72,-4.72,-4.12,-4.23,0.09,0.11,0.11
77.40,4.78,4.70,4.76,4.68,-4.70,-4.09,-4.17,0.08,0.06,0.08
78.17,4.73,4.70,4.71,4.68,-4.68,-4.06,-4.11,0.05,0.04,0.03
78.95,4.61,4.60,4.67,4.66,-4.66,-4.04,-4.05,-0.05,0.01,0.01
79.74,4.65,4.67,4.59,4.61,-4.64,-4.01,-4.00,0.01,-0.05,-0.02
80.54,4.53,4.59,4.52,4.58,-4.61,-3.98,-3.94,-0.08,-0.09,-0.06
81.35,4.43,4.52,4.51,4.60,-4.59,-3.95,-3.89,-0.16,-0.08,-0.09
82.16,4.47,4.59,4.45,4.58,-4.56,-3.92,-3.84,-0.09,-0.10,-0.12
82.98,4.50,4.66,4.41,4.57,-4.53,-3.89,-3.80,-0.03,-0.12,-0.16
83.81,4.28,4.48,4.35,4.54,-4.50,-3.86,-3.75,-0.22,-0.15,-0.20
84.65,4.24,4.47,4.23,4.47,-4.48,-3.83,-3.71,-0.24,-0.25,-0.24
85.50,4.14,4.42,4.11,4.39,-4.46,-3.80,-3.67,-0.32,-0.35,-0.28
86.35,4.03,4.34,4.08,4.40,-4.44,-3.77,-3.64,-0.41,-0.36,-0.31
87.22,4.03,4.38,4.04,4.39,-4.41,-3.74,-3.60,-0.38,-0.37,-0.35
88.09,4.09,4.48,4.04,4.42,-4.39,-3.70,-3.57,-0.30,-0.35,-0.39
88.97,3.98,4.40,4.01,4.43,-4.37,-3.67,-3.54,-0.39,-0.36,-0.42
89.86,3.95,4.42,3.91,4.37,-4.35,-3.64,-3.52,-0.40,-0.44,-0.47
90.76,3.78,4.29,3.80,4.31,-4.33,-3.61,-3.50,-0.55,-0.54,-0.51
91.66,3.67,4.23,3.73,4.28,-4.31,-3.58,-3.48,-0.64,-0.58,-0.56
92.58,3.69,4.28,3.66,4.26,-4.27,-3.54,-3.46,-0.58,-0.61,-0.59
93.51,3.65,4.29,3.62,4.26,-4.24,-3.51,-3.45,-0.59,-0.62,-0.64
94.44,3.53,4.21,3.55,4.24,-4.20,-3.48,-3.43,-0.68,-0.65,-0.68
95.39,3.45,4.19,3.44,4.18,-4.18,-3.45,-3.42,-0.73,-0.74,-0.74
96.34,3.34,4.14,3.33,4.12,-4.17,-3.41,-3.42,-0.83,-0.84,-0.80
97.30,3.22,4.07,3.25,4.10,-4.15,-3.38,-3.41,-0.93,-0.90,-0.85
98.28,3.19,4.10,3.19,4.11,-4.12,-3.35,-3.41,-0.93,-0.93,-0.91
99.26,3.16,4.14,3.15,4.12,-4.09,-3.31,-3.41,-0.93,-0.94,-0.98
100.25,3.10,4.13,3.08,4.11,-4.05,-3.28,-3.41,-0.95,-0.97,-1.03
101.25,2.99,4.07,2.97,4.06,-4.02,-3.25,-3.41,-1.03,-1.05,-1.08
102.27,2.81,3.95,2.85,3.99,-3.99,-3.21,-3.41,-1.18,-1.14,-1.14
103.29,2.73,3.93,2.72,3.91,-3.96,-3.18,-3.42,-1.23,-1.24,-1.20
104.32,2.63,3.87,2.61,3.86,-3.91,-3.14,-3.42,-1.28,-1.30,-1.25
105.37,2.51,3.81,2.54,3.84,-3.86,-3.11,-3.43,-1.35,-1.32,-1.30
106.42,2.46,3.82,2.47,3.83,-3.81,-3.08,-3.44,-1.35,-1.34,-1.36
107.48,2.42,3.85,2.39,3.81,-3.77,-3.04,-3.44,-1.35,-1.38,-1.43
108.56,2.31,3.78,2.28,3.75,-3.73,-3.01,-3.45,-1.42,-1.45,-1.47
109.64,2.13,3.65,2.15,3.67,-3.68,-2.98,-3.46,-1.55,-1.54,-1.52
110.74,2.00,3.58,2.04,3.62,-3.64,-2.94,-3.46,-1.64,-1.60,-1.58
111.85,1.96,3.59,1.96,3.58,-3.59,-2.91,-3.47,-1.64,-1.64,-1.63
112.97,1.93,3.60,1.87,3.54,-3.55,-2.87,-3.47,-1.62,-1.68,-1.68
114.10,1.76,3.48,1.77,3.50,-3.50,-2.84,-3.47,-1.74,-1.73,-1.72
115.24,1.62,3.40,1.67,3.45,-3.46,-2.81,-3.47,-1.84,-1.79,-1.78
116.39,1.60,3.43,1.57,3.40,-3.42,-2.77,-3.47,-1.82,-1.84,-1.83
117.55,1.52,3.39,1.51,3.39,-3.37,-2.74,-3.46,-1.85,-1.85,-1.87
118.73,1.43,3.35,1.44,3.36,-3.32,-2.70,-3.46,-1.89,-1.88,-1.92
119.92,1.36,3.32,1.33,3.29,-3.27,-2.67,-3.45,-1.91,-1.94,-1.96
121.12,1.21,3.19,1.22,3.22,-3.22,-2.64,-3.43,-2.01,-2.00,-1.98
122.33,1.11,3.14,1.12,3.15,-3.17,-2.60,-3.41,-2.06,-2.05,-2.03
123.55,1.03,3.09,1.02,3.08,-3.12,-2.57,-3.39,-2.09,-2.10,-2.06
124.79,0.97,3.06,0.96,3.05,-3.06,-2.53,-3.37,-2.09,-2.11,-2.09
126.03,0.86,2.99,0.90,3.04,-3.01,-2.50,-3.34,-2.15,-2.10,-2.13
127.29,0.85,3.02,0.81,2.98,-2.96,-2.47,-3.31,-2.11,-2.15,-2.18
128.57,0.74,2.96,0.70,2.92,-2.91,-2.43,-3.27,-2.17,-2.21,-2.22
129.85,0.53,2.78,0.60,2.85,-2.87,-2.40,-3.23,-2.34,-2.27,-2.26
131.15,0.50,2.79,0.49,2.78,-2.82,-2.36,-3.19,-2.32,-2.33,-2.29
132.46,0.43,2.76,0.42,2.76,-2.76,-2.33,-3.14,-2.33,-2.34,-2.33
133.79,0.36,2.73,0.36,2.73,-2.70,-2.30,-3.09,-2.34,-2.33,-2.37
135.12,0.30,2.71,0.27,2.68,-2.63,-2.26,-3.04,-2.34,-2.36,-2.41
136.48,0.14,2.57,0.16,2.60,-2.58,-2.23,-2.98,-2.44,-2.42,-2.43
137.84,0.05,2.52,0.03,2.50,-2.52,-2.19,-2.93,-2.47,-2.49,-2.47
139.22,-0.11,2.41,-0.09,2.42,-2.46,-2.16,-2.86,-2.57,-2.56,-2.52
140.61,-0.21,2.33,-0.19,2.37,-2.40,-2.13,-2.80,-2.62,-2.59,-2.55
142.02,-0.24,2.35,-0.26,2.33,-2.34,-2.09,-2.74,-2.58,-2.60,-2.59
143.44,-0.33,2.30,-0.33,2.30,-2.27,-2.06,-2.67,-2.60,-2.60,-2.63
144.87,-0.41,2.25,-0.41,2.25,-2.21,-2.02,-2.60,-2.62,-2.62,-2.66
146.32,-0.52,2.17,-0.53,2.16,-2.13,-1.99,-2.53,-2.66,-2.67,-2.69
147.78,-0.66,2.07,-0.65,2.09,-2.06,-1.96,-2.47,-2.72,-2.71,-2.73
149.26,-0.78,1.99,-0.78,1.99,-1.99,-1.92,-2.40,-2.77,-2.77,-2.77
150.75,-0.89,1.93,-0.92,1.89,-1.91,-1.89,-2.32,-2.80,-2.83,-2.82
152.26,-1.06,1.78,-1.04,1.81,-1.84,-1.85,-2.25,-2.90,-2.88,-2.84
153.78,-1.16,1.72,-1.14,1.74,-1.78,-1.82,-2.18,-2.94,-2.92,-2.88
155.32,-1.21,1.70,-1.23,1.68,-1.72,-1.78,-2.11,-2.93,-2.95,-2.91
156.88,-1.29,1.67,-1.29,1.67,-1.66,-1.75,-2.04,-2.95,-2.95,-2.96
158.44,-1.38,1.62,-1.36,1.64,-1.61,-1.71,-1.97,-2.99,-2.97,-3.00
160.03,-1.43,1.61,-1.45,1.59,-1.55,-1.67,-1.90,-2.98,-3.00,-3.04
161.63,-1.55,1.53,-1.56,1.53,-1.50,-1.64,-1.83,-3.05,-3.06,-3.09
163.24,-1.69,1.44,-1.69,1.45,-1.44,-1.60,-1.76,-3.13,-3.13,-3.14
164.88,-1.83,1.35,-1.82,1.36,-1.38,-1.56,-1.69,-3.21,-3.20,-3.18
166.53,-1.93,1.29,-1.93,1.29,-1.32,-1.52,-1.63,-3.25,-3.25,-3.23
168.19,-2.03,1.23,-2.04,1.23,-1.25,-1.49,-1.56,-3.28,-3.29,-3.26
169.87,-2.13,1.18,-2.13,1.18,-1.19,-1.45,-1.49,-3.32,-3.32,-3.31
171.57,-2.23,1.13,-2.22,1.14,-1.13,-1.41,-1.43,-3.36,-3.35,-3.36
173.29,-2.30,1.10,-2.31,1.09,-1.07,-1.37,-1.36,-3.37,-3.38,-3.40
175.02,-2.41,1.03,-2.42,1.02,-1.01,-1.32,-1.30,-3.42,-3.44,-3.44
176.77,-2.54,0.94,-2.53,0.96,-0.95,-1.28,-1.24,-3.49,-3.48,-3.48
178.54,-2.65,0.88,-2.62,0.90,-0.89,-1.24,-1.18,-3.54,-3.52,-3.53
180.32,-2.70,0.87,-2.73,0.84,-0.84,-1.19,-1.12,-3.54,-3.56,-3.57
182.13,-2.80,0.80,-2.83,0.77,-0.78,-1.15,-1.06,-3.58,-3.61,-3.60
183.95,-2.97,0.66,-2.92,0.71,-0.72,-1.10,-1.00,-3.69,-3.65,-3.64
185.79,-3.02,0.66,-3.02,0.66,-0.68,-1.05,-0.94,-3.70,-3.69,-3.68
187.65,-3.06,0.65,-3.09,0.62,-0.64,-1.00,-0.88,-3.70,-3.73,-3.71
189.52,-3.15,0.60,-3.13,0.61,-0.60,-0.95,-0.82,-3.75,-3.73,-3.75
191.42,-3.21,0.55,-3.20,0.58,-0.57,-0.89,-0.77,-3.78,-3.76,-3.77
193.33,-3.23,0.57,-3.27,0.53,-0.54,-0.84,-0.71,-3.77,-3.81,-3.80
195.27,-3.35,0.49,-3.33,0.51,-0.51,-0.78,-0.66,-3.86,-3.84,-3.84
197.22,-3.42,0.46,-3.39,0.49,-0.47,-0.72,-0.61,-3.89,-3.87,-3.88
199.19,-3.43,0.48,-3.46,0.45,-0.44,-0.66,-0.56,-3.87,-3.90,-3.91
201.18,-3.52,0.42,-3.53,0.41,-0.39,-0.59,-0.51,-3.92,-3.92,-3.94
203.19,-3.62,0.35,-3.61,0.35,-0.35,-0.53,-0.46,-3.97,-3.96,-3.97
205.23,-3.71,0.28,-3.71,0.29,-0.30,-0.46,-0.41,-4.01,-4.00,-3.99
207.28,-3.78,0.24,-3.77,0.25,-0.25,-0.39,-0.36,-4.03,-4.03,-4.02
209.35,-3.84,0.21,-3.84,0.21,-0.21,-0.32,-0.31,-4.05,-4.05,-4.05
211.44,-3.90,0.18,-3.93,0.15,-0.17,-0.24,-0.27,-4.07,-4.10,-4.09
213.56,-4.02,0.09,-4.00,0.11,-0.13,-0.17,-0.22,-4.15,-4.13,-4.11
215.69,-4.10,0.04,-4.06,0.08,-0.09,-0.10,-0.18,-4.19,-4.14,-4.14
217.85,-4.07,0.09,-4.10,0.07,-0.05,-0.03,-0.14,-4.12,-4.15,-4.16
220.03,-4.12,0.09,-4.14,0.06,-0.02,0.04,-0.10,-4.14,-4.16,-4.21
222.23,-4.22,0.01,-4.21,0.02,0.01,0.10,-0.06,-4.22,-4.21,-4.23
224.45,-4.30,-0.05,-4.30,-0.05,0.03,0.16,-0.03,-4.28,-4.27,-4.25
226.70,-4.37,-0.10,-4.36,-0.09,0.04,0.21,0.01,-4.33,-4.31,-4.27
228.96,-4.38,-0.10,-4.38,-0.10,0.06,0.25,0.04,-4.32,-4.32,-4.28
231.25,-4.38,-0.09,-4.37,-0.08,0.09,0.28,0.07,-4.29,-4.28,-4.29
233.57,-4.36,-0.05,-4.37,-0.06,0.10,0.31,0.10,-4.26,-4.26,-4.31
235.90,-4.35,-0.03,-4.40,-0.08,0.12,0.32,0.12,-4.23,-4.28,-4.32
238.26,-4.46,-0.13,-4.44,-0.12,0.12,0.33,0.15,-4.34,-4.32,-4.33
240.64,-4.51,-0.19,-4.49,-0.16,0.13,0.32,0.17,-4.38,-4.35,-4.32
243.05,-4.50,-0.18,-4.50,-0.17,0.14,0.31,0.19,-4.36,-4.36,-4.32
245.48,-4.48,-0.15,-4.49,-0.16,0.15,0.29,0.20,-4.33,-4.33,-4.33
247.93,-4.45,-0.11,-4.48,-0.15,0.17,0.26,0.22,-4.29,-4.32,-4.34
250.41,-4.51,-0.18,-4.49,-0.16,0.17,0.23,0.23,-4.34,-4.32,-4.33
252.92,-4.51,-0.19,-4.50,-0.17,0.16,0.19,0.24,-4.35,-4.34,-4.32
255.45,-4.50,-0.16,-4.51,-0.17,0.15,0.15,0.25,-4.35,-4.35,-4.34
258.00,-4.49,-0.15,-4.49,-0.15,0.14,0.11,0.25,-4.35,-4.35,-4.34
260.58,-4.48,-0.14,-4.48,-0.14,0.14,0.07,0.25,-4.34,-4.34,-4.34
263.19,-4.48,-0.13,-4.48,-0.12,0.14,0.03,0.25,-4.34,-4.33,-4.35
265.82,-4.48,-0.11,-4.48,-0.12,0.14,-0.01,0.25,-4.34,-4.34,-4.37
268.48,-4.49,-0.12,-4.50,-0.13,0.15,-0.05,0.25,-4.34,-4.36,-4.37
271.16,-4.53,-0.14,-4.54,-0.15,0.15,-0.08,0.24,-4.38,-4.39,-4.39
273.87,-4.59,-0.20,-4.57,-0.17,0.16,-0.12,0.23,-4.43,-4.41,-4.39
276.61,-4.59,-0.18,-4.59,-0.18,0.17,-0.15,0.22,-4.42,-4.43,-4.41
279.38,-4.59,-0.16,-4.60,-0.17,0.17,-0.18,0.21,-4.42,-4.42,-4.43
282.17,-4.59,-0.16,-4.59,-0.16,0.17,-0.21,0.20,-4.42,-4.42,-4.43
284.99,-4.58,-0.15,-4.59,-0.16,0.15,-0.23,0.18,-4.43,-4.44,-4.43
287.84,-4.58,-0.15,-4.58,-0.15,0.13,-0.26,0.17,-4.46,-4.45,-4.43
290.72,-4.57,-0.13,-4.56,-0.12,0.09,-0.28,0.15,-4.48,-4.47,-4.44
293.63,-4.50,-0.07,-4.51,-0.07,0.05,-0.30,0.13,-4.45,-4.45,-4.43
296.57,-4.45,-0.02,-4.44,-0.01,0.02,-0.32,0.11,-4.44,-4.42,-4.43
299.53,-4.36,0.07,-4.37,0.06,-0.02,-0.33,0.09,-4.38,-4.40,-4.43
302.53,-4.32,0.11,-4.33,0.10,-0.06,-0.35,0.07,-4.38,-4.39,-4.43
305.55,-4.31,0.12,-4.31,0.12,-0.10,-0.36,0.05,-4.41,-4.41,-4.43
308.61,-4.31,0.11,-4.31,0.12,-0.13,-0.37,0.03,-4.44,-4.44,-4.42
311.69,-4.30,0.14,-4.30,0.14,-0.16,-0.39,0.01,-4.46,-4.45,-4.44
314.81,-4.28,0.15,-4.27,0.17,-0.18,-0.40,-0.02,-4.46,-4.45,-4.43
317.96,-4.22,0.22,-4.24,0.20,-0.20,-0.41,-0.04,-4.42,-4.43,-4.44
321.14,-4.20,0.23,-4.21,0.22,-0.22,-0.41,-0.06,-4.42,-4.43,-4.43
324.35,-4.20,0.24,-4.19,0.24,-0.24,-0.42,-0.09,-4.44,-4.43,-4.44
327.59,-4.19,0.24,-4.17,0.26,-0.26,-0.43,-0.11,-4.45,-4.43,-4.43
330.87,-4.13,0.30,-4.15,0.29,-0.29,-0.43,-0.14,-4.42,-4.44,-4.43
334.18,-4.11,0.33,-4.12,0.31,-0.32,-0.44,-0.16,-4.43,-4.44,-4.45
337.52,-4.11,0.33,-4.10,0.34,-0.35,-0.45,-0.19,-4.46,-4.45,-4.44
340.90,-4.08,0.36,-4.07,0.36,-0.38,-0.45,-0.21,-4.46,-4.46,-4.44
344.30,-4.02,0.41,-4.03,0.40,-0.41,-0.45,-0.24,-4.43,-4.44,-4.43
347.75,-3.98,0.44,-3.98,0.45,-0.44,-0.46,-0.26,-4.42,-4.41,-4.42
351.23,-3.93,0.50,-3.94,0.49,-0.46,-0.46,-0.29,-4.39,-4.40,-4.44
354.74,-3.91,0.51,-3.92,0.51,-0.48,-0.46,-0.32,-4.39,-4.39,-4.42
358.28,-3.91,0.51,-3.91,0.51,-0.50,-0.47,-0.34,-4.41,-4.40,-4.42
361.87,-3.90,0.51,-3.91,0.50,-0.52,-0.47,-0.37,-4.42,-4.42,-4.41
365.49,-3.90,0.50,-3.90,0.51,-0.54,-0.47,-0.40,-4.44,-4.44,-4.40
369.14,-3.88,0.51,-3.87,0.52,-0.56,-0.47,-0.42,-4.44,-4.43,-4.39
372.83,-3.82,0.57,-3.82,0.57,-0.59,-0.48,-0.45,-4.41,-4.41,-4.39
376.56,-3.76,0.63,-3.76,0.63,-0.62,-0.48,-0.48,-4.38,-4.38,-4.39
380.33,-3.69,0.70,-3.71,0.68,-0.65,-0.48,-0.50,-4.34,-4.36,-4.39
384.13,-3.67,0.71,-3.67,0.71,-0.69,-0.48,-0.53,-4.36,-4.36,-4.38
387.97,-3.66,0.72,-3.64,0.74,-0.73,-0.48,-0.56,-4.39,-4.37,-4.38
391.85,-3.62,0.76,-3.61,0.77,-0.77,-0.49,-0.59,-4.39,-4.39,-4.38
395.77,-3.57,0.82,-3.60,0.79,-0.82,-0.49,-0.61,-4.39,-4.41,-4.39
399.73,-3.56,0.83,-3.57,0.83,-0.86,-0.49,-0.64,-4.42,-4.42,-4.40
403.72,-3.57,0.82,-3.52,0.88,-0.89,-0.49,-0.67,-4.46,-4.41,-4.39
407.76,-3.45,0.96,-3.47,0.93,-0.93,-0.49,-0.70,-4.38,-4.40,-4.41
411.84,-3.39,1.02,-3.41,0.99,-0.96,-0.49,-0.72,-4.35,-4.38,-4.41
415.96,-3.38,1.03,-3.38,1.04,-0.99,-0.50,-0.75,-4.38,-4.37,-4.41
420.12,-3.38,1.04,-3.38,1.03,-1.02,-0.50,-0.78,-4.41,-4.41,-4.42
424.32,-3.38,1.03,-3.38,1.03,-1.05,-0.50,-0.81,-4.43,-4.43,-4.41
428.56,-3.37,1.02,-3.35,1.05,-1.07,-0.50,-0.83,-4.44,-4.42,-4.39
432.85,-3.30,1.07,-3.30,1.08,-1.08,-0.50,-0.86,-4.39,-4.39,-4.37
437.18,-3.23,1.13,-3.25,1.11,-1.10,-0.51,-0.89,-4.33,-4.35,-4.36
441.55,-3.19,1.13,-3.19,1.14,-1.12,-0.51,-0.91,-4.31,-4.31,-4.32
445.96,-3.15,1.13,-3.16,1.13,-1.15,-0.51,-0.94,-4.30,-4.30,-4.29
450.42,-3.10,1.15,-3.09,1.15,-1.18,-0.51,-0.96,-4.28,-4.27,-4.25
454.93,-3.04,1.16,-3.00,1.19,-1.20,-0.52,-0.98,-4.24,-4.20,-4.20
459.48,-2.87,1.27,-2.91,1.23,-1.22,-0.52,-1.01,-4.09,-4.13,-4.14
464.07,-2.80,1.27,-2.82,1.26,-1.23,-0.52,-1.03,-4.03,-4.05,-4.07
468.71,-2.76,1.26,-2.74,1.27,-1.24,-0.53,-1.05,-4.00,-3.99,-4.02
473.40,-2.70,1.26,-2.70,1.26,-1.25,-0.53,-1.07,-3.95,-3.95,-3.96
478.13,-2.65,1.25,-2.65,1.25,-1.25,-0.53,-1.09,-3.90,-3.90,-3.90
482.91,-2.60,1.25,-2.60,1.25,-1.26,-0.54,-1.11,-3.86,-3.86,-3.85
