frequency,raw,error,smoothed,error_smoothed,equalization,parametric_eq,fixed_band_eq,equalized_raw,equalized_smoothed,target
20.00,-0.85,-11.08,-0.84,-11.06,6.00,6.19,2.56,5.15,5.16,10.23
20.20,-0.80,-11.01,-0.81,-11.02,6.00,6.19,2.63,5.20,5.19,10.21
20.40,-0.74,-10.93,-0.77,-10.96,6.00,6.19,2.70,5.26,5.23,10.19
20.61,-0.69,-10.87,-0.71,-10.88,6.00,6.19,2.78,5.31,5.29,10.18
20.81,-0.64,-10.80,-0.64,-10.80,6.00,6.19,2.86,5.36,5.36,10.16
21.02,-0.57,-10.72,-0.54,-10.68,6.00,6.19,2.94,5.43,5.46,10.15
21.23,-0.37,-10.50,-0.38,-10.51,6.00,6.19,3.03,5.63,5.62,10.12
21.44,-0.17,-10.28,-0.17,-10.29,6.00,6.19,3.11,5.83,5.83,10.11
21.66,0.02,-10.08,0.05,-10.05,6.00,6.19,3.20,6.02,6.05,10.10
21.87,0.22,-9.86,0.19,-9.89,6.00,6.19,3.29,6.22,6.19,10.08
22.09,0.28,-9.79,0.24,-9.83,6.00,6.19,3.39,6.28,6.24,10.07
22.31,0.17,-9.88,0.20,-9.86,6.00,6.19,3.48,6.17,6.20,10.06
22.54,0.07,-9.98,0.07,-9.97,6.00,6.19,3.58,6.07,6.07,10.05
22.76,-0.04,-10.08,-0.05,-10.09,6.00,6.19,3.68,5.96,5.95,10.04
22.99,-0.15,-10.18,-0.13,-10.15,6.00,6.19,3.79,5.85,5.87,10.03
23.22,-0.17,-10.19,-0.17,-10.19,6.00,6.18,3.89,5.83,5.83,10.01
23.45,-0.17,-10.19,-0.20,-10.21,6.00,6.18,4.00,5.83,5.80,10.01
23.69,-0.18,-10.19,-0.20,-10.20,6.00,6.18,4.11,5.82,5.80,10.00
23.92,-0.19,-10.19,-0.16,-10.16,6.00,6.18,4.23,5.81,5.84,10.00
24.16,-0.09,-10.09,-0.08,-10.08,6.00,6.18,4.34,5.91,5.92,10.00
24.40,0.06,-9.94,0.04,-9.95,6.00,6.18,4.46,6.06,6.04,10.00
24.65,0.20,-9.79,0.20,-9.79,6.00,6.18,4.58,6.20,6.20,10.00
24.89,0.37,-9.63,0.37,-9.63,6.00,6.18,4.70,6.37,6.37,9.99
25.14,0.53,-9.46,0.53,-9.46,6.00,6.18,4.82,6.53,6.53,9.99
25.39,0.70,-9.29,0.71,-9.28,6.00,6.18,4.94,6.70,6.71,9.99
25.65,0.87,-9.12,0.88,-9.11,6.00,6.18,5.07,6.87,6.88,9.99
25.91,1.04,-8.95,1.01,-8.98,6.00,6.18,5.19,7.04,7.01,10.00
26.16,1.10,-8.90,1.08,-8.92,6.00,6.18,5.32,7.10,7.08,10.00
26.43,1.08,-8.92,1.10,-8.90,6.00,6.18,5.44,7.08,7.10,9.99
26.69,1.05,-8.95,1.06,-8.93,6.00,6.18,5.56,7.05,7.06,9.99
26.96,1.03,-8.96,1.00,-8.99,6.00,6.17,5.69,7.03,7.00,9.99
27.23,0.91,-9.08,0.90,-9.09,6.00,6.17,5.81,6.91,6.90,9.99
27.50,0.76,-9.23,0.75,-9.24,6.00,6.17,5.92,6.76,6.75,9.98
27.77,0.61,-9.37,0.62,-9.36,6.00,6.17,6.04,6.61,6.62,9.98
28.05,0.52,-9.46,0.57,-9.40,6.00,6.17,6.15,6.52,6.57,9.98
28.33,0.63,-9.34,0.62,-9.35,6.00,6.17,6.25,6.63,6.62,9.97
28.62,0.73,-9.23,0.72,-9.25,6.00,6.17,6.36,6.73,6.72,9.96
28.90,0.84,-9.12,0.83,-9.13,6.00,6.17,6.45,6.84,6.83,9.96
29.19,0.90,-9.06,0.89,-9.07,6.00,6.17,6.54,6.90,6.89,9.96
29.48,0.92,-9.04,0.92,-9.03,6.00,6.16,6.62,6.92,6.92,9.96
29.78,0.95,-9.01,0.95,-9.01,6.00,6.16,6.69,6.95,6.95,9.95
30.08,0.98,-8.97,0.98,-8.97,6.00,6.16,6.76,6.98,6.98,9.95
30.38,1.04,-8.91,1.04,-8.90,6.00,6.16,6.82,7.04,7.04,9.95
30.68,1.10,-8.84,1.10,-8.84,6.00,6.16,6.86,7.10,7.10,9.93
30.99,1.16,-8.77,1.14,-8.79,6.00,6.16,6.90,7.16,7.14,9.93
31.30,1.17,-8.75,1.17,-8.75,6.00,6.16,6.93,7.17,7.17,9.91
31.61,1.18,-8.73,1.18,-8.73,6.00,6.15,6.95,7.18,7.18,9.91
31.93,1.20,-8.71,1.20,-8.70,6.00,6.15,6.96,7.20,7.20,9.91
32.24,1.24,-8.66,1.25,-8.65,6.00,6.15,6.96,7.24,7.25,9.89
32.57,1.29,-8.60,1.29,-8.59,6.00,6.15,6.95,7.29,7.29,9.89
32.89,1.34,-8.55,1.31,-8.58,6.00,6.15,6.94,7.34,7.31,9.88
33.22,1.28,-8.60,1.23,-8.65,6.00,6.14,6.91,7.28,7.23,9.88
33.55,1.15,-8.72,1.14,-8.74,6.00,6.14,6.89,7.15,7.14,9.87
33.89,1.04,-8.84,1.13,-8.74,6.00,6.14,6.85,7.04,7.13,9.88
34.23,1.25,-8.62,1.33,-8.54,6.00,6.14,6.81,7.25,7.33,9.87
34.57,1.64,-8.23,1.63,-8.24,6.00,6.14,6.76,7.64,7.63,9.87
34.92,2.02,-7.85,1.88,-7.99,6.00,6.13,6.71,8.02,7.88,9.87
35.27,1.95,-7.92,1.90,-7.97,6.00,6.13,6.65,7.95,7.90,9.87
35.62,1.72,-8.15,1.75,-8.11,6.00,6.13,6.59,7.72,7.75,9.87
35.97,1.49,-8.38,1.58,-8.29,6.00,6.13,6.53,7.49,7.58,9.86
36.33,1.53,-8.33,1.52,-8.34,6.00,6.12,6.47,7.53,7.52,9.86
36.70,1.59,-8.27,1.56,-8.29,6.00,6.12,6.40,7.59,7.56,9.85
37.06,1.64,-8.21,1.64,-8.21,6.00,6.12,6.34,7.64,7.64,9.84
37.43,1.66,-8.17,1.67,-8.16,6.00,6.12,6.27,7.66,7.67,9.83
37.81,1.68,-8.14,1.66,-8.16,6.00,6.11,6.21,7.68,7.66,9.82
38.19,1.60,-8.20,1.53,-8.27,6.00,6.11,6.15,7.60,7.53,9.80
38.57,1.40,-8.39,1.39,-8.39,6.00,6.11,6.09,7.40,7.39,9.78
38.95,1.21,-8.56,1.34,-8.43,6.00,6.10,6.03,7.21,7.34,9.76
39.34,1.42,-8.33,1.43,-8.32,6.00,6.10,5.97,7.42,7.43,9.75
39.74,1.66,-8.07,1.61,-8.12,6.00,6.10,5.92,7.66,7.61,9.74
40.14,1.83,-7.88,1.81,-7.91,6.00,6.09,5.87,7.83,7.81,9.72
40.54,1.84,-7.86,1.86,-7.84,6.00,6.09,5.82,7.84,7.86,9.70
40.94,1.84,-7.85,1.77,-7.92,6.00,6.09,5.78,7.84,7.77,9.69
41.35,1.63,-8.05,1.58,-8.09,6.00,6.08,5.74,7.63,7.58,9.68
41.76,1.40,-8.26,1.48,-8.18,6.00,6.08,5.71,7.40,7.48,9.66
42.18,1.43,-8.22,1.56,-8.09,6.00,6.07,5.67,7.43,7.56,9.65
42.60,1.82,-7.82,1.79,-7.85,6.00,6.07,5.65,7.82,7.79,9.64
43.03,2.19,-7.45,2.03,-7.60,6.00,6.07,5.62,8.19,8.03,9.63
43.46,2.13,-7.49,2.14,-7.48,6.00,6.06,5.60,8.13,8.14,9.62
43.90,2.06,-7.56,2.12,-7.49,6.00,6.06,5.59,8.06,8.12,9.62
44.33,2.04,-7.57,2.05,-7.55,6.00,6.05,5.58,8.04,8.05,9.60
44.78,2.03,-7.56,1.98,-7.62,6.00,6.05,5.57,8.03,7.98,9.59
45.23,1.90,-7.69,1.82,-7.76,6.00,6.04,5.57,7.90,7.82,9.58
45.68,1.65,-7.92,1.70,-7.87,6.00,6.04,5.57,7.65,7.70,9.57
46.13,1.56,-8.00,1.70,-7.86,6.00,6.04,5.57,7.56,7.70,9.55
46.60,1.85,-7.68,1.82,-7.72,6.00,6.03,5.58,7.85,7.82,9.54
47.06,2.12,-7.41,2.01,-7.52,6.00,6.03,5.60,8.12,8.01,9.52
47.53,2.12,-7.39,2.13,-7.37,6.00,6.02,5.62,8.12,8.13,9.50
48.01,2.12,-7.37,2.14,-7.34,6.00,6.02,5.64,8.12,8.14,9.49
48.49,2.12,-7.34,2.12,-7.34,6.00,6.01,5.66,8.12,8.12,9.46
48.97,2.12,-7.32,2.11,-7.33,6.00,6.01,5.69,8.12,8.11,9.44
49.46,2.08,-7.34,2.08,-7.34,6.00,6.00,5.72,8.08,8.08,9.42
49.96,2.03,-7.36,1.99,-7.40,6.00,6.00,5.76,8.03,7.99,9.39
50.46,1.94,-7.43,1.93,-7.45,6.00,5.99,5.79,7.94,7.93,9.37
50.96,1.85,-7.50,1.94,-7.41,6.00,5.99,5.83,7.85,7.94,9.35
51.47,2.02,-7.31,2.02,-7.31,6.00,5.99,5.87,8.02,8.02,9.33
51.99,2.20,-7.10,2.13,-7.17,6.00,5.98,5.92,8.20,8.13,9.30
52.51,2.22,-7.06,2.22,-7.06,6.00,5.98,5.96,8.22,8.22,9.28
53.03,2.22,-7.04,2.23,-7.02,6.00,5.97,6.01,8.22,8.23,9.26
53.56,2.22,-7.01,2.23,-7.00,6.00,5.97,6.05,8.22,8.23,9.23
54.10,2.22,-6.99,2.24,-6.97,6.00,5.97,6.09,8.22,8.24,9.20
54.64,2.22,-6.96,2.16,-7.01,6.00,5.96,6.14,8.22,8.16,9.18
55.18,2.11,-7.04,2.02,-7.13,6.00,5.96,6.18,8.11,8.02,9.15
55.74,1.83,-7.29,1.95,-7.17,6.00,5.96,6.22,7.83,7.95,9.12
56.29,1.88,-7.21,1.98,-7.11,6.00,5.96,6.26,7.88,7.98,9.09
56.86,2.22,-6.84,2.11,-6.95,6.00,5.96,6.29,8.22,8.11,9.06
57.42,2.32,-6.71,2.27,-6.76,6.00,5.96,6.32,8.32,8.27,9.03
58.00,2.32,-6.69,2.34,-6.66,6.00,5.96,6.35,8.32,8.34,9.01
58.58,2.32,-6.66,2.32,-6.65,6.00,5.96,6.37,8.32,8.32,8.97
59.16,2.32,-6.62,2.32,-6.63,6.00,5.96,6.39,8.32,8.32,8.94
59.76,2.32,-6.59,2.32,-6.59,6.00,5.96,6.40,8.32,8.32,8.91
60.35,2.32,-6.55,2.32,-6.55,6.00,5.96,6.40,8.32,8.32,8.87
60.96,2.32,-6.52,2.32,-6.52,6.00,5.96,6.40,8.32,8.32,8.83
61.57,2.32,-6.48,2.34,-6.46,6.02,5.97,6.39,8.33,8.35,8.79
62.18,2.32,-6.44,2.33,-6.42,6.01,5.97,6.37,8.33,8.34,8.76
62.80,2.31,-6.39,2.19,-6.52,6.00,5.97,6.35,8.31,8.18,8.71
63.43,2.09,-6.58,2.07,-6.59,5.97,5.97,6.31,8.06,8.04,8.66
64.07,1.85,-6.77,2.07,-6.54,5.96,5.97,6.27,7.81,8.03,8.62
64.71,2.28,-6.28,2.29,-6.28,5.95,5.96,6.23,8.24,8.24,8.57
65.35,2.63,-5.90,2.56,-5.97,5.95,5.96,6.17,8.57,8.50,8.52
66.01,2.89,-5.58,2.69,-5.78,5.94,5.95,6.11,8.82,8.63,8.47
66.67,2.51,-5.91,2.59,-5.83,5.93,5.94,6.05,8.44,8.52,8.42
67.33,2.32,-6.05,2.42,-5.94,5.92,5.92,5.97,8.24,8.34,8.36
68.01,2.32,-6.00,2.29,-6.02,5.90,5.90,5.89,8.22,8.19,8.31
68.69,2.32,-5.94,2.30,-5.96,5.89,5.88,5.81,8.21,8.19,8.25
69.37,2.32,-5.89,2.32,-5.88,5.87,5.85,5.72,8.18,8.18,8.20
70.07,2.32,-5.82,2.32,-5.83,5.83,5.81,5.63,8.15,8.15,8.14
70.77,2.32,-5.77,2.32,-5.77,5.78,5.77,5.54,8.10,8.10,8.09
71.48,2.32,-5.71,2.32,-5.71,5.71,5.73,5.44,8.02,8.02,8.03
72.19,2.32,-5.65,2.30,-5.67,5.63,5.67,5.34,7.95,7.94,7.96
72.91,2.32,-5.59,2.31,-5.60,5.58,5.62,5.24,7.90,7.89,7.91
73.64,2.32,-5.53,2.43,-5.42,5.54,5.56,5.14,7.85,7.97,7.85
74.38,2.46,-5.33,2.39,-5.39,5.49,5.49,5.04,7.94,7.88,7.79
75.12,2.56,-5.16,2.29,-5.43,5.43,5.43,4.94,8.00,7.73,7.72
75.87,1.91,-5.75,2.22,-5.44,5.37,5.36,4.84,7.28,7.59,7.66
76.63,2.13,-5.47,2.16,-5.43,5.32,5.29,4.73,7.45,7.48,7.59
77.40,2.32,-5.21,2.18,-5.35,5.27,5.21,4.63,7.58,7.45,7.53
78.17,2.32,-5.15,2.33,-5.14,5.21,5.14,4.53,7.53,7.54,7.46
78.95,2.32,-5.08,2.33,-5.06,5.15,5.06,4.43,7.46,7.48,7.40
79.74,2.32,-5.01,2.32,-5.01,5.04,4.99,4.34,7.36,7.36,7.33
80.54,2.32,-4.95,2.32,-4.94,4.92,4.91,4.24,7.23,7.23,7.26
81.35,2.32,-4.88,2.28,-4.91,4.80,4.84,4.15,7.11,7.08,7.19
82.16,2.32,-4.81,2.33,-4.79,4.70,4.76,4.06,7.01,7.03,7.12
82.98,2.31,-4.74,2.45,-4.60,4.63,4.69,3.97,6.94,7.09,7.05
83.81,2.68,-4.30,2.55,-4.43,4.58,4.61,3.89,7.26,7.13,6.98
84.65,2.64,-4.27,2.54,-4.36,4.51,4.53,3.80,7.15,7.06,6.90
85.50,2.40,-4.42,2.45,-4.37,4.43,4.46,3.72,6.83,6.88,6.82
86.35,2.22,-4.53,2.28,-4.46,4.35,4.39,3.64,6.57,6.63,6.74
87.22,2.22,-4.45,2.18,-4.49,4.28,4.31,3.57,6.50,6.46,6.67
88.09,2.22,-4.38,2.20,-4.39,4.25,4.24,3.49,6.46,6.45,6.59
88.97,2.22,-4.30,2.36,-4.15,4.23,4.16,3.42,6.44,6.59,6.51
89.86,2.50,-3.93,2.44,-3.98,4.20,4.09,3.36,6.69,6.64,6.43
90.76,2.63,-3.72,2.37,-3.97,4.14,4.02,3.29,6.76,6.51,6.35
91.66,2.12,-4.13,2.23,-4.03,4.05,3.94,3.23,6.17,6.28,6.26
92.58,1.89,-4.29,2.07,-4.10,3.94,3.87,3.17,5.83,6.01,6.18
93.51,2.07,-4.02,2.01,-4.07,3.83,3.80,3.11,5.90,5.85,6.08
94.44,2.23,-3.77,2.13,-3.87,3.75,3.72,3.05,5.97,5.88,5.99
95.39,2.23,-3.68,2.28,-3.62,3.67,3.65,3.00,5.90,5.96,5.90
96.34,2.32,-3.49,2.39,-3.42,3.58,3.58,2.95,5.90,5.97,5.81
97.30,2.51,-3.20,2.39,-3.32,3.47,3.50,2.90,5.98,5.86,5.71
98.28,2.40,-3.22,2.33,-3.28,3.35,3.43,2.86,5.75,5.68,5.61
99.26,2.10,-3.41,2.21,-3.30,3.25,3.36,2.81,5.34,5.45,5.51
100.25,2.08,-3.33,2.10,-3.31,3.17,3.29,2.77,5.25,5.27,5.40
101.25,2.10,-3.20,2.10,-3.20,3.13,3.21,2.73,5.23,5.23,5.30
102.27,2.18,-3.02,2.15,-3.05,3.10,3.14,2.69,5.28,5.25,5.20
103.29,2.15,-2.95,2.12,-2.97,3.06,3.07,2.65,5.21,5.18,5.09
104.32,2.06,-2.93,2.04,-2.94,3.00,3.00,2.61,5.05,5.04,4.99
105.37,1.90,-2.99,1.94,-2.94,2.91,2.92,2.58,4.81,4.86,4.88
106.42,1.87,-2.90,1.86,-2.91,2.82,2.85,2.55,4.69,4.68,4.77
107.48,1.85,-2.82,1.81,-2.85,2.74,2.78,2.51,4.59,4.56,4.66
108.56,1.82,-2.75,1.85,-2.71,2.68,2.71,2.48,4.50,4.54,4.57
109.64,1.86,-2.61,1.93,-2.53,2.62,2.63,2.45,4.47,4.55,4.46
110.74,2.06,-2.30,1.94,-2.42,2.53,2.56,2.42,4.59,4.48,4.36
111.85,1.98,-2.29,1.89,-2.38,2.44,2.49,2.39,4.41,4.33,4.27
112.97,1.67,-2.51,1.77,-2.40,2.34,2.42,2.36,4.01,4.12,4.17
114.10,1.66,-2.42,1.68,-2.40,2.27,2.35,2.33,3.93,3.95,4.08
115.24,1.69,-2.30,1.73,-2.26,2.21,2.28,2.30,3.90,3.95,3.99
116.39,1.86,-2.04,1.82,-2.07,2.16,2.20,2.27,4.01,3.98,3.90
117.55,1.94,-1.88,1.81,-2.00,2.08,2.13,2.24,4.02,3.90,3.81
118.73,1.69,-2.04,1.73,-1.99,1.99,2.06,2.21,3.68,3.73,3.72
119.92,1.57,-2.07,1.62,-2.02,1.91,1.99,2.18,3.48,3.53,3.64
121.12,1.59,-1.98,1.61,-1.96,1.85,1.92,2.15,3.43,3.45,3.56
122.33,1.69,-1.80,1.71,-1.77,1.81,1.85,2.12,3.50,3.52,3.48
123.55,1.83,-1.58,1.77,-1.64,1.79,1.78,2.09,3.62,3.56,3.40
124.79,1.79,-1.54,1.71,-1.61,1.76,1.71,2.05,3.55,3.48,3.33
126.03,1.52,-1.73,1.56,-1.69,1.72,1.64,2.02,3.24,3.28,3.25
127.29,1.34,-1.84,1.34,-1.83,1.69,1.58,1.98,3.03,3.03,3.17
128.57,1.24,-1.86,1.28,-1.82,1.66,1.51,1.95,2.89,2.94,3.10
129.85,1.25,-1.78,1.37,-1.65,1.62,1.44,1.91,2.87,2.99,3.02
131.15,1.61,-1.34,1.45,-1.50,1.57,1.38,1.87,3.17,3.02,2.95
132.46,1.54,-1.34,1.44,-1.44,1.49,1.31,1.83,3.03,2.93,2.88
133.79,1.32,-1.49,1.38,-1.42,1.39,1.25,1.79,2.71,2.77,2.80
135.12,1.22,-1.52,1.38,-1.36,1.28,1.18,1.75,2.49,2.65,2.73
136.48,1.52,-1.15,1.49,-1.17,1.16,1.12,1.71,2.67,2.65,2.66
137.84,1.77,-0.83,1.61,-0.98,1.05,1.06,1.67,2.81,2.66,2.59
139.22,1.65,-0.87,1.64,-0.88,0.95,0.99,1.63,2.60,2.59,2.52
140.61,1.50,-0.95,1.56,-0.89,0.87,0.93,1.58,2.37,2.43,2.45
142.02,1.47,-0.91,1.53,-0.85,0.80,0.87,1.54,2.27,2.33,2.37
143.44,1.59,-0.71,1.58,-0.72,0.74,0.82,1.50,2.32,2.31,2.30
144.87,1.69,-0.54,1.61,-0.62,0.68,0.76,1.45,2.37,2.29,2.23
146.32,1.59,-0.58,1.56,-0.60,0.64,0.70,1.41,2.23,2.21,2.16
147.78,1.41,-0.69,1.46,-0.63,0.60,0.65,1.37,2.01,2.06,2.09
149.26,1.37,-0.66,1.37,-0.65,0.56,0.60,1.32,1.92,1.93,2.02
150.75,1.37,-0.59,1.39,-0.57,0.51,0.54,1.28,1.88,1.90,1.95
152.26,1.43,-0.46,1.46,-0.43,0.46,0.49,1.23,1.89,1.92,1.89
153.78,1.56,-0.27,1.47,-0.36,0.42,0.45,1.19,1.98,1.89,1.83
155.32,1.45,-0.32,1.42,-0.35,0.37,0.40,1.14,1.82,1.79,1.76
156.88,1.29,-0.41,1.36,-0.35,0.32,0.35,1.10,1.60,1.67,1.70
158.44,1.28,-0.36,1.33,-0.31,0.26,0.31,1.06,1.54,1.59,1.64
160.03,1.39,-0.19,1.35,-0.22,0.23,0.27,1.01,1.61,1.57,1.58
161.63,1.42,-0.09,1.34,-0.16,0.21,0.23,0.97,1.63,1.56,1.50
163.24,1.27,-0.18,1.30,-0.15,0.20,0.20,0.93,1.47,1.50,1.45
164.88,1.17,-0.22,1.21,-0.17,0.19,0.16,0.88,1.35,1.40,1.39
166.53,1.17,-0.16,1.14,-0.19,0.17,0.13,0.84,1.33,1.31,1.33
168.19,1.11,-0.17,1.10,-0.18,0.15,0.10,0.80,1.26,1.25,1.27
169.87,1.06,-0.16,1.04,-0.18,0.14,0.07,0.76,1.19,1.18,1.22
171.57,0.98,-0.19,1.00,-0.16,0.13,0.04,0.72,1.11,1.13,1.16
173.29,0.97,-0.15,1.02,-0.10,0.11,0.02,0.67,1.08,1.13,1.11
175.02,1.07,-0.00,1.02,-0.05,0.08,-0.01,0.63,1.15,1.10,1.07
176.77,1.06,0.04,0.99,-0.03,0.05,-0.03,0.59,1.11,1.04,1.02
178.54,0.90,-0.07,0.94,-0.04,0.03,-0.05,0.55,0.92,0.96,0.97
180.32,0.85,-0.09,0.91,-0.02,0.01,-0.07,0.51,0.85,0.92,0.93
182.13,0.92,0.02,0.91,0.02,-0.02,-0.08,0.47,0.90,0.90,0.89
183.95,1.02,0.16,0.92,0.06,-0.04,-0.10,0.44,0.98,0.88,0.86
185.79,0.87,0.04,0.90,0.07,-0.06,-0.11,0.40,0.81,0.84,0.82
187.65,0.81,0.02,0.83,0.05,-0.08,-0.12,0.36,0.73,0.76,0.79
189.52,0.81,0.05,0.81,0.05,-0.10,-0.13,0.32,0.70,0.71,0.76
191.42,0.84,0.10,0.86,0.13,-0.13,-0.14,0.28,0.70,0.73,0.73
193.33,0.94,0.23,0.89,0.19,-0.16,-0.15,0.25,0.78,0.73,0.70
195.27,0.91,0.24,0.87,0.20,-0.18,-0.16,0.21,0.73,0.69,0.67
197.22,0.81,0.16,0.84,0.20,-0.20,-0.17,0.17,0.61,0.64,0.64
199.19,0.78,0.16,0.82,0.21,-0.22,-0.17,0.14,0.56,0.60,0.61
201.18,0.85,0.26,0.83,0.24,-0.24,-0.18,0.10,0.61,0.59,0.58
203.19,0.88,0.32,0.82,0.26,-0.25,-0.18,0.07,0.63,0.57,0.56
205.23,0.77,0.24,0.78,0.25,-0.25,-0.19,0.03,0.51,0.53,0.53
207.28,0.70,0.19,0.75,0.24,-0.25,-0.19,0.00,0.44,0.49,0.51
209.35,0.73,0.24,0.73,0.25,-0.26,-0.19,-0.03,0.46,0.47,0.48
211.44,0.78,0.33,0.72,0.27,-0.26,-0.20,-0.06,0.51,0.46,0.45
213.56,0.70,0.27,0.68,0.26,-0.26,-0.20,-0.09,0.44,0.43,0.42
215.69,0.60,0.20,0.64,0.25,-0.25,-0.20,-0.12,0.35,0.40,0.39
217.85,0.59,0.22,0.61,0.24,-0.24,-0.20,-0.15,0.35,0.37,0.37
220.03,0.64,0.30,0.59,0.25,-0.23,-0.20,-0.18,0.41,0.36,0.34
222.23,0.57,0.25,0.54,0.23,-0.21,-0.20,-0.21,0.35,0.33,0.32
224.45,0.46,0.16,0.48,0.18,-0.19,-0.20,-0.23,0.26,0.28,0.30
226.70,0.40,0.12,0.43,0.15,-0.18,-0.20,-0.25,0.22,0.25,0.28
228.96,0.42,0.15,0.42,0.16,-0.17,-0.20,-0.28,0.25,0.25,0.26
231.25,0.47,0.21,0.41,0.16,-0.16,-0.20,-0.30,0.31,0.25,0.25
233.57,0.39,0.15,0.39,0.15,-0.15,-0.20,-0.32,0.24,0.24,0.24
235.90,0.33,0.11,0.37,0.14,-0.14,-0.20,-0.33,0.18,0.22,0.22
238.26,0.35,0.13,0.36,0.15,-0.14,-0.19,-0.35,0.20,0.22,0.21
240.64,0.41,0.20,0.37,0.16,-0.15,-0.19,-0.36,0.26,0.22,0.21
243.05,0.38,0.17,0.36,0.16,-0.15,-0.18,-0.37,0.22,0.21,0.20
245.48,0.32,0.12,0.35,0.15,-0.16,-0.18,-0.38,0.16,0.19,0.20
247.93,0.33,0.13,0.33,0.13,-0.16,-0.17,-0.38,0.16,0.17,0.20
250.41,0.35,0.15,0.34,0.15,-0.16,-0.16,-0.39,0.18,0.18,0.19
252.92,0.36,0.17,0.36,0.18,-0.16,-0.15,-0.39,0.20,0.20,0.19
255.45,0.38,0.20,0.37,0.19,-0.15,-0.14,-0.39,0.22,0.22,0.18
258.00,0.36,0.18,0.34,0.17,-0.14,-0.13,-0.38,0.22,0.20,0.17
260.58,0.30,0.13,0.29,0.13,-0.13,-0.12,-0.38,0.17,0.16,0.16
263.19,0.22,0.07,0.24,0.09,-0.11,-0.11,-0.37,0.10,0.13,0.15
265.82,0.20,0.07,0.21,0.08,-0.10,-0.09,-0.36,0.10,0.11,0.13
268.48,0.22,0.10,0.19,0.07,-0.08,-0.08,-0.35,0.13,0.10,0.12
271.16,0.18,0.08,0.15,0.05,-0.06,-0.06,-0.34,0.11,0.09,0.10
273.87,0.09,-0.00,0.12,0.04,-0.04,-0.05,-0.33,0.04,0.08,0.09
276.61,0.09,0.02,0.10,0.03,-0.02,-0.03,-0.31,0.07,0.08,0.07
279.38,0.11,0.06,0.09,0.04,0.00,-0.01,-0.29,0.11,0.09,0.05
282.17,0.10,0.05,0.06,0.01,0.02,0.00,-0.27,0.12,0.07,0.04
284.99,-0.01,-0.05,-0.01,-0.04,0.04,0.02,-0.25,0.02,0.03,0.03
287.84,-0.10,-0.14,-0.06,-0.09,0.05,0.04,-0.23,-0.05,-0.01,0.03
290.72,-0.08,-0.11,-0.09,-0.12,0.06,0.06,-0.21,-0.02,-0.03,0.03
293.63,-0.06,-0.08,-0.07,-0.10,0.08,0.08,-0.18,0.01,0.00,0.02
296.57,-0.05,-0.08,-0.04,-0.06,0.08,0.10,-0.16,0.03,0.04,0.02
299.53,-0.02,-0.05,-0.04,-0.07,0.09,0.12,-0.13,0.07,0.05,0.02
302.53,-0.05,-0.07,-0.06,-0.08,0.10,0.14,-0.11,0.04,0.04,0.02
305.55,-0.10,-0.13,-0.08,-0.10,0.11,0.16,-0.08,0.00,0.03,0.02
308.61,-0.10,-0.12,-0.10,-0.12,0.12,0.18,-0.05,0.02,0.02,0.01
311.69,-0.10,-0.11,-0.12,-0.13,0.14,0.20,-0.03,0.04,0.02,0.01
314.81,-0.16,-0.17,-0.16,-0.16,0.17,0.22,0.00,0.00,0.01,0.00
317.96,-0.20,-0.20,-0.21,-0.21,0.19,0.25,0.03,-0.01,-0.02,-0.00
321.14,-0.26,-0.26,-0.25,-0.25,0.22,0.27,0.06,-0.05,-0.04,-0.01
324.35,-0.28,-0.28,-0.28,-0.27,0.24,0.29,0.09,-0.04,-0.03,-0.00
327.59,-0.28,-0.27,-0.28,-0.27,0.27,0.31,0.12,-0.01,-0.01,-0.01
330.87,-0.28,-0.27,-0.28,-0.27,0.30,0.34,0.15,0.02,0.02,-0.01
334.18,-0.29,-0.28,-0.32,-0.30,0.33,0.36,0.18,0.04,0.01,-0.02
337.52,-0.37,-0.35,-0.38,-0.35,0.36,0.38,0.21,-0.01,-0.02,-0.02
340.90,-0.46,-0.44,-0.44,-0.41,0.39,0.41,0.24,-0.07,-0.05,-0.03
344.30,-0.48,-0.46,-0.48,-0.45,0.43,0.43,0.28,-0.06,-0.05,-0.02
347.75,-0.48,-0.47,-0.49,-0.47,0.47,0.45,0.31,-0.02,-0.03,-0.02
351.23,-0.49,-0.46,-0.51,-0.49,0.51,0.48,0.34,0.01,-0.00,-0.03
354.74,-0.54,-0.53,-0.55,-0.53,0.54,0.50,0.37,-0.00,-0.01,-0.01
358.28,-0.60,-0.59,-0.60,-0.58,0.58,0.53,0.40,-0.03,-0.02,-0.02
361.87,-0.65,-0.64,-0.64,-0.63,0.61,0.56,0.44,-0.04,-0.03,-0.01
365.49,-0.66,-0.66,-0.66,-0.65,0.65,0.58,0.47,-0.02,-0.01,-0.00
369.14,-0.65,-0.65,-0.67,-0.67,0.69,0.61,0.50,0.03,0.01,-0.01
372.83,-0.69,-0.70,-0.70,-0.70,0.72,0.64,0.54,0.02,0.02,0.01
376.56,-0.73,-0.74,-0.74,-0.74,0.74,0.66,0.57,0.01,0.00,0.01
380.33,-0.79,-0.80,-0.78,-0.79,0.76,0.69,0.60,-0.04,-0.02,0.00
384.13,-0.81,-0.81,-0.81,-0.81,0.77,0.72,0.64,-0.04,-0.03,0.00
387.97,-0.80,-0.80,-0.81,-0.81,0.79,0.75,0.67,-0.01,-0.02,-0.00
391.85,-0.80,-0.81,-0.79,-0.79,0.82,0.78,0.70,0.01,0.02,0.00
395.77,-0.79,-0.79,-0.80,-0.79,0.84,0.81,0.74,0.05,0.04,-0.01
399.73,-0.80,-0.79,-0.83,-0.82,0.86,0.83,0.77,0.05,0.02,-0.01
403.72,-0.89,-0.88,-0.89,-0.87,0.87,0.86,0.80,-0.02,-0.02,-0.01
407.76,-0.98,-0.95,-0.96,-0.93,0.89,0.89,0.84,-0.09,-0.06,-0.03
411.84,-1.00,-0.97,-1.00,-0.97,0.92,0.92,0.87,-0.09,-0.08,-0.04
415.96,-1.00,-0.96,-1.01,-0.96,0.95,0.95,0.91,-0.05,-0.05,-0.04
420.12,-1.00,-0.95,-1.00,-0.96,0.98,0.98,0.94,-0.02,-0.02,-0.05
424.32,-0.99,-0.95,-1.02,-0.97,1.01,1.00,0.97,0.02,-0.00,-0.04
428.56,-1.05,-1.02,-1.05,-1.01,1.04,1.03,1.01,-0.02,-0.01,-0.04
432.85,-1.09,-1.08,-1.09,-1.07,1.06,1.06,1.04,-0.04,-0.03,-0.02
437.18,-1.12,-1.12,-1.11,-1.11,1.07,1.08,1.07,-0.05,-0.04,-0.01
441.55,-1.10,-1.13,-1.10,-1.13,1.09,1.11,1.10,-0.01,-0.01,0.03
445.96,-1.06,-1.13,-1.06,-1.12,1.12,1.13,1.13,0.05,0.06,0.07
450.42,-1.00,-1.12,-1.01,-1.13,1.14,1.16,1.16,0.14,0.13,0.12
454.93,-0.95,-1.12,-0.97,-1.14,1.17,1.18,1.19,0.21,0.20,0.16
459.48,-0.97,-1.20,-0.95,-1.17,1.19,1.20,1.22,0.22,0.24,0.22
464.07,-0.92,-1.20,-0.94,-1.21,1.22,1.23,1.25,0.30,0.28,0.27
468.71,-0.93,-1.25,-0.92,-1.25,1.25,1.25,1.27,0.32,0.33,0.32
473.40,-0.90,-1.28,-0.91,-1.29,1.28,1.27,1.30,0.37,0.37,0.38
478.13,-0.89,-1.33,-0.91,-1.34,1.31,1.29,1.32,0.42,0.40,0.44
482.91,-0.90,-1.39,-0.89,-1.37,1.34,1.31,1.35,0.44,0.45,0.49
487.74,-0.87,-1.40,-0.86,-1.38,1.38,1.33,1.37,0.51,0.52,0.53
492.62,-0.81,-1.38,-0.82,-1.39,1.41,1.35,1.39,0.60,0.59,0.56
497.55,-0.77,-1.38,-0.80,-1.40,1.45,1.37,1.41,0.67,0.65,0.60
502.52,-0.82,-1.45,-0.82,-1.45,1.47,1.40,1.42,0.65,0.65,0.62
507.55,-0.86,-1.52,-0.87,-1.51,1.49,1.42,1.44,0.63,0.63,0.65
512.62,-0.92,-1.58,-0.90,-1.56,1.51,1.44,1.46,0.59,0.61,0.66
517.75,-0.92,-1.58,-0.92,-1.58,1.54,1.46,1.47,0.61,0.61,0.66
522.93,-0.91,-1.57,-0.92,-1.58,1.56,1.49,1.48,0.65,0.64,0.66
528.16,-0.93,-1.57,-0.93,-1.56,1.60,1.51,1.49,0.66,0.67,0.64
533.44,-0.94,-1.56,-0.96,-1.57,1.63,1.54,1.50,0.68,0.67,0.62
538.77,-1.02,-1.60,-1.03,-1.61,1.65,1.56,1.51,0.63,0.63,0.58
544.16,-1.11,-1.67,-1.12,-1.67,1.68,1.59,1.52,0.57,0.56,0.56
