frequency,raw,smoothed,error,error_smoothed,equalization,parametric_eq,fixed_band_eq,equalized_raw,equalized_smoothed,target
20.00,-0.85,-0.84,-7.77,-7.75,6.00,6.19,2.57,5.15,5.16,6.91
20.20,-0.80,-0.81,-7.70,-7.71,6.00,6.17,2.65,5.20,5.19,6.89
20.40,-0.74,-0.77,-7.62,-7.65,6.00,6.16,2.72,5.26,5.23,6.87
20.61,-0.69,-0.71,-7.56,-7.57,6.00,6.15,2.80,5.31,5.29,6.86
20.81,-0.64,-0.64,-7.48,-7.49,6.00,6.13,2.88,5.36,5.36,6.84
21.02,-0.57,-0.54,-7.40,-7.36,6.00,6.12,2.97,5.43,5.46,6.83
21.23,-0.37,-0.38,-7.18,-7.19,6.00,6.11,3.05,5.63,5.62,6.81
21.44,-0.17,-0.17,-6.97,-6.97,6.00,6.09,3.14,5.83,5.83,6.80
21.66,0.02,0.05,-6.77,-6.74,6.00,6.08,3.23,6.02,6.05,6.79
21.87,0.22,0.19,-6.55,-6.58,6.00,6.07,3.32,6.22,6.19,6.77
22.09,0.28,0.24,-6.47,-6.52,6.00,6.05,3.42,6.28,6.24,6.76
22.31,0.17,0.20,-6.57,-6.55,6.00,6.04,3.51,6.17,6.20,6.75
22.54,0.07,0.07,-6.67,-6.66,6.00,6.02,3.61,6.07,6.07,6.74
22.76,-0.04,-0.05,-6.77,-6.77,6.00,6.01,3.72,5.96,5.95,6.73
22.99,-0.15,-0.13,-6.87,-6.84,6.00,5.99,3.82,5.85,5.87,6.71
23.22,-0.17,-0.17,-6.88,-6.88,6.00,5.98,3.93,5.83,5.83,6.70
23.45,-0.17,-0.20,-6.88,-6.90,6.00,5.96,4.04,5.83,5.80,6.70
23.69,-0.18,-0.20,-6.88,-6.89,6.00,5.95,4.15,5.82,5.81,6.69
23.92,-0.19,-0.16,-6.88,-6.86,6.01,5.93,4.27,5.82,5.85,6.69
24.16,-0.09,-0.08,-6.78,-6.77,6.02,5.92,4.39,5.93,5.94,6.69
24.40,0.06,0.04,-6.63,-6.65,6.02,5.90,4.50,6.08,6.07,6.69
24.65,0.20,0.20,-6.48,-6.49,6.00,5.88,4.63,6.21,6.21,6.69
24.89,0.37,0.37,-6.32,-6.32,5.97,5.87,4.75,6.34,6.33,6.69
25.14,0.53,0.53,-6.16,-6.16,5.92,5.85,4.87,6.44,6.45,6.69
25.39,0.70,0.71,-5.99,-5.98,5.86,5.83,5.00,6.55,6.56,6.69
25.65,0.87,0.88,-5.82,-5.81,5.79,5.82,5.12,6.66,6.67,6.69
25.91,1.04,1.01,-5.65,-5.68,5.74,5.80,5.25,6.78,6.75,6.69
26.16,1.10,1.08,-5.60,-5.61,5.70,5.78,5.37,6.80,6.78,6.69
26.43,1.08,1.10,-5.62,-5.60,5.69,5.77,5.50,6.77,6.79,6.69
26.69,1.05,1.06,-5.64,-5.63,5.70,5.75,5.62,6.75,6.77,6.69
26.96,1.03,1.00,-5.66,-5.69,5.74,5.73,5.75,6.77,6.74,6.69
27.23,0.91,0.90,-5.78,-5.79,5.80,5.71,5.86,6.70,6.69,6.69
27.50,0.76,0.75,-5.93,-5.94,5.86,5.69,5.98,6.62,6.61,6.69
27.77,0.61,0.62,-6.07,-6.06,5.91,5.67,6.10,6.52,6.53,6.69
28.05,0.52,0.57,-6.17,-6.11,5.94,5.66,6.21,6.45,6.51,6.68
28.33,0.63,0.62,-6.05,-6.06,5.95,5.64,6.31,6.57,6.56,6.67
28.62,0.73,0.72,-5.94,-5.95,5.93,5.62,6.41,6.67,6.65,6.67
28.90,0.84,0.83,-5.83,-5.84,5.89,5.60,6.50,6.73,6.72,6.67
29.19,0.90,0.89,-5.77,-5.78,5.84,5.58,6.58,6.73,6.73,6.67
29.48,0.92,0.92,-5.75,-5.74,5.77,5.56,6.66,6.69,6.69,6.67
29.78,0.95,0.95,-5.72,-5.72,5.71,5.54,6.73,6.66,6.66,6.66
30.08,0.98,0.98,-5.69,-5.68,5.66,5.52,6.78,6.63,6.64,6.66
30.38,1.04,1.04,-5.63,-5.62,5.61,5.50,6.83,6.64,6.65,6.66
30.68,1.10,1.10,-5.55,-5.56,5.56,5.48,6.87,6.66,6.66,6.65
30.99,1.16,1.14,-5.49,-5.50,5.52,5.46,6.90,6.67,6.66,6.65
31.30,1.17,1.17,-5.47,-5.47,5.47,5.44,6.91,6.63,6.63,6.63
31.61,1.18,1.18,-5.46,-5.45,5.43,5.42,6.92,6.60,6.61,6.63
31.93,1.20,1.20,-5.43,-5.42,5.41,5.40,6.91,6.61,6.61,6.63
32.24,1.24,1.25,-5.38,-5.37,5.42,5.38,6.90,6.66,6.67,6.62
32.57,1.29,1.29,-5.33,-5.32,5.43,5.36,6.88,6.72,6.73,6.61
32.89,1.34,1.31,-5.28,-5.30,5.41,5.34,6.84,6.75,6.72,6.61
33.22,1.28,1.23,-5.33,-5.38,5.36,5.31,6.80,6.64,6.59,6.61
33.55,1.15,1.14,-5.45,-5.47,5.28,5.29,6.75,6.44,6.42,6.61
33.89,1.04,1.13,-5.58,-5.48,5.20,5.27,6.69,6.24,6.33,6.61
34.23,1.25,1.33,-5.36,-5.28,5.13,5.25,6.62,6.39,6.46,6.61
34.57,1.64,1.63,-4.97,-4.98,5.08,5.23,6.55,6.72,6.71,6.61
34.92,2.02,1.88,-4.59,-4.73,5.03,5.20,6.47,7.05,6.91,6.61
35.27,1.95,1.90,-4.66,-4.72,4.98,5.18,6.39,6.92,6.88,6.61
35.62,1.72,1.75,-4.90,-4.86,4.92,5.16,6.30,6.64,6.67,6.62
35.97,1.49,1.58,-5.13,-5.03,4.88,5.14,6.21,6.37,6.46,6.61
36.33,1.53,1.52,-5.08,-5.09,4.88,5.11,6.12,6.41,6.40,6.61
36.70,1.59,1.56,-5.02,-5.05,4.93,5.09,6.03,6.52,6.49,6.61
37.06,1.64,1.64,-4.97,-4.96,5.01,5.07,5.94,6.65,6.64,6.60
37.43,1.66,1.67,-4.93,-4.92,5.07,5.04,5.84,6.73,6.75,6.59
37.81,1.68,1.66,-4.91,-4.93,5.09,5.02,5.75,6.77,6.75,6.58
38.19,1.60,1.53,-4.97,-5.04,5.06,5.00,5.65,6.66,6.59,6.57
38.57,1.40,1.39,-5.16,-5.16,5.01,4.97,5.56,6.41,6.41,6.55
38.95,1.21,1.34,-5.33,-5.20,4.97,4.95,5.47,6.18,6.31,6.54
39.34,1.42,1.43,-5.11,-5.10,4.94,4.93,5.38,6.36,6.37,6.52
39.74,1.66,1.61,-4.85,-4.90,4.94,4.90,5.29,6.60,6.55,6.52
40.14,1.83,1.81,-4.67,-4.70,4.93,4.88,5.21,6.77,6.74,6.50
40.54,1.84,1.86,-4.65,-4.63,4.90,4.85,5.13,6.74,6.76,6.49
40.94,1.84,1.77,-4.65,-4.71,4.84,4.83,5.05,6.68,6.61,6.48
41.35,1.63,1.58,-4.85,-4.89,4.77,4.80,4.97,6.39,6.35,6.48
41.76,1.40,1.48,-5.06,-4.99,4.70,4.78,4.90,6.10,6.18,6.46
42.18,1.43,1.56,-5.03,-4.90,4.64,4.75,4.83,6.07,6.21,6.45
42.60,1.82,1.79,-4.64,-4.66,4.60,4.73,4.76,6.42,6.39,6.46
43.03,2.19,2.03,-4.26,-4.42,4.56,4.70,4.70,6.74,6.59,6.45
43.46,2.13,2.14,-4.32,-4.30,4.53,4.68,4.63,6.65,6.67,6.44
43.90,2.06,2.12,-4.39,-4.32,4.50,4.65,4.58,6.56,6.63,6.45
44.33,2.04,2.05,-4.40,-4.38,4.49,4.63,4.52,6.52,6.54,6.44
44.78,2.03,1.98,-4.40,-4.46,4.49,4.60,4.48,6.51,6.46,6.43
45.23,1.90,1.82,-4.53,-4.60,4.50,4.57,4.43,6.40,6.32,6.43
45.68,1.65,1.70,-4.78,-4.73,4.52,4.55,4.39,6.17,6.22,6.42
46.13,1.56,1.70,-4.85,-4.72,4.53,4.52,4.35,6.08,6.22,6.41
46.60,1.85,1.82,-4.55,-4.58,4.50,4.49,4.31,6.35,6.32,6.40
47.06,2.12,2.01,-4.28,-4.39,4.45,4.47,4.28,6.57,6.46,6.39
47.53,2.12,2.13,-4.27,-4.25,4.39,4.44,4.25,6.51,6.53,6.38
48.01,2.12,2.14,-4.26,-4.23,4.34,4.41,4.22,6.46,6.49,6.37
48.49,2.12,2.12,-4.24,-4.24,4.30,4.39,4.20,6.42,6.42,6.35
48.97,2.12,2.11,-4.23,-4.23,4.28,4.36,4.18,6.39,6.38,6.34
49.46,2.08,2.08,-4.26,-4.25,4.27,4.33,4.16,6.34,6.34,6.33
49.96,2.03,1.99,-4.28,-4.32,4.26,4.30,4.14,6.29,6.26,6.31
50.46,1.94,1.93,-4.36,-4.37,4.26,4.28,4.13,6.20,6.19,6.30
50.96,1.85,1.94,-4.44,-4.34,4.24,4.25,4.12,6.09,6.18,6.28
51.47,2.02,2.02,-4.26,-4.25,4.19,4.22,4.11,6.21,6.21,6.27
51.99,2.20,2.13,-4.05,-4.13,4.14,4.19,4.10,6.35,6.27,6.26
52.51,2.22,2.22,-4.03,-4.02,4.10,4.16,4.09,6.32,6.32,6.24
53.03,2.22,2.23,-4.01,-4.00,4.08,4.13,4.08,6.30,6.31,6.23
53.56,2.22,2.23,-4.00,-3.99,4.07,4.10,4.08,6.28,6.29,6.21
54.10,2.22,2.24,-3.98,-3.96,4.06,4.07,4.07,6.28,6.30,6.20
54.64,2.22,2.16,-3.97,-4.02,4.05,4.04,4.07,6.27,6.22,6.18
55.18,2.11,2.02,-4.05,-4.14,4.05,4.01,4.06,6.16,6.07,6.17
55.74,1.83,1.95,-4.32,-4.20,4.04,3.98,4.06,5.86,5.99,6.15
56.29,1.88,1.98,-4.25,-4.15,4.01,3.95,4.05,5.89,6.00,6.13
56.86,2.22,2.11,-3.89,-4.01,3.97,3.92,4.04,6.19,6.08,6.11
57.42,2.32,2.27,-3.78,-3.83,3.92,3.89,4.03,6.24,6.20,6.10
58.00,2.32,2.34,-3.77,-3.74,3.86,3.86,4.02,6.18,6.21,6.09
58.58,2.32,2.32,-3.75,-3.74,3.79,3.83,4.01,6.10,6.11,6.07
59.16,2.32,2.32,-3.73,-3.73,3.71,3.80,3.99,6.03,6.03,6.05
59.76,2.32,2.32,-3.71,-3.71,3.67,3.76,3.98,5.98,5.98,6.02
60.35,2.32,2.32,-3.69,-3.69,3.67,3.73,3.96,5.99,5.99,6.00
60.96,2.32,2.32,-3.66,-3.67,3.70,3.70,3.93,6.02,6.02,5.98
61.57,2.32,2.34,-3.64,-3.62,3.73,3.67,3.90,6.04,6.06,5.96
62.18,2.32,2.33,-3.62,-3.60,3.71,3.63,3.87,6.02,6.03,5.93
62.80,2.31,2.19,-3.58,-3.72,3.65,3.60,3.84,5.97,5.84,5.90
63.43,2.09,2.07,-3.79,-3.80,3.58,3.56,3.80,5.67,5.65,5.87
64.07,1.85,2.07,-4.00,-3.77,3.52,3.53,3.76,5.37,5.59,5.85
64.71,2.28,2.29,-3.53,-3.52,3.46,3.49,3.72,5.74,5.75,5.81
65.35,2.63,2.56,-3.16,-3.23,3.40,3.46,3.67,6.03,5.96,5.78
66.01,2.89,2.69,-2.86,-3.06,3.35,3.42,3.62,6.23,6.04,5.75
66.67,2.51,2.59,-3.21,-3.13,3.29,3.39,3.56,5.80,5.88,5.72
67.33,2.32,2.42,-3.36,-3.26,3.24,3.35,3.51,5.55,5.66,5.68
68.01,2.32,2.29,-3.33,-3.36,3.20,3.31,3.45,5.52,5.49,5.65
68.69,2.32,2.30,-3.29,-3.31,3.21,3.28,3.39,5.52,5.50,5.61
69.37,2.32,2.32,-3.26,-3.25,3.22,3.24,3.32,5.54,5.54,5.57
70.07,2.32,2.32,-3.21,-3.22,3.22,3.20,3.26,5.54,5.54,5.53
70.77,2.32,2.32,-3.18,-3.18,3.19,3.16,3.19,5.51,5.51,5.50
71.48,2.32,2.32,-3.15,-3.14,3.14,3.12,3.12,5.45,5.45,5.46
72.19,2.32,2.30,-3.10,-3.12,3.09,3.08,3.05,5.40,5.39,5.42
72.91,2.32,2.31,-3.07,-3.07,3.05,3.04,2.98,5.37,5.37,5.38
73.64,2.32,2.43,-3.03,-2.91,3.03,3.00,2.91,5.35,5.46,5.34
74.38,2.46,2.39,-2.85,-2.91,3.00,2.96,2.83,5.46,5.40,5.31
75.12,2.56,2.29,-2.69,-2.97,2.97,2.92,2.76,5.54,5.27,5.26
75.87,1.91,2.22,-3.31,-3.00,2.94,2.88,2.69,4.84,5.15,5.22
76.63,2.13,2.16,-3.05,-3.02,2.90,2.83,2.62,5.03,5.06,5.18
77.40,2.32,2.18,-2.82,-2.96,2.88,2.79,2.55,5.19,5.06,5.14
78.17,2.32,2.33,-2.78,-2.77,2.85,2.75,2.47,5.16,5.17,5.10
78.95,2.32,2.33,-2.74,-2.72,2.80,2.70,2.40,5.12,5.14,5.05
79.74,2.32,2.32,-2.69,-2.69,2.72,2.66,2.33,5.04,5.04,5.01
80.54,2.32,2.32,-2.65,-2.65,2.62,2.61,2.26,4.94,4.94,4.97
81.35,2.32,2.28,-2.61,-2.64,2.52,2.57,2.19,4.84,4.80,4.92
82.16,2.32,2.33,-2.56,-2.54,2.45,2.52,2.13,4.77,4.79,4.88
82.98,2.31,2.45,-2.52,-2.38,2.41,2.48,2.06,4.72,4.87,4.83
83.81,2.68,2.55,-2.11,-2.24,2.39,2.43,2.00,5.06,4.93,4.78
84.65,2.64,2.54,-2.10,-2.19,2.34,2.38,1.93,4.98,4.89,4.73
85.50,2.40,2.45,-2.28,-2.23,2.29,2.34,1.87,4.68,4.74,4.68
86.35,2.22,2.28,-2.41,-2.34,2.23,2.29,1.81,4.45,4.52,4.63
87.22,2.22,2.18,-2.36,-2.40,2.19,2.24,1.75,4.41,4.37,4.58
88.09,2.22,2.20,-2.31,-2.33,2.18,2.20,1.69,4.40,4.38,4.53
88.97,2.22,2.36,-2.26,-2.11,2.19,2.15,1.63,4.41,4.55,4.48
89.86,2.50,2.44,-1.92,-1.97,2.19,2.10,1.57,4.68,4.63,4.41
90.76,2.63,2.37,-1.74,-1.99,2.15,2.05,1.51,4.78,4.53,4.36
91.66,2.12,2.23,-2.17,-2.08,2.09,2.00,1.46,4.22,4.32,4.30
92.58,1.89,2.07,-2.36,-2.17,2.01,1.95,1.41,3.90,4.08,4.25
93.51,2.07,2.01,-2.12,-2.17,1.93,1.90,1.35,4.00,3.95,4.18
94.44,2.23,2.13,-1.89,-1.99,1.87,1.85,1.30,4.10,4.00,4.12
95.39,2.23,2.28,-1.83,-1.77,1.83,1.81,1.25,4.05,4.11,4.05
96.34,2.32,2.39,-1.67,-1.60,1.76,1.76,1.20,4.08,4.15,3.99
97.30,2.51,2.39,-1.41,-1.53,1.68,1.71,1.15,4.18,4.07,3.91
98.28,2.40,2.33,-1.45,-1.52,1.59,1.66,1.11,3.98,3.92,3.85
99.26,2.10,2.21,-1.68,-1.57,1.51,1.61,1.06,3.61,3.72,3.77
100.25,2.08,2.10,-1.62,-1.60,1.46,1.56,1.02,3.54,3.56,3.70
101.25,2.10,2.10,-1.52,-1.53,1.45,1.51,0.97,3.55,3.55,3.62
102.27,2.18,2.15,-1.37,-1.40,1.45,1.46,0.93,3.63,3.60,3.55
103.29,2.15,2.12,-1.32,-1.35,1.44,1.41,0.89,3.59,3.56,3.47
104.32,2.06,2.04,-1.34,-1.35,1.40,1.37,0.85,3.46,3.45,3.39
105.37,1.90,1.94,-1.42,-1.37,1.35,1.32,0.81,3.24,3.29,3.32
106.42,1.87,1.86,-1.36,-1.37,1.28,1.27,0.77,3.15,3.15,3.23
107.48,1.85,1.81,-1.31,-1.35,1.23,1.22,0.73,3.08,3.05,3.15
108.56,1.82,1.85,-1.27,-1.23,1.20,1.17,0.70,3.02,3.06,3.09
109.64,1.86,1.93,-1.15,-1.08,1.16,1.13,0.66,3.02,3.10,3.01
110.74,2.06,1.94,-0.88,-0.99,1.11,1.08,0.63,3.16,3.05,2.94
111.85,1.98,1.89,-0.89,-0.98,1.04,1.04,0.60,3.01,2.93,2.87
112.97,1.67,1.77,-1.14,-1.03,0.98,0.99,0.56,2.64,2.75,2.80
114.10,1.66,1.68,-1.08,-1.06,0.93,0.95,0.53,2.59,2.61,2.74
115.24,1.69,1.73,-0.99,-0.94,0.90,0.90,0.50,2.59,2.63,2.67
116.39,1.86,1.82,-0.75,-0.79,0.87,0.86,0.48,2.73,2.69,2.61
117.55,1.94,1.81,-0.62,-0.74,0.82,0.81,0.45,2.76,2.64,2.56
118.73,1.69,1.73,-0.81,-0.76,0.76,0.77,0.42,2.45,2.50,2.49
119.92,1.57,1.62,-0.87,-0.82,0.71,0.73,0.40,2.27,2.33,2.44
121.12,1.59,1.61,-0.80,-0.78,0.67,0.69,0.37,2.26,2.28,2.39
122.33,1.69,1.71,-0.65,-0.62,0.66,0.65,0.35,2.35,2.37,2.33
123.55,1.83,1.77,-0.46,-0.51,0.67,0.61,0.33,2.49,2.44,2.28
124.79,1.79,1.71,-0.44,-0.52,0.67,0.57,0.31,2.45,2.38,2.23
126.03,1.52,1.56,-0.66,-0.62,0.66,0.53,0.29,2.17,2.21,2.18
127.29,1.34,1.34,-0.79,-0.79,0.65,0.49,0.28,1.98,1.99,2.13
128.57,1.24,1.28,-0.84,-0.80,0.64,0.46,0.26,1.88,1.92,2.08
129.85,1.25,1.37,-0.79,-0.66,0.63,0.42,0.24,1.88,2.00,2.03
131.15,1.61,1.45,-0.38,-0.53,0.60,0.39,0.23,2.21,2.06,1.98
132.46,1.54,1.44,-0.40,-0.50,0.55,0.35,0.22,2.09,1.99,1.94
133.79,1.32,1.38,-0.57,-0.51,0.48,0.32,0.21,1.79,1.86,1.89
135.12,1.22,1.38,-0.63,-0.47,0.39,0.29,0.19,1.60,1.76,1.84
136.48,1.52,1.49,-0.28,-0.31,0.29,0.26,0.18,1.81,1.78,1.80
137.84,1.77,1.61,0.01,-0.14,0.21,0.23,0.17,1.97,1.82,1.75
139.22,1.65,1.64,-0.05,-0.07,0.14,0.20,0.17,1.79,1.78,1.70
140.61,1.50,1.56,-0.16,-0.09,0.08,0.17,0.16,1.58,1.64,1.66
142.02,1.47,1.53,-0.14,-0.08,0.03,0.14,0.15,1.50,1.56,1.61
143.44,1.59,1.58,0.03,0.02,-0.01,0.11,0.14,1.58,1.57,1.55
144.87,1.69,1.61,0.18,0.10,-0.04,0.09,0.14,1.65,1.57,1.50
146.32,1.59,1.56,0.12,0.10,-0.06,0.06,0.13,1.53,1.51,1.46
147.78,1.41,1.46,-0.01,0.05,-0.08,0.04,0.13,1.33,1.39,1.42
149.26,1.37,1.37,-0.00,0.00,-0.10,0.02,0.12,1.27,1.27,1.37
150.75,1.37,1.39,0.05,0.07,-0.12,-0.01,0.12,1.24,1.26,1.32
152.26,1.43,1.46,0.15,0.18,-0.15,-0.03,0.11,1.28,1.31,1.27
153.78,1.56,1.47,0.32,0.23,-0.17,-0.05,0.11,1.39,1.30,1.24
155.32,1.45,1.42,0.25,0.22,-0.20,-0.07,0.11,1.25,1.22,1.19
156.88,1.29,1.36,0.14,0.20,-0.23,-0.08,0.10,1.05,1.12,1.15
158.44,1.28,1.33,0.17,0.22,-0.27,-0.10,0.10,1.01,1.06,1.11
160.03,1.39,1.35,0.32,0.29,-0.28,-0.12,0.10,1.10,1.06,1.07
161.63,1.42,1.34,0.40,0.33,-0.28,-0.13,0.09,1.14,1.06,1.01
163.24,1.27,1.30,0.29,0.32,-0.27,-0.15,0.09,1.00,1.03,0.97
164.88,1.17,1.21,0.23,0.28,-0.27,-0.16,0.09,0.90,0.95,0.93
166.53,1.17,1.14,0.27,0.25,-0.27,-0.17,0.09,0.90,0.87,0.89
168.19,1.11,1.10,0.25,0.24,-0.27,-0.19,0.08,0.84,0.83,0.86
169.87,1.06,1.04,0.24,0.22,-0.26,-0.20,0.08,0.79,0.78,0.82
171.57,0.98,1.00,0.19,0.22,-0.25,-0.21,0.08,0.72,0.75,0.78
173.29,0.97,1.02,0.22,0.27,-0.26,-0.22,0.07,0.71,0.76,0.75
175.02,1.07,1.02,0.35,0.30,-0.27,-0.23,0.07,0.80,0.75,0.72
176.77,1.06,0.99,0.37,0.31,-0.28,-0.23,0.07,0.77,0.71,0.68
178.54,0.90,0.94,0.25,0.28,-0.29,-0.24,0.06,0.60,0.64,0.65
180.32,0.85,0.91,0.22,0.28,-0.30,-0.25,0.06,0.55,0.61,0.63
182.13,0.92,0.91,0.31,0.31,-0.31,-0.25,0.06,0.61,0.61,0.61
183.95,1.02,0.92,0.43,0.34,-0.31,-0.26,0.05,0.70,0.61,0.58
185.79,0.87,0.90,0.30,0.33,-0.32,-0.26,0.05,0.55,0.58,0.56
187.65,0.81,0.83,0.27,0.29,-0.33,-0.27,0.05,0.48,0.51,0.54
189.52,0.81,0.81,0.29,0.29,-0.34,-0.27,0.04,0.47,0.47,0.52
191.42,0.84,0.86,0.32,0.35,-0.35,-0.27,0.04,0.48,0.51,0.51
193.33,0.94,0.89,0.44,0.40,-0.37,-0.27,0.04,0.57,0.52,0.49
195.27,0.91,0.87,0.43,0.40,-0.38,-0.27,0.03,0.53,0.50,0.47
197.22,0.81,0.84,0.35,0.38,-0.38,-0.27,0.03,0.42,0.46,0.46
199.19,0.78,0.82,0.34,0.38,-0.39,-0.27,0.02,0.38,0.43,0.44
201.18,0.85,0.83,0.42,0.40,-0.40,-0.27,0.02,0.44,0.42,0.42
203.19,0.88,0.82,0.47,0.41,-0.40,-0.27,0.02,0.47,0.42,0.41
205.23,0.77,0.78,0.38,0.39,-0.39,-0.27,0.02,0.37,0.39,0.39
207.28,0.70,0.75,0.32,0.37,-0.38,-0.27,0.01,0.31,0.36,0.38
209.35,0.73,0.73,0.36,0.37,-0.38,-0.26,0.01,0.35,0.35,0.36
211.44,0.78,0.72,0.44,0.38,-0.37,-0.26,0.01,0.40,0.35,0.34
213.56,0.70,0.68,0.37,0.36,-0.36,-0.25,0.01,0.34,0.32,0.32
215.69,0.60,0.64,0.30,0.34,-0.34,-0.25,0.00,0.26,0.30,0.30
217.85,0.59,0.61,0.30,0.33,-0.32,-0.24,0.00,0.27,0.29,0.29
220.03,0.64,0.59,0.37,0.32,-0.30,-0.24,0.00,0.34,0.29,0.27
222.23,0.57,0.54,0.31,0.29,-0.28,-0.23,0.00,0.29,0.27,0.25
224.45,0.46,0.48,0.21,0.24,-0.25,-0.23,0.00,0.21,0.23,0.24
226.70,0.40,0.43,0.17,0.20,-0.23,-0.22,0.00,0.17,0.20,0.23
228.96,0.42,0.42,0.20,0.20,-0.21,-0.21,0.00,0.21,0.21,0.22
231.25,0.47,0.41,0.25,0.20,-0.19,-0.20,0.01,0.27,0.22,0.22
233.57,0.39,0.39,0.18,0.18,-0.18,-0.20,0.01,0.21,0.21,0.21
235.90,0.33,0.37,0.13,0.16,-0.16,-0.19,0.01,0.16,0.20,0.20
238.26,0.35,0.36,0.15,0.16,-0.16,-0.18,0.02,0.19,0.20,0.20
240.64,0.41,0.37,0.20,0.16,-0.15,-0.17,0.02,0.25,0.21,0.20
243.05,0.38,0.36,0.17,0.16,-0.15,-0.16,0.03,0.22,0.21,0.20
245.48,0.32,0.35,0.11,0.14,-0.15,-0.15,0.04,0.16,0.19,0.20
247.93,0.33,0.33,0.12,0.12,-0.15,-0.14,0.05,0.18,0.18,0.21
250.41,0.35,0.34,0.14,0.13,-0.15,-0.13,0.06,0.20,0.19,0.21
252.92,0.36,0.36,0.15,0.16,-0.14,-0.12,0.07,0.22,0.23,0.21
255.45,0.38,0.37,0.17,0.16,-0.12,-0.10,0.08,0.25,0.24,0.20
258.00,0.36,0.34,0.15,0.14,-0.11,-0.09,0.09,0.25,0.23,0.21
260.58,0.30,0.29,0.10,0.09,-0.09,-0.08,0.11,0.21,0.20,0.20
263.19,0.22,0.24,0.02,0.05,-0.07,-0.07,0.12,0.15,0.17,0.19
265.82,0.20,0.21,0.02,0.03,-0.05,-0.05,0.14,0.14,0.16,0.18
268.48,0.22,0.19,0.05,0.02,-0.03,-0.04,0.15,0.18,0.15,0.17
271.16,0.18,0.15,0.02,-0.00,-0.01,-0.03,0.17,0.17,0.15,0.15
273.87,0.09,0.12,-0.06,-0.02,0.02,-0.01,0.19,0.11,0.14,0.15
276.61,0.09,0.10,-0.05,-0.03,0.05,0.00,0.21,0.13,0.15,0.13
279.38,0.11,0.09,-0.01,-0.03,0.07,0.01,0.23,0.18,0.16,0.12
282.17,0.10,0.06,-0.02,-0.06,0.09,0.03,0.25,0.19,0.15,0.11
284.99,-0.01,-0.01,-0.12,-0.12,0.11,0.04,0.27,0.10,0.11,0.11
287.84,-0.10,-0.06,-0.22,-0.17,0.13,0.06,0.30,0.03,0.07,0.11
290.72,-0.08,-0.09,-0.19,-0.20,0.15,0.08,0.32,0.06,0.05,0.11
293.63,-0.06,-0.07,-0.17,-0.18,0.16,0.09,0.35,0.10,0.09,0.10
296.57,-0.05,-0.04,-0.16,-0.15,0.17,0.11,0.37,0.12,0.13,0.11
299.53,-0.02,-0.04,-0.14,-0.16,0.18,0.12,0.40,0.16,0.14,0.12
302.53,-0.05,-0.06,-0.17,-0.18,0.19,0.14,0.43,0.14,0.13,0.11
305.55,-0.10,-0.08,-0.22,-0.19,0.20,0.16,0.45,0.10,0.13,0.12
308.61,-0.10,-0.10,-0.22,-0.22,0.22,0.18,0.48,0.12,0.12,0.11
311.69,-0.10,-0.12,-0.22,-0.24,0.25,0.19,0.51,0.14,0.12,0.11
314.81,-0.16,-0.16,-0.27,-0.27,0.27,0.21,0.54,0.11,0.12,0.11
317.96,-0.20,-0.21,-0.31,-0.31,0.30,0.23,0.57,0.10,0.09,0.10
321.14,-0.26,-0.25,-0.37,-0.36,0.33,0.25,0.60,0.06,0.07,0.10
324.35,-0.28,-0.28,-0.39,-0.38,0.36,0.27,0.63,0.07,0.08,0.11
327.59,-0.28,-0.28,-0.39,-0.39,0.39,0.29,0.67,0.11,0.11,0.11
330.87,-0.28,-0.28,-0.39,-0.39,0.42,0.31,0.70,0.14,0.14,0.10
334.18,-0.29,-0.32,-0.39,-0.42,0.45,0.33,0.73,0.16,0.13,0.10
337.52,-0.37,-0.38,-0.47,-0.47,0.48,0.35,0.77,0.11,0.10,0.10
340.90,-0.46,-0.44,-0.56,-0.54,0.51,0.37,0.80,0.05,0.08,0.09
344.30,-0.48,-0.48,-0.59,-0.58,0.55,0.39,0.84,0.07,0.08,0.10
347.75,-0.48,-0.49,-0.59,-0.60,0.59,0.41,0.88,0.11,0.10,0.11
351.23,-0.49,-0.51,-0.59,-0.61,0.63,0.44,0.91,0.14,0.13,0.10
354.74,-0.54,-0.55,-0.66,-0.66,0.67,0.46,0.95,0.13,0.12,0.12
358.28,-0.60,-0.60,-0.72,-0.72,0.71,0.48,0.99,0.11,0.11,0.11
361.87,-0.65,-0.64,-0.78,-0.76,0.75,0.50,1.03,0.09,0.11,0.12
365.49,-0.66,-0.66,-0.79,-0.79,0.78,0.53,1.07,0.12,0.12,0.13
369.14,-0.65,-0.67,-0.78,-0.81,0.82,0.55,1.11,0.17,0.15,0.13
372.83,-0.69,-0.70,-0.84,-0.84,0.85,0.58,1.15,0.16,0.16,0.15
376.56,-0.73,-0.74,-0.88,-0.88,0.88,0.60,1.19,0.14,0.14,0.14
380.33,-0.79,-0.78,-0.94,-0.93,0.90,0.63,1.24,0.10,0.11,0.14
384.13,-0.81,-0.81,-0.95,-0.95,0.91,0.65,1.28,0.10,0.11,0.14
387.97,-0.80,-0.81,-0.94,-0.95,0.94,0.68,1.32,0.13,0.13,0.14
391.85,-0.80,-0.79,-0.95,-0.94,0.96,0.71,1.37,0.16,0.17,0.15
395.77,-0.79,-0.80,-0.93,-0.94,0.98,0.73,1.41,0.19,0.19,0.14
399.73,-0.80,-0.83,-0.94,-0.97,1.00,0.76,1.46,0.20,0.17,0.13
403.72,-0.89,-0.89,-1.03,-1.02,1.02,0.79,1.50,0.13,0.13,0.13
407.76,-0.98,-0.96,-1.10,-1.08,1.04,0.82,1.55,0.06,0.08,0.11
411.84,-1.00,-1.00,-1.11,-1.11,1.07,0.85,1.59,0.06,0.06,0.11
415.96,-1.00,-1.01,-1.11,-1.11,1.10,0.88,1.64,0.10,0.09,0.11
420.12,-1.00,-1.00,-1.10,-1.11,1.13,0.91,1.68,0.13,0.13,0.10
424.32,-0.99,-1.02,-1.10,-1.12,1.16,0.94,1.73,0.17,0.15,0.11
428.56,-1.05,-1.05,-1.17,-1.17,1.19,0.97,1.77,0.13,0.14,0.12
432.85,-1.09,-1.09,-1.23,-1.22,1.21,1.00,1.82,0.11,0.12,0.14
437.18,-1.12,-1.11,-1.27,-1.27,1.23,1.03,1.86,0.10,0.11,0.14
441.55,-1.10,-1.10,-1.29,-1.28,1.25,1.06,1.90,0.14,0.15,0.18
445.96,-1.06,-1.06,-1.29,-1.28,1.27,1.10,1.94,0.21,0.22,0.22
450.42,-1.00,-1.01,-1.28,-1.28,1.30,1.13,1.98,0.29,0.29,0.27
454.93,-0.95,-0.97,-1.27,-1.30,1.32,1.16,2.02,0.37,0.35,0.32
459.48,-0.97,-0.95,-1.35,-1.33,1.35,1.20,2.06,0.38,0.40,0.38
464.07,-0.92,-0.94,-1.35,-1.37,1.38,1.23,2.09,0.45,0.44,0.43
468.71,-0.93,-0.92,-1.41,-1.41,1.41,1.27,2.12,0.47,0.48,0.48
473.40,-0.90,-0.91,-1.44,-1.45,1.44,1.31,2.15,0.53,0.53,0.54
478.13,-0.89,-0.91,-1.49,-1.50,1.47,1.34,2.18,0.57,0.56,0.60
482.91,-0.90,-0.89,-1.55,-1.53,1.50,1.38,2.21,0.60,0.61,0.65
487.74,-0.87,-0.86,-1.56,-1.54,1.54,1.42,2.23,0.67,0.68,0.69
492.62,-0.81,-0.82,-1.54,-1.55,1.58,1.46,2.25,0.76,0.75,0.72
497.55,-0.77,-0.80,-1.54,-1.56,1.61,1.49,2.27,0.83,0.81,0.76
502.52,-0.82,-0.82,-1.61,-1.61,1.63,1.53,2.29,0.81,0.81,0.78
507.55,-0.86,-0.87,-1.68,-1.67,1.66,1.57,2.30,0.79,0.79,0.81
512.62,-0.92,-0.90,-1.75,-1.73,1.68,1.61,2.31,0.75,0.77,0.82
517.75,-0.92,-0.92,-1.75,-1.75,1.70,1.65,2.32,0.77,0.78,0.82
522.93,-0.91,-0.92,-1.74,-1.74,1.73,1.69,2.33,0.81,0.80,0.82
528.16,-0.93,-0.93,-1.73,-1.73,1.76,1.74,2.33,0.83,0.83,0.80
533.44,-0.94,-0.96,-1.72,-1.73,1.79,1.78,2.33,0.85,0.83,0.78
538.77,-1.02,-1.03,-1.76,-1.77,1.82,1.82,2.33,0.79,0.79,0.74
544.16,-1.11,-1.12,-1.83,-1.84,1.84,1.86,2.33,0.73,0.72,0.72
549.60,-1.23,-1.22,-1.92,-1.91,1.88,1.90,2.33,0.64,0.66,0.69
555.10,-1.30,-1.30,-1.96,-1.95,1.91,1.94,2.33,0.61,0.62,0.66
560.65,-1.35,-1.36,-1.97,-1.98,1.96,1.99,2.32,0.60,0.60,0.62
