frequency,raw,error,smoothed,error_smoothed,equalization,parametric_eq,fixed_band_eq,equalized_raw,equalized_smoothed,target
20.00,1.23,0.03,1.23,0.01,-0.01,-0.97,-0.89,1.22,1.22,1.20
20.20,1.27,0.07,1.27,0.05,-0.05,-0.99,-0.92,1.22,1.22,1.20
20.40,1.30,0.10,1.30,0.09,-0.09,-1.01,-0.94,1.21,1.21,1.20
20.61,1.34,0.14,1.34,0.14,-0.14,-1.02,-0.97,1.20,1.20,1.20
20.81,1.38,0.18,1.37,0.19,-0.19,-1.04,-1.00,1.19,1.19,1.20
21.02,1.41,0.21,1.41,0.23,-0.23,-1.06,-1.02,1.17,1.18,1.20
21.23,1.45,0.27,1.45,0.28,-0.28,-1.08,-1.05,1.17,1.16,1.18
21.44,1.49,0.32,1.49,0.33,-0.33,-1.10,-1.08,1.15,1.15,1.17
21.66,1.52,0.37,1.52,0.39,-0.39,-1.12,-1.11,1.13,1.14,1.15
21.87,1.56,0.43,1.56,0.44,-0.44,-1.14,-1.14,1.12,1.12,1.13
22.09,1.61,0.49,1.60,0.50,-0.50,-1.16,-1.17,1.11,1.11,1.12
22.31,1.64,0.55,1.64,0.55,-0.55,-1.17,-1.20,1.09,1.09,1.09
22.54,1.68,0.61,1.68,0.61,-0.61,-1.19,-1.24,1.06,1.07,1.07
22.76,1.73,0.68,1.72,0.68,-0.68,-1.22,-1.27,1.05,1.05,1.05
22.99,1.77,0.75,1.77,0.74,-0.74,-1.24,-1.31,1.03,1.02,1.02
23.22,1.81,0.82,1.81,0.80,-0.80,-1.26,-1.34,1.00,1.00,0.99
23.45,1.85,0.88,1.85,0.87,-0.87,-1.28,-1.38,0.98,0.98,0.97
23.69,1.89,0.93,1.89,0.93,-0.93,-1.30,-1.42,0.95,0.96,0.96
23.92,1.94,1.00,1.94,1.00,-1.00,-1.32,-1.45,0.94,0.94,0.94
24.16,1.99,1.06,1.98,1.06,-1.06,-1.34,-1.49,0.93,0.92,0.93
24.40,2.02,1.11,2.03,1.12,-1.12,-1.37,-1.53,0.89,0.90,0.91
24.65,2.07,1.18,2.07,1.19,-1.19,-1.39,-1.57,0.88,0.88,0.89
24.89,2.11,1.24,2.12,1.25,-1.25,-1.41,-1.61,0.86,0.87,0.86
25.14,2.16,1.31,2.16,1.31,-1.31,-1.43,-1.65,0.85,0.85,0.85
25.39,2.21,1.38,2.20,1.37,-1.37,-1.46,-1.69,0.84,0.83,0.83
25.65,2.25,1.43,2.25,1.43,-1.43,-1.48,-1.74,0.82,0.82,0.82
25.91,2.30,1.50,2.29,1.49,-1.49,-1.51,-1.78,0.81,0.80,0.79
26.16,2.34,1.56,2.33,1.55,-1.55,-1.53,-1.82,0.79,0.79,0.78
26.43,2.38,1.61,2.38,1.61,-1.61,-1.55,-1.86,0.77,0.77,0.77
26.69,2.42,1.67,2.42,1.66,-1.66,-1.58,-1.90,0.75,0.75,0.75
26.96,2.46,1.72,2.46,1.72,-1.72,-1.61,-1.95,0.74,0.74,0.74
27.23,2.51,1.78,2.50,1.78,-1.78,-1.63,-1.99,0.73,0.73,0.73
27.50,2.54,1.82,2.55,1.83,-1.83,-1.66,-2.03,0.70,0.71,0.72
27.77,2.58,1.88,2.59,1.89,-1.89,-1.68,-2.07,0.69,0.70,0.70
28.05,2.63,1.94,2.63,1.94,-1.94,-1.71,-2.11,0.69,0.68,0.69
28.33,2.67,2.00,2.67,2.00,-2.00,-1.74,-2.14,0.67,0.67,0.67
28.62,2.71,2.05,2.71,2.05,-2.05,-1.76,-2.18,0.66,0.66,0.66
28.90,2.75,2.10,2.75,2.10,-2.10,-1.79,-2.21,0.65,0.65,0.64
29.19,2.78,2.15,2.79,2.15,-2.15,-1.82,-2.25,0.63,0.63,0.62
29.48,2.83,2.21,2.82,2.20,-2.20,-1.85,-2.28,0.62,0.62,0.62
29.78,2.86,2.25,2.86,2.25,-2.25,-1.88,-2.31,0.60,0.61,0.61
30.08,2.90,2.30,2.90,2.30,-2.30,-1.90,-2.34,0.60,0.59,0.60
30.38,2.93,2.35,2.93,2.35,-2.35,-1.93,-2.36,0.58,0.58,0.58
30.68,2.97,2.40,2.96,2.40,-2.40,-1.96,-2.39,0.57,0.56,0.57
30.99,3.00,2.45,2.99,2.44,-2.44,-1.99,-2.41,0.56,0.55,0.55
31.30,3.02,2.48,3.02,2.48,-2.48,-2.02,-2.43,0.54,0.53,0.54
31.61,3.05,2.52,3.04,2.52,-2.52,-2.05,-2.45,0.52,0.52,0.53
31.93,3.07,2.56,3.06,2.56,-2.56,-2.08,-2.47,0.50,0.50,0.50
32.24,3.08,2.61,3.09,2.60,-2.60,-2.11,-2.48,0.47,0.48,0.47
32.57,3.11,2.65,3.11,2.64,-2.64,-2.14,-2.49,0.46,0.46,0.46
32.89,3.12,2.67,3.13,2.68,-2.68,-2.17,-2.50,0.44,0.44,0.45
33.22,3.14,2.72,3.14,2.72,-2.72,-2.21,-2.51,0.42,0.42,0.42
33.55,3.16,2.75,3.16,2.75,-2.75,-2.24,-2.52,0.40,0.40,0.41
33.89,3.17,2.78,3.17,2.79,-2.79,-2.27,-2.53,0.38,0.38,0.38
34.23,3.19,2.83,3.18,2.82,-2.82,-2.30,-2.53,0.37,0.36,0.36
34.57,3.20,2.86,3.20,2.85,-2.85,-2.33,-2.53,0.35,0.34,0.34
34.92,3.21,2.89,3.21,2.89,-2.89,-2.37,-2.54,0.32,0.32,0.32
35.27,3.22,2.91,3.22,2.92,-2.92,-2.40,-2.54,0.30,0.31,0.31
35.62,3.24,2.95,3.23,2.94,-2.94,-2.43,-2.54,0.29,0.29,0.29
35.97,3.24,2.98,3.24,2.97,-2.97,-2.47,-2.55,0.26,0.27,0.26
36.33,3.25,3.00,3.25,3.00,-3.00,-2.50,-2.55,0.25,0.25,0.25
36.70,3.25,3.02,3.26,3.03,-3.03,-2.53,-2.55,0.22,0.23,0.23
37.06,3.27,3.06,3.26,3.06,-3.06,-2.57,-2.56,0.21,0.21,0.21
37.43,3.27,3.07,3.27,3.08,-3.08,-2.60,-2.56,0.19,0.19,0.19
37.81,3.28,3.11,3.28,3.11,-3.11,-2.64,-2.57,0.17,0.17,0.17
38.19,3.29,3.14,3.28,3.13,-3.13,-2.67,-2.57,0.16,0.15,0.15
38.57,3.29,3.15,3.29,3.16,-3.16,-2.71,-2.58,0.13,0.13,0.14
38.95,3.29,3.18,3.29,3.18,-3.18,-2.74,-2.59,0.11,0.11,0.11
39.34,3.30,3.21,3.30,3.20,-3.20,-2.78,-2.60,0.10,0.10,0.09
39.74,3.30,3.23,3.30,3.22,-3.22,-2.81,-2.61,0.08,0.08,0.07
40.14,3.30,3.23,3.30,3.24,-3.24,-2.85,-2.62,0.06,0.06,0.06
40.54,3.30,3.26,3.31,3.26,-3.26,-2.88,-2.64,0.04,0.04,0.04
40.94,3.31,3.28,3.31,3.28,-3.28,-2.92,-2.65,0.03,0.03,0.03
41.35,3.31,3.31,3.31,3.30,-3.30,-2.95,-2.67,0.01,0.01,0.00
41.76,3.32,3.32,3.31,3.31,-3.31,-2.99,-2.69,0.00,-0.01,-0.00
42.18,3.31,3.32,3.31,3.33,-3.33,-3.03,-2.71,-0.02,-0.02,-0.01
42.60,3.31,3.35,3.31,3.35,-3.35,-3.06,-2.74,-0.04,-0.04,-0.04
43.03,3.31,3.35,3.31,3.36,-3.36,-3.10,-2.76,-0.06,-0.06,-0.04
43.46,3.31,3.38,3.31,3.38,-3.38,-3.13,-2.79,-0.07,-0.07,-0.07
43.90,3.31,3.40,3.31,3.39,-3.39,-3.17,-2.82,-0.08,-0.09,-0.09
44.33,3.31,3.41,3.31,3.41,-3.41,-3.21,-2.86,-0.10,-0.10,-0.11
44.78,3.30,3.42,3.30,3.42,-3.42,-3.24,-2.89,-0.12,-0.12,-0.12
45.23,3.30,3.44,3.30,3.44,-3.44,-3.28,-2.93,-0.14,-0.14,-0.15
45.68,3.30,3.46,3.30,3.45,-3.45,-3.32,-2.97,-0.15,-0.15,-0.16
46.13,3.30,3.48,3.30,3.47,-3.47,-3.35,-3.01,-0.17,-0.17,-0.18
46.60,3.30,3.48,3.30,3.49,-3.49,-3.39,-3.06,-0.19,-0.19,-0.18
47.06,3.30,3.50,3.30,3.50,-3.50,-3.42,-3.10,-0.21,-0.20,-0.20
47.53,3.30,3.51,3.30,3.52,-3.52,-3.46,-3.15,-0.22,-0.22,-0.21
48.01,3.30,3.52,3.30,3.54,-3.54,-3.50,-3.20,-0.24,-0.24,-0.22
48.49,3.30,3.55,3.30,3.55,-3.55,-3.53,-3.25,-0.26,-0.26,-0.25
48.97,3.30,3.57,3.30,3.57,-3.57,-3.57,-3.30,-0.27,-0.27,-0.27
49.46,3.30,3.60,3.30,3.59,-3.59,-3.60,-3.36,-0.29,-0.29,-0.30
49.96,3.30,3.63,3.30,3.61,-3.61,-3.64,-3.42,-0.31,-0.31,-0.33
50.46,3.31,3.63,3.30,3.63,-3.63,-3.68,-3.47,-0.32,-0.33,-0.33
50.96,3.30,3.64,3.30,3.65,-3.65,-3.71,-3.53,-0.35,-0.35,-0.34
51.47,3.30,3.67,3.30,3.67,-3.67,-3.75,-3.59,-0.37,-0.37,-0.37
51.99,3.30,3.69,3.30,3.69,-3.69,-3.78,-3.65,-0.39,-0.39,-0.39
52.51,3.30,3.70,3.30,3.71,-3.71,-3.82,-3.71,-0.41,-0.41,-0.40
53.03,3.31,3.73,3.30,3.73,-3.73,-3.85,-3.77,-0.42,-0.42,-0.42
53.56,3.31,3.75,3.31,3.75,-3.75,-3.88,-3.83,-0.44,-0.44,-0.44
54.10,3.32,3.78,3.31,3.77,-3.77,-3.92,-3.89,-0.45,-0.46,-0.46
54.64,3.31,3.79,3.31,3.79,-3.79,-3.95,-3.95,-0.48,-0.48,-0.48
55.18,3.31,3.81,3.32,3.81,-3.81,-3.98,-4.01,-0.50,-0.50,-0.50
55.74,3.32,3.84,3.32,3.83,-3.83,-4.02,-4.07,-0.51,-0.51,-0.52
56.29,3.32,3.85,3.32,3.85,-3.85,-4.05,-4.12,-0.54,-0.53,-0.53
56.86,3.33,3.88,3.33,3.88,-3.88,-4.08,-4.17,-0.55,-0.55,-0.55
57.42,3.33,3.90,3.33,3.90,-3.90,-4.11,-4.22,-0.57,-0.57,-0.57
58.00,3.34,3.92,3.34,3.92,-3.92,-4.15,-4.27,-0.58,-0.59,-0.59
58.58,3.34,3.95,3.34,3.95,-3.95,-4.18,-4.31,-0.61,-0.61,-0.61
59.16,3.35,3.97,3.34,3.97,-3.97,-4.21,-4.36,-0.62,-0.63,-0.62
59.76,3.35,3.98,3.35,3.99,-3.99,-4.24,-4.39,-0.64,-0.64,-0.64
60.35,3.35,4.01,3.35,4.01,-4.01,-4.27,-4.43,-0.67,-0.66,-0.66
60.96,3.35,4.01,3.36,4.04,-4.04,-4.29,-4.45,-0.69,-0.68,-0.66
61.57,3.36,4.06,3.36,4.06,-4.06,-4.32,-4.48,-0.70,-0.70,-0.70
62.18,3.37,4.09,3.36,4.08,-4.08,-4.35,-4.50,-0.71,-0.72,-0.73
62.80,3.37,4.11,3.36,4.10,-4.10,-4.38,-4.52,-0.73,-0.74,-0.74
63.43,3.37,4.14,3.37,4.12,-4.12,-4.41,-4.53,-0.75,-0.76,-0.77
64.07,3.36,4.14,3.37,4.14,-4.14,-4.43,-4.54,-0.78,-0.77,-0.78
64.71,3.37,4.16,3.37,4.16,-4.16,-4.46,-4.54,-0.79,-0.79,-0.79
65.35,3.37,4.18,3.37,4.17,-4.17,-4.48,-4.54,-0.80,-0.81,-0.81
66.01,3.36,4.18,3.37,4.19,-4.19,-4.51,-4.53,-0.83,-0.82,-0.82
66.67,3.37,4.21,3.37,4.20,-4.20,-4.53,-4.53,-0.83,-0.84,-0.84
67.33,3.37,4.22,3.36,4.21,-4.21,-4.55,-4.52,-0.85,-0.85,-0.85
68.01,3.36,4.23,3.36,4.23,-4.23,-4.57,-4.50,-0.87,-0.87,-0.87
68.69,3.36,4.24,3.36,4.24,-4.24,-4.60,-4.49,-0.88,-0.88,-0.88
69.37,3.35,4.25,3.35,4.25,-4.25,-4.62,-4.47,-0.90,-0.90,-0.90
70.07,3.35,4.26,3.35,4.26,-4.26,-4.64,-4.45,-0.91,-0.91,-0.91
70.77,3.34,4.26,3.34,4.27,-4.27,-4.66,-4.42,-0.93,-0.93,-0.92
71.48,3.34,4.29,3.33,4.28,-4.28,-4.68,-4.40,-0.94,-0.95,-0.95
72.19,3.33,4.29,3.33,4.29,-4.29,-4.69,-4.38,-0.96,-0.97,-0.96
72.91,3.32,4.30,3.32,4.30,-4.30,-4.71,-4.35,-0.99,-0.99,-0.98
73.64,3.31,4.32,3.31,4.32,-4.32,-4.73,-4.33,-1.01,-1.01,-1.01
74.38,3.30,4.32,3.30,4.33,-4.33,-4.74,-4.31,-1.03,-1.03,-1.02
75.12,3.29,4.35,3.29,4.34,-4.34,-4.76,-4.28,-1.05,-1.05,-1.06
75.87,3.28,4.36,3.28,4.35,-4.35,-4.77,-4.26,-1.07,-1.07,-1.08
76.63,3.27,4.36,3.27,4.36,-4.36,-4.78,-4.24,-1.10,-1.10,-1.09
77.40,3.25,4.37,3.25,4.38,-4.38,-4.80,-4.22,-1.13,-1.12,-1.12
78.17,3.24,4.40,3.24,4.39,-4.39,-4.81,-4.20,-1.15,-1.15,-1.16
78.95,3.23,4.40,3.23,4.40,-4.40,-4.82,-4.19,-1.18,-1.18,-1.17
79.74,3.22,4.42,3.21,4.42,-4.42,-4.83,-4.18,-1.20,-1.20,-1.20
80.54,3.20,4.43,3.20,4.43,-4.43,-4.84,-4.16,-1.23,-1.23,-1.23
81.35,3.19,4.45,3.19,4.45,-4.45,-4.85,-4.16,-1.26,-1.26,-1.26
82.16,3.18,4.47,3.17,4.46,-4.46,-4.85,-4.15,-1.28,-1.29,-1.29
82.98,3.16,4.47,3.16,4.48,-4.48,-4.86,-4.15,-1.32,-1.32,-1.31
83.81,3.15,4.50,3.14,4.49,-4.49,-4.87,-4.15,-1.34,-1.35,-1.36
84.65,3.12,4.51,3.13,4.51,-4.51,-4.87,-4.15,-1.39,-1.38,-1.39
85.50,3.11,4.52,3.11,4.53,-4.53,-4.88,-4.16,-1.42,-1.41,-1.41
86.35,3.10,4.54,3.10,4.54,-4.54,-4.88,-4.16,-1.44,-1.45,-1.45
87.22,3.08,4.56,3.08,4.56,-4.56,-4.88,-4.18,-1.48,-1.48,-1.48
88.09,3.07,4.58,3.07,4.58,-4.58,-4.89,-4.19,-1.51,-1.51,-1.51
88.97,3.05,4.59,3.05,4.60,-4.60,-4.89,-4.21,-1.55,-1.54,-1.54
89.86,3.04,4.61,3.04,4.61,-4.61,-4.89,-4.23,-1.58,-1.58,-1.58
90.76,3.02,4.64,3.02,4.63,-4.63,-4.89,-4.26,-1.61,-1.61,-1.62
91.66,3.00,4.65,3.00,4.65,-4.65,-4.89,-4.28,-1.65,-1.65,-1.65
92.58,2.99,4.68,2.99,4.67,-4.67,-4.89,-4.31,-1.68,-1.68,-1.70
93.51,2.97,4.68,2.97,4.69,-4.69,-4.88,-4.35,-1.73,-1.72,-1.71
94.44,2.96,4.71,2.96,4.72,-4.72,-4.88,-4.39,-1.76,-1.76,-1.75
95.39,2.95,4.74,2.94,4.74,-4.74,-4.88,-4.43,-1.79,-1.80,-1.79
96.34,2.93,4.76,2.93,4.76,-4.76,-4.88,-4.47,-1.83,-1.84,-1.84
97.30,2.91,4.78,2.91,4.78,-4.78,-4.87,-4.51,-1.88,-1.88,-1.87
98.28,2.89,4.80,2.89,4.81,-4.81,-4.87,-4.56,-1.92,-1.92,-1.91
99.26,2.87,4.83,2.87,4.83,-4.83,-4.86,-4.61,-1.96,-1.96,-1.96
100.25,2.86,4.86,2.85,4.85,-4.85,-4.86,-4.66,-2.00,-2.00,-2.00
101.25,2.84,4.88,2.83,4.88,-4.88,-4.85,-4.72,-2.04,-2.04,-2.04
102.27,2.82,4.91,2.81,4.90,-4.90,-4.85,-4.77,-2.08,-2.09,-2.09
103.29,2.79,4.93,2.79,4.92,-4.92,-4.84,-4.83,-2.13,-2.13,-2.14
104.32,2.77,4.95,2.77,4.95,-4.95,-4.83,-4.89,-2.18,-2.18,-2.18
105.37,2.75,4.97,2.74,4.97,-4.97,-4.83,-4.95,-2.22,-2.22,-2.22
106.42,2.72,4.99,2.72,4.99,-4.99,-4.82,-5.01,-2.27,-2.27,-2.27
107.48,2.69,5.01,2.69,5.01,-5.01,-4.81,-5.07,-2.32,-2.32,-2.32
108.56,2.67,5.03,2.67,5.04,-5.04,-4.80,-5.13,-2.37,-2.37,-2.37
109.64,2.65,5.06,2.64,5.06,-5.06,-4.80,-5.19,-2.41,-2.41,-2.42
110.74,2.62,5.07,2.62,5.08,-5.08,-4.79,-5.24,-2.46,-2.46,-2.45
111.85,2.59,5.09,2.59,5.11,-5.11,-4.78,-5.30,-2.52,-2.51,-2.50
112.97,2.56,5.13,2.56,5.13,-5.13,-4.77,-5.35,-2.57,-2.56,-2.57
114.10,2.53,5.14,2.54,5.15,-5.15,-4.76,-5.40,-2.62,-2.61,-2.61
115.24,2.52,5.18,2.51,5.17,-5.17,-4.76,-5.45,-2.65,-2.66,-2.66
116.39,2.49,5.21,2.48,5.19,-5.19,-4.75,-5.50,-2.70,-2.71,-2.72
117.55,2.46,5.22,2.45,5.21,-5.21,-4.74,-5.54,-2.75,-2.76,-2.76
118.73,2.43,5.24,2.43,5.23,-5.23,-4.73,-5.58,-2.80,-2.80,-2.81
119.92,2.40,5.25,2.40,5.25,-5.25,-4.73,-5.61,-2.85,-2.85,-2.85
121.12,2.37,5.26,2.37,5.26,-5.26,-4.72,-5.63,-2.90,-2.90,-2.90
122.33,2.34,5.28,2.34,5.28,-5.28,-4.71,-5.66,-2.94,-2.94,-2.94
123.55,2.31,5.29,2.31,5.30,-5.30,-4.71,-5.67,-2.99,-2.99,-2.98
124.79,2.28,5.30,2.28,5.31,-5.31,-4.70,-5.69,-3.03,-3.03,-3.02
126.03,2.25,5.31,2.25,5.32,-5.32,-4.70,-5.69,-3.07,-3.07,-3.06
127.29,2.22,5.32,2.22,5.33,-5.33,-4.69,-5.69,-3.11,-3.11,-3.10
128.57,2.19,5.35,2.19,5.34,-5.34,-4.69,-5.69,-3.15,-3.15,-3.16
129.85,2.17,5.36,2.16,5.35,-5.35,-4.69,-5.68,-3.18,-3.19,-3.19
131.15,2.13,5.35,2.13,5.35,-5.35,-4.68,-5.67,-3.23,-3.22,-3.22
132.46,2.11,5.37,2.10,5.36,-5.36,-4.68,-5.65,-3.25,-3.26,-3.27
133.79,2.08,5.37,2.07,5.36,-5.36,-4.68,-5.63,-3.29,-3.29,-3.29
135.12,2.05,5.38,2.04,5.37,-5.37,-4.68,-5.60,-3.32,-3.32,-3.33
136.48,2.01,5.36,2.02,5.37,-5.37,-4.68,-5.57,-3.36,-3.35,-3.35
137.84,1.99,5.36,1.99,5.37,-5.37,-4.69,-5.54,-3.38,-3.38,-3.37
139.22,1.96,5.37,1.96,5.36,-5.36,-4.69,-5.50,-3.40,-3.40,-3.41
140.61,1.93,5.37,1.93,5.36,-5.36,-4.70,-5.46,-3.43,-3.42,-3.44
142.02,1.91,5.35,1.91,5.35,-5.35,-4.70,-5.43,-3.44,-3.44,-3.44
143.44,1.88,5.33,1.88,5.34,-5.34,-4.71,-5.39,-3.47,-3.46,-3.46
144.87,1.86,5.34,1.86,5.34,-5.34,-4.72,-5.34,-3.48,-3.48,-3.48
146.32,1.84,5.34,1.83,5.33,-5.33,-4.73,-5.30,-3.49,-3.50,-3.50
147.78,1.81,5.31,1.81,5.32,-5.32,-4.74,-5.26,-3.51,-3.51,-3.51
149.26,1.79,5.31,1.78,5.31,-5.31,-4.75,-5.22,-3.53,-3.53,-3.52
150.75,1.76,5.30,1.76,5.31,-5.31,-4.77,-5.18,-3.55,-3.54,-3.55
152.26,1.74,5.30,1.74,5.30,-5.30,-4.78,-5.15,-3.56,-3.56,-3.56
153.78,1.72,5.29,1.72,5.29,-5.29,-4.80,-5.11,-3.57,-3.58,-3.57
155.32,1.70,5.29,1.70,5.29,-5.29,-4.82,-5.07,-3.59,-3.59,-3.59
156.88,1.68,5.28,1.68,5.28,-5.28,-4.85,-5.04,-3.60,-3.61,-3.60
158.44,1.65,5.27,1.65,5.28,-5.28,-4.87,-5.01,-3.63,-3.62,-3.62
160.03,1.64,5.28,1.63,5.27,-5.27,-4.89,-4.99,-3.63,-3.64,-3.64
161.63,1.61,5.27,1.61,5.27,-5.27,-4.92,-4.96,-3.66,-3.65,-3.66
163.24,1.59,5.26,1.59,5.27,-5.27,-4.95,-4.94,-3.68,-3.67,-3.68
164.88,1.58,5.26,1.57,5.26,-5.26,-4.98,-4.92,-3.69,-3.69,-3.69
166.53,1.56,5.26,1.55,5.26,-5.26,-5.02,-4.91,-3.71,-3.71,-3.70
168.19,1.54,5.27,1.54,5.27,-5.27,-5.05,-4.90,-3.73,-3.73,-3.73
169.87,1.52,5.27,1.52,5.27,-5.27,-5.09,-4.89,-3.75,-3.75,-3.75
171.57,1.50,5.27,1.50,5.27,-5.27,-5.13,-4.89,-3.78,-3.77,-3.77
173.29,1.48,5.26,1.48,5.28,-5.28,-5.17,-4.89,-3.80,-3.80,-3.79
175.02,1.47,5.28,1.47,5.29,-5.29,-5.21,-4.89,-3.82,-3.82,-3.81
176.77,1.45,5.30,1.45,5.30,-5.30,-5.25,-4.90,-3.85,-3.85,-3.85
178.54,1.44,5.31,1.44,5.31,-5.31,-5.30,-4.91,-3.87,-3.87,-3.87
180.32,1.43,5.33,1.42,5.32,-5.32,-5.34,-4.92,-3.90,-3.90,-3.90
182.13,1.41,5.33,1.41,5.34,-5.34,-5.39,-4.94,-3.93,-3.93,-3.92
183.95,1.40,5.36,1.40,5.35,-5.35,-5.44,-4.97,-3.95,-3.95,-3.96
185.79,1.39,5.37,1.39,5.37,-5.37,-5.48,-4.99,-3.98,-3.98,-3.98
187.65,1.38,5.39,1.38,5.38,-5.38,-5.53,-5.02,-4.00,-4.01,-4.02
189.52,1.36,5.40,1.37,5.40,-5.40,-5.58,-5.05,-4.04,-4.03,-4.04
191.42,1.36,5.42,1.36,5.41,-5.41,-5.62,-5.09,-4.05,-4.06,-4.06
193.33,1.35,5.42,1.34,5.42,-5.42,-5.67,-5.13,-4.08,-4.08,-4.07
195.27,1.34,5.43,1.33,5.44,-5.44,-5.71,-5.17,-4.10,-4.10,-4.09
197.22,1.32,5.43,1.32,5.45,-5.45,-5.75,-5.22,-4.13,-4.12,-4.12
199.19,1.32,5.48,1.31,5.46,-5.46,-5.79,-5.26,-4.14,-4.14,-4.16
201.18,1.31,5.48,1.30,5.46,-5.46,-5.82,-5.31,-4.16,-4.16,-4.17
203.19,1.29,5.47,1.29,5.47,-5.47,-5.85,-5.36,-4.18,-4.18,-4.18
205.23,1.28,5.48,1.28,5.48,-5.48,-5.88,-5.42,-4.20,-4.20,-4.20
207.28,1.27,5.47,1.27,5.48,-5.48,-5.90,-5.47,-4.22,-4.21,-4.20
209.35,1.26,5.48,1.26,5.49,-5.49,-5.91,-5.52,-4.23,-4.23,-4.23
211.44,1.26,5.50,1.25,5.49,-5.49,-5.92,-5.58,-4.23,-4.24,-4.24
213.56,1.24,5.49,1.24,5.49,-5.49,-5.92,-5.63,-4.25,-4.25,-4.25
215.69,1.23,5.48,1.23,5.49,-5.49,-5.91,-5.69,-4.26,-4.26,-4.25
217.85,1.22,5.48,1.22,5.49,-5.49,-5.90,-5.74,-4.27,-4.27,-4.26
220.03,1.21,5.49,1.21,5.48,-5.48,-5.88,-5.79,-4.27,-4.27,-4.28
222.23,1.20,5.48,1.20,5.47,-5.47,-5.85,-5.83,-4.27,-4.27,-4.28
224.45,1.19,5.46,1.19,5.46,-5.46,-5.82,-5.88,-4.27,-4.27,-4.27
226.70,1.18,5.46,1.17,5.45,-5.45,-5.78,-5.92,-4.27,-4.27,-4.28
228.96,1.17,5.44,1.16,5.43,-5.43,-5.73,-5.95,-4.26,-4.27,-4.28
231.25,1.15,5.41,1.15,5.41,-5.41,-5.67,-5.98,-4.26,-4.26,-4.26
233.57,1.14,5.39,1.13,5.39,-5.39,-5.61,-6.01,-4.25,-4.25,-4.25
235.90,1.12,5.36,1.12,5.36,-5.36,-5.54,-6.02,-4.24,-4.24,-4.24
238.26,1.11,5.35,1.11,5.34,-5.34,-5.46,-6.03,-4.23,-4.23,-4.24
240.64,1.09,5.30,1.09,5.31,-5.31,-5.38,-6.03,-4.22,-4.22,-4.22
243.05,1.08,5.28,1.08,5.27,-5.27,-5.29,-6.02,-4.20,-4.20,-4.20
245.48,1.06,5.23,1.06,5.24,-5.24,-5.20,-6.01,-4.18,-4.18,-4.18
247.93,1.04,5.20,1.05,5.21,-5.21,-5.10,-5.98,-4.17,-4.16,-4.16
250.41,1.03,5.17,1.03,5.17,-5.17,-5.00,-5.95,-4.14,-4.14,-4.15
252.92,1.02,5.13,1.02,5.13,-5.13,-4.90,-5.91,-4.11,-4.11,-4.11
255.45,1.00,5.08,1.01,5.10,-5.10,-4.80,-5.85,-4.10,-4.09,-4.08
258.00,0.99,5.05,0.99,5.06,-5.06,-4.70,-5.79,-4.07,-4.07,-4.06
260.58,0.98,5.02,0.98,5.02,-5.02,-4.59,-5.72,-4.04,-4.04,-4.04
263.19,0.96,4.98,0.97,4.98,-4.98,-4.48,-5.64,-4.02,-4.01,-4.02
265.82,0.95,4.94,0.95,4.94,-4.94,-4.37,-5.56,-4.00,-3.99,-3.99
268.48,0.94,4.90,0.94,4.90,-4.90,-4.27,-5.46,-3.96,-3.96,-3.96
271.16,0.93,4.86,0.92,4.86,-4.86,-4.16,-5.36,-3.93,-3.94,-3.93
273.87,0.91,4.82,0.90,4.81,-4.81,-4.05,-5.25,-3.91,-3.91,-3.91
276.61,0.89,4.76,0.88,4.77,-4.77,-3.95,-5.14,-3.88,-3.88,-3.87
279.38,0.87,4.73,0.86,4.71,-4.71,-3.84,-5.02,-3.84,-3.86,-3.86
282.17,0.84,4.67,0.83,4.66,-4.66,-3.74,-4.90,-3.82,-3.83,-3.83
284.99,0.80,4.60,0.80,4.60,-4.60,-3.64,-4.77,-3.80,-3.80,-3.80
287.84,0.76,4.53,0.76,4.53,-4.53,-3.54,-4.63,-3.77,-3.77,-3.78
290.72,0.73,4.47,0.72,4.46,-4.46,-3.44,-4.50,-3.73,-3.74,-3.74
293.63,0.68,4.40,0.68,4.39,-4.39,-3.34,-4.36,-3.71,-3.71,-3.72
296.57,0.63,4.31,0.63,4.31,-4.31,-3.25,-4.22,-3.68,-3.68,-3.68
299.53,0.57,4.22,0.57,4.22,-4.22,-3.15,-4.08,-3.66,-3.65,-3.66
302.53,0.52,4.15,0.52,4.14,-4.14,-3.06,-3.94,-3.62,-3.62,-3.63
305.55,0.46,4.04,0.46,4.04,-4.04,-2.97,-3.80,-3.59,-3.58,-3.58
308.61,0.40,3.95,0.40,3.95,-3.95,-2.89,-3.65,-3.55,-3.55,-3.55
311.69,0.34,3.85,0.34,3.85,-3.85,-2.80,-3.51,-3.52,-3.52,-3.52
314.81,0.27,3.75,0.27,3.75,-3.75,-2.72,-3.37,-3.49,-3.49,-3.48
317.96,0.20,3.65,0.20,3.65,-3.65,-2.63,-3.22,-3.45,-3.45,-3.45
321.14,0.13,3.55,0.13,3.55,-3.55,-2.55,-3.08,-3.42,-3.42,-3.42
324.35,0.05,3.44,0.05,3.44,-3.44,-2.48,-2.94,-3.39,-3.39,-3.39
327.59,-0.02,3.33,-0.02,3.34,-3.34,-2.40,-2.80,-3.36,-3.36,-3.35
330.87,-0.10,3.22,-0.10,3.23,-3.23,-2.32,-2.66,-3.33,-3.33,-3.33
334.18,-0.18,3.13,-0.18,3.12,-3.12,-2.25,-2.52,-3.30,-3.30,-3.31
337.52,-0.25,3.03,-0.27,3.01,-3.01,-2.18,-2.38,-3.26,-3.28,-3.28
340.90,-0.34,2.91,-0.35,2.91,-2.91,-2.10,-2.24,-3.25,-3.25,-3.25
344.30,-0.43,2.80,-0.43,2.80,-2.80,-2.03,-2.11,-3.23,-3.23,-3.23
347.75,-0.52,2.68,-0.51,2.69,-2.69,-1.97,-1.97,-3.22,-3.21,-3.20
351.23,-0.60,2.58,-0.60,2.59,-2.59,-1.90,-1.84,-3.19,-3.19,-3.18
354.74,-0.69,2.47,-0.68,2.49,-2.49,-1.83,-1.71,-3.18,-3.17,-3.17
358.28,-0.77,2.37,-0.76,2.39,-2.39,-1.76,-1.58,-3.16,-3.15,-3.15
361.87,-0.85,2.28,-0.84,2.28,-2.28,-1.70,-1.45,-3.14,-3.12,-3.13
365.49,-0.93,2.17,-0.92,2.18,-2.18,-1.63,-1.32,-3.11,-3.11,-3.10
369.14,-1.00,2.09,-1.00,2.08,-2.08,-1.57,-1.19,-3.08,-3.09,-3.09
372.83,-1.08,1.99,-1.08,1.98,-1.98,-1.51,-1.07,-3.06,-3.06,-3.07
376.56,-1.15,1.90,-1.16,1.88,-1.88,-1.44,-0.94,-3.03,-3.04,-3.05
380.33,-1.24,1.78,-1.24,1.78,-1.78,-1.38,-0.82,-3.02,-3.03,-3.02
384.13,-1.31,1.69,-1.32,1.68,-1.68,-1.32,-0.70,-2.99,-3.00,-3.00
387.97,-1.40,1.58,-1.40,1.58,-1.58,-1.26,-0.58,-2.98,-2.98,-2.98
391.85,-1.48,1.48,-1.49,1.48,-1.48,-1.20,-0.46,-2.96,-2.96,-2.97
395.77,-1.57,1.36,-1.57,1.37,-1.37,-1.13,-0.34,-2.94,-2.94,-2.94
399.73,-1.64,1.28,-1.65,1.27,-1.27,-1.07,-0.22,-2.91,-2.92,-2.92
403.72,-1.73,1.17,-1.73,1.16,-1.16,-1.01,-0.11,-2.89,-2.90,-2.90
407.76,-1.82,1.06,-1.82,1.06,-1.06,-0.94,0.00,-2.88,-2.88,-2.88
411.84,-1.91,0.94,-1.90,0.95,-0.95,-0.88,0.12,-2.86,-2.85,-2.85
415.96,-1.99,0.84,-1.98,0.85,-0.85,-0.81,0.22,-2.84,-2.83,-2.83
420.12,-2.07,0.74,-2.07,0.74,-0.74,-0.75,0.33,-2.81,-2.81,-2.81
424.32,-2.16,0.62,-2.15,0.63,-0.63,-0.68,0.43,-2.80,-2.78,-2.78
428.56,-2.24,0.52,-2.24,0.53,-0.53,-0.61,0.54,-2.77,-2.76,-2.76
432.85,-2.32,0.42,-2.32,0.42,-0.42,-0.54,0.63,-2.74,-2.74,-2.74
437.18,-2.40,0.31,-2.41,0.31,-0.31,-0.47,0.73,-2.71,-2.71,-2.71
441.55,-2.48,0.20,-2.49,0.19,-0.19,-0.39,0.82,-2.68,-2.69,-2.68
445.96,-2.56,0.10,-2.58,0.08,-0.08,-0.31,0.91,-2.64,-2.66,-2.66
450.42,-2.65,-0.01,-2.67,-0.03,0.03,-0.24,0.99,-2.62,-2.63,-2.64
454.93,-2.75,-0.15,-2.76,-0.15,0.15,-0.15,1.07,-2.60,-2.61,-2.60
459.48,-2.84,-0.26,-2.85,-0.27,0.27,-0.07,1.15,-2.58,-2.58,-2.58
464.07,-2.94,-0.39,-2.94,-0.39,0.39,0.02,1.22,-2.56,-2.55,-2.56
468.71,-3.03,-0.52,-3.03,-0.50,0.50,0.11,1.28,-2.53,-2.52,-2.52
473.40,-3.12,-0.63,-3.12,-0.62,0.62,0.21,1.34,-2.50,-2.50,-2.50
478.13,-3.21,-0.75,-3.21,-0.74,0.74,0.31,1.39,-2.47,-2.47,-2.47
