frequency,raw,error,smoothed,error_smoothed,equalization,parametric_eq,equalized_raw,equalized_smoothed,target
20,24.04,15.69,24.05,15.71,-15.71,-7.46,8.33,8.34,8.35
21,24.03,15.69,24.03,15.70,-15.70,-8.34,8.33,8.34,8.34
22,24.02,15.69,24.01,15.68,-15.68,-9.29,8.34,8.33,8.33
23,24.00,15.68,23.99,15.67,-15.67,-10.31,8.33,8.32,8.32
24,23.97,15.66,23.97,15.66,-15.66,-11.41,8.31,8.31,8.31
25,23.95,15.65,23.94,15.64,-15.64,-12.60,8.31,8.30,8.30
26,23.92,15.63,23.91,15.63,-15.63,-13.85,8.29,8.29,8.29
27,23.89,15.62,23.88,15.61,-15.61,-15.16,8.28,8.27,8.27
28,23.86,15.60,23.85,15.60,-15.60,-16.46,8.26,8.26,8.26
29,23.82,15.58,23.82,15.58,-15.58,-17.66,8.24,8.24,8.24
30,23.79,15.57,23.79,15.57,-15.57,-18.62,8.22,8.22,8.22
31,23.75,15.55,23.75,15.55,-15.55,-19.17,8.20,8.20,8.20
32,23.71,15.53,23.71,15.53,-15.53,-19.25,8.18,8.18,8.18
33,23.68,15.52,23.67,15.51,-15.51,-18.93,8.17,8.16,8.16
34,23.63,15.49,23.63,15.49,-15.49,-18.38,8.14,8.14,8.14
35,23.59,15.47,23.59,15.47,-15.47,-17.74,8.11,8.12,8.12
36,23.55,15.46,23.55,15.46,-15.46,-17.10,8.09,8.09,8.09
37,23.51,15.44,23.51,15.44,-15.44,-16.51,8.07,8.07,8.07
38,23.46,15.42,23.46,15.42,-15.42,-15.99,8.04,8.04,8.04
39,23.42,15.41,23.42,15.41,-15.41,-15.55,8.01,8.01,8.01
40,23.37,15.39,23.37,15.39,-15.39,-15.18,7.98,7.98,7.98
41,23.32,15.37,23.32,15.38,-15.38,-14.89,7.94,7.94,7.95
42,23.28,15.36,23.28,15.37,-15.37,-14.66,7.91,7.91,7.92
43,23.23,15.34,23.24,15.36,-15.36,-14.50,7.87,7.88,7.89
44,23.18,15.33,23.20,15.34,-15.34,-14.39,7.83,7.85,7.85
45,23.13,15.31,23.15,15.33,-15.33,-14.33,7.80,7.81,7.82
46,23.08,15.30,23.09,15.32,-15.32,-14.31,7.76,7.77,7.78
47,23.03,15.29,23.04,15.31,-15.31,-14.34,7.72,7.73,7.74
48,22.98,15.27,22.99,15.29,-15.29,-14.41,7.69,7.70,7.71
49,22.94,15.27,22.93,15.26,-15.26,-14.51,7.68,7.67,7.67
50,22.91,15.28,22.86,15.24,-15.24,-14.65,7.67,7.63,7.63
51,22.85,15.27,22.79,15.20,-15.20,-14.80,7.65,7.58,7.58
52,22.73,15.19,22.70,15.17,-15.17,-14.98,7.56,7.54,7.54
53,22.58,15.08,22.62,15.12,-15.12,-15.17,7.46,7.49,7.50
54,22.50,15.05,22.53,15.08,-15.08,-15.36,7.42,7.45,7.45
55,22.45,15.04,22.43,15.03,-15.03,-15.56,7.42,7.40,7.41
56,22.37,15.01,22.33,14.97,-14.97,-15.75,7.39,7.35,7.36
57,22.25,14.94,22.23,14.92,-14.92,-15.92,7.33,7.31,7.31
58,22.09,14.82,22.12,14.86,-14.86,-16.07,7.23,7.26,7.27
59,21.95,14.73,22.02,14.81,-14.81,-16.19,7.14,7.21,7.22
60,21.89,14.72,21.91,14.76,-14.76,-16.27,7.13,7.16,7.17
61,21.81,14.69,21.81,14.71,-14.71,-16.30,7.10,7.11,7.12
62,21.72,14.65,21.72,14.66,-14.66,-16.29,7.06,7.06,7.07
63,21.63,14.61,21.62,14.61,-14.61,-16.24,7.02,7.01,7.02
64,21.53,14.56,21.52,14.57,-14.57,-16.14,6.96,6.95,6.96
65,21.44,14.53,21.43,14.53,-14.53,-15.99,6.91,6.90,6.91
66,21.35,14.49,21.34,14.49,-14.49,-15.82,6.86,6.85,6.86
67,21.25,14.44,21.25,14.45,-14.45,-15.62,6.80,6.80,6.81
68,21.15,14.40,21.17,14.41,-14.41,-15.39,6.74,6.76,6.75
69,21.06,14.36,21.08,14.37,-14.37,-15.16,6.69,6.70,6.70
70,20.98,14.33,20.98,14.33,-14.33,-14.91,6.64,6.64,6.65
71,20.88,14.29,20.88,14.29,-14.29,-14.66,6.59,6.59,6.59
72,20.80,14.26,20.78,14.25,-14.25,-14.41,6.55,6.53,6.54
73,20.72,14.24,20.68,14.21,-14.21,-14.17,6.51,6.48,6.48
74,20.62,14.19,20.58,14.16,-14.16,-13.93,6.46,6.42,6.43
75,20.50,14.12,20.48,14.12,-14.12,-13.70,6.38,6.37,6.38
76,20.37,14.05,20.38,14.07,-14.07,-13.48,6.30,6.31,6.32
77,20.26,13.99,20.28,14.02,-14.02,-13.28,6.24,6.26,6.27
78,20.15,13.94,20.18,13.98,-13.98,-13.08,6.17,6.21,6.21
79,20.05,13.89,20.08,13.93,-13.93,-12.90,6.12,6.15,6.16
80,19.97,13.86,19.98,13.88,-13.88,-12.74,6.09,6.10,6.10
81,19.88,13.83,19.88,13.83,-13.83,-12.58,6.05,6.04,6.05
82,19.79,13.79,19.77,13.79,-13.79,-12.44,6.00,5.99,6.00
83,19.69,13.74,19.67,13.74,-13.74,-12.31,5.95,5.93,5.94
84,19.60,13.71,19.57,13.69,-13.69,-12.20,5.91,5.88,5.89
85,19.50,13.66,19.48,13.65,-13.65,-12.09,5.85,5.83,5.84
86,19.38,13.59,19.38,13.60,-13.60,-12.00,5.78,5.78,5.79
87,19.28,13.54,19.29,13.56,-13.56,-11.92,5.72,5.73,5.73
88,19.18,13.50,19.19,13.51,-13.51,-11.86,5.67,5.68,5.68
89,19.08,13.45,19.09,13.47,-13.47,-11.80,5.61,5.63,5.63
90,18.98,13.40,19.00,13.42,-13.42,-11.76,5.56,5.58,5.58
91,18.89,13.36,18.90,13.37,-13.37,-11.72,5.52,5.53,5.53
92,18.80,13.32,18.80,13.33,-13.33,-11.70,5.47,5.48,5.48
93,18.72,13.29,18.71,13.28,-13.28,-11.68,5.44,5.43,5.43
94,18.62,13.23,18.61,13.23,-13.23,-11.67,5.39,5.38,5.38
95,18.53,13.19,18.51,13.18,-13.18,-11.67,5.35,5.33,5.34
96,18.43,13.14,18.41,13.13,-13.13,-11.68,5.30,5.29,5.29
97,18.33,13.09,18.31,13.08,-13.08,-11.70,5.25,5.24,5.24
98,18.22,13.02,18.21,13.02,-13.02,-11.72,5.20,5.19,5.20
99,18.12,12.97,18.11,12.97,-12.97,-11.75,5.15,5.14,5.15
100,18.00,12.90,18.00,12.91,-12.91,-11.79,5.09,5.09,5.10
101,17.90,12.84,17.90,12.86,-12.86,-11.83,5.04,5.04,5.06
102,17.80,12.78,17.80,12.80,-12.80,-11.88,4.99,4.99,5.02
104,17.65,12.72,17.69,12.75,-12.75,-11.98,4.90,4.94,4.93
105,17.57,12.68,17.59,12.70,-12.70,-12.04,4.87,4.89,4.89
106,17.49,12.64,17.50,12.64,-12.64,-12.09,4.84,4.85,4.84
107,17.40,12.60,17.40,12.59,-12.59,-12.15,4.81,4.81,4.80
108,17.31,12.55,17.31,12.54,-12.54,-12.21,4.77,4.76,4.76
109,17.22,12.50,17.21,12.49,-12.49,-12.27,4.73,4.72,4.72
110,17.12,12.43,17.12,12.44,-12.44,-12.33,4.68,4.68,4.68
111,17.03,12.38,17.03,12.39,-12.39,-12.39,4.64,4.64,4.65
112,16.94,12.33,16.94,12.34,-12.34,-12.44,4.60,4.60,4.61
113,16.85,12.28,16.85,12.28,-12.28,-12.49,4.57,4.56,4.57
114,16.77,12.24,16.75,12.22,-12.22,-12.54,4.54,4.52,4.53
115,16.68,12.18,16.65,12.17,-12.17,-12.58,4.51,4.48,4.50
117,16.52,12.09,16.55,12.10,-12.10,-12.65,4.42,4.44,4.43
118,16.44,12.05,16.44,12.04,-12.04,-12.67,4.40,4.40,4.39
119,16.34,11.98,16.33,11.97,-11.97,-12.69,4.37,4.35,4.36
120,16.25,11.92,16.22,11.91,-11.91,-12.69,4.34,4.32,4.32
121,16.14,11.85,16.11,11.84,-11.84,-12.69,4.30,4.28,4.29
123,15.95,11.72,16.00,11.76,-11.76,-12.66,4.18,4.23,4.23
124,15.86,11.66,15.89,11.69,-11.69,-12.63,4.17,4.20,4.20
125,15.77,11.60,15.78,11.62,-11.62,-12.60,4.15,4.16,4.17
126,15.68,11.54,15.67,11.54,-11.54,-12.55,4.14,4.12,4.14
128,15.51,11.43,15.55,11.47,-11.47,-12.44,4.04,4.09,4.08
129,15.42,11.37,15.44,11.39,-11.39,-12.37,4.03,4.05,4.05
130,15.34,11.32,15.32,11.30,-11.30,-12.29,4.03,4.01,4.02
131,15.26,11.26,15.20,11.22,-11.22,-12.21,4.04,3.98,4.00
133,15.08,11.14,15.08,11.14,-11.14,-12.02,3.94,3.94,3.94
134,14.98,11.06,14.96,11.05,-11.05,-11.92,3.93,3.91,3.92
135,14.88,10.99,14.84,10.96,-10.96,-11.82,3.92,3.88,3.89
137,14.68,10.84,14.71,10.87,-10.87,-11.60,3.81,3.84,3.84
138,14.59,10.77,14.59,10.78,-10.78,-11.48,3.81,3.81,3.82
140,14.41,10.64,14.46,10.68,-10.68,-11.25,3.73,3.78,3.77
141,14.32,10.57,14.34,10.59,-10.59,-11.13,3.73,3.75,3.75
142,14.23,10.50,14.21,10.49,-10.49,-11.01,3.73,3.71,3.73
144,14.06,10.38,14.08,10.40,-10.40,-10.76,3.66,3.68,3.68
145,13.98,10.32,13.96,10.31,-10.31,-10.64,3.67,3.65,3.66
147,13.83,10.21,13.84,10.22,-10.22,-10.40,3.61,3.62,3.62
148,13.74,10.14,13.72,10.13,-10.13,-10.29,3.61,3.60,3.60
150,13.58,10.02,13.60,10.04,-10.04,-10.06,3.54,3.57,3.56
151,13.50,9.95,13.49,9.95,-9.95,-9.94,3.55,3.54,3.54
153,13.35,9.84,13.37,9.86,-9.86,-9.72,3.49,3.52,3.51
154,13.28,9.79,13.25,9.76,-9.76,-9.62,3.51,3.49,3.49
156,13.12,9.66,13.13,9.67,-9.67,-9.41,3.45,3.46,3.46
157,13.04,9.60,13.01,9.58,-9.58,-9.31,3.46,3.43,3.44
159,12.88,9.47,12.90,9.49,-9.49,-9.12,3.39,3.41,3.41
160,12.81,9.42,12.78,9.40,-9.40,-9.02,3.41,3.38,3.39
162,12.66,9.30,12.66,9.30,-9.30,-8.85,3.35,3.36,3.36
164,12.51,9.18,12.54,9.21,-9.21,-8.68,3.30,3.33,3.33
165,12.44,9.12,12.43,9.11,-9.11,-8.60,3.32,3.31,3.32
167,12.29,9.00,12.30,9.02,-9.02,-8.45,3.27,3.29,3.29
169,12.15,8.89,12.18,8.92,-8.92,-8.30,3.23,3.27,3.26
170,12.08,8.83,12.06,8.81,-8.81,-8.23,3.27,3.24,3.25
172,11.94,8.71,11.93,8.71,-8.71,-8.11,3.23,3.22,3.22
174,11.80,8.60,11.80,8.60,-8.60,-7.99,3.20,3.20,3.20
175,11.72,8.53,11.67,8.49,-8.49,-7.93,3.23,3.18,3.19
177,11.58,8.41,11.54,8.38,-8.38,-7.82,3.20,3.16,3.16
179,11.42,8.28,11.41,8.27,-8.27,-7.72,3.15,3.14,3.14
181,11.26,8.14,11.28,8.16,-8.16,-7.63,3.10,3.12,3.12
183,11.10,8.00,11.14,8.04,-8.04,-7.55,3.05,3.10,3.10
184,11.02,7.93,11.02,7.93,-7.93,-7.51,3.09,3.08,3.09
186,10.88,7.81,10.89,7.82,-7.82,-7.44,3.06,3.06,3.07
188,10.75,7.70,10.76,7.71,-7.71,-7.37,3.04,3.04,3.05
190,10.62,7.59,10.63,7.60,-7.60,-7.31,3.01,3.03,3.03
192,10.51,7.49,10.51,7.50,-7.50,-7.26,3.01,3.01,3.02
194,10.40,7.40,10.39,7.40,-7.40,-7.21,3.00,2.99,3.00
196,10.29,7.31,10.28,7.30,-7.30,-7.17,2.98,2.97,2.98
198,10.18,7.21,10.17,7.21,-7.21,-7.13,2.97,2.96,2.97
200,10.07,7.12,10.07,7.12,-7.12,-7.10,2.95,2.95,2.95
202,9.97,7.03,9.97,7.04,-7.04,-7.06,2.93,2.94,2.94
204,9.86,6.94,9.88,6.95,-6.95,-7.04,2.91,2.92,2.92
206,9.77,6.86,9.78,6.87,-6.87,-7.01,2.90,2.91,2.91
208,9.68,6.78,9.69,6.79,-6.79,-6.99,2.89,2.89,2.90
210,9.60,6.72,9.60,6.72,-6.72,-6.97,2.88,2.88,2.88
212,9.53,6.66,9.51,6.64,-6.64,-6.95,2.89,2.86,2.87
214,9.44,6.58,9.42,6.57,-6.57,-6.94,2.87,2.85,2.86
216,9.37,6.52,9.34,6.50,-6.50,-6.92,2.87,2.84,2.85
218,9.28,6.44,9.26,6.43,-6.43,-6.91,2.84,2.83,2.84
221,9.17,6.35,9.19,6.37,-6.37,-6.88,2.80,2.82,2.82
223,9.09,6.28,9.11,6.31,-6.31,-6.87,2.78,2.80,2.81
225,9.02,6.22,9.05,6.25,-6.25,-6.85,2.77,2.79,2.80
227,8.97,6.18,8.98,6.20,-6.20,-6.83,2.77,2.78,2.79
229,8.92,6.14,8.92,6.15,-6.15,-6.81,2.77,2.77,2.78
232,8.85,6.08,8.86,6.10,-6.10,-6.77,2.75,2.76,2.77
234,8.81,6.05,8.80,6.05,-6.05,-6.75,2.76,2.75,2.76
236,8.76,6.01,8.75,6.01,-6.01,-6.72,2.75,2.74,2.75
239,8.70,5.96,8.70,5.97,-5.97,-6.67,2.73,2.73,2.74
241,8.66,5.93,8.66,5.93,-5.93,-6.63,2.73,2.73,2.73
244,8.61,5.89,8.61,5.89,-5.89,-6.57,2.72,2.72,2.72
246,8.57,5.86,8.56,5.85,-5.85,-6.52,2.72,2.71,2.71
248,8.52,5.82,8.52,5.81,-5.81,-6.47,2.71,2.70,2.70
251,8.46,5.77,8.47,5.77,-5.77,-6.39,2.69,2.69,2.69
253,8.42,5.73,8.42,5.73,-5.73,-6.33,2.69,2.69,2.69
256,8.37,5.69,8.36,5.69,-5.69,-6.24,2.68,2.68,2.68
259,8.31,5.64,8.31,5.64,-5.64,-6.14,2.67,2.67,2.67
261,8.26,5.60,8.25,5.59,-5.59,-6.07,2.67,2.66,2.66
264,8.19,5.53,8.19,5.54,-5.54,-5.95,2.65,2.66,2.65
266,8.14,5.49,8.13,5.48,-5.48,-5.88,2.66,2.65,2.65
269,8.07,5.43,8.06,5.42,-5.42,-5.76,2.65,2.64,2.64
272,7.99,5.36,7.99,5.36,-5.36,-5.63,2.63,2.63,2.63
274,7.93,5.30,7.92,5.29,-5.29,-5.55,2.63,2.63,2.63
277,7.85,5.23,7.85,5.23,-5.23,-5.42,2.62,2.62,2.62
280,7.77,5.15,7.77,5.16,-5.16,-5.28,2.61,2.61,2.62
283,7.68,5.07,7.69,5.08,-5.08,-5.15,2.59,2.61,2.61
286,7.59,4.99,7.61,5.01,-5.01,-5.01,2.58,2.60,2.60
288,7.54,4.94,7.53,4.93,-4.93,-4.92,2.61,2.60,2.60
291,7.45,4.86,7.44,4.85,-4.85,-4.78,2.60,2.59,2.59
294,7.36,4.77,7.36,4.77,-4.77,-4.65,2.59,2.58,2.59
297,7.27,4.69,7.27,4.69,-4.69,-4.51,2.58,2.58,2.58
300,7.19,4.61,7.18,4.61,-4.61,-4.37,2.58,2.58,2.58
303,7.10,4.53,7.09,4.52,-4.52,-4.24,2.58,2.57,2.57
306,7.00,4.43,7.00,4.43,-4.43,-4.11,2.56,2.57,2.57
309,6.91,4.35,6.91,4.35,-4.35,-3.97,2.56,2.56,2.56
312,6.82,4.26,6.81,4.26,-4.26,-3.84,2.56,2.56,2.56
316,6.70,4.15,6.72,4.16,-4.16,-3.67,2.54,2.55,2.55
319,6.61,4.06,6.62,4.07,-4.07,-3.55,2.54,2.55,2.55
322,6.52,3.97,6.52,3.98,-3.98,-3.43,2.54,2.54,2.54
325,6.43,3.89,6.42,3.88,-3.88,-3.30,2.55,2.54,2.54
328,6.33,3.79,6.32,3.78,-3.78,-3.19,2.55,2.54,2.54
332,6.21,3.68,6.21,3.68,-3.68,-3.03,2.53,2.53,2.53
335,6.11,3.58,6.11,3.58,-3.58,-2.92,2.53,2.53,2.53
338,6.02,3.49,6.01,3.48,-3.48,-2.81,2.54,2.52,2.53
342,5.90,3.38,5.90,3.38,-3.38,-2.66,2.52,2.52,2.52
345,5.80,3.28,5.80,3.28,-3.28,-2.56,2.52,2.52,2.52
349,5.68,3.16,5.69,3.18,-3.18,-2.42,2.50,2.51,2.52
352,5.59,3.08,5.59,3.08,-3.08,-2.32,2.51,2.51,2.51
356,5.47,2.96,5.48,2.97,-2.97,-2.18,2.50,2.51,2.51
359,5.38,2.87,5.37,2.87,-2.87,-2.09,2.51,2.50,2.51
363,5.26,2.76,5.27,2.77,-2.77,-1.96,2.49,2.50,2.50
366,5.17,2.67,5.16,2.66,-2.66,-1.87,2.51,2.50,2.50
370,5.06,2.56,5.06,2.56,-2.56,-1.75,2.50,2.50,2.50
374,4.94,2.44,4.95,2.45,-2.45,-1.63,2.48,2.49,2.50
377,4.86,2.37,4.84,2.35,-2.35,-1.55,2.51,2.49,2.49
381,4.74,2.25,4.73,2.24,-2.24,-1.43,2.50,2.49,2.49
385,4.63,2.14,4.62,2.14,-2.14,-1.32,2.49,2.49,2.49
389,4.51,2.02,4.51,2.03,-2.03,-1.22,2.48,2.48,2.49
393,4.40,1.92,4.40,1.92,-1.92,-1.11,2.48,2.48,2.48
397,4.29,1.81,4.29,1.81,-1.81,-1.01,2.48,2.48,2.48
401,4.17,1.69,4.18,1.70,-1.70,-0.91,2.47,2.48,2.48
405,4.06,1.58,4.06,1.59,-1.59,-0.81,2.47,2.47,2.48
409,3.95,1.47,3.95,1.48,-1.48,-0.72,2.47,2.47,2.47
413,3.84,1.37,3.84,1.37,-1.37,-0.63,2.47,2.47,2.47
417,3.73,1.26,3.72,1.25,-1.25,-0.54,2.47,2.46,2.47
421,3.62,1.15,3.61,1.14,-1.14,-0.45,2.48,2.46,2.47
425,3.51,1.04,3.49,1.03,-1.03,-0.36,2.48,2.46,2.47
430,3.37,0.91,3.38,0.92,-0.92,-0.26,2.45,2.46,2.46
434,3.26,0.80,3.27,0.81,-0.81,-0.18,2.45,2.46,2.46
438,3.15,0.69,3.16,0.70,-0.70,-0.10,2.45,2.46,2.46
443,3.03,0.57,3.05,0.59,-0.59,-0.00,2.44,2.46,2.46
447,2.94,0.48,2.94,0.48,-0.48,0.07,2.46,2.46,2.46
451,2.84,0.38,2.83,0.37,-0.37,0.14,2.47,2.46,2.46
456,2.72,0.25,2.73,0.26,-0.26,0.23,2.46,2.47,2.47
460,2.63,0.16,2.62,0.15,-0.15,0.30,2.48,2.47,2.47
465,2.52,0.04,2.52,0.04,-0.04,0.38,2.48,2.48,2.48
470,2.42,-0.07,2.42,-0.06,0.06,0.46,2.48,2.49,2.49
474,2.33,-0.17,2.32,-0.17,0.17,0.51,2.50,2.50,2.50
479,2.23,-0.28,2.23,-0.28,0.28,0.59,2.51,2.51,2.51
484,2.12,-0.40,2.13,-0.39,0.39,0.66,2.51,2.52,2.52
489,2.03,-0.50,2.03,-0.50,0.50,0.72,2.53,2.53,2.53
494,1.93,-0.61,1.93,-0.62,0.62,0.78,2.55,2.54,2.54
499,1.84,-0.72,1.83,-0.73,0.73,0.84,2.57,2.55,2.56
504,1.74,-0.83,1.73,-0.84,0.84,0.90,2.58,2.57,2.57
509,1.64,-0.95,1.63,-0.96,0.96,0.95,2.59,2.58,2.59
514,1.54,-1.07,1.53,-1.07,1.07,1.01,2.61,2.60,2.61
519,1.44,-1.18,1.44,-1.18,1.18,1.06,2.62,2.62,2.62
524,1.33,-1.31,1.35,-1.29,1.29,1.10,2.62,2.64,2.64
529,1.24,-1.42,1.25,-1.41,1.41,1.15,2.64,2.66,2.66
535,1.15,-1.53,1.16,-1.52,1.52,1.20,2.66,2.68,2.68
540,1.07,-1.63,1.07,-1.62,1.62,1.24,2.69,2.69,2.70
545,1.01,-1.71,0.99,-1.73,1.73,1.28,2.74,2.71,2.72
551,0.93,-1.81,0.91,-1.83,1.83,1.33,2.76,2.73,2.74
556,0.85,-1.92,0.83,-1.93,1.93,1.37,2.77,2.76,2.77
562,0.77,-2.03,0.77,-2.02,2.02,1.41,2.79,2.79,2.80
568,0.68,-2.14,0.71,-2.11,2.11,1.46,2.79,2.81,2.82
573,0.62,-2.23,0.65,-2.19,2.19,1.49,2.81,2.84,2.85
579,0.57,-2.31,0.60,-2.27,2.27,1.53,2.84,2.87,2.88
585,0.53,-2.38,0.56,-2.35,2.35,1.57,2.88,2.90,2.91
591,0.51,-2.43,0.51,-2.42,2.42,1.62,2.93,2.93,2.94
596,0.49,-2.48,0.47,-2.49,2.49,1.65,2.98,2.96,2.97
602,0.46,-2.54,0.43,-2.56,2.56,1.69,3.02,2.99,3.00
608,0.44,-2.59,0.40,-2.62,2.62,1.73,3.06,3.02,3.03
615,0.40,-2.66,0.37,-2.68,2.68,1.78,3.08,3.05,3.06
621,0.36,-2.73,0.34,-2.74,2.74,1.82,3.10,3.09,3.09
627,0.32,-2.81,0.32,-2.80,2.80,1.87,3.12,3.12,3.12
633,0.29,-2.87,0.30,-2.86,2.86,1.91,3.14,3.15,3.16
639,0.25,-2.94,0.28,-2.91,2.91,1.95,3.16,3.19,3.19
646,0.23,-2.99,0.26,-2.96,2.96,2.01,3.19,3.22,3.22
652,0.23,-3.02,0.24,-3.00,3.00,2.05,3.23,3.25,3.25
659,0.23,-3.06,0.23,-3.04,3.04,2.11,3.27,3.28,3.29
665,0.24,-3.08,0.23,-3.08,3.08,2.16,3.32,3.31,3.32
672,0.24,-3.12,0.23,-3.12,3.12,2.21,3.36,3.35,3.36
679,0.24,-3.15,0.24,-3.15,3.15,2.27,3.39,3.39,3.39
686,0.24,-3.19,0.25,-3.18,3.18,2.33,3.42,3.43,3.43
692,0.25,-3.22,0.26,-3.21,3.21,2.39,3.46,3.47,3.47
699,0.26,-3.25,0.27,-3.24,3.24,2.45,3.50,3.51,3.51
706,0.27,-3.28,0.28,-3.27,3.27,2.52,3.54,3.55,3.54
713,0.28,-3.30,0.29,-3.30,3.30,2.58,3.58,3.59,3.58
721,0.31,-3.31,0.29,-3.33,3.33,2.66,3.64,3.62,3.62
728,0.32,-3.34,0.29,-3.37,3.37,2.73,3.69,3.66,3.66
735,0.32,-3.38,0.29,-3.40,3.40,2.80,3.72,3.70,3.70
742,0.32,-3.42,0.29,-3.45,3.45,2.87,3.77,3.74,3.74
750,0.30,-3.48,0.29,-3.49,3.49,2.95,3.79,3.78,3.78
757,0.28,-3.54,0.28,-3.54,3.54,3.02,3.82,3.81,3.82
765,0.26,-3.60,0.27,-3.59,3.59,3.11,3.84,3.85,3.85
773,0.24,-3.65,0.25,-3.64,3.64,3.19,3.88,3.89,3.89
780,0.22,-3.71,0.24,-3.69,3.69,3.27,3.91,3.92,3.93
788,0.21,-3.75,0.22,-3.74,3.74,3.36,3.95,3.96,3.96
796,0.19,-3.81,0.20,-3.79,3.79,3.45,3.98,3.99,4.00
804,0.19,-3.84,0.18,-3.84,3.84,3.53,4.03,4.03,4.03
812,0.17,-3.89,0.17,-3.89,3.89,3.62,4.06,4.06,4.06
820,0.16,-3.94,0.15,-3.94,3.94,3.71,4.10,4.09,4.10
828,0.14,-3.99,0.14,-3.99,3.99,3.80,4.13,4.13,4.13
837,0.13,-4.03,0.13,-4.03,4.03,3.90,4.16,4.16,4.16
845,0.11,-4.08,0.11,-4.08,4.08,3.99,4.19,4.19,4.19
853,0.10,-4.12,0.10,-4.13,4.13,4.07,4.22,4.22,4.22
862,0.09,-4.16,0.08,-4.17,4.17,4.17,4.26,4.25,4.25
871,0.07,-4.21,0.07,-4.21,4.21,4.26,4.28,4.28,4.28
879,0.06,-4.25,0.06,-4.25,4.25,4.34,4.31,4.31,4.31
888,0.05,-4.29,0.04,-4.29,4.29,4.43,4.34,4.33,4.34
897,0.03,-4.34,0.03,-4.33,4.33,4.51,4.36,4.36,4.37
906,0.03,-4.36,0.02,-4.36,4.36,4.59,4.39,4.39,4.39
915,0.01,-4.41,0.02,-4.40,4.40,4.67,4.41,4.41,4.42
924,-0.00,-4.45,0.01,-4.43,4.43,4.74,4.43,4.44,4.45
933,-0.01,-4.48,0.01,-4.46,4.46,4.81,4.45,4.47,4.47
943,-0.01,-4.51,0.00,-4.49,4.49,4.88,4.48,4.50,4.50
952,-0.01,-4.53,-0.00,-4.52,4.52,4.94,4.51,4.52,4.52
962,-0.00,-4.55,-0.00,-4.55,4.55,5.00,4.55,4.55,4.55
971,0.01,-4.57,-0.01,-4.58,4.58,5.04,4.59,4.58,4.58
981,0.01,-4.59,-0.01,-4.61,4.61,5.09,4.62,4.60,4.60
991,0.01,-4.62,-0.02,-4.64,4.64,5.13,4.65,4.63,4.63
1001,-0.00,-4.66,-0.02,-4.67,4.67,5.17,4.67,4.65,4.66
1011,-0.02,-4.70,-0.02,-4.70,4.70,5.20,4.68,4.68,4.68
1021,-0.03,-4.74,-0.03,-4.73,4.73,5.22,4.70,4.71,4.71
1031,-0.05,-4.79,-0.03,-4.76,4.76,5.24,4.71,4.73,4.74
1041,-0.05,-4.81,-0.03,-4.79,4.79,5.25,4.74,4.76,4.76
1052,-0.04,-4.83,-0.03,-4.82,4.82,5.26,4.78,4.79,4.79
1062,-0.05,-4.87,-0.03,-4.85,4.85,5.27,4.79,4.81,4.82
1073,-0.04,-4.89,-0.03,-4.87,4.87,5.27,4.83,4.84,4.85
1084,-0.02,-4.90,-0.03,-4.90,4.90,5.26,4.88,4.88,4.88
1094,-0.02,-4.93,-0.02,-4.93,4.93,5.25,4.91,4.91,4.91
1105,-0.01,-4.95,-0.02,-4.96,4.96,5.24,4.95,4.94,4.94
1116,-0.00,-4.97,-0.01,-4.99,4.99,5.23,4.99,4.98,4.97
1128,0.01,-4.99,-0.01,-5.02,5.02,5.22,5.03,5.01,5.00
1139,0.01,-5.02,-0.02,-5.05,5.05,5.20,5.06,5.04,5.03
1150,-0.00,-5.06,-0.02,-5.08,5.08,5.18,5.08,5.06,5.06
1162,-0.01,-5.11,-0.02,-5.11,5.11,5.17,5.10,5.09,5.10
1173,-0.02,-5.15,-0.03,-5.14,5.14,5.15,5.12,5.12,5.13
1185,-0.03,-5.19,-0.03,-5.17,5.17,5.13,5.14,5.14,5.16
1197,-0.03,-5.22,-0.03,-5.20,5.20,5.11,5.17,5.17,5.19
1209,-0.04,-5.26,-0.02,-5.22,5.22,5.10,5.18,5.20,5.22
1221,-0.03,-5.29,-0.00,-5.24,5.24,5.09,5.21,5.24,5.25
1233,-0.02,-5.31,0.02,-5.25,5.25,5.07,5.23,5.27,5.29
1246,0.01,-5.31,0.04,-5.26,5.26,5.06,5.27,5.30,5.32
1258,0.05,-5.30,0.07,-5.27,5.27,5.06,5.32,5.34,5.35
1271,0.11,-5.28,0.11,-5.27,5.27,5.05,5.38,5.37,5.38
1283,0.16,-5.26,0.14,-5.27,5.27,5.05,5.43,5.41,5.42
1296,0.22,-5.24,0.18,-5.26,5.26,5.05,5.48,5.45,5.46
1309,0.26,-5.23,0.22,-5.26,5.26,5.06,5.52,5.49,5.49
1322,0.30,-5.23,0.27,-5.26,5.26,5.06,5.55,5.53,5.53
1335,0.32,-5.25,0.31,-5.25,5.25,5.07,5.57,5.57,5.56
1349,0.34,-5.26,0.36,-5.25,5.25,5.09,5.59,5.61,5.60
1362,0.37,-5.27,0.40,-5.25,5.25,5.11,5.62,5.65,5.64
1376,0.41,-5.27,0.44,-5.25,5.25,5.13,5.66,5.68,5.68
1390,0.45,-5.27,0.47,-5.25,5.25,5.16,5.70,5.72,5.71
1404,0.50,-5.25,0.49,-5.26,5.26,5.19,5.76,5.75,5.75
1418,0.54,-5.25,0.52,-5.27,5.27,5.23,5.81,5.79,5.79
1432,0.58,-5.25,0.54,-5.28,5.28,5.27,5.86,5.82,5.83
1446,0.59,-5.28,0.57,-5.30,5.30,5.31,5.89,5.86,5.87
1461,0.60,-5.31,0.59,-5.32,5.32,5.36,5.92,5.90,5.91
1475,0.60,-5.35,0.60,-5.34,5.34,5.41,5.94,5.95,5.95
1490,0.59,-5.40,0.62,-5.37,5.37,5.47,5.96,5.99,5.99
1505,0.60,-5.43,0.63,-5.41,5.41,5.53,6.01,6.03,6.03
1520,0.61,-5.46,0.63,-5.45,5.45,5.59,6.06,6.07,6.07
1535,0.62,-5.49,0.62,-5.49,5.49,5.66,6.11,6.11,6.11
1550,0.63,-5.52,0.61,-5.54,5.54,5.73,6.17,6.16,6.15
1566,0.62,-5.58,0.60,-5.60,5.60,5.80,6.22,6.20,6.20
1582,0.60,-5.64,0.58,-5.66,5.66,5.88,6.26,6.24,6.24
1597,0.58,-5.71,0.56,-5.73,5.73,5.96,6.31,6.29,6.28
1613,0.54,-5.79,0.53,-5.80,5.80,6.04,6.34,6.33,6.33
1629,0.51,-5.87,0.50,-5.88,5.86,6.12,6.37,6.36,6.38
1646,0.47,-5.95,0.47,-5.96,5.91,6.21,6.38,6.38,6.42
1662,0.42,-6.05,0.43,-6.04,5.95,6.30,6.37,6.38,6.47
1679,0.38,-6.13,0.39,-6.12,5.98,6.39,6.35,6.37,6.51
1696,0.35,-6.21,0.35,-6.20,5.99,6.48,6.34,6.35,6.56
1713,0.31,-6.30,0.32,-6.28,6.00,6.57,6.31,6.32,6.61
1730,0.27,-6.39,0.28,-6.37,6.00,6.66,6.27,6.28,6.66
1747,0.25,-6.45,0.25,-6.45,6.00,6.74,6.25,6.25,6.70
1764,0.22,-6.53,0.22,-6.53,6.00,6.82,6.22,6.22,6.75
1782,0.19,-6.61,0.19,-6.60,6.00,6.91,6.19,6.19,6.80
1800,0.17,-6.69,0.17,-6.68,6.00,6.98,6.17,6.17,6.85
1818,0.15,-6.76,0.15,-6.75,6.00,7.06,6.15,6.15,6.91
1836,0.13,-6.84,0.13,-6.83,6.00,7.12,6.13,6.13,6.96
1854,0.12,-6.91,0.12,-6.90,6.00,7.18,6.12,6.12,7.02
