frequency,raw,error,smoothed,error_smoothed,equalization,parametric_eq,fixed_band_eq,equalized_raw,equalized_smoothed,target
20.00,-16.94,-15.72,-17.00,-15.80,6.00,4.77,2.73,-10.94,-11.00,-1.22
20.20,-16.84,-15.65,-16.88,-15.71,6.00,4.86,2.81,-10.84,-10.88,-1.19
20.40,-16.74,-15.58,-16.76,-15.60,6.00,4.95,2.89,-10.74,-10.76,-1.16
20.61,-16.65,-15.51,-16.63,-15.49,6.00,5.03,2.97,-10.65,-10.63,-1.14
20.81,-16.55,-15.44,-16.49,-15.38,6.00,5.12,3.06,-10.55,-10.49,-1.11
21.02,-16.44,-15.36,-16.36,-15.25,6.00,5.21,3.15,-10.44,-10.36,-1.08
21.23,-16.27,-15.20,-16.21,-15.13,6.00,5.29,3.24,-10.27,-10.21,-1.07
21.44,-16.09,-15.04,-16.07,-14.99,6.00,5.38,3.34,-10.09,-10.07,-1.06
21.66,-15.92,-14.87,-15.92,-14.85,6.00,5.46,3.44,-9.92,-9.92,-1.05
21.87,-15.74,-14.70,-15.76,-14.71,6.00,5.55,3.54,-9.74,-9.76,-1.05
22.09,-15.58,-14.54,-15.60,-14.55,6.00,5.63,3.64,-9.58,-9.60,-1.04
22.31,-15.41,-14.38,-15.44,-14.40,6.00,5.71,3.75,-9.41,-9.44,-1.04
22.54,-15.25,-14.21,-15.25,-14.22,6.00,5.79,3.85,-9.25,-9.25,-1.04
22.76,-15.09,-14.05,-15.07,-14.03,6.00,5.86,3.97,-9.09,-9.07,-1.04
22.99,-14.93,-13.88,-14.88,-13.84,6.00,5.94,4.08,-8.93,-8.88,-1.05
23.22,-14.73,-13.68,-14.69,-13.65,6.00,6.01,4.20,-8.73,-8.69,-1.05
23.45,-14.52,-13.46,-14.50,-13.46,6.00,6.08,4.32,-8.52,-8.50,-1.05
23.69,-14.32,-13.27,-14.32,-13.28,6.00,6.15,4.44,-8.32,-8.32,-1.05
23.92,-14.11,-13.06,-14.14,-13.09,6.00,6.21,4.57,-8.11,-8.14,-1.05
24.16,-13.93,-12.88,-13.96,-12.91,6.00,6.27,4.69,-7.93,-7.96,-1.04
24.40,-13.74,-12.70,-13.78,-12.73,6.00,6.33,4.83,-7.74,-7.78,-1.04
24.65,-13.57,-12.52,-13.60,-12.55,6.00,6.38,4.96,-7.57,-7.60,-1.05
24.89,-13.39,-12.34,-13.42,-12.37,6.00,6.42,5.09,-7.39,-7.42,-1.05
25.14,-13.23,-12.17,-13.25,-12.20,6.00,6.47,5.23,-7.23,-7.25,-1.05
25.39,-13.07,-12.02,-13.08,-12.03,6.00,6.51,5.36,-7.07,-7.08,-1.05
25.65,-12.92,-11.86,-12.91,-11.86,6.00,6.54,5.50,-6.92,-6.91,-1.06
25.91,-12.77,-11.70,-12.75,-11.69,6.00,6.57,5.64,-6.77,-6.75,-1.07
26.16,-12.59,-11.53,-12.59,-11.52,6.00,6.59,5.78,-6.59,-6.59,-1.07
26.43,-12.44,-11.37,-12.42,-11.35,6.00,6.61,5.92,-6.44,-6.42,-1.07
26.69,-12.27,-11.20,-12.25,-11.18,6.00,6.62,6.05,-6.27,-6.25,-1.07
26.96,-12.11,-11.04,-12.08,-11.01,6.00,6.63,6.19,-6.11,-6.08,-1.07
27.23,-11.92,-10.85,-11.90,-10.83,6.00,6.63,6.32,-5.92,-5.90,-1.07
27.50,-11.74,-10.67,-11.72,-10.64,6.00,6.62,6.45,-5.74,-5.72,-1.07
27.77,-11.54,-10.46,-11.54,-10.46,6.00,6.61,6.58,-5.54,-5.54,-1.08
28.05,-11.36,-10.27,-11.35,-10.27,6.00,6.60,6.70,-5.36,-5.35,-1.08
28.33,-11.17,-10.07,-11.17,-10.08,6.00,6.58,6.81,-5.17,-5.17,-1.09
28.62,-10.98,-9.89,-10.98,-9.90,6.00,6.55,6.92,-4.98,-4.98,-1.09
28.90,-10.79,-9.69,-10.80,-9.71,6.00,6.52,7.02,-4.79,-4.80,-1.09
29.19,-10.60,-9.49,-10.63,-9.53,6.00,6.48,7.11,-4.60,-4.63,-1.10
29.48,-10.43,-9.33,-10.45,-9.35,6.00,6.44,7.19,-4.43,-4.45,-1.10
29.78,-10.25,-9.14,-10.28,-9.17,6.00,6.40,7.26,-4.25,-4.28,-1.11
30.08,-10.08,-8.97,-10.10,-8.99,6.00,6.35,7.31,-4.08,-4.10,-1.11
30.38,-9.93,-8.81,-9.93,-8.82,6.00,6.29,7.36,-3.93,-3.93,-1.12
30.68,-9.77,-8.65,-9.76,-8.64,6.00,6.23,7.39,-3.77,-3.76,-1.12
30.99,-9.62,-8.49,-9.60,-8.47,6.00,6.17,7.41,-3.62,-3.60,-1.13
31.30,-9.46,-8.33,-9.43,-8.30,6.00,6.10,7.42,-3.46,-3.43,-1.13
31.61,-9.30,-8.16,-9.26,-8.13,6.00,6.03,7.41,-3.30,-3.26,-1.13
31.93,-9.14,-8.00,-9.10,-7.96,6.00,5.96,7.39,-3.14,-3.10,-1.14
32.24,-8.95,-7.80,-8.94,-7.79,6.00,5.89,7.36,-2.95,-2.94,-1.16
32.57,-8.77,-7.61,-8.78,-7.62,6.00,5.81,7.31,-2.77,-2.78,-1.16
32.89,-8.59,-7.43,-8.61,-7.45,6.00,5.73,7.25,-2.59,-2.61,-1.16
33.22,-8.43,-7.26,-8.45,-7.29,6.00,5.65,7.18,-2.43,-2.45,-1.17
33.55,-8.27,-7.09,-8.29,-7.12,6.00,5.57,7.10,-2.27,-2.29,-1.17
33.89,-8.12,-6.93,-8.13,-6.95,6.00,5.49,7.01,-2.12,-2.13,-1.18
34.23,-7.97,-6.78,-7.97,-6.78,6.00,5.40,6.91,-1.97,-1.97,-1.19
34.57,-7.83,-6.63,-7.82,-6.62,6.00,5.32,6.80,-1.83,-1.82,-1.20
34.92,-7.68,-6.47,-7.66,-6.46,5.98,5.23,6.69,-1.69,-1.68,-1.21
35.27,-7.54,-6.33,-7.51,-6.30,5.95,5.14,6.57,-1.59,-1.56,-1.21
35.62,-7.39,-6.17,-7.36,-6.14,5.90,5.05,6.44,-1.49,-1.46,-1.22
35.97,-7.24,-6.00,-7.22,-5.99,5.83,4.97,6.31,-1.40,-1.39,-1.23
36.33,-7.09,-5.85,-7.08,-5.84,5.75,4.88,6.18,-1.34,-1.33,-1.24
36.70,-6.94,-5.69,-6.94,-5.69,5.65,4.79,6.04,-1.29,-1.30,-1.25
37.06,-6.79,-5.52,-6.81,-5.55,5.53,4.70,5.90,-1.25,-1.27,-1.26
37.43,-6.66,-5.39,-6.67,-5.41,5.41,4.61,5.76,-1.25,-1.27,-1.26
37.81,-6.53,-5.25,-6.55,-5.27,5.27,4.53,5.62,-1.26,-1.28,-1.28
38.19,-6.41,-5.12,-6.42,-5.13,5.13,4.44,5.48,-1.27,-1.29,-1.29
38.57,-6.30,-5.01,-6.30,-5.00,5.00,4.35,5.35,-1.29,-1.30,-1.29
38.95,-6.18,-4.87,-6.19,-4.88,4.88,4.27,5.21,-1.30,-1.31,-1.31
39.34,-6.08,-4.76,-6.07,-4.76,4.76,4.18,5.07,-1.32,-1.31,-1.32
39.74,-5.97,-4.64,-5.96,-4.64,4.64,4.10,4.94,-1.33,-1.32,-1.33
40.14,-5.87,-4.53,-5.86,-4.53,4.53,4.02,4.80,-1.34,-1.33,-1.33
40.54,-5.77,-4.42,-5.76,-4.42,4.42,3.94,4.67,-1.35,-1.34,-1.35
40.94,-5.66,-4.31,-5.66,-4.31,4.31,3.85,4.54,-1.35,-1.35,-1.35
41.35,-5.57,-4.20,-5.56,-4.20,4.20,3.77,4.41,-1.37,-1.36,-1.36
41.76,-5.48,-4.11,-5.46,-4.09,4.09,3.70,4.29,-1.39,-1.37,-1.37
42.18,-5.38,-4.00,-5.36,-3.98,3.98,3.62,4.17,-1.39,-1.38,-1.37
42.60,-5.27,-3.88,-5.27,-3.88,3.88,3.54,4.05,-1.39,-1.39,-1.39
43.03,-5.16,-3.77,-5.17,-3.77,3.77,3.46,3.93,-1.39,-1.40,-1.39
43.46,-5.07,-3.66,-5.08,-3.66,3.66,3.39,3.82,-1.40,-1.42,-1.40
43.90,-4.98,-3.55,-4.99,-3.56,3.56,3.32,3.71,-1.42,-1.43,-1.43
44.33,-4.90,-3.45,-4.89,-3.45,3.45,3.24,3.60,-1.44,-1.44,-1.44
44.78,-4.81,-3.35,-4.80,-3.35,3.35,3.17,3.49,-1.46,-1.45,-1.46
45.23,-4.72,-3.24,-4.71,-3.24,3.24,3.10,3.39,-1.47,-1.47,-1.47
45.68,-4.63,-3.14,-4.62,-3.14,3.14,3.03,3.29,-1.49,-1.48,-1.49
46.13,-4.54,-3.03,-4.53,-3.03,3.03,2.97,3.19,-1.50,-1.50,-1.50
46.60,-4.46,-2.95,-4.45,-2.93,2.93,2.90,3.10,-1.53,-1.51,-1.51
47.06,-4.37,-2.84,-4.36,-2.83,2.83,2.84,3.00,-1.54,-1.53,-1.53
47.53,-4.28,-2.73,-4.28,-2.73,2.73,2.77,2.91,-1.55,-1.55,-1.54
48.01,-4.20,-2.65,-4.20,-2.63,2.63,2.71,2.83,-1.57,-1.57,-1.55
48.49,-4.12,-2.54,-4.12,-2.53,2.53,2.65,2.74,-1.59,-1.59,-1.58
48.97,-4.04,-2.43,-4.04,-2.44,2.44,2.59,2.66,-1.60,-1.60,-1.60
49.46,-3.98,-2.35,-3.97,-2.35,2.35,2.53,2.58,-1.63,-1.62,-1.63
49.96,-3.92,-2.26,-3.90,-2.26,2.26,2.47,2.50,-1.66,-1.64,-1.66
50.46,-3.85,-2.18,-3.85,-2.18,2.18,2.41,2.42,-1.66,-1.66,-1.66
50.96,-3.79,-2.10,-3.79,-2.11,2.11,2.35,2.35,-1.67,-1.68,-1.68
51.47,-3.73,-2.02,-3.75,-2.05,2.05,2.30,2.28,-1.68,-1.70,-1.71
51.99,-3.67,-1.94,-3.71,-1.99,1.99,2.24,2.21,-1.68,-1.72,-1.73
52.51,-3.66,-1.92,-3.68,-1.94,1.94,2.19,2.14,-1.72,-1.74,-1.74
53.03,-3.65,-1.89,-3.66,-1.90,1.90,2.14,2.08,-1.75,-1.76,-1.76
53.56,-3.64,-1.86,-3.64,-1.86,1.86,2.09,2.01,-1.78,-1.78,-1.78
54.10,-3.64,-1.84,-3.63,-1.83,1.83,2.04,1.95,-1.80,-1.80,-1.80
54.64,-3.65,-1.83,-3.63,-1.81,1.81,1.99,1.89,-1.83,-1.82,-1.82
55.18,-3.65,-1.81,-3.63,-1.80,1.80,1.94,1.83,-1.85,-1.83,-1.84
55.74,-3.65,-1.79,-3.64,-1.79,1.79,1.89,1.77,-1.85,-1.85,-1.86
56.29,-3.65,-1.78,-3.66,-1.79,1.79,1.84,1.72,-1.86,-1.87,-1.87
56.86,-3.66,-1.77,-3.68,-1.79,1.79,1.80,1.67,-1.87,-1.89,-1.89
57.42,-3.68,-1.77,-3.69,-1.79,1.79,1.75,1.61,-1.89,-1.90,-1.91
58.00,-3.71,-1.78,-3.71,-1.79,1.79,1.71,1.56,-1.92,-1.92,-1.92
58.58,-3.73,-1.79,-3.73,-1.79,1.79,1.67,1.52,-1.94,-1.94,-1.94
59.16,-3.75,-1.80,-3.74,-1.78,1.78,1.62,1.47,-1.97,-1.96,-1.95
59.76,-3.78,-1.81,-3.75,-1.77,1.77,1.58,1.42,-2.00,-1.98,-1.96
60.35,-3.79,-1.80,-3.76,-1.77,1.77,1.54,1.38,-2.02,-2.00,-1.99
60.96,-3.79,-1.78,-3.77,-1.75,1.75,1.50,1.34,-2.03,-2.02,-2.00
61.57,-3.79,-1.75,-3.77,-1.74,1.74,1.46,1.29,-2.05,-2.04,-2.04
62.18,-3.78,-1.71,-3.78,-1.72,1.72,1.42,1.25,-2.06,-2.06,-2.06
62.80,-3.77,-1.69,-3.78,-1.70,1.70,1.38,1.22,-2.07,-2.08,-2.08
63.43,-3.76,-1.65,-3.77,-1.67,1.67,1.35,1.18,-2.08,-2.10,-2.11
64.07,-3.75,-1.62,-3.76,-1.64,1.64,1.31,1.14,-2.10,-2.12,-2.12
64.71,-3.74,-1.60,-3.74,-1.61,1.61,1.27,1.11,-2.13,-2.14,-2.14
65.35,-3.72,-1.56,-3.73,-1.57,1.57,1.24,1.07,-2.15,-2.16,-2.16
66.01,-3.69,-1.51,-3.70,-1.52,1.52,1.20,1.04,-2.16,-2.18,-2.18
66.67,-3.67,-1.47,-3.67,-1.47,1.47,1.17,1.01,-2.19,-2.20,-2.20
67.33,-3.65,-1.43,-3.64,-1.42,1.42,1.14,0.98,-2.23,-2.22,-2.22
68.01,-3.62,-1.38,-3.60,-1.36,1.36,1.10,0.95,-2.26,-2.24,-2.24
68.69,-3.58,-1.32,-3.55,-1.30,1.30,1.07,0.92,-2.28,-2.26,-2.26
69.37,-3.53,-1.25,-3.50,-1.22,1.22,1.04,0.89,-2.31,-2.28,-2.28
70.07,-3.46,-1.16,-3.44,-1.14,1.14,1.01,0.87,-2.32,-2.30,-2.30
70.77,-3.39,-1.08,-3.37,-1.05,1.05,0.98,0.84,-2.34,-2.32,-2.31
71.48,-3.31,-0.97,-3.29,-0.96,0.96,0.95,0.81,-2.35,-2.34,-2.33
72.19,-3.24,-0.88,-3.22,-0.86,0.86,0.92,0.79,-2.38,-2.36,-2.36
72.91,-3.16,-0.77,-3.13,-0.75,0.75,0.89,0.77,-2.40,-2.38,-2.38
73.64,-3.07,-0.66,-3.05,-0.65,0.65,0.86,0.74,-2.42,-2.40,-2.41
74.38,-2.97,-0.54,-2.97,-0.55,0.55,0.83,0.72,-2.42,-2.42,-2.42
75.12,-2.89,-0.44,-2.89,-0.45,0.45,0.80,0.70,-2.44,-2.44,-2.45
75.87,-2.80,-0.33,-2.82,-0.36,0.36,0.78,0.68,-2.44,-2.46,-2.47
76.63,-2.72,-0.23,-2.76,-0.28,0.28,0.75,0.66,-2.44,-2.48,-2.48
77.40,-2.67,-0.17,-2.70,-0.20,0.20,0.72,0.64,-2.47,-2.50,-2.50
78.17,-2.63,-0.10,-2.66,-0.14,0.14,0.70,0.62,-2.49,-2.52,-2.53
78.95,-2.59,-0.05,-2.62,-0.08,0.08,0.67,0.60,-2.51,-2.54,-2.54
79.74,-2.58,-0.02,-2.60,-0.04,0.04,0.65,0.58,-2.54,-2.56,-2.56
80.54,-2.57,0.01,-2.58,-0.00,0.00,0.62,0.56,-2.57,-2.58,-2.58
81.35,-2.57,0.03,-2.57,0.03,-0.03,0.60,0.54,-2.59,-2.60,-2.60
82.16,-2.58,0.04,-2.58,0.04,-0.04,0.57,0.52,-2.62,-2.62,-2.62
82.98,-2.61,0.02,-2.59,0.05,-0.05,0.55,0.50,-2.66,-2.64,-2.63
83.81,-2.62,0.05,-2.60,0.06,-0.06,0.52,0.49,-2.67,-2.66,-2.66
84.65,-2.65,0.04,-2.63,0.05,-0.05,0.50,0.47,-2.70,-2.68,-2.69
85.50,-2.67,0.03,-2.65,0.05,-0.05,0.48,0.45,-2.72,-2.70,-2.70
86.35,-2.68,0.05,-2.68,0.04,-0.04,0.46,0.44,-2.72,-2.72,-2.72
87.22,-2.72,0.03,-2.72,0.03,-0.03,0.44,0.42,-2.75,-2.75,-2.75
88.09,-2.75,0.03,-2.75,0.02,-0.02,0.41,0.40,-2.77,-2.77,-2.77
88.97,-2.78,0.01,-2.79,0.01,-0.01,0.39,0.39,-2.78,-2.79,-2.79
89.86,-2.82,-0.00,-2.83,-0.01,0.01,0.37,0.37,-2.81,-2.82,-2.81
90.76,-2.87,-0.02,-2.87,-0.02,0.02,0.35,0.36,-2.85,-2.84,-2.85
91.66,-2.91,-0.04,-2.91,-0.04,0.04,0.33,0.34,-2.87,-2.87,-2.87
92.58,-2.95,-0.04,-2.95,-0.05,0.05,0.31,0.33,-2.90,-2.90,-2.90
93.51,-3.00,-0.08,-2.99,-0.07,0.07,0.29,0.31,-2.93,-2.92,-2.92
94.44,-3.04,-0.09,-3.03,-0.08,0.08,0.27,0.30,-2.96,-2.95,-2.95
95.39,-3.09,-0.11,-3.07,-0.09,0.09,0.25,0.28,-2.99,-2.98,-2.98
96.34,-3.13,-0.11,-3.12,-0.11,0.11,0.24,0.27,-3.02,-3.01,-3.01
97.30,-3.17,-0.12,-3.16,-0.12,0.12,0.22,0.25,-3.05,-3.04,-3.04
98.28,-3.21,-0.14,-3.20,-0.13,0.13,0.20,0.24,-3.08,-3.07,-3.07
99.26,-3.24,-0.14,-3.24,-0.14,0.14,0.18,0.23,-3.10,-3.10,-3.10
100.25,-3.28,-0.15,-3.28,-0.15,0.15,0.17,0.21,-3.13,-3.13,-3.13
101.25,-3.32,-0.16,-3.32,-0.16,0.16,0.15,0.20,-3.16,-3.16,-3.16
102.27,-3.35,-0.16,-3.36,-0.17,0.17,0.13,0.18,-3.18,-3.19,-3.19
103.29,-3.40,-0.17,-3.40,-0.18,0.18,0.12,0.17,-3.21,-3.22,-3.23
104.32,-3.44,-0.19,-3.44,-0.19,0.19,0.10,0.16,-3.24,-3.25,-3.25
105.37,-3.48,-0.20,-3.48,-0.21,0.21,0.09,0.14,-3.27,-3.28,-3.28
106.42,-3.52,-0.21,-3.53,-0.22,0.22,0.07,0.13,-3.30,-3.31,-3.31
107.48,-3.56,-0.22,-3.57,-0.23,0.23,0.06,0.12,-3.33,-3.34,-3.33
108.56,-3.61,-0.23,-3.61,-0.24,0.24,0.04,0.11,-3.37,-3.37,-3.37
109.64,-3.65,-0.24,-3.65,-0.25,0.25,0.03,0.09,-3.40,-3.40,-3.40
110.74,-3.70,-0.26,-3.69,-0.26,0.26,0.02,0.08,-3.44,-3.44,-3.43
111.85,-3.74,-0.28,-3.73,-0.26,0.26,0.00,0.07,-3.48,-3.47,-3.46
112.97,-3.79,-0.28,-3.77,-0.26,0.26,-0.01,0.06,-3.52,-3.51,-3.51
114.10,-3.81,-0.27,-3.80,-0.26,0.26,-0.02,0.05,-3.55,-3.54,-3.54
115.24,-3.86,-0.28,-3.83,-0.26,0.26,-0.04,0.04,-3.60,-3.58,-3.58
116.39,-3.87,-0.25,-3.86,-0.25,0.25,-0.05,0.03,-3.62,-3.61,-3.61
117.55,-3.90,-0.24,-3.88,-0.23,0.23,-0.06,0.01,-3.66,-3.65,-3.65
118.73,-3.90,-0.21,-3.90,-0.22,0.22,-0.07,0.00,-3.68,-3.68,-3.69
119.92,-3.93,-0.21,-3.92,-0.20,0.20,-0.08,-0.00,-3.72,-3.72,-3.72
121.12,-3.93,-0.17,-3.94,-0.18,0.18,-0.09,-0.01,-3.74,-3.75,-3.75
122.33,-3.96,-0.17,-3.95,-0.16,0.16,-0.10,-0.02,-3.79,-3.79,-3.79
123.55,-3.97,-0.15,-3.97,-0.14,0.14,-0.11,-0.03,-3.82,-3.82,-3.82
124.79,-3.97,-0.12,-3.98,-0.12,0.12,-0.12,-0.04,-3.84,-3.86,-3.85
126.03,-3.97,-0.08,-3.99,-0.10,0.10,-0.13,-0.05,-3.86,-3.89,-3.89
127.29,-4.00,-0.08,-4.01,-0.08,0.08,-0.14,-0.06,-3.91,-3.93,-3.92
128.57,-4.02,-0.05,-4.03,-0.07,0.07,-0.15,-0.06,-3.95,-3.96,-3.96
129.85,-4.06,-0.06,-4.05,-0.05,0.05,-0.15,-0.07,-4.00,-3.99,-4.00
131.15,-4.07,-0.04,-4.07,-0.04,0.04,-0.16,-0.08,-4.03,-4.03,-4.03
132.46,-4.10,-0.03,-4.09,-0.03,0.03,-0.17,-0.08,-4.07,-4.06,-4.06
133.79,-4.11,-0.02,-4.11,-0.01,0.01,-0.17,-0.09,-4.09,-4.09,-4.09
135.12,-4.11,0.02,-4.13,-0.01,0.01,-0.18,-0.09,-4.10,-4.12,-4.13
136.48,-4.15,0.00,-4.15,0.00,-0.00,-0.19,-0.10,-4.15,-4.15,-4.15
137.84,-4.18,0.00,-4.17,0.01,-0.01,-0.19,-0.11,-4.19,-4.18,-4.18
139.22,-4.20,0.02,-4.19,0.02,-0.02,-0.20,-0.11,-4.21,-4.21,-4.22
140.61,-4.23,0.02,-4.21,0.02,-0.02,-0.20,-0.12,-4.25,-4.23,-4.25
142.02,-4.25,0.01,-4.23,0.03,-0.03,-0.21,-0.12,-4.28,-4.26,-4.26
143.44,-4.25,0.04,-4.25,0.04,-0.04,-0.21,-0.13,-4.28,-4.29,-4.28
144.87,-4.25,0.06,-4.27,0.05,-0.05,-0.22,-0.13,-4.29,-4.31,-4.31
146.32,-4.28,0.06,-4.28,0.05,-0.05,-0.22,-0.14,-4.33,-4.34,-4.34
147.78,-4.30,0.06,-4.30,0.06,-0.06,-0.22,-0.14,-4.36,-4.36,-4.35
149.26,-4.33,0.05,-4.32,0.07,-0.07,-0.23,-0.15,-4.40,-4.39,-4.38
150.75,-4.35,0.07,-4.34,0.08,-0.08,-0.23,-0.15,-4.42,-4.41,-4.41
152.26,-4.35,0.09,-4.35,0.09,-0.09,-0.23,-0.16,-4.44,-4.44,-4.44
153.78,-4.36,0.11,-4.37,0.10,-0.10,-0.24,-0.16,-4.46,-4.47,-4.46
155.32,-4.38,0.12,-4.38,0.11,-0.11,-0.24,-0.17,-4.49,-4.49,-4.50
156.88,-4.39,0.13,-4.40,0.12,-0.12,-0.24,-0.17,-4.51,-4.52,-4.52
158.44,-4.43,0.12,-4.42,0.14,-0.14,-0.24,-0.18,-4.56,-4.55,-4.55
160.03,-4.44,0.15,-4.43,0.15,-0.15,-0.24,-0.18,-4.58,-4.58,-4.58
161.63,-4.44,0.18,-4.45,0.16,-0.16,-0.24,-0.19,-4.60,-4.61,-4.61
163.24,-4.47,0.18,-4.46,0.18,-0.18,-0.24,-0.19,-4.65,-4.64,-4.64
164.88,-4.49,0.18,-4.47,0.20,-0.20,-0.25,-0.20,-4.68,-4.66,-4.66
166.53,-4.49,0.21,-4.48,0.21,-0.21,-0.25,-0.20,-4.70,-4.69,-4.69
168.19,-4.49,0.23,-4.49,0.23,-0.23,-0.25,-0.21,-4.72,-4.72,-4.72
169.87,-4.49,0.26,-4.50,0.25,-0.25,-0.25,-0.22,-4.74,-4.75,-4.75
171.57,-4.52,0.26,-4.51,0.27,-0.27,-0.25,-0.22,-4.79,-4.78,-4.78
173.29,-4.53,0.28,-4.52,0.29,-0.29,-0.25,-0.23,-4.82,-4.81,-4.80
175.02,-4.53,0.30,-4.53,0.31,-0.31,-0.25,-0.24,-4.84,-4.84,-4.83
176.77,-4.53,0.34,-4.54,0.33,-0.33,-0.25,-0.25,-4.86,-4.87,-4.87
178.54,-4.53,0.38,-4.55,0.35,-0.35,-0.25,-0.25,-4.88,-4.90,-4.90
180.32,-4.56,0.37,-4.56,0.37,-0.37,-0.24,-0.26,-4.93,-4.93,-4.93
182.13,-4.58,0.37,-4.57,0.39,-0.39,-0.24,-0.27,-4.97,-4.95,-4.95
183.95,-4.58,0.41,-4.58,0.41,-0.41,-0.24,-0.28,-4.98,-4.98,-4.99
185.79,-4.58,0.43,-4.59,0.42,-0.42,-0.24,-0.29,-5.00,-5.01,-5.01
187.65,-4.59,0.46,-4.60,0.44,-0.44,-0.24,-0.30,-5.02,-5.04,-5.04
189.52,-4.62,0.45,-4.61,0.45,-0.45,-0.24,-0.31,-5.07,-5.06,-5.07
191.42,-4.63,0.46,-4.62,0.47,-0.47,-0.24,-0.32,-5.09,-5.09,-5.09
193.33,-4.63,0.48,-4.63,0.48,-0.48,-0.24,-0.32,-5.11,-5.11,-5.11
195.27,-4.66,0.48,-4.64,0.49,-0.49,-0.24,-0.33,-5.15,-5.14,-5.13
197.22,-4.67,0.49,-4.65,0.50,-0.50,-0.23,-0.34,-5.17,-5.16,-5.15
199.19,-4.67,0.52,-4.66,0.52,-0.52,-0.23,-0.35,-5.18,-5.17,-5.18
201.18,-4.67,0.53,-4.66,0.53,-0.53,-0.23,-0.36,-5.20,-5.19,-5.20
203.19,-4.67,0.54,-4.67,0.54,-0.54,-0.23,-0.37,-5.21,-5.21,-5.21
205.23,-4.67,0.56,-4.67,0.55,-0.55,-0.23,-0.38,-5.22,-5.22,-5.23
207.28,-4.67,0.56,-4.67,0.56,-0.56,-0.23,-0.39,-5.23,-5.23,-5.22
209.35,-4.67,0.58,-4.67,0.58,-0.58,-0.23,-0.40,-5.24,-5.25,-5.24
211.44,-4.67,0.60,-4.67,0.59,-0.59,-0.22,-0.41,-5.25,-5.25,-5.26
213.56,-4.67,0.59,-4.67,0.59,-0.59,-0.22,-0.42,-5.26,-5.26,-5.26
215.69,-4.67,0.59,-4.67,0.60,-0.60,-0.22,-0.43,-5.27,-5.27,-5.26
217.85,-4.67,0.60,-4.67,0.60,-0.60,-0.22,-0.44,-5.27,-5.27,-5.27
220.03,-4.67,0.61,-4.67,0.60,-0.60,-0.22,-0.45,-5.27,-5.27,-5.28
222.23,-4.67,0.62,-4.67,0.60,-0.60,-0.22,-0.45,-5.27,-5.27,-5.28
224.45,-4.67,0.60,-4.68,0.59,-0.59,-0.21,-0.46,-5.26,-5.27,-5.27
226.70,-4.67,0.60,-4.68,0.59,-0.59,-0.21,-0.47,-5.25,-5.27,-5.27
228.96,-4.67,0.60,-4.69,0.58,-0.58,-0.21,-0.47,-5.25,-5.26,-5.26
231.25,-4.69,0.56,-4.69,0.57,-0.57,-0.21,-0.48,-5.26,-5.26,-5.25
233.57,-4.71,0.54,-4.70,0.56,-0.56,-0.21,-0.48,-5.26,-5.25,-5.25
235.90,-4.72,0.53,-4.70,0.54,-0.54,-0.21,-0.49,-5.26,-5.24,-5.24
238.26,-4.72,0.52,-4.70,0.53,-0.53,-0.20,-0.49,-5.24,-5.23,-5.24
240.64,-4.72,0.51,-4.71,0.51,-0.51,-0.20,-0.49,-5.23,-5.22,-5.22
243.05,-4.72,0.49,-4.71,0.50,-0.50,-0.20,-0.49,-5.21,-5.21,-5.21
245.48,-4.72,0.48,-4.72,0.48,-0.48,-0.20,-0.49,-5.20,-5.19,-5.19
247.93,-4.72,0.46,-4.72,0.46,-0.46,-0.20,-0.49,-5.18,-5.18,-5.18
250.41,-4.72,0.46,-4.72,0.44,-0.44,-0.20,-0.49,-5.16,-5.16,-5.17
252.92,-4.72,0.43,-4.72,0.43,-0.43,-0.20,-0.48,-5.14,-5.15,-5.15
255.45,-4.72,0.41,-4.72,0.41,-0.41,-0.20,-0.48,-5.12,-5.13,-5.12
258.00,-4.72,0.39,-4.72,0.39,-0.39,-0.19,-0.47,-5.11,-5.11,-5.11
260.58,-4.72,0.37,-4.72,0.37,-0.37,-0.19,-0.47,-5.09,-5.09,-5.09
263.19,-4.72,0.35,-4.72,0.35,-0.35,-0.19,-0.46,-5.07,-5.07,-5.07
265.82,-4.72,0.33,-4.72,0.33,-0.33,-0.19,-0.45,-5.04,-5.05,-5.05
268.48,-4.72,0.31,-4.72,0.30,-0.30,-0.19,-0.44,-5.02,-5.02,-5.02
271.16,-4.72,0.28,-4.72,0.28,-0.28,-0.19,-0.43,-5.00,-5.00,-5.00
273.87,-4.72,0.26,-4.72,0.26,-0.26,-0.19,-0.42,-4.98,-4.98,-4.98
276.61,-4.72,0.24,-4.72,0.24,-0.24,-0.19,-0.41,-4.96,-4.96,-4.95
279.38,-4.72,0.22,-4.72,0.22,-0.22,-0.19,-0.39,-4.94,-4.94,-4.94
282.17,-4.72,0.20,-4.72,0.20,-0.20,-0.19,-0.38,-4.92,-4.92,-4.92
284.99,-4.72,0.17,-4.71,0.18,-0.18,-0.19,-0.36,-4.90,-4.89,-4.89
287.84,-4.72,0.16,-4.71,0.16,-0.16,-0.19,-0.35,-4.88,-4.87,-4.87
290.72,-4.72,0.13,-4.70,0.15,-0.15,-0.18,-0.33,-4.86,-4.85,-4.85
293.63,-4.72,0.11,-4.70,0.13,-0.13,-0.18,-0.32,-4.85,-4.83,-4.83
296.57,-4.68,0.13,-4.69,0.11,-0.11,-0.18,-0.30,-4.79,-4.80,-4.80
299.53,-4.67,0.12,-4.68,0.10,-0.10,-0.18,-0.28,-4.76,-4.78,-4.78
302.53,-4.67,0.10,-4.67,0.08,-0.08,-0.18,-0.27,-4.75,-4.75,-4.77
305.55,-4.67,0.06,-4.67,0.06,-0.06,-0.18,-0.25,-4.73,-4.73,-4.73
308.61,-4.67,0.04,-4.66,0.05,-0.05,-0.18,-0.23,-4.72,-4.71,-4.71
311.69,-4.64,0.05,-4.65,0.04,-0.04,-0.18,-0.21,-4.67,-4.68,-4.68
314.81,-4.63,0.02,-4.64,0.02,-0.02,-0.18,-0.20,-4.65,-4.66,-4.65
317.96,-4.63,0.00,-4.63,0.01,-0.01,-0.18,-0.18,-4.64,-4.63,-4.63
321.14,-4.63,-0.02,-4.61,-0.00,0.00,-0.18,-0.16,-4.62,-4.61,-4.61
324.35,-4.62,-0.03,-4.60,-0.02,0.02,-0.19,-0.14,-4.60,-4.59,-4.59
327.59,-4.59,-0.02,-4.59,-0.03,0.03,-0.19,-0.12,-4.56,-4.57,-4.56
330.87,-4.58,-0.03,-4.58,-0.04,0.04,-0.19,-0.10,-4.54,-4.54,-4.54
334.18,-4.58,-0.05,-4.57,-0.05,0.05,-0.19,-0.08,-4.53,-4.52,-4.53
337.52,-4.57,-0.06,-4.56,-0.06,0.06,-0.19,-0.06,-4.51,-4.50,-4.51
340.90,-4.54,-0.06,-4.55,-0.07,0.07,-0.19,-0.04,-4.47,-4.48,-4.48
344.30,-4.53,-0.07,-4.53,-0.07,0.07,-0.19,-0.02,-4.45,-4.46,-4.46
347.75,-4.53,-0.09,-4.52,-0.08,0.08,-0.19,-0.00,-4.45,-4.44,-4.44
351.23,-4.50,-0.07,-4.51,-0.09,0.09,-0.19,0.02,-4.41,-4.42,-4.42
354.74,-4.49,-0.08,-4.49,-0.09,0.09,-0.19,0.04,-4.40,-4.40,-4.40
358.28,-4.49,-0.10,-4.48,-0.09,0.09,-0.20,0.06,-4.39,-4.39,-4.38
361.87,-4.48,-0.11,-4.47,-0.10,0.10,-0.20,0.08,-4.38,-4.37,-4.37
365.49,-4.45,-0.10,-4.45,-0.10,0.10,-0.20,0.10,-4.35,-4.35,-4.35
369.14,-4.44,-0.10,-4.44,-0.10,0.10,-0.20,0.12,-4.34,-4.33,-4.34
372.83,-4.44,-0.12,-4.42,-0.10,0.10,-0.20,0.14,-4.34,-4.32,-4.32
376.56,-4.40,-0.09,-4.40,-0.10,0.10,-0.21,0.16,-4.30,-4.30,-4.31
380.33,-4.39,-0.11,-4.39,-0.10,0.10,-0.21,0.18,-4.29,-4.29,-4.28
384.13,-4.36,-0.09,-4.37,-0.09,0.09,-0.21,0.20,-4.26,-4.28,-4.27
387.97,-4.35,-0.08,-4.35,-0.09,0.09,-0.21,0.22,-4.26,-4.26,-4.26
391.85,-4.34,-0.08,-4.33,-0.08,0.08,-0.21,0.24,-4.26,-4.25,-4.25
395.77,-4.31,-0.07,-4.31,-0.07,0.07,-0.22,0.26,-4.24,-4.24,-4.23
399.73,-4.29,-0.06,-4.29,-0.06,0.06,-0.22,0.28,-4.23,-4.23,-4.22
403.72,-4.26,-0.04,-4.26,-0.05,0.05,-0.22,0.29,-4.21,-4.21,-4.22
407.76,-4.25,-0.04,-4.24,-0.04,0.04,-0.23,0.31,-4.21,-4.20,-4.21
411.84,-4.22,-0.03,-4.22,-0.03,0.03,-0.23,0.33,-4.19,-4.19,-4.19
415.96,-4.21,-0.03,-4.20,-0.02,0.02,-0.23,0.35,-4.19,-4.18,-4.18
420.12,-4.17,0.00,-4.18,-0.01,0.01,-0.24,0.36,-4.16,-4.17,-4.17
424.32,-4.16,0.00,-4.15,0.01,-0.01,-0.24,0.38,-4.16,-4.16,-4.16
