frequency,raw
20.00,1.54
20.20,1.62
20.40,1.70
20.61,1.78
20.81,1.85
21.02,1.92
21.23,1.99
21.44,2.06
21.66,2.12
21.87,2.19
22.09,2.24
22.31,2.30
22.54,2.34
22.76,2.38
22.99,2.43
23.22,2.48
23.45,2.53
23.69,2.58
23.92,2.62
24.16,2.65
24.40,2.69
24.65,2.74
24.89,2.80
25.14,2.85
25.39,2.90
25.65,2.94
25.91,2.98
26.16,3.02
26.43,3.06
26.69,3.10
26.96,3.14
27.23,3.19
27.50,3.22
27.77,3.26
28.05,3.30
28.33,3.34
28.62,3.38
28.90,3.41
29.19,3.44
29.48,3.48
29.78,3.51
30.08,3.55
30.38,3.60
30.68,3.64
30.99,3.69
31.30,3.72
31.61,3.75
31.93,3.78
32.24,3.80
32.57,3.83
32.89,3.86
33.22,3.90
33.55,3.95
33.89,3.99
34.23,4.02
34.57,4.06
34.92,4.09
35.27,4.11
35.62,4.13
35.97,4.15
36.33,4.17
36.70,4.19
37.06,4.21
37.43,4.23
37.81,4.25
38.19,4.27
38.57,4.29
38.95,4.30
39.34,4.32
39.74,4.35
40.14,4.38
40.54,4.41
40.94,4.44
41.35,4.46
41.76,4.48
42.18,4.50
42.60,4.53
43.03,4.56
43.46,4.59
43.90,4.61
44.33,4.64
44.78,4.66
45.23,4.68
45.68,4.70
46.13,4.73
46.60,4.76
47.06,4.80
47.53,4.82
48.01,4.85
48.49,4.87
48.97,4.89
49.46,4.90
49.96,4.91
50.46,4.91
50.96,4.90
51.47,4.89
51.99,4.89
52.51,4.89
53.03,4.89
53.56,4.89
54.10,4.89
54.64,4.88
55.18,4.87
55.74,4.86
56.29,4.86
56.86,4.87
57.42,4.88
58.00,4.90
58.58,4.92
59.16,4.94
59.76,4.97
60.35,5.00
60.96,5.03
61.57,5.06
62.18,5.09
62.80,5.12
63.43,5.15
64.07,5.18
64.71,5.20
65.35,5.22
66.01,5.23
66.67,5.23
67.33,5.23
68.01,5.23
68.69,5.22
69.37,5.21
70.07,5.21
70.77,5.21
71.48,5.21
72.19,5.21
72.91,5.21
73.64,5.21
74.38,5.21
75.12,5.21
75.87,5.21
76.63,5.21
77.40,5.21
78.17,5.22
78.95,5.22
79.74,5.23
80.54,5.23
81.35,5.23
82.16,5.22
82.98,5.20
83.81,5.18
84.65,5.16
85.50,5.13
86.35,5.10
87.22,5.07
88.09,5.04
88.97,5.01
89.86,4.98
90.76,4.95
91.66,4.92
92.58,4.90
93.51,4.88
94.44,4.87
95.39,4.86
96.34,4.86
97.30,4.87
98.28,4.88
99.26,4.89
100.25,4.89
101.25,4.90
102.27,4.91
103.29,4.91
104.32,4.90
105.37,4.89
106.42,4.87
107.48,4.85
108.56,4.82
109.64,4.79
110.74,4.76
111.85,4.73
112.97,4.70
114.10,4.67
115.24,4.64
116.39,4.61
117.55,4.60
118.73,4.59
119.92,4.58
121.12,4.56
122.33,4.55
123.55,4.54
124.79,4.53
126.03,4.52
127.29,4.49
128.57,4.46
129.85,4.43
131.15,4.41
132.46,4.38
133.79,4.36
135.12,4.33
136.48,4.30
137.84,4.27
139.22,4.23
140.61,4.20
142.02,4.16
143.44,4.13
144.87,4.11
146.32,4.09
147.78,4.07
149.26,4.05
150.75,4.03
152.26,4.00
153.78,3.96
155.32,3.93
156.88,3.89
158.44,3.86
160.03,3.82
161.63,3.80
163.24,3.77
164.88,3.75
166.53,3.74
168.19,3.72
169.87,3.69
171.57,3.66
173.29,3.62
175.02,3.59
176.77,3.55
178.54,3.52
180.32,3.49
182.13,3.46
183.95,3.44
185.79,3.42
187.65,3.40
189.52,3.38
191.42,3.35
193.33,3.32
195.27,3.28
197.22,3.25
199.19,3.21
201.18,3.18
203.19,3.16
205.23,3.15
207.28,3.13
209.35,3.10
211.44,3.06
213.56,3.02
215.69,2.97
217.85,2.92
220.03,2.87
222.23,2.83
224.45,2.81
226.70,2.78
228.96,2.75
231.25,2.72
233.57,2.68
235.90,2.64
238.26,2.60
240.64,2.56
243.05,2.53
245.48,2.49
247.93,2.46
250.41,2.43
252.92,2.39
255.45,2.35
258.00,2.30
260.58,2.25
263.19,2.20
265.82,2.16
268.48,2.13
271.16,2.10
273.87,2.08
276.61,2.05
279.38,2.02
282.17,1.98
284.99,1.94
287.84,1.90
290.72,1.86
293.63,1.82
296.57,1.80
299.53,1.77
302.53,1.75
305.55,1.72
308.61,1.70
311.69,1.67
314.81,1.65
317.96,1.63
321.14,1.62
324.35,1.62
327.59,1.62
330.87,1.64
334.18,1.66
337.52,1.67
340.90,1.66
344.30,1.66
347.75,1.64
351.23,1.62
354.74,1.60
358.28,1.58
361.87,1.56
365.49,1.53
369.14,1.50
372.83,1.47
376.56,1.43
380.33,1.38
384.13,1.33
387.97,1.29
391.85,1.24
395.77,1.20
399.73,1.17
403.72,1.14
407.76,1.12
411.84,1.09
415.96,1.06
420.12,1.02
424.32,0.98
428.56,0.94
432.85,0.90
437.18,0.86
441.55,0.83
445.96,0.82
450.42,0.80
454.93,0.79
459.48,0.76
464.07,0.72
468.71,0.69
473.40,0.65
478.13,0.62
482.91,0.58
487.74,0.56
492.62,0.53
497.55,0.51
502.52,0.49
507.55,0.46
512.62,0.43
517.75,0.41
522.93,0.39
528.16,0.38
533.44,0.36
538.77,0.34
544.16,0.32
549.60,0.30
555.10,0.28
560.65,0.26
566.25,0.24
571.92,0.21
577.64,0.17
583.41,0.14
589.25,0.11
595.14,0.08
601.09,0.06
607.10,0.04
613.17,0.02
619.30,0.01
625.50,-0.00
631.75,-0.00
638.07,0.01
644.45,0.01
650.89,0.02
657.40,0.03
663.98,0.04
670.62,0.04
677.32,0.04
684.10,0.04
690.94,0.02
697.85,0.01
704.83,-0.02
711.87,-0.04
718.99,-0.07
726.18,-0.10
733.44,-0.13
740.78,-0.16
748.19,-0.20
755.67,-0.24
763.23,-0.27
770.86,-0.30
778.57,-0.31
786.35,-0.31
794.22,-0.31
802.16,-0.29
810.18,-0.26
818.28,-0.22
826.46,-0.18
834.73,-0.15
843.08,-0.12
851.51,-0.09
860.02,-0.06
868.62,-0.03
877.31,-0.01
886.08,0.01
894.94,0.03
903.89,0.04
912.93,0.05
922.06,0.04
931.28,0.03
940.59,0.03
950.00,0.02
959.50,0.02
969.09,0.01
978.78,0.00
988.57,-0.00
998.46,-0.00
1008.44,0.01
1018.53,0.02
1028.71,0.04
1039.00,0.06
1049.39,0.08
1059.88,0.09
1070.48,0.12
1081.19,0.15
1092.00,0.19
1102.92,0.24
1113.95,0.28
1125.09,0.32
1136.34,0.36
1147.70,0.41
1159.18,0.46
1170.77,0.52
1182.48,0.57
1194.30,0.61
1206.25,0.65
1218.31,0.69
1230.49,0.73
1242.80,0.79
1255.22,0.84
1267.78,0.90
1280.45,0.95
1293.26,0.98
1306.19,1.02
1319.25,1.06
1332.45,1.11
1345.77,1.16
1359.23,1.21
1372.82,1.25
1386.55,1.29
1400.41,1.33
1414.42,1.38
1428.56,1.45
1442.85,1.52
1457.28,1.60
1471.85,1.68
1486.57,1.77
1501.43,1.87
1516.45,1.98
1531.61,2.10
1546.93,2.23
1562.40,2.37
1578.02,2.52
1593.80,2.67
1609.74,2.82
1625.84,2.98
1642.10,3.14
1658.52,3.30
1675.10,3.47
1691.85,3.64
1708.77,3.81
1725.86,3.96
1743.12,4.12
1760.55,4.29
1778.15,4.46
1795.94,4.62
1813.90,4.79
1832.03,4.96
1850.36,5.15
1868.86,5.33
1887.55,5.51
1906.42,5.70
1925.49,5.90
1944.74,6.11
1964.19,6.33
1983.83,6.55
2003.67,6.76
2023.71,6.98
2043.94,7.19
2064.38,7.42
2085.03,7.64
2105.88,7.85
2126.94,8.05
2148.20,8.25
2169.69,8.44
2191.38,8.62
2213.30,8.80
2235.43,8.97
2257.78,9.13
2280.36,9.29
2303.17,9.44
2326.20,9.58
2349.46,9.69
2372.95,9.79
2396.68,9.88
2420.65,9.95
2444.86,10.00
2469.31,10.02
2494.00,10.02
2518.94,10.00
2544.13,9.95
2569.57,9.89
2595.27,9.82
2621.22,9.72
2647.43,9.60
2673.90,9.46
2700.64,9.30
2727.65,9.12
2754.93,8.93
2782.48,8.73
2810.30,8.51
2838.40,8.28
2866.79,8.04
2895.46,7.78
2924.41,7.51
2953.65,7.23
2983.19,6.95
3013.02,6.66
3043.15,6.36
3073.58,6.05
3104.32,5.74
3135.36,5.44
3166.72,5.15
3198.38,4.88
3230.37,4.62
3262.67,4.37
3295.30,4.13
3328.25,3.90
3361.53,3.69
3395.15,3.50
3429.10,3.33
3463.39,3.19
3498.03,3.06
3533.01,2.95
3568.34,2.85
3604.02,2.76
3640.06,2.68
3676.46,2.62
3713.22,2.57
3750.36,2.54
3787.86,2.52
3825.74,2.50
3864.00,2.49
3902.64,2.50
3941.66,2.49
3981.08,2.49
4020.89,2.51
4061.10,2.52
4101.71,2.54
4142.73,2.55
4184.15,2.58
4226.00,2.62
4268.26,2.66
4310.94,2.69
4354.05,2.74
4397.59,2.78
4441.56,2.84
4485.98,2.91
4530.84,2.99
4576.15,3.09
4621.91,3.19
4668.13,3.31
4714.81,3.44
4761.96,3.58
4809.58,3.74
4857.67,3.90
4906.25,4.06
4955.31,4.25
5004.87,4.47
5054.91,4.69
5105.46,4.90
5156.52,5.11
5208.08,5.34
5260.16,5.55
5312.77,5.76
5365.89,5.95
5419.55,6.14
5473.75,6.30
5528.49,6.42
5583.77,6.52
5639.61,6.60
5696.00,6.66
5752.96,6.69
5810.49,6.69
5868.60,6.65
5927.28,6.59
5986.56,6.50
6046.42,6.38
6106.89,6.23
6167.96,6.06
6229.64,5.85
6291.93,5.59
6354.85,5.29
6418.40,4.96
6482.58,4.61
6547.41,4.19
6612.88,3.71
6679.01,3.18
6745.80,2.63
6813.26,2.02
6881.39,1.38
6950.21,0.73
7019.71,0.06
7089.91,-0.62
7160.81,-1.31
7232.41,-1.99
7304.74,-2.64
7377.79,-3.27
7451.56,-3.88
7526.08,-4.46
7601.34,-5.01
7677.35,-5.52
7754.13,-6.00
7831.67,-6.45
7909.98,-6.87
7989.08,-7.25
8068.98,-7.61
8149.67,-7.96
8231.16,-8.27
8313.47,-8.56
8396.61,-8.82
8480.57,-9.06
8565.38,-9.29
8651.03,-9.50
8737.54,-9.68
8824.92,-9.84
8913.17,-9.97
9002.30,-10.08
9092.32,-10.16
9183.25,-10.23
9275.08,-10.28
9367.83,-10.30
9461.51,-10.30
9556.12,-10.28
9651.68,-10.22
9748.20,-10.13
9845.68,-9.99
9944.14,-9.80
10043.58,-9.57
10144.02,-9.29
10245.46,-8.96
10347.91,-8.61
10451.39,-8.25
10555.91,-7.87
10661.46,-7.49
10768.08,-7.11
10875.76,-6.75
10984.52,-6.40
11094.36,-6.08
11205.31,-5.81
11317.36,-5.57
11430.53,-5.39
11544.84,-5.27
11660.29,-5.19
11776.89,-5.14
11894.66,-5.13
12013.60,-5.15
12133.74,-5.20
12255.08,-5.29
12377.63,-5.39
12501.41,-5.53
12626.42,-5.70
12752.68,-5.90
12880.21,-6.14
13009.01,-6.38
13139.10,-6.64
13270.49,-6.91
13403.20,-7.18
13537.23,-7.44
13672.60,-7.69
13809.33,-7.94
13947.42,-8.18
14086.90,-8.40
14227.77,-8.61
14370.04,-8.81
14513.74,-8.98
14658.88,-9.13
14805.47,-9.25
14953.52,-9.36
15103.06,-9.47
15254.09,-9.56
15406.63,-9.64
15560.70,-9.74
15716.30,-9.84
15873.47,-9.95
16032.20,-10.09
16192.52,-10.30
16354.45,-10.62
16517.99,-11.08
16683.17,-11.69
16850.01,-12.46
17018.51,-13.39
17188.69,-14.48
17360.58,-15.69
17534.18,-17.02
17709.53,-18.44
17886.62,-19.92
18065.49,-21.09
18246.14,-22.27
18428.60,-23.47
18612.89,-24.69
18799.02,-25.92
18987.01,-27.17
19176.88,-28.44
19368.65,-29.72
19562.33,-31.02
19757.96,-32.34
19955.54,-33.67
