frequency,raw
20.00,9.23
20.20,9.25
20.40,9.28
20.61,9.31
20.81,9.34
21.02,9.36
21.23,9.39
21.44,9.42
21.66,9.45
21.87,9.49
22.09,9.52
22.31,9.55
22.54,9.59
22.76,9.63
22.99,9.66
23.22,9.70
23.45,9.73
23.69,9.75
23.92,9.78
24.16,9.80
24.40,9.83
24.65,9.86
24.89,9.88
25.14,9.90
25.39,9.92
25.65,9.92
25.91,9.92
26.16,9.91
26.43,9.90
26.69,9.90
26.96,9.91
27.23,9.93
27.50,9.95
27.77,9.98
28.05,10.01
28.33,10.04
28.62,10.07
28.90,10.10
29.19,10.13
29.48,10.16
29.78,10.19
30.08,10.21
30.38,10.23
30.68,10.24
30.99,10.24
31.30,10.24
31.61,10.23
31.93,10.23
32.24,10.23
32.57,10.24
32.89,10.26
33.22,10.28
33.55,10.31
33.89,10.34
34.23,10.37
34.57,10.40
34.92,10.43
35.27,10.46
35.62,10.49
35.97,10.52
36.33,10.54
36.70,10.56
37.06,10.57
37.43,10.58
37.81,10.58
38.19,10.58
38.57,10.57
38.95,10.56
39.34,10.56
39.74,10.56
40.14,10.56
40.54,10.56
40.94,10.56
41.35,10.57
41.76,10.58
42.18,10.58
42.60,10.58
43.03,10.57
43.46,10.55
43.90,10.53
44.33,10.51
44.78,10.48
45.23,10.45
45.68,10.42
46.13,10.39
46.60,10.36
47.06,10.33
47.53,10.30
48.01,10.27
48.49,10.25
48.97,10.23
49.46,10.22
49.96,10.22
50.46,10.22
50.96,10.24
51.47,10.25
51.99,10.25
52.51,10.25
53.03,10.23
53.56,10.21
54.10,10.19
54.64,10.16
55.18,10.13
55.74,10.10
56.29,10.07
56.86,10.05
57.42,10.02
58.00,10.00
58.58,9.97
59.16,9.94
59.76,9.91
60.35,9.88
60.96,9.85
61.57,9.82
62.18,9.80
62.80,9.79
63.43,9.78
64.07,9.75
64.71,9.71
65.35,9.67
66.01,9.63
66.67,9.59
67.33,9.56
68.01,9.52
68.69,9.48
69.37,9.44
70.07,9.39
70.77,9.36
71.48,9.32
72.19,9.28
72.91,9.22
73.64,9.16
74.38,9.11
75.12,9.05
75.87,8.99
76.63,8.93
77.40,8.88
78.17,8.83
78.95,8.76
79.74,8.70
80.54,8.62
81.35,8.54
82.16,8.46
82.98,8.39
83.81,8.32
84.65,8.22
85.50,8.14
86.35,8.05
87.22,7.97
88.09,7.89
88.97,7.80
89.86,7.70
90.76,7.61
91.66,7.52
92.58,7.42
93.51,7.32
94.44,7.21
95.39,7.10
96.34,7.01
97.30,6.89
98.28,6.78
99.26,6.68
100.25,6.55
101.25,6.43
102.27,6.32
103.29,6.20
104.32,6.08
105.37,5.96
106.42,5.86
107.48,5.75
108.56,5.63
109.64,5.53
110.74,5.41
111.85,5.31
112.97,5.21
114.10,5.12
115.24,5.04
116.39,4.96
117.55,4.90
118.73,4.84
119.92,4.80
121.12,4.76
122.33,4.74
123.55,4.72
124.79,4.70
126.03,4.70
127.29,4.70
128.57,4.70
129.85,4.70
131.15,4.71
132.46,4.72
133.79,4.72
135.12,4.72
136.48,4.72
137.84,4.72
139.22,4.72
140.61,4.73
142.02,4.74
143.44,4.75
144.87,4.75
146.32,4.74
147.78,4.72
149.26,4.71
150.75,4.70
152.26,4.68
153.78,4.65
155.32,4.61
156.88,4.57
158.44,4.53
160.03,4.48
161.63,4.42
163.24,4.35
164.88,4.29
166.53,4.22
168.19,4.16
169.87,4.10
171.57,4.03
173.29,3.97
175.02,3.91
176.77,3.85
178.54,3.78
180.32,3.71
182.13,3.66
183.95,3.61
185.79,3.57
187.65,3.53
189.52,3.49
191.42,3.46
193.33,3.44
195.27,3.43
197.22,3.42
199.19,3.41
201.18,3.40
203.19,3.40
205.23,3.41
207.28,3.42
209.35,3.42
211.44,3.42
213.56,3.42
215.69,3.41
217.85,3.40
220.03,3.40
222.23,3.40
224.45,3.42
226.70,3.43
228.96,3.45
231.25,3.48
233.57,3.50
235.90,3.53
238.26,3.56
240.64,3.60
243.05,3.63
245.48,3.66
247.93,3.69
250.41,3.71
252.92,3.73
255.45,3.75
258.00,3.77
260.58,3.79
263.19,3.79
265.82,3.79
268.48,3.77
271.16,3.76
273.87,3.74
276.61,3.72
279.38,3.69
282.17,3.68
284.99,3.66
287.84,3.63
290.72,3.59
293.63,3.54
296.57,3.50
299.53,3.46
302.53,3.41
305.55,3.37
308.61,3.32
311.69,3.27
314.81,3.21
317.96,3.16
321.14,3.12
324.35,3.08
327.59,3.04
330.87,3.00
334.18,2.95
337.52,2.90
340.90,2.85
344.30,2.81
347.75,2.77
351.23,2.74
354.74,2.69
358.28,2.65
361.87,2.61
365.49,2.58
369.14,2.56
372.83,2.55
376.56,2.53
380.33,2.50
384.13,2.47
387.97,2.44
391.85,2.41
395.77,2.38
399.73,2.35
403.72,2.33
407.76,2.31
411.84,2.28
415.96,2.25
420.12,2.22
424.32,2.19
428.56,2.17
432.85,2.15
437.18,2.13
441.55,2.11
445.96,2.10
450.42,2.09
454.93,2.09
459.48,2.09
464.07,2.11
468.71,2.12
473.40,2.14
478.13,2.16
482.91,2.19
487.74,2.22
492.62,2.25
497.55,2.28
502.52,2.31
507.55,2.34
512.62,2.37
517.75,2.40
522.93,2.42
528.16,2.44
533.44,2.46
538.77,2.47
544.16,2.48
549.60,2.47
555.10,2.47
560.65,2.47
566.25,2.47
571.92,2.47
577.64,2.47
583.41,2.46
589.25,2.44
595.14,2.42
601.09,2.40
607.10,2.37
613.17,2.34
619.30,2.31
625.50,2.29
631.75,2.27
638.07,2.24
644.45,2.21
650.89,2.17
657.40,2.13
663.98,2.09
670.62,2.06
677.32,2.03
684.10,2.01
690.94,1.99
697.85,1.96
704.83,1.93
711.87,1.89
718.99,1.84
726.18,1.79
733.44,1.75
740.78,1.72
748.19,1.68
755.67,1.64
763.23,1.61
770.86,1.57
778.57,1.53
786.35,1.50
794.22,1.46
802.16,1.41
810.18,1.36
818.28,1.31
826.46,1.26
834.73,1.22
843.08,1.18
851.51,1.14
860.02,1.09
868.62,1.04
877.31,0.98
886.08,0.91
894.94,0.85
903.89,0.80
912.93,0.74
922.06,0.68
931.28,0.61
940.59,0.53
950.00,0.44
959.50,0.36
969.09,0.28
978.78,0.20
988.57,0.11
998.46,0.01
1008.44,-0.08
1018.53,-0.17
1028.71,-0.27
1039.00,-0.36
1049.39,-0.46
1059.88,-0.58
1070.48,-0.68
1081.19,-0.79
1092.00,-0.91
1102.92,-1.03
1113.95,-1.13
1125.09,-1.24
1136.34,-1.36
1147.70,-1.48
1159.18,-1.60
1170.77,-1.74
1182.48,-1.87
1194.30,-2.00
1206.25,-2.13
1218.31,-2.26
1230.49,-2.38
1242.80,-2.50
1255.22,-2.63
1267.78,-2.76
1280.45,-2.90
1293.26,-3.02
1306.19,-3.15
1319.25,-3.28
1332.45,-3.39
1345.77,-3.51
1359.23,-3.63
1372.82,-3.74
1386.55,-3.85
1400.41,-3.96
1414.42,-4.08
1428.56,-4.19
1442.85,-4.31
1457.28,-4.42
1471.85,-4.51
1486.57,-4.60
1501.43,-4.68
1516.45,-4.74
1531.61,-4.81
1546.93,-4.88
1562.40,-4.94
1578.02,-5.01
1593.80,-5.07
1609.74,-5.12
1625.84,-5.16
1642.10,-5.19
1658.52,-5.20
1675.10,-5.23
1691.85,-5.24
1708.77,-5.24
1725.86,-5.23
1743.12,-5.22
1760.55,-5.20
1778.15,-5.17
1795.94,-5.13
1813.90,-5.07
1832.03,-5.00
1850.36,-4.93
1868.86,-4.85
1887.55,-4.77
1906.42,-4.68
1925.49,-4.58
1944.74,-4.48
1964.19,-4.37
1983.83,-4.25
2003.67,-4.12
2023.71,-3.98
2043.94,-3.84
2064.38,-3.71
2085.03,-3.59
2105.88,-3.48
2126.94,-3.37
2148.20,-3.28
2169.69,-3.20
2191.38,-3.13
2213.30,-3.07
2235.43,-3.04
2257.78,-3.01
2280.36,-2.99
2303.17,-3.00
2326.20,-3.03
2349.46,-3.07
2372.95,-3.12
2396.68,-3.19
2420.65,-3.28
2444.86,-3.38
2469.31,-3.48
2494.00,-3.59
2518.94,-3.71
2544.13,-3.82
2569.57,-3.93
2595.27,-4.01
2621.22,-4.06
2647.43,-4.09
2673.90,-4.08
2700.64,-4.05
2727.65,-4.00
2754.93,-3.91
2782.48,-3.80
2810.30,-3.65
2838.40,-3.48
2866.79,-3.30
2895.46,-3.10
2924.41,-2.90
2953.65,-2.70
2983.19,-2.50
3013.02,-2.32
3043.15,-2.12
3073.58,-1.93
3104.32,-1.74
3135.36,-1.56
3166.72,-1.37
3198.38,-1.19
3230.37,-1.00
3262.67,-0.82
3295.30,-0.63
3328.25,-0.47
3361.53,-0.31
3395.15,-0.14
3429.10,0.04
3463.39,0.22
3498.03,0.41
3533.01,0.61
3568.34,0.81
3604.02,1.02
3640.06,1.22
3676.46,1.44
3713.22,1.66
3750.36,1.88
3787.86,2.12
3825.74,2.36
3864.00,2.61
3902.64,2.85
3941.66,3.08
3981.08,3.31
4020.89,3.54
4061.10,3.76
4101.71,3.97
4142.73,4.17
4184.15,4.38
4226.00,4.57
4268.26,4.76
4310.94,4.94
4354.05,5.11
4397.59,5.28
4441.56,5.44
4485.98,5.59
4530.84,5.71
4576.15,5.83
4621.91,5.93
4668.13,6.03
4714.81,6.13
4761.96,6.22
4809.58,6.30
4857.67,6.37
4906.25,6.42
4955.31,6.47
5004.87,6.51
5054.91,6.55
5105.46,6.58
5156.52,6.61
5208.08,6.64
5260.16,6.66
5312.77,6.68
5365.89,6.69
5419.55,6.70
5473.75,6.69
5528.49,6.68
5583.77,6.66
5639.61,6.63
5696.00,6.59
5752.96,6.57
5810.49,6.53
5868.60,6.48
5927.28,6.44
5986.56,6.38
6046.42,6.33
6106.89,6.26
6167.96,6.19
6229.64,6.10
6291.93,6.01
6354.85,5.91
6418.40,5.81
6482.58,5.69
6547.41,5.54
6612.88,5.36
6679.01,5.16
6745.80,4.93
6813.26,4.69
6881.39,4.44
6950.21,4.16
7019.71,3.87
7089.91,3.55
7160.81,3.23
7232.41,2.89
7304.74,2.55
7377.79,2.21
7451.56,1.86
7526.08,1.51
7601.34,1.15
7677.35,0.78
7754.13,0.40
7831.67,0.02
7909.98,-0.36
7989.08,-0.77
8068.98,-1.21
8149.67,-1.66
8231.16,-2.13
8313.47,-2.63
8396.61,-3.13
8480.57,-3.65
8565.38,-4.19
8651.03,-4.75
8737.54,-5.31
8824.92,-5.86
8913.17,-6.38
9002.30,-6.85
9092.32,-7.29
9183.25,-7.68
9275.08,-8.02
9367.83,-8.29
9461.51,-8.49
9556.12,-8.64
9651.68,-8.73
9748.20,-8.76
9845.68,-8.74
9944.14,-8.67
10043.58,-8.56
10144.02,-8.41
10245.46,-8.23
10347.91,-8.03
10451.39,-7.83
10555.91,-7.63
10661.46,-7.43
10768.08,-7.24
10875.76,-7.06
10984.52,-6.87
11094.36,-6.69
11205.31,-6.53
11317.36,-6.40
11430.53,-6.29
11544.84,-6.21
11660.29,-6.13
11776.89,-6.09
11894.66,-6.07
12013.60,-6.09
12133.74,-6.12
12255.08,-6.16
12377.63,-6.19
12501.41,-6.21
12626.42,-6.23
12752.68,-6.23
12880.21,-6.21
13009.01,-6.18
13139.10,-6.13
13270.49,-6.04
13403.20,-5.93
13537.23,-5.80
13672.60,-5.66
13809.33,-5.52
13947.42,-5.36
14086.90,-5.22
14227.77,-5.08
14370.04,-4.96
14513.74,-4.85
14658.88,-4.77
14805.47,-4.71
14953.52,-4.68
15103.06,-4.67
15254.09,-4.68
15406.63,-4.72
15560.70,-4.80
15716.30,-4.91
15873.47,-5.05
16032.20,-5.23
16192.52,-5.47
16354.45,-5.76
16517.99,-6.09
16683.17,-6.47
16850.01,-6.91
17018.51,-7.36
17188.69,-7.80
17360.58,-8.25
17534.18,-8.68
17709.53,-9.09
17886.62,-9.45
18065.49,-9.67
18246.14,-9.84
18428.60,-9.98
18612.89,-10.07
18799.02,-10.13
18987.01,-10.14
19176.88,-10.11
19368.65,-10.04
19562.33,-9.93
19757.96,-9.77
19955.54,-9.58
