frequency,raw
20,-3.29
21,-3.24
22,-3.17
23,-3.04
24,-2.93
25,-2.77
26,-2.64
27,-2.47
28,-2.29
29,-2.12
30,-1.94
31,-1.82
32,-1.73
33,-1.68
34,-1.68
35,-1.68
36,-1.73
37,-1.73
38,-1.77
39,-1.82
40,-1.82
41,-1.87
42,-1.87
43,-1.91
44,-1.91
45,-1.96
46,-2.01
47,-2.01
48,-2.01
49,-2.05
50,-2.10
51,-2.10
52,-2.10
53,-2.10
54,-2.10
55,-2.10
56,-2.05
57,-2.05
58,-2.01
59,-2.01
60,-1.96
61,-1.91
62,-1.87
63,-1.87
64,-1.82
65,-1.77
66,-1.77
67,-1.77
68,-1.77
69,-1.77
70,-1.77
71,-1.77
72,-1.77
73,-1.77
74,-1.77
75,-1.77
76,-1.77
77,-1.77
78,-1.77
79,-1.77
80,-1.77
81,-1.77
82,-1.77
83,-1.73
84,-1.73
85,-1.73
86,-1.70
87,-1.68
88,-1.68
89,-1.68
90,-1.68
91,-1.68
92,-1.68
93,-1.68
94,-1.68
95,-1.68
96,-1.68
97,-1.68
98,-1.68
99,-1.68
100,-1.68
101,-1.68
102,-1.68
104,-1.68
105,-1.68
106,-1.68
107,-1.68
108,-1.68
109,-1.68
110,-1.68
111,-1.68
112,-1.68
113,-1.68
114,-1.68
115,-1.68
117,-1.68
118,-1.68
119,-1.68
120,-1.68
121,-1.68
123,-1.68
124,-1.68
125,-1.68
126,-1.68
128,-1.68
129,-1.68
130,-1.68
131,-1.68
133,-1.68
134,-1.68
135,-1.68
137,-1.68
138,-1.68
140,-1.68
141,-1.68
142,-1.68
144,-1.68
145,-1.68
147,-1.68
148,-1.68
150,-1.68
151,-1.68
153,-1.68
154,-1.68
156,-1.68
157,-1.68
159,-1.68
160,-1.68
162,-1.68
164,-1.68
165,-1.68
167,-1.68
169,-1.68
170,-1.68
172,-1.68
174,-1.68
175,-1.68
177,-1.68
179,-1.68
181,-1.68
183,-1.68
184,-1.68
186,-1.68
188,-1.68
190,-1.68
192,-1.68
194,-1.66
196,-1.63
198,-1.63
200,-1.63
202,-1.63
204,-1.63
206,-1.63
208,-1.63
210,-1.63
212,-1.63
214,-1.63
216,-1.63
218,-1.63
221,-1.63
223,-1.63
225,-1.63
227,-1.63
229,-1.63
232,-1.63
234,-1.63
236,-1.63
239,-1.68
241,-1.68
244,-1.68
246,-1.68
248,-1.73
251,-1.73
253,-1.73
256,-1.77
259,-1.77
261,-1.81
264,-1.82
266,-1.82
269,-1.87
272,-1.87
274,-1.91
277,-1.93
280,-1.96
283,-2.00
286,-2.01
288,-2.01
291,-2.05
294,-2.05
297,-2.07
300,-2.10
303,-2.10
306,-2.10
309,-2.10
312,-2.10
316,-2.13
319,-2.15
322,-2.15
325,-2.15
328,-2.15
332,-2.15
335,-2.15
338,-2.15
342,-2.15
345,-2.12
349,-2.10
352,-2.10
356,-2.10
359,-2.10
363,-2.05
366,-2.05
370,-2.02
374,-2.01
377,-2.01
381,-1.96
385,-1.96
389,-1.91
393,-1.90
397,-1.87
401,-1.82
405,-1.80
409,-1.77
413,-1.74
417,-1.71
421,-1.68
425,-1.63
430,-1.59
434,-1.56
438,-1.54
443,-1.49
447,-1.45
451,-1.42
456,-1.38
460,-1.35
465,-1.31
470,-1.27
474,-1.24
479,-1.21
484,-1.18
489,-1.12
494,-1.09
499,-1.05
504,-1.00
509,-0.97
514,-0.93
519,-0.93
524,-0.89
529,-0.89
535,-0.84
540,-0.84
545,-0.81
551,-0.79
556,-0.77
562,-0.75
568,-0.70
573,-0.70
579,-0.66
585,-0.65
591,-0.61
596,-0.60
602,-0.56
608,-0.51
615,-0.50
621,-0.47
627,-0.45
633,-0.42
639,-0.42
646,-0.42
652,-0.42
659,-0.37
665,-0.37
672,-0.40
679,-0.42
686,-0.42
692,-0.45
699,-0.47
706,-0.49
713,-0.51
721,-0.56
728,-0.56
735,-0.56
742,-0.56
750,-0.52
757,-0.47
765,-0.40
773,-0.35
780,-0.29
788,-0.19
796,-0.08
804,0.02
812,0.12
820,0.20
828,0.28
837,0.33
845,0.38
853,0.43
862,0.49
871,0.52
879,0.56
888,0.56
897,0.55
906,0.51
915,0.49
924,0.41
933,0.35
943,0.30
952,0.22
962,0.16
971,0.12
981,0.06
991,0.03
1001,-0.00
1011,-0.06
1021,-0.09
1031,-0.14
1041,-0.17
1052,-0.21
1062,-0.23
1073,-0.27
1084,-0.30
1094,-0.35
1105,-0.43
1116,-0.48
1128,-0.54
1139,-0.61
1150,-0.65
1162,-0.68
1173,-0.73
1185,-0.73
1197,-0.68
1209,-0.62
1221,-0.54
1233,-0.47
1246,-0.35
1258,-0.26
1271,-0.13
1283,-0.01
1296,0.14
1309,0.31
1322,0.46
1335,0.59
1349,0.75
1362,0.86
1376,0.99
1390,1.08
1404,1.19
1418,1.30
1432,1.36
1446,1.46
1461,1.49
1475,1.54
1490,1.55
1505,1.59
1520,1.59
1535,1.59
1550,1.54
1566,1.51
1582,1.47
1597,1.40
1613,1.35
1629,1.31
1646,1.31
1662,1.26
1679,1.24
1696,1.19
1713,1.13
1730,1.07
1747,1.05
1764,1.10
1782,1.14
1800,1.21
1818,1.28
1836,1.33
1854,1.38
1873,1.43
1892,1.48
1911,1.54
1930,1.54
1949,1.54
1969,1.54
1988,1.54
2008,1.54
2028,1.50
2048,1.47
2069,1.42
2090,1.38
2111,1.35
2132,1.37
2153,1.40
2175,1.45
2196,1.45
2218,1.45
2240,1.45
2263,1.51
2285,1.60
2308,1.73
2331,1.87
2355,2.00
2378,2.11
2402,2.22
2426,2.31
2450,2.41
2475,2.50
2500,2.59
2525,2.66
2550,2.72
2575,2.82
2601,2.90
2627,2.99
2653,3.10
2680,3.21
2707,3.32
2734,3.40
2761,3.51
2789,3.61
2817,3.68
2845,3.78
2873,3.85
2902,3.92
2931,3.97
2960,4.02
2990,4.06
3020,4.06
3050,4.06
3080,4.06
3111,4.03
3142,4.00
3174,3.94
3206,3.86
3238,3.79
3270,3.71
3303,3.65
3336,3.58
3369,3.50
3403,3.41
3437,3.29
3471,3.15
3506,2.99
3541,2.80
3576,2.59
3612,2.40
3648,2.16
3685,1.91
3721,1.66
3759,1.37
3796,1.12
3834,0.82
3873,0.51
3911,0.19
3950,-0.15
3990,-0.47
4030,-0.77
4070,-1.06
4111,-1.35
4152,-1.63
4193,-1.98
4235,-2.31
4278,-2.64
4321,-2.91
4364,-3.14
4407,-3.36
4451,-3.50
4496,-3.62
4541,-3.68
4586,-3.63
4632,-3.56
4679,-3.45
4725,-3.33
4773,-3.15
4820,-2.94
4868,-2.66
4917,-2.35
4966,-2.05
5016,-1.74
5066,-1.46
5117,-1.18
5168,-0.90
5220,-0.62
5272,-0.34
5325,-0.09
5378,0.20
5432,0.45
5486,0.72
5541,0.99
5596,1.29
5652,1.62
5709,1.96
5766,2.29
5823,2.58
5882,2.83
5940,3.01
6000,3.11
6060,3.19
6120,3.17
6182,3.10
6244,2.99
6306,2.81
6369,2.46
6433,2.17
6497,1.78
6562,1.38
6628,0.93
6694,0.45
6761,0.11
6828,-0.35
6897,-0.66
6966,-0.85
7035,-1.03
7106,-1.18
7177,-1.30
7249,-1.41
7321,-1.47
7394,-1.50
7468,-1.54
7543,-1.59
7618,-1.61
7694,-1.63
7771,-1.63
7849,-1.64
7928,-1.70
8007,-1.83
8087,-1.96
8168,-2.15
8250,-2.43
8332,-2.77
8415,-3.21
8499,-3.72
8584,-4.29
8670,-4.83
8757,-5.34
8845,-5.66
8933,-5.53
9022,-5.34
9113,-4.79
9204,-4.23
9296,-3.84
9389,-3.33
9483,-2.96
9577,-2.74
9673,-2.59
9770,-2.48
9868,-2.37
9966,-2.30
10066,-2.16
10167,-1.89
10268,-1.50
10371,-0.94
10475,-0.45
10579,0.05
10685,0.49
10792,0.75
10900,0.92
11009,1.02
11119,0.91
11230,0.58
11343,0.01
11456,-0.67
11571,-1.42
11686,-2.11
11803,-2.68
11921,-3.14
12040,-3.55
12161,-3.93
12282,-4.33
12405,-4.69
12529,-4.94
12655,-5.09
12781,-5.06
12909,-4.89
13038,-4.64
13168,-4.31
13300,-3.97
13433,-3.72
13567,-3.55
13703,-3.66
13840,-3.80
13978,-3.98
14118,-4.15
14259,-4.41
14402,-4.70
14546,-5.01
14692,-5.35
14838,-5.77
14987,-6.31
15137,-6.83
15288,-7.54
15441,-8.27
15595,-9.00
15751,-9.78
15909,-10.54
16068,-11.21
16229,-11.70
16391,-12.04
16555,-12.06
16720,-11.94
16888,-11.49
17056,-10.89
17227,-10.06
17399,-9.23
17573,-8.06
17749,-7.05
17926,-6.36
18106,-5.41
18287,-4.85
18470,-4.46
18654,-4.26
18841,-4.11
19029,-4.24
19220,-4.43
19412,-4.62
19606,-4.80
19802,-4.93
20000,-5.04
