frequency,raw,error,smoothed,error_smoothed,equalization,parametric_eq,fixed_band_eq,equalized_raw,equalized_smoothed,target
20.00,3.20,-2.66,3.19,-2.66,2.66,2.35,0.46,5.86,5.86,5.86
20.20,3.25,-2.60,3.24,-2.61,2.61,2.34,0.47,5.86,5.85,5.85
20.40,3.29,-2.56,3.29,-2.56,2.56,2.32,0.49,5.85,5.85,5.85
20.61,3.34,-2.51,3.34,-2.51,2.51,2.29,0.51,5.84,5.85,5.85
20.81,3.39,-2.44,3.39,-2.46,2.46,2.27,0.53,5.84,5.84,5.83
21.02,3.43,-2.40,3.44,-2.40,2.40,2.24,0.55,5.83,5.84,5.83
21.23,3.48,-2.35,3.48,-2.35,2.35,2.21,0.56,5.83,5.84,5.83
21.44,3.53,-2.31,3.53,-2.30,2.30,2.18,0.58,5.83,5.84,5.84
21.66,3.58,-2.25,3.58,-2.25,2.25,2.15,0.60,5.83,5.83,5.83
21.87,3.63,-2.21,3.63,-2.20,2.20,2.11,0.62,5.83,5.83,5.84
22.09,3.68,-2.15,3.68,-2.15,2.15,2.08,0.65,5.83,5.83,5.83
22.31,3.73,-2.11,3.73,-2.10,2.10,2.04,0.67,5.83,5.83,5.84
22.54,3.78,-2.05,3.78,-2.05,2.05,2.00,0.69,5.83,5.83,5.83
22.76,3.84,-2.00,3.84,-2.00,2.00,1.96,0.71,5.84,5.84,5.84
22.99,3.89,-1.95,3.89,-1.95,1.95,1.92,0.74,5.84,5.84,5.84
23.22,3.94,-1.90,3.95,-1.90,1.90,1.88,0.76,5.84,5.84,5.84
23.45,3.99,-1.86,4.00,-1.85,1.85,1.83,0.79,5.84,5.85,5.85
23.69,4.04,-1.81,4.04,-1.80,1.80,1.79,0.81,5.84,5.85,5.85
23.92,4.09,-1.76,4.09,-1.76,1.76,1.74,0.84,5.85,5.85,5.85
24.16,4.14,-1.72,4.13,-1.73,1.73,1.70,0.86,5.86,5.85,5.85
24.40,4.19,-1.67,4.17,-1.69,1.69,1.65,0.89,5.88,5.86,5.86
24.65,4.24,-1.62,4.21,-1.65,1.65,1.61,0.92,5.89,5.86,5.86
24.89,4.29,-1.57,4.25,-1.61,1.61,1.56,0.94,5.90,5.86,5.86
25.14,4.31,-1.55,4.29,-1.57,1.57,1.51,0.97,5.88,5.86,5.86
25.39,4.32,-1.55,4.33,-1.54,1.54,1.47,0.99,5.86,5.86,5.87
25.65,4.33,-1.54,4.36,-1.51,1.51,1.42,1.02,5.84,5.87,5.87
25.91,4.34,-1.52,4.38,-1.48,1.48,1.37,1.05,5.82,5.87,5.86
26.16,4.38,-1.49,4.41,-1.45,1.45,1.33,1.07,5.83,5.87,5.87
26.43,4.44,-1.43,4.44,-1.43,1.43,1.28,1.10,5.86,5.87,5.87
26.69,4.50,-1.37,4.46,-1.40,1.40,1.23,1.12,5.90,5.86,5.87
26.96,4.56,-1.30,4.49,-1.37,1.37,1.19,1.14,5.93,5.86,5.86
27.23,4.57,-1.29,4.53,-1.33,1.33,1.14,1.16,5.90,5.86,5.85
27.50,4.57,-1.28,4.57,-1.29,1.29,1.09,1.18,5.86,5.86,5.85
27.77,4.57,-1.29,4.61,-1.24,1.24,1.05,1.20,5.81,5.85,5.86
28.05,4.58,-1.27,4.66,-1.20,1.20,1.00,1.22,5.77,5.85,5.85
28.33,4.65,-1.20,4.70,-1.15,1.15,0.96,1.23,5.80,5.85,5.85
28.62,4.71,-1.13,4.74,-1.10,1.10,0.91,1.25,5.81,5.84,5.84
28.90,4.78,-1.07,4.78,-1.05,1.05,0.87,1.26,5.83,5.84,5.85
29.19,4.84,-1.00,4.83,-1.00,1.00,0.83,1.27,5.84,5.83,5.84
29.48,4.91,-0.91,4.87,-0.95,0.95,0.78,1.27,5.86,5.83,5.82
29.78,4.98,-0.84,4.92,-0.90,0.90,0.74,1.28,5.88,5.82,5.82
30.08,5.03,-0.79,4.97,-0.84,0.84,0.70,1.28,5.87,5.81,5.82
30.38,5.03,-0.77,5.01,-0.79,0.79,0.65,1.27,5.82,5.80,5.80
30.68,5.03,-0.77,5.06,-0.74,0.74,0.61,1.27,5.76,5.79,5.80
30.99,5.03,-0.76,5.09,-0.69,0.69,0.57,1.26,5.72,5.79,5.79
31.30,5.10,-0.68,5.12,-0.66,0.66,0.53,1.25,5.75,5.78,5.77
31.61,5.16,-0.61,5.15,-0.62,0.62,0.49,1.23,5.78,5.77,5.77
31.93,5.23,-0.52,5.17,-0.59,0.59,0.45,1.21,5.82,5.76,5.75
32.24,5.25,-0.51,5.20,-0.56,0.56,0.41,1.19,5.81,5.76,5.76
32.57,5.25,-0.50,5.22,-0.53,0.53,0.37,1.17,5.78,5.75,5.75
32.89,5.25,-0.49,5.25,-0.50,0.50,0.33,1.14,5.75,5.75,5.74
33.22,5.25,-0.49,5.28,-0.47,0.47,0.29,1.11,5.72,5.75,5.74
33.55,5.25,-0.49,5.30,-0.44,0.44,0.25,1.07,5.69,5.74,5.74
33.89,5.25,-0.50,5.32,-0.42,0.42,0.21,1.04,5.67,5.74,5.75
34.23,5.30,-0.43,5.34,-0.40,0.40,0.18,1.00,5.69,5.74,5.73
34.57,5.38,-0.36,5.37,-0.37,0.37,0.14,0.96,5.75,5.74,5.74
34.92,5.46,-0.28,5.39,-0.34,0.34,0.10,0.91,5.80,5.73,5.74
35.27,5.48,-0.27,5.42,-0.31,0.31,0.06,0.87,5.79,5.73,5.74
35.62,5.48,-0.24,5.44,-0.28,0.28,0.03,0.82,5.76,5.72,5.72
35.97,5.48,-0.24,5.48,-0.24,0.24,-0.01,0.77,5.72,5.72,5.72
36.33,5.48,-0.24,5.51,-0.19,0.19,-0.04,0.72,5.67,5.70,5.71
36.70,5.48,-0.21,5.55,-0.15,0.15,-0.08,0.66,5.62,5.69,5.69
37.06,5.49,-0.19,5.57,-0.10,0.10,-0.12,0.61,5.59,5.68,5.68
37.43,5.58,-0.08,5.60,-0.06,0.06,-0.15,0.55,5.64,5.66,5.66
37.81,5.67,0.03,5.61,-0.02,0.02,-0.19,0.50,5.69,5.64,5.64
38.19,5.71,0.08,5.63,0.02,-0.02,-0.22,0.44,5.69,5.62,5.63
38.57,5.71,0.11,5.65,0.06,-0.06,-0.26,0.38,5.65,5.59,5.60
38.95,5.71,0.13,5.67,0.10,-0.10,-0.29,0.32,5.61,5.57,5.58
39.34,5.71,0.18,5.69,0.15,-0.15,-0.33,0.26,5.55,5.54,5.53
39.74,5.71,0.20,5.72,0.21,-0.21,-0.36,0.20,5.50,5.51,5.51
40.14,5.71,0.23,5.75,0.26,-0.26,-0.40,0.14,5.45,5.49,5.48
40.54,5.71,0.25,5.78,0.32,-0.32,-0.43,0.08,5.39,5.46,5.46
40.94,5.71,0.29,5.80,0.36,-0.36,-0.46,0.02,5.34,5.44,5.42
41.35,5.77,0.36,5.82,0.41,-0.41,-0.50,-0.05,5.36,5.41,5.41
41.76,5.85,0.47,5.83,0.45,-0.45,-0.53,-0.11,5.40,5.38,5.38
42.18,5.90,0.54,5.85,0.49,-0.49,-0.57,-0.17,5.41,5.36,5.36
42.60,5.92,0.58,5.87,0.53,-0.53,-0.60,-0.24,5.38,5.33,5.34
43.03,5.94,0.63,5.89,0.58,-0.58,-0.63,-0.30,5.36,5.31,5.31
43.46,5.94,0.65,5.90,0.61,-0.61,-0.67,-0.37,5.33,5.29,5.28
43.90,5.94,0.67,5.91,0.64,-0.64,-0.70,-0.43,5.29,5.27,5.27
44.33,5.94,0.70,5.92,0.68,-0.68,-0.74,-0.50,5.26,5.24,5.24
44.78,5.94,0.73,5.93,0.72,-0.72,-0.77,-0.56,5.22,5.22,5.21
45.23,5.94,0.73,5.95,0.76,-0.76,-0.80,-0.63,5.18,5.19,5.20
45.68,5.94,0.77,5.96,0.80,-0.80,-0.84,-0.69,5.14,5.16,5.17
46.13,5.94,0.81,5.97,0.84,-0.84,-0.87,-0.76,5.10,5.13,5.13
46.60,5.94,0.84,5.98,0.88,-0.88,-0.90,-0.83,5.06,5.10,5.10
47.06,5.94,0.86,6.00,0.93,-0.93,-0.94,-0.89,5.01,5.07,5.08
47.53,5.96,0.91,6.02,0.98,-0.98,-0.97,-0.96,4.98,5.04,5.05
48.01,5.98,0.98,6.04,1.03,-1.03,-1.01,-1.03,4.94,5.00,5.00
48.49,6.07,1.10,6.06,1.09,-1.09,-1.04,-1.10,4.98,4.97,4.97
48.97,6.16,1.23,6.08,1.15,-1.15,-1.08,-1.17,5.01,4.93,4.93
49.46,6.17,1.27,6.10,1.20,-1.20,-1.11,-1.23,4.97,4.90,4.90
49.96,6.17,1.32,6.12,1.26,-1.26,-1.14,-1.30,4.91,4.86,4.85
50.46,6.17,1.35,6.14,1.31,-1.31,-1.18,-1.37,4.85,4.83,4.82
50.96,6.17,1.38,6.16,1.37,-1.37,-1.21,-1.44,4.80,4.79,4.79
51.47,6.17,1.41,6.17,1.42,-1.42,-1.25,-1.50,4.75,4.75,4.76
51.99,6.17,1.45,6.18,1.46,-1.46,-1.28,-1.57,4.70,4.71,4.72
52.51,6.17,1.48,6.18,1.51,-1.51,-1.32,-1.64,4.66,4.68,4.68
53.03,6.17,1.51,6.18,1.55,-1.55,-1.35,-1.70,4.62,4.64,4.66
53.56,6.17,1.56,6.18,1.58,-1.58,-1.39,-1.77,4.59,4.60,4.60
54.10,6.17,1.61,6.17,1.61,-1.61,-1.43,-1.83,4.56,4.56,4.56
54.64,6.17,1.64,6.17,1.64,-1.64,-1.46,-1.90,4.53,4.53,4.52
55.18,6.17,1.69,6.17,1.68,-1.68,-1.50,-1.96,4.49,4.49,4.48
55.74,6.17,1.73,6.17,1.71,-1.71,-1.53,-2.02,4.46,4.46,4.44
56.29,6.17,1.76,6.17,1.74,-1.74,-1.57,-2.08,4.42,4.42,4.40
56.86,6.17,1.78,6.17,1.78,-1.78,-1.61,-2.13,4.39,4.39,4.39
57.42,6.17,1.83,6.17,1.82,-1.82,-1.64,-2.19,4.35,4.35,4.34
58.00,6.17,1.86,6.17,1.85,-1.85,-1.68,-2.24,4.31,4.31,4.31
58.58,6.17,1.88,6.17,1.89,-1.89,-1.72,-2.29,4.28,4.28,4.29
59.16,6.17,1.90,6.17,1.93,-1.93,-1.75,-2.34,4.24,4.24,4.27
59.76,6.17,1.94,6.17,1.97,-1.97,-1.79,-2.38,4.20,4.20,4.23
60.35,6.17,1.99,6.17,2.00,-2.00,-1.83,-2.43,4.16,4.16,4.18
60.96,6.17,2.03,6.17,2.04,-2.04,-1.87,-2.46,4.12,4.12,4.13
61.57,6.17,2.09,6.17,2.08,-2.08,-1.90,-2.50,4.08,4.08,4.08
62.18,6.17,2.14,6.17,2.13,-2.13,-1.94,-2.53,4.04,4.04,4.03
62.80,6.17,2.18,6.17,2.17,-2.17,-1.98,-2.56,4.00,4.00,3.98
63.43,6.17,2.23,6.17,2.22,-2.22,-2.02,-2.59,3.95,3.95,3.94
64.07,6.17,2.27,6.17,2.26,-2.26,-2.06,-2.62,3.91,3.91,3.90
64.71,6.17,2.30,6.17,2.31,-2.31,-2.10,-2.64,3.86,3.86,3.87
65.35,6.17,2.35,6.17,2.35,-2.35,-2.13,-2.66,3.82,3.82,3.82
66.01,6.17,2.40,6.17,2.40,-2.40,-2.17,-2.67,3.77,3.77,3.77
66.67,6.17,2.44,6.17,2.44,-2.44,-2.21,-2.69,3.73,3.73,3.73
67.33,6.17,2.49,6.17,2.49,-2.49,-2.25,-2.70,3.68,3.68,3.68
68.01,6.17,2.53,6.17,2.53,-2.53,-2.29,-2.71,3.64,3.64,3.64
68.69,6.17,2.58,6.17,2.58,-2.58,-2.33,-2.72,3.59,3.59,3.59
69.37,6.17,2.61,6.17,2.62,-2.62,-2.37,-2.73,3.55,3.55,3.56
70.07,6.17,2.66,6.17,2.67,-2.67,-2.41,-2.73,3.50,3.50,3.51
70.77,6.17,2.71,6.17,2.72,-2.72,-2.45,-2.74,3.45,3.45,3.46
71.48,6.17,2.76,6.17,2.76,-2.76,-2.49,-2.74,3.41,3.41,3.41
72.19,6.17,2.81,6.17,2.81,-2.81,-2.53,-2.75,3.36,3.36,3.36
72.91,6.17,2.85,6.17,2.85,-2.85,-2.57,-2.75,3.32,3.32,3.31
73.64,6.17,2.91,6.17,2.89,-2.89,-2.61,-2.76,3.27,3.27,3.26
74.38,6.17,2.95,6.17,2.93,-2.93,-2.65,-2.76,3.23,3.23,3.22
75.12,6.17,2.99,6.17,2.97,-2.97,-2.70,-2.77,3.20,3.20,3.18
75.87,6.17,3.01,6.17,3.01,-3.01,-2.74,-2.77,3.16,3.16,3.16
76.63,6.17,3.05,6.17,3.04,-3.04,-2.78,-2.78,3.13,3.13,3.12
77.40,6.17,3.08,6.17,3.08,-3.08,-2.82,-2.79,3.09,3.09,3.09
78.17,6.17,3.11,6.17,3.11,-3.11,-2.86,-2.79,3.06,3.06,3.06
78.95,6.17,3.14,6.17,3.14,-3.14,-2.90,-2.80,3.03,3.03,3.03
79.74,6.17,3.17,6.17,3.17,-3.17,-2.94,-2.82,3.00,3.00,3.00
80.54,6.17,3.19,6.17,3.20,-3.20,-2.98,-2.83,2.97,2.97,2.97
81.35,6.17,3.23,6.17,3.23,-3.23,-3.03,-2.84,2.94,2.94,2.94
82.16,6.17,3.25,6.17,3.26,-3.26,-3.07,-2.86,2.91,2.91,2.92
82.98,6.17,3.28,6.17,3.30,-3.30,-3.11,-2.88,2.87,2.87,2.88
83.81,6.17,3.32,6.18,3.34,-3.34,-3.15,-2.90,2.83,2.84,2.85
84.65,6.17,3.36,6.19,3.38,-3.38,-3.19,-2.93,2.78,2.80,2.81
85.50,6.17,3.41,6.19,3.42,-3.42,-3.23,-2.95,2.75,2.77,2.76
86.35,6.17,3.44,6.18,3.45,-3.45,-3.27,-2.98,2.72,2.73,2.73
87.22,6.17,3.48,6.17,3.48,-3.48,-3.31,-3.01,2.69,2.69,2.69
88.09,6.17,3.52,6.16,3.51,-3.51,-3.36,-3.04,2.66,2.65,2.65
88.97,6.17,3.57,6.14,3.54,-3.54,-3.40,-3.08,2.63,2.61,2.60
89.86,6.17,3.61,6.12,3.56,-3.56,-3.44,-3.11,2.61,2.56,2.56
90.76,6.17,3.65,6.10,3.58,-3.58,-3.48,-3.15,2.58,2.52,2.52
91.66,6.17,3.70,6.08,3.61,-3.61,-3.52,-3.20,2.56,2.48,2.47
92.58,6.09,3.65,6.06,3.63,-3.63,-3.56,-3.24,2.46,2.43,2.44
93.51,5.98,3.59,6.04,3.65,-3.65,-3.60,-3.29,2.33,2.39,2.39
94.44,5.94,3.58,6.02,3.68,-3.68,-3.64,-3.34,2.26,2.34,2.36
95.39,5.94,3.64,6.00,3.70,-3.70,-3.68,-3.39,2.24,2.30,2.30
96.34,5.94,3.69,5.98,3.73,-3.73,-3.71,-3.44,2.21,2.25,2.25
97.30,5.94,3.73,5.97,3.77,-3.77,-3.75,-3.50,2.17,2.21,2.21
98.28,5.94,3.79,5.96,3.80,-3.80,-3.79,-3.55,2.14,2.16,2.15
99.26,5.94,3.83,5.95,3.83,-3.83,-3.83,-3.61,2.11,2.12,2.11
100.25,5.94,3.87,5.93,3.86,-3.86,-3.87,-3.67,2.08,2.08,2.07
101.25,5.94,3.91,5.92,3.88,-3.88,-3.90,-3.73,2.05,2.04,2.03
102.27,5.94,3.95,5.91,3.91,-3.91,-3.94,-3.79,2.03,2.00,1.99
103.29,5.94,3.98,5.90,3.94,-3.94,-3.98,-3.86,2.00,1.96,1.96
104.32,5.94,4.01,5.89,3.96,-3.96,-4.01,-3.92,1.98,1.93,1.93
105.37,5.94,4.05,5.87,3.98,-3.98,-4.05,-3.98,1.96,1.89,1.89
106.42,5.94,4.08,5.85,3.99,-3.99,-4.08,-4.05,1.95,1.86,1.86
107.48,5.84,4.02,5.83,4.00,-4.00,-4.11,-4.11,1.84,1.83,1.81
108.56,5.72,3.92,5.82,4.02,-4.02,-4.15,-4.17,1.69,1.79,1.80
109.64,5.71,3.95,5.80,4.04,-4.04,-4.18,-4.23,1.67,1.76,1.76
110.74,5.71,3.98,5.78,4.05,-4.05,-4.21,-4.29,1.65,1.73,1.73
111.85,5.71,4.01,5.76,4.07,-4.07,-4.24,-4.35,1.64,1.69,1.69
112.97,5.71,4.04,5.73,4.08,-4.08,-4.27,-4.41,1.63,1.65,1.67
114.10,5.71,4.08,5.70,4.08,-4.08,-4.30,-4.46,1.62,1.62,1.63
115.24,5.71,4.12,5.68,4.10,-4.10,-4.33,-4.51,1.61,1.58,1.58
116.39,5.71,4.17,5.65,4.11,-4.11,-4.36,-4.55,1.60,1.54,1.54
117.55,5.71,4.21,5.63,4.13,-4.13,-4.39,-4.59,1.58,1.50,1.50
118.73,5.71,4.25,5.62,4.16,-4.16,-4.41,-4.63,1.55,1.47,1.46
119.92,5.70,4.29,5.61,4.19,-4.19,-4.44,-4.66,1.51,1.42,1.41
121.12,5.48,4.09,5.60,4.22,-4.22,-4.46,-4.69,1.26,1.38,1.39
122.33,5.48,4.14,5.57,4.23,-4.23,-4.49,-4.72,1.25,1.34,1.34
123.55,5.48,4.18,5.54,4.25,-4.25,-4.51,-4.73,1.23,1.30,1.30
124.79,5.48,4.22,5.51,4.26,-4.26,-4.53,-4.75,1.22,1.25,1.26
126.03,5.48,4.26,5.48,4.27,-4.27,-4.55,-4.75,1.21,1.21,1.22
127.29,5.48,4.31,5.45,4.28,-4.28,-4.57,-4.76,1.19,1.17,1.17
128.57,5.48,4.35,5.42,4.30,-4.30,-4.59,-4.75,1.18,1.12,1.13
129.85,5.48,4.40,5.40,4.32,-4.32,-4.61,-4.75,1.16,1.08,1.08
131.15,5.43,4.39,5.37,4.33,-4.33,-4.62,-4.73,1.09,1.04,1.04
132.46,5.30,4.31,5.34,4.35,-4.35,-4.64,-4.72,0.95,1.00,0.99
133.79,5.25,4.30,5.32,4.36,-4.36,-4.65,-4.69,0.89,0.96,0.95
135.12,5.25,4.34,5.30,4.39,-4.39,-4.66,-4.67,0.86,0.92,0.91
136.48,5.25,4.37,5.27,4.40,-4.40,-4.68,-4.64,0.85,0.88,0.88
137.84,5.25,4.40,5.24,4.40,-4.40,-4.69,-4.61,0.85,0.84,0.84
139.22,5.25,4.45,5.21,4.40,-4.40,-4.70,-4.57,0.85,0.80,0.80
140.61,5.25,4.48,5.17,4.40,-4.40,-4.70,-4.53,0.85,0.77,0.77
142.02,5.14,4.40,5.13,4.39,-4.39,-4.71,-4.50,0.75,0.74,0.73
143.44,5.06,4.36,5.09,4.38,-4.38,-4.72,-4.45,0.67,0.71,0.70
144.87,5.03,4.35,5.05,4.38,-4.38,-4.72,-4.41,0.65,0.67,0.68
146.32,5.03,4.38,5.03,4.38,-4.38,-4.72,-4.37,0.64,0.64,0.65
147.78,5.03,4.42,5.01,4.39,-4.39,-4.72,-4.33,0.64,0.61,0.61
149.26,5.03,4.44,4.97,4.39,-4.39,-4.73,-4.29,0.64,0.58,0.58
150.75,4.92,4.37,4.94,4.38,-4.38,-4.72,-4.24,0.54,0.55,0.55
152.26,4.83,4.30,4.90,4.37,-4.37,-4.72,-4.20,0.46,0.52,0.53
153.78,4.80,4.30,4.86,4.36,-4.36,-4.72,-4.16,0.43,0.49,0.49
155.32,4.80,4.33,4.83,4.36,-4.36,-4.72,-4.12,0.43,0.46,0.47
156.88,4.80,4.36,4.80,4.37,-4.37,-4.71,-4.09,0.43,0.43,0.43
158.44,4.80,4.40,4.78,4.37,-4.37,-4.70,-4.05,0.42,0.40,0.40
160.03,4.80,4.43,4.74,4.37,-4.37,-4.70,-4.02,0.42,0.37,0.37
161.63,4.80,4.46,4.70,4.37,-4.37,-4.69,-3.99,0.43,0.34,0.34
163.24,4.66,4.36,4.66,4.36,-4.36,-4.68,-3.96,0.30,0.30,0.30
164.88,4.57,4.30,4.63,4.36,-4.36,-4.66,-3.93,0.21,0.27,0.27
166.53,4.57,4.34,4.60,4.37,-4.37,-4.65,-3.91,0.20,0.24,0.23
168.19,4.57,4.36,4.58,4.37,-4.37,-4.64,-3.89,0.20,0.20,0.21
169.87,4.57,4.40,4.54,4.37,-4.37,-4.62,-3.87,0.20,0.17,0.17
171.57,4.57,4.43,4.50,4.37,-4.37,-4.61,-3.85,0.20,0.13,0.13
173.29,4.43,4.33,4.45,4.36,-4.36,-4.59,-3.84,0.07,0.09,0.10
175.02,4.34,4.28,4.41,4.35,-4.35,-4.57,-3.83,-0.02,0.06,0.06
176.77,4.34,4.32,4.37,4.36,-4.36,-4.55,-3.83,-0.02,0.02,0.02
178.54,4.34,4.35,4.34,4.36,-4.36,-4.53,-3.82,-0.02,-0.02,-0.02
180.32,4.34,4.40,4.30,4.36,-4.36,-4.51,-3.82,-0.02,-0.06,-0.06
182.13,4.34,4.44,4.27,4.37,-4.37,-4.49,-3.83,-0.03,-0.10,-0.10
183.95,4.25,4.38,4.24,4.37,-4.37,-4.47,-3.83,-0.12,-0.14,-0.13
185.79,4.12,4.30,4.20,4.37,-4.37,-4.44,-3.84,-0.25,-0.18,-0.18
187.65,4.11,4.32,4.16,4.37,-4.37,-4.42,-3.85,-0.26,-0.21,-0.21
189.52,4.11,4.36,4.11,4.36,-4.36,-4.39,-3.86,-0.25,-0.25,-0.25
191.42,4.11,4.39,4.07,4.36,-4.36,-4.36,-3.88,-0.25,-0.29,-0.28
193.33,4.11,4.43,4.03,4.35,-4.35,-4.34,-3.90,-0.24,-0.32,-0.32
195.27,4.01,4.37,3.99,4.35,-4.35,-4.31,-3.92,-0.34,-0.36,-0.36
197.22,3.91,4.31,3.95,4.34,-4.34,-4.28,-3.94,-0.43,-0.39,-0.40
199.19,3.89,4.31,3.90,4.32,-4.32,-4.25,-3.97,-0.43,-0.42,-0.42
201.18,3.89,4.35,3.85,4.30,-4.30,-4.22,-4.00,-0.42,-0.45,-0.46
203.19,3.84,4.32,3.81,4.29,-4.29,-4.19,-4.03,-0.45,-0.48,-0.49
205.23,3.72,4.22,3.77,4.28,-4.28,-4.16,-4.06,-0.56,-0.51,-0.50
207.28,3.66,4.18,3.74,4.27,-4.27,-4.12,-4.09,-0.61,-0.53,-0.53
209.35,3.66,4.22,3.69,4.25,-4.25,-4.09,-4.12,-0.59,-0.56,-0.56
211.44,3.66,4.24,3.64,4.23,-4.23,-4.06,-4.15,-0.57,-0.59,-0.58
213.56,3.66,4.26,3.59,4.20,-4.20,-4.02,-4.18,-0.55,-0.61,-0.61
215.69,3.66,4.29,3.55,4.18,-4.18,-3.99,-4.22,-0.53,-0.64,-0.63
217.85,3.45,4.10,3.51,4.17,-4.17,-3.95,-4.25,-0.72,-0.66,-0.65
220.03,3.43,4.11,3.47,4.16,-4.16,-3.92,-4.28,-0.73,-0.68,-0.68
222.23,3.43,4.14,3.44,4.14,-4.14,-3.88,-4.31,-0.72,-0.71,-0.72
224.45,3.43,4.16,3.40,4.13,-4.13,-3.84,-4.33,-0.70,-0.73,-0.74
226.70,3.43,4.19,3.36,4.12,-4.12,-3.81,-4.36,-0.69,-0.75,-0.76
228.96,3.27,4.05,3.32,4.10,-4.10,-3.77,-4.38,-0.83,-0.78,-0.78
231.25,3.22,4.02,3.28,4.08,-4.08,-3.73,-4.40,-0.86,-0.80,-0.80
233.57,3.20,4.02,3.24,4.05,-4.05,-3.69,-4.41,-0.85,-0.82,-0.82
235.90,3.20,4.03,3.19,4.03,-4.03,-3.66,-4.43,-0.83,-0.84,-0.84
238.26,3.20,4.06,3.17,4.02,-4.02,-3.62,-4.43,-0.82,-0.85,-0.86
240.64,3.20,4.06,3.14,4.01,-4.01,-3.58,-4.44,-0.81,-0.87,-0.86
243.05,3.20,4.08,3.12,4.00,-4.00,-3.54,-4.43,-0.80,-0.89,-0.88
245.48,3.04,3.94,3.08,3.98,-3.98,-3.50,-4.43,-0.94,-0.90,-0.90
247.93,2.97,3.89,3.05,3.96,-3.96,-3.46,-4.41,-0.99,-0.91,-0.92
250.41,2.97,3.88,3.01,3.93,-3.93,-3.42,-4.40,-0.97,-0.92,-0.91
252.92,2.97,3.90,2.99,3.92,-3.92,-3.38,-4.37,-0.95,-0.93,-0.93
255.45,2.97,3.92,2.97,3.91,-3.91,-3.34,-4.35,-0.95,-0.94,-0.95
258.00,2.97,3.92,2.94,3.89,-3.89,-3.30,-4.31,-0.93,-0.95,-0.96
260.58,2.97,3.93,2.90,3.87,-3.87,-3.26,-4.28,-0.90,-0.96,-0.96
263.19,2.96,3.93,2.87,3.84,-3.84,-3.22,-4.23,-0.88,-0.97,-0.97
265.82,2.77,3.74,2.84,3.82,-3.82,-3.18,-4.18,-1.05,-0.97,-0.97
268.48,2.75,3.73,2.81,3.79,-3.79,-3.14,-4.13,-1.04,-0.98,-0.98
271.16,2.75,3.72,2.77,3.76,-3.76,-3.10,-4.08,-1.01,-0.98,-0.98
273.87,2.75,3.73,2.74,3.73,-3.73,-3.06,-4.02,-0.98,-0.99,-0.98
276.61,2.75,3.73,2.70,3.69,-3.69,-3.02,-3.95,-0.94,-0.99,-0.99
279.38,2.75,3.75,2.66,3.65,-3.65,-2.98,-3.89,-0.90,-0.99,-1.00
282.17,2.58,3.57,2.61,3.60,-3.60,-2.94,-3.82,-1.02,-0.99,-1.00
284.99,2.52,3.51,2.56,3.55,-3.55,-2.90,-3.75,-1.03,-0.99,-0.99
287.84,2.52,3.50,2.51,3.50,-3.50,-2.86,-3.68,-0.98,-0.99,-0.98
290.72,2.52,3.51,2.46,3.44,-3.44,-2.82,-3.60,-0.92,-0.98,-0.99
293.63,2.41,3.39,2.41,3.40,-3.40,-2.79,-3.53,-0.99,-0.98,-0.98
296.57,2.30,3.27,2.38,3.36,-3.36,-2.75,-3.45,-1.06,-0.98,-0.98
299.53,2.29,3.27,2.33,3.31,-3.31,-2.71,-3.37,-1.02,-0.98,-0.98
302.53,2.29,3.25,2.28,3.25,-3.25,-2.67,-3.30,-0.97,-0.97,-0.96
305.55,2.29,3.26,2.23,3.20,-3.20,-2.63,-3.22,-0.91,-0.97,-0.97
308.61,2.23,3.19,2.19,3.16,-3.16,-2.59,-3.14,-0.93,-0.97,-0.96
311.69,2.08,3.04,2.16,3.12,-3.12,-2.55,-3.07,-1.04,-0.96,-0.96
314.81,2.06,3.01,2.12,3.08,-3.08,-2.51,-2.99,-1.02,-0.96,-0.96
317.96,2.06,3.02,2.08,3.03,-3.03,-2.47,-2.92,-0.97,-0.95,-0.96
321.14,2.06,3.01,2.03,2.98,-2.98,-2.44,-2.84,-0.92,-0.95,-0.95
324.35,2.06,3.01,1.98,2.93,-2.93,-2.40,-2.77,-0.87,-0.94,-0.95
327.59,2.03,2.96,1.95,2.89,-2.89,-2.36,-2.70,-0.86,-0.94,-0.93
330.87,1.89,2.82,1.91,2.84,-2.84,-2.32,-2.63,-0.95,-0.93,-0.93
334.18,1.84,2.77,1.87,2.79,-2.79,-2.29,-2.56,-0.95,-0.93,-0.93
337.52,1.84,2.76,1.82,2.74,-2.74,-2.25,-2.50,-0.90,-0.92,-0.92
340.90,1.83,2.74,1.77,2.68,-2.68,-2.21,-2.43,-0.85,-0.91,-0.91
344.30,1.66,2.56,1.73,2.63,-2.63,-2.17,-2.37,-0.97,-0.90,-0.90
347.75,1.61,2.50,1.68,2.58,-2.58,-2.14,-2.31,-0.97,-0.89,-0.89
351.23,1.61,2.50,1.63,2.52,-2.52,-2.10,-2.25,-0.91,-0.88,-0.89
354.74,1.61,2.47,1.59,2.46,-2.46,-2.07,-2.19,-0.85,-0.87,-0.87
358.28,1.61,2.48,1.55,2.41,-2.41,-2.03,-2.13,-0.80,-0.87,-0.87
361.87,1.61,2.47,1.52,2.38,-2.38,-1.99,-2.08,-0.77,-0.86,-0.86
365.49,1.44,2.29,1.49,2.34,-2.34,-1.96,-2.03,-0.91,-0.85,-0.85
369.14,1.39,2.23,1.47,2.31,-2.31,-1.92,-1.98,-0.93,-0.85,-0.84
372.83,1.38,2.21,1.44,2.28,-2.28,-1.89,-1.93,-0.90,-0.84,-0.83
376.56,1.38,2.21,1.41,2.25,-2.25,-1.85,-1.88,-0.87,-0.83,-0.83
380.33,1.38,2.20,1.39,2.22,-2.22,-1.82,-1.83,-0.84,-0.83,-0.83
384.13,1.38,2.20,1.37,2.20,-2.20,-1.78,-1.79,-0.82,-0.82,-0.82
387.97,1.38,2.20,1.35,2.17,-2.17,-1.75,-1.74,-0.79,-0.82,-0.82
391.85,1.38,2.19,1.32,2.14,-2.14,-1.72,-1.70,-0.76,-0.81,-0.81
395.77,1.38,2.20,1.29,2.10,-2.10,-1.68,-1.66,-0.72,-0.81,-0.82
399.73,1.32,2.13,1.26,2.06,-2.06,-1.65,-1.62,-0.75,-0.80,-0.81
403.72,1.19,1.98,1.23,2.03,-2.03,-1.62,-1.58,-0.84,-0.80,-0.79
407.76,1.15,1.94,1.21,2.00,-2.00,-1.58,-1.55,-0.85,-0.79,-0.80
411.84,1.15,1.92,1.19,1.96,-1.96,-1.55,-1.51,-0.82,-0.78,-0.78
415.96,1.15,1.92,1.15,1.92,-1.92,-1.52,-1.48,-0.77,-0.77,-0.77
420.12,1.15,1.92,1.11,1.87,-1.87,-1.48,-1.44,-0.72,-0.76,-0.77
424.32,1.13,1.88,1.06,1.81,-1.81,-1.45,-1.41,-0.68,-0.75,-0.75
428.56,0.98,1.71,1.02,1.75,-1.75,-1.42,-1.38,-0.78,-0.74,-0.73
432.85,0.92,1.64,0.98,1.71,-1.71,-1.39,-1.35,-0.79,-0.72,-0.72
437.18,0.92,1.63,0.95,1.66,-1.66,-1.36,-1.31,-0.74,-0.71,-0.71
441.55,0.92,1.62,0.91,1.61,-1.61,-1.32,-1.28,-0.69,-0.70,-0.70
445.96,0.92,1.60,0.88,1.56,-1.56,-1.29,-1.25,-0.64,-0.68,-0.68
450.42,0.92,1.59,0.84,1.51,-1.51,-1.26,-1.22,-0.59,-0.67,-0.67
454.93,0.75,1.40,0.80,1.45,-1.45,-1.23,-1.19,-0.70,-0.66,-0.65
459.48,0.70,1.34,0.75,1.39,-1.39,-1.20,-1.17,-0.69,-0.64,-0.65
464.07,0.70,1.32,0.71,1.34,-1.34,-1.17,-1.14,-0.64,-0.63,-0.63
468.71,0.70,1.30,0.68,1.29,-1.29,-1.14,-1.11,-0.59,-0.61,-0.61
473.40,0.70,1.30,0.65,1.25,-1.25,-1.10,-1.08,-0.55,-0.60,-0.60
478.13,0.70,1.28,0.62,1.21,-1.21,-1.07,-1.05,-0.51,-0.58,-0.58
482.91,0.52,1.09,0.59,1.15,-1.15,-1.04,-1.02,-0.63,-0.56,-0.57
487.74,0.47,1.02,0.55,1.09,-1.09,-1.01,-0.99,-0.63,-0.55,-0.55
492.62,0.47,1.00,0.51,1.04,-1.04,-0.98,-0.96,-0.57,-0.53,-0.53
497.55,0.47,0.99,0.48,0.99,-0.99,-0.95,-0.93,-0.53,-0.51,-0.52
502.52,0.47,0.97,0.46,0.95,-0.95,-0.92,-0.90,-0.48,-0.49,-0.50
507.55,0.47,0.94,0.43,0.91,-0.91,-0.89,-0.87,-0.44,-0.47,-0.47
512.62,0.47,0.92,0.40,0.85,-0.85,-0.85,-0.84,-0.38,-0.45,-0.45
517.75,0.43,0.85,0.36,0.79,-0.79,-0.82,-0.80,-0.36,-0.43,-0.42
522.93,0.28,0.68,0.32,0.73,-0.73,-0.79,-0.77,-0.45,-0.41,-0.40
