frequency,raw
20.00,2.05
20.20,2.06
20.40,2.07
20.61,2.09
20.81,2.10
21.02,2.12
21.23,2.13
21.44,2.14
21.66,2.15
21.87,2.16
22.09,2.17
22.31,2.18
22.54,2.20
22.76,2.21
22.99,2.22
23.22,2.21
23.45,2.20
23.69,2.19
23.92,2.16
24.16,2.14
24.40,2.12
24.65,2.11
24.89,2.11
25.14,2.12
25.39,2.13
25.65,2.14
25.91,2.15
26.16,2.16
26.43,2.16
26.69,2.16
26.96,2.18
27.23,2.20
27.50,2.24
27.77,2.29
28.05,2.33
28.33,2.36
28.62,2.38
28.90,2.36
29.19,2.34
29.48,2.30
29.78,2.28
30.08,2.28
30.38,2.31
30.68,2.35
30.99,2.41
31.30,2.46
31.61,2.50
31.93,2.54
32.24,2.56
32.57,2.59
32.89,2.61
33.22,2.63
33.55,2.64
33.89,2.65
34.23,2.65
34.57,2.66
34.92,2.67
35.27,2.70
35.62,2.72
35.97,2.75
36.33,2.77
36.70,2.80
37.06,2.83
37.43,2.87
37.81,2.89
38.19,2.92
38.57,2.93
38.95,2.93
39.34,2.93
39.74,2.92
40.14,2.91
40.54,2.90
40.94,2.88
41.35,2.86
41.76,2.84
42.18,2.83
42.60,2.81
43.03,2.80
43.46,2.79
43.90,2.79
44.33,2.79
44.78,2.81
45.23,2.85
45.68,2.89
46.13,2.92
46.60,2.93
47.06,2.95
47.53,2.99
48.01,3.08
48.49,3.17
48.97,3.22
49.46,3.25
49.96,3.24
50.46,3.28
50.96,3.33
51.47,3.39
51.99,3.41
52.51,3.41
53.03,3.41
53.56,3.41
54.10,3.41
54.64,3.41
55.18,3.41
55.74,3.41
56.29,3.41
56.86,3.41
57.42,3.42
58.00,3.43
58.58,3.43
59.16,3.43
59.76,3.45
60.35,3.46
60.96,3.47
61.57,3.48
62.18,3.48
62.80,3.49
63.43,3.49
64.07,3.50
64.71,3.50
65.35,3.50
66.01,3.50
66.67,3.49
67.33,3.48
68.01,3.46
68.69,3.46
69.37,3.46
70.07,3.48
70.77,3.50
71.48,3.50
72.19,3.49
72.91,3.48
73.64,3.53
74.38,3.55
75.12,3.55
75.87,3.54
76.63,3.53
77.40,3.51
78.17,3.50
78.95,3.48
79.74,3.46
80.54,3.47
81.35,3.51
82.16,3.51
82.98,3.51
83.81,3.51
84.65,3.51
85.50,3.51
86.35,3.51
87.22,3.51
88.09,3.52
88.97,3.52
89.86,3.52
90.76,3.52
91.66,3.54
92.58,3.56
93.51,3.58
94.44,3.60
95.39,3.61
96.34,3.64
97.30,3.64
98.28,3.63
99.26,3.63
100.25,3.62
101.25,3.64
102.27,3.64
103.29,3.65
104.32,3.66
105.37,3.68
106.42,3.69
107.48,3.71
108.56,3.73
109.64,3.75
110.74,3.77
111.85,3.80
112.97,3.81
114.10,3.82
115.24,3.83
116.39,3.84
117.55,3.85
118.73,3.87
119.92,3.89
121.12,3.91
122.33,3.93
123.55,3.94
124.79,3.95
126.03,3.96
127.29,3.98
128.57,4.00
129.85,4.02
131.15,4.03
132.46,4.06
133.79,4.08
135.12,4.11
136.48,4.13
137.84,4.15
139.22,4.17
140.61,4.19
142.02,4.21
143.44,4.24
144.87,4.26
146.32,4.29
147.78,4.31
149.26,4.34
150.75,4.37
152.26,4.40
153.78,4.42
155.32,4.44
156.88,4.46
158.44,4.49
160.03,4.51
161.63,4.54
163.24,4.56
164.88,4.58
166.53,4.60
168.19,4.63
169.87,4.65
171.57,4.67
173.29,4.69
175.02,4.70
176.77,4.71
178.54,4.72
180.32,4.74
182.13,4.76
183.95,4.77
185.79,4.77
187.65,4.77
189.52,4.77
191.42,4.76
193.33,4.75
195.27,4.73
197.22,4.71
199.19,4.68
201.18,4.65
203.19,4.61
205.23,4.56
207.28,4.50
209.35,4.44
211.44,4.38
213.56,4.31
215.69,4.23
217.85,4.15
220.03,4.06
222.23,3.96
224.45,3.87
226.70,3.77
228.96,3.66
231.25,3.54
233.57,3.43
235.90,3.31
238.26,3.19
240.64,3.08
243.05,2.96
245.48,2.85
247.93,2.75
250.41,2.65
252.92,2.57
255.45,2.50
258.00,2.44
260.58,2.39
263.19,2.35
265.82,2.32
268.48,2.31
271.16,2.31
273.87,2.32
276.61,2.34
279.38,2.38
282.17,2.42
284.99,2.46
287.84,2.52
290.72,2.57
293.63,2.63
296.57,2.69
299.53,2.74
302.53,2.80
305.55,2.85
308.61,2.90
311.69,2.94
314.81,2.98
317.96,3.00
321.14,3.02
324.35,3.02
327.59,3.01
330.87,3.00
334.18,2.98
337.52,2.96
340.90,2.95
344.30,2.93
347.75,2.91
351.23,2.90
354.74,2.89
358.28,2.89
361.87,2.89
365.49,2.90
369.14,2.90
372.83,2.91
376.56,2.92
380.33,2.94
384.13,2.95
387.97,2.96
391.85,2.97
395.77,2.98
399.73,2.98
403.72,2.98
407.76,2.97
411.84,2.95
415.96,2.92
420.12,2.88
424.32,2.83
428.56,2.78
432.85,2.72
437.18,2.65
441.55,2.57
445.96,2.49
450.42,2.41
454.93,2.33
459.48,2.25
464.07,2.18
468.71,2.12
473.40,2.05
478.13,1.99
482.91,1.92
487.74,1.84
492.62,1.76
497.55,1.66
502.52,1.54
507.55,1.41
512.62,1.26
517.75,1.10
522.93,0.95
528.16,0.79
533.44,0.65
538.77,0.53
544.16,0.45
549.60,0.42
555.10,0.43
560.65,0.46
566.25,0.51
571.92,0.57
577.64,0.64
583.41,0.71
589.25,0.78
595.14,0.84
601.09,0.89
607.10,0.91
613.17,0.93
619.30,0.94
625.50,0.96
631.75,0.98
638.07,1.01
644.45,1.05
650.89,1.10
657.40,1.14
663.98,1.18
670.62,1.23
677.32,1.28
684.10,1.32
690.94,1.35
697.85,1.38
704.83,1.41
711.87,1.44
718.99,1.49
726.18,1.52
733.44,1.55
740.78,1.57
748.19,1.58
755.67,1.58
763.23,1.57
770.86,1.53
778.57,1.48
786.35,1.44
794.22,1.40
802.16,1.35
810.18,1.30
818.28,1.22
826.46,1.13
834.73,1.01
843.08,0.89
851.51,0.75
860.02,0.60
868.62,0.44
877.31,0.27
886.08,0.12
894.94,-0.03
903.89,-0.14
912.93,-0.22
922.06,-0.26
931.28,-0.30
940.59,-0.34
950.00,-0.36
959.50,-0.34
969.09,-0.30
978.78,-0.23
988.57,-0.13
998.46,-0.02
1008.44,0.09
1018.53,0.19
1028.71,0.28
1039.00,0.35
1049.39,0.41
1059.88,0.46
1070.48,0.50
1081.19,0.55
1092.00,0.60
1102.92,0.67
1113.95,0.73
1125.09,0.79
1136.34,0.83
1147.70,0.88
1159.18,0.94
1170.77,1.00
1182.48,1.02
1194.30,1.01
1206.25,1.00
1218.31,1.00
1230.49,0.99
1242.80,0.97
1255.22,0.90
1267.78,0.80
1280.45,0.71
1293.26,0.62
1306.19,0.52
1319.25,0.44
1332.45,0.42
1345.77,0.44
1359.23,0.50
1372.82,0.59
1386.55,0.68
1400.41,0.76
1414.42,0.81
1428.56,0.86
1442.85,0.87
1457.28,0.91
1471.85,0.97
1486.57,1.04
1501.43,1.11
1516.45,1.14
1531.61,1.18
1546.93,1.24
1562.40,1.31
1578.02,1.38
1593.80,1.46
1609.74,1.54
1625.84,1.63
1642.10,1.72
1658.52,1.80
1675.10,1.85
1691.85,1.90
1708.77,1.96
1725.86,2.04
1743.12,2.10
1760.55,2.17
1778.15,2.26
1795.94,2.37
1813.90,2.47
1832.03,2.58
1850.36,2.72
1868.86,2.85
1887.55,2.96
1906.42,3.05
1925.49,3.14
1944.74,3.27
1964.19,3.43
1983.83,3.57
2003.67,3.70
2023.71,3.82
2043.94,3.95
2064.38,4.07
2085.03,4.19
2105.88,4.32
2126.94,4.47
2148.20,4.63
2169.69,4.80
2191.38,4.93
2213.30,5.04
2235.43,5.15
2257.78,5.30
2280.36,5.45
2303.17,5.62
2326.20,5.84
2349.46,6.09
2372.95,6.31
2396.68,6.50
2420.65,6.73
2444.86,6.97
2469.31,7.22
2494.00,7.40
2518.94,7.52
2544.13,7.63
2569.57,7.74
2595.27,7.89
2621.22,8.06
2647.43,8.27
2673.90,8.47
2700.64,8.66
2727.65,8.81
2754.93,8.93
2782.48,9.04
2810.30,9.16
2838.40,9.30
2866.79,9.40
2895.46,9.48
2924.41,9.65
2953.65,9.84
2983.19,10.08
3013.02,10.28
3043.15,10.41
3073.58,10.49
3104.32,10.60
3135.36,10.78
3166.72,10.87
3198.38,10.88
3230.37,10.84
3262.67,10.81
3295.30,10.77
3328.25,10.69
3361.53,10.58
3395.15,10.44
3429.10,10.45
3463.39,10.48
3498.03,10.50
3533.01,10.44
3568.34,10.34
3604.02,10.21
3640.06,10.02
3676.46,9.78
3713.22,9.55
3750.36,9.35
3787.86,9.22
3825.74,9.08
3864.00,8.92
3902.64,8.74
3941.66,8.56
3981.08,8.33
4020.89,8.10
4061.10,7.88
4101.71,7.67
4142.73,7.46
4184.15,7.28
4226.00,7.18
4268.26,7.08
4310.94,6.98
4354.05,6.85
4397.59,6.68
4441.56,6.50
4485.98,6.33
4530.84,6.21
4576.15,6.14
4621.91,6.09
4668.13,6.13
4714.81,6.17
4761.96,6.20
4809.58,6.23
4857.67,6.26
4906.25,6.30
4955.31,6.36
5004.87,6.45
5054.91,6.52
5105.46,6.55
5156.52,6.54
5208.08,6.44
5260.16,6.29
5312.77,6.11
5365.89,5.94
5419.55,5.80
5473.75,5.68
5528.49,5.58
5583.77,5.47
5639.61,5.42
5696.00,5.39
5752.96,5.35
5810.49,5.30
5868.60,5.24
5927.28,5.21
5986.56,5.23
6046.42,5.23
6106.89,5.20
6167.96,5.10
6229.64,4.94
6291.93,4.78
6354.85,4.70
6418.40,4.64
6482.58,4.60
6547.41,4.52
6612.88,4.42
6679.01,4.26
6745.80,4.16
6813.26,4.12
6881.39,4.19
6950.21,4.26
7019.71,4.34
7089.91,4.40
7160.81,4.59
7232.41,4.86
7304.74,5.23
7377.79,5.60
7451.56,6.04
7526.08,6.53
7601.34,7.07
7677.35,7.60
7754.13,8.12
7831.67,8.45
7909.98,8.67
7989.08,8.73
8068.98,8.67
8149.67,8.54
8231.16,8.31
8313.47,8.01
8396.61,7.69
8480.57,7.40
8565.38,7.15
8651.03,6.91
8737.54,6.70
8824.92,6.57
8913.17,6.52
9002.30,6.48
9092.32,6.42
9183.25,6.33
9275.08,6.17
9367.83,5.93
9461.51,5.53
9556.12,5.02
9651.68,4.45
9748.20,3.87
9845.68,3.51
9944.14,3.47
10043.58,3.87
10144.02,4.62
10245.46,5.74
10347.91,6.81
10451.39,7.71
10555.91,8.00
10661.46,7.84
10768.08,7.25
10875.76,6.12
10984.52,4.70
11094.36,3.13
11205.31,1.39
11317.36,-0.42
11430.53,-2.23
11544.84,-3.73
11660.29,-4.74
11776.89,-5.26
11894.66,-4.69
12013.60,-3.97
12133.74,-3.30
12255.08,-2.89
12377.63,-2.75
12501.41,-2.75
12626.42,-2.70
12752.68,-2.36
12880.21,-1.58
13009.01,-0.58
13139.10,0.41
13270.49,1.52
13403.20,2.58
13537.23,3.28
13672.60,3.65
13809.33,3.68
13947.42,3.07
14086.90,2.50
14227.77,1.95
14370.04,1.73
14513.74,1.88
14658.88,2.19
14805.47,2.51
14953.52,2.85
15103.06,3.10
15254.09,3.30
15406.63,3.28
15560.70,3.28
15716.30,3.28
15873.47,3.46
16032.20,3.58
16192.52,3.32
16354.45,2.49
16517.99,1.23
16683.17,-1.02
16850.01,-3.45
17018.51,-5.92
17188.69,-7.57
17360.58,-9.52
17534.18,-11.64
17709.53,-13.69
17886.62,-13.70
18065.49,-12.61
18246.14,-10.67
18428.60,-8.38
18612.89,-6.69
18799.02,-5.74
18987.01,-5.74
19176.88,-6.05
19368.65,-6.34
19562.33,-6.78
19757.96,-7.64
19955.54,-9.31
