frequency,raw
20.00,-8.39
20.20,-8.18
20.40,-7.97
20.61,-7.76
20.81,-7.55
21.02,-7.37
21.23,-7.23
21.44,-7.13
21.66,-7.07
21.87,-7.00
22.09,-6.94
22.31,-6.87
22.54,-6.78
22.76,-6.68
22.99,-6.59
23.22,-6.53
23.45,-6.50
23.69,-6.48
23.92,-6.49
24.16,-6.50
24.40,-6.48
24.65,-6.44
24.89,-6.37
25.14,-6.27
25.39,-6.17
25.65,-6.09
25.91,-6.02
26.16,-5.97
26.43,-5.94
26.69,-5.91
26.96,-5.87
27.23,-5.82
27.50,-5.76
27.77,-5.69
28.05,-5.63
28.33,-5.57
28.62,-5.51
28.90,-5.46
29.19,-5.43
29.48,-5.40
29.78,-5.36
30.08,-5.33
30.38,-5.28
30.68,-5.22
30.99,-5.14
31.30,-5.05
31.61,-4.96
31.93,-4.88
32.24,-4.83
32.57,-4.80
32.89,-4.78
33.22,-4.75
33.55,-4.72
33.89,-4.66
34.23,-4.59
34.57,-4.52
34.92,-4.47
35.27,-4.43
35.62,-4.40
35.97,-4.37
36.33,-4.33
36.70,-4.29
37.06,-4.25
37.43,-4.21
37.81,-4.19
38.19,-4.18
38.57,-4.15
38.95,-4.12
39.34,-4.07
39.74,-4.03
40.14,-3.99
40.54,-3.97
40.94,-3.95
41.35,-3.93
41.76,-3.90
42.18,-3.86
42.60,-3.83
43.03,-3.82
43.46,-3.82
43.90,-3.82
44.33,-3.83
44.78,-3.84
45.23,-3.85
45.68,-3.86
46.13,-3.87
46.60,-3.90
47.06,-3.95
47.53,-4.02
48.01,-4.11
48.49,-4.18
48.97,-4.20
49.46,-4.20
49.96,-4.16
50.46,-4.13
50.96,-4.10
51.47,-4.09
51.99,-4.07
52.51,-4.01
53.03,-3.94
53.56,-3.84
54.10,-3.76
54.64,-3.69
55.18,-3.63
55.74,-3.56
56.29,-3.52
56.86,-3.50
57.42,-3.51
58.00,-3.54
58.58,-3.54
59.16,-3.52
59.76,-3.47
60.35,-3.40
60.96,-3.33
61.57,-3.27
62.18,-3.24
62.80,-3.24
63.43,-3.25
64.07,-3.27
64.71,-3.28
65.35,-3.33
66.01,-3.39
66.67,-3.47
67.33,-3.55
68.01,-3.61
68.69,-3.68
69.37,-3.71
70.07,-3.71
70.77,-3.72
71.48,-3.73
72.19,-3.73
72.91,-3.71
73.64,-3.67
74.38,-3.61
75.12,-3.53
75.87,-3.44
76.63,-3.35
77.40,-3.25
78.17,-3.20
78.95,-3.16
79.74,-3.11
80.54,-3.06
81.35,-3.01
82.16,-2.94
82.98,-2.90
83.81,-2.86
84.65,-2.83
85.50,-2.80
86.35,-2.78
87.22,-2.75
88.09,-2.76
88.97,-2.75
89.86,-2.71
90.76,-2.71
91.66,-2.73
92.58,-2.76
93.51,-2.77
94.44,-2.77
95.39,-2.77
96.34,-2.78
97.30,-2.75
98.28,-2.75
99.26,-2.75
100.25,-2.75
101.25,-2.75
102.27,-2.74
103.29,-2.74
104.32,-2.75
105.37,-2.77
106.42,-2.79
107.48,-2.79
108.56,-2.79
109.64,-2.80
110.74,-2.82
111.85,-2.84
112.97,-2.85
114.10,-2.87
115.24,-2.88
116.39,-2.89
117.55,-2.89
118.73,-2.90
119.92,-2.91
121.12,-2.93
122.33,-2.94
123.55,-2.95
124.79,-2.95
126.03,-2.97
127.29,-2.99
128.57,-3.00
129.85,-3.00
131.15,-3.01
132.46,-3.01
133.79,-3.00
135.12,-3.01
136.48,-3.03
137.84,-3.05
139.22,-3.07
140.61,-3.09
142.02,-3.10
143.44,-3.11
144.87,-3.12
146.32,-3.14
147.78,-3.15
149.26,-3.16
150.75,-3.18
152.26,-3.18
153.78,-3.19
155.32,-3.20
156.88,-3.22
158.44,-3.24
160.03,-3.25
161.63,-3.26
163.24,-3.27
164.88,-3.28
166.53,-3.29
168.19,-3.31
169.87,-3.32
171.57,-3.33
173.29,-3.34
175.02,-3.35
176.77,-3.37
178.54,-3.39
180.32,-3.41
182.13,-3.43
183.95,-3.45
185.79,-3.46
187.65,-3.48
189.52,-3.51
191.42,-3.53
193.33,-3.54
195.27,-3.56
197.22,-3.57
199.19,-3.58
201.18,-3.59
203.19,-3.60
205.23,-3.61
207.28,-3.62
209.35,-3.62
211.44,-3.63
213.56,-3.63
215.69,-3.63
217.85,-3.63
220.03,-3.63
222.23,-3.62
224.45,-3.62
226.70,-3.61
228.96,-3.60
231.25,-3.60
233.57,-3.59
235.90,-3.59
238.26,-3.58
240.64,-3.57
243.05,-3.56
245.48,-3.56
247.93,-3.56
250.41,-3.56
252.92,-3.57
255.45,-3.57
258.00,-3.58
260.58,-3.58
263.19,-3.59
265.82,-3.59
268.48,-3.58
271.16,-3.57
273.87,-3.56
276.61,-3.54
279.38,-3.53
282.17,-3.52
284.99,-3.51
287.84,-3.50
290.72,-3.49
293.63,-3.48
296.57,-3.47
299.53,-3.47
302.53,-3.46
305.55,-3.45
308.61,-3.45
311.69,-3.44
314.81,-3.44
317.96,-3.44
321.14,-3.44
324.35,-3.44
327.59,-3.44
330.87,-3.44
334.18,-3.44
337.52,-3.43
340.90,-3.42
344.30,-3.40
347.75,-3.38
351.23,-3.36
354.74,-3.34
358.28,-3.32
361.87,-3.31
365.49,-3.30
369.14,-3.29
372.83,-3.28
376.56,-3.28
380.33,-3.28
384.13,-3.27
387.97,-3.27
391.85,-3.27
395.77,-3.27
399.73,-3.27
403.72,-3.28
407.76,-3.28
411.84,-3.29
415.96,-3.29
420.12,-3.30
424.32,-3.30
428.56,-3.29
432.85,-3.29
437.18,-3.27
441.55,-3.25
445.96,-3.23
450.42,-3.20
454.93,-3.16
459.48,-3.12
464.07,-3.08
468.71,-3.04
473.40,-2.99
478.13,-2.95
482.91,-2.91
487.74,-2.86
492.62,-2.81
497.55,-2.77
502.52,-2.73
507.55,-2.69
512.62,-2.65
517.75,-2.60
522.93,-2.56
528.16,-2.52
533.44,-2.48
538.77,-2.43
544.16,-2.39
549.60,-2.34
555.10,-2.30
560.65,-2.26
566.25,-2.23
571.92,-2.19
577.64,-2.16
583.41,-2.12
589.25,-2.09
595.14,-2.05
601.09,-2.01
607.10,-1.97
613.17,-1.93
619.30,-1.88
625.50,-1.84
631.75,-1.80
638.07,-1.78
644.45,-1.75
650.89,-1.72
657.40,-1.69
663.98,-1.65
670.62,-1.60
677.32,-1.56
684.10,-1.51
690.94,-1.48
697.85,-1.46
704.83,-1.45
711.87,-1.46
718.99,-1.49
726.18,-1.52
733.44,-1.56
740.78,-1.59
748.19,-1.60
755.67,-1.59
763.23,-1.58
770.86,-1.56
778.57,-1.54
786.35,-1.51
794.22,-1.46
802.16,-1.41
810.18,-1.35
818.28,-1.29
826.46,-1.24
834.73,-1.19
843.08,-1.13
851.51,-1.06
860.02,-0.98
868.62,-0.90
877.31,-0.82
886.08,-0.75
894.94,-0.67
903.89,-0.60
912.93,-0.54
922.06,-0.47
931.28,-0.41
940.59,-0.35
950.00,-0.29
959.50,-0.23
969.09,-0.17
978.78,-0.11
988.57,-0.06
998.46,-0.01
1008.44,0.04
1018.53,0.09
1028.71,0.14
1039.00,0.20
1049.39,0.25
1059.88,0.30
1070.48,0.35
1081.19,0.40
1092.00,0.45
1102.92,0.51
1113.95,0.57
1125.09,0.63
1136.34,0.68
1147.70,0.73
1159.18,0.79
1170.77,0.84
1182.48,0.90
1194.30,0.96
1206.25,1.02
1218.31,1.08
1230.49,1.13
1242.80,1.18
1255.22,1.24
1267.78,1.31
1280.45,1.37
1293.26,1.43
1306.19,1.49
1319.25,1.55
1332.45,1.60
1345.77,1.65
1359.23,1.68
1372.82,1.72
1386.55,1.75
1400.41,1.79
1414.42,1.87
1428.56,1.94
1442.85,2.01
1457.28,2.08
1471.85,2.15
1486.57,2.22
1501.43,2.28
1516.45,2.31
1531.61,2.36
1546.93,2.42
1562.40,2.48
1578.02,2.54
1593.80,2.63
1609.74,2.73
1625.84,2.83
1642.10,2.89
1658.52,2.92
1675.10,2.94
1691.85,2.93
1708.77,2.96
1725.86,3.02
1743.12,3.13
1760.55,3.25
1778.15,3.38
1795.94,3.53
1813.90,3.64
1832.03,3.73
1850.36,3.79
1868.86,3.85
1887.55,3.92
1906.42,4.03
1925.49,4.17
1944.74,4.35
1964.19,4.54
1983.83,4.75
2003.67,4.96
2023.71,5.17
2043.94,5.36
2064.38,5.54
2085.03,5.68
2105.88,5.82
2126.94,5.97
2148.20,6.17
2169.69,6.38
2191.38,6.60
2213.30,6.79
2235.43,6.93
2257.78,7.05
2280.36,7.22
2303.17,7.46
2326.20,7.77
2349.46,8.01
2372.95,8.20
2396.68,8.35
2420.65,8.44
2444.86,8.50
2469.31,8.55
2494.00,8.63
2518.94,8.73
2544.13,8.85
2569.57,8.98
2595.27,9.09
2621.22,9.20
2647.43,9.28
2673.90,9.37
2700.64,9.45
2727.65,9.52
2754.93,9.60
2782.48,9.67
2810.30,9.73
2838.40,9.77
2866.79,9.81
2895.46,9.86
2924.41,9.92
2953.65,9.97
2983.19,9.96
3013.02,9.95
3043.15,9.94
3073.58,9.95
3104.32,9.97
3135.36,9.98
3166.72,9.97
3198.38,9.95
3230.37,9.92
3262.67,9.89
3295.30,9.84
3328.25,9.77
3361.53,9.69
3395.15,9.59
3429.10,9.45
3463.39,9.29
3498.03,9.11
3533.01,8.90
3568.34,8.68
3604.02,8.46
3640.06,8.27
3676.46,8.07
3713.22,7.89
3750.36,7.73
3787.86,7.71
3825.74,7.71
3864.00,7.83
3902.64,8.09
3941.66,8.37
3981.08,8.71
4020.89,9.05
4061.10,9.38
4101.71,9.70
4142.73,10.00
4184.15,10.27
4226.00,10.44
4268.26,10.55
4310.94,10.60
4354.05,10.53
4397.59,10.37
4441.56,10.16
4485.98,9.84
4530.84,9.49
4576.15,9.11
4621.91,8.72
4668.13,8.35
4714.81,8.02
4761.96,7.71
4809.58,7.42
4857.67,7.17
4906.25,6.95
4955.31,6.77
5004.87,6.62
5054.91,6.50
5105.46,6.41
5156.52,6.35
5208.08,6.34
5260.16,6.34
5312.77,6.37
5365.89,6.42
5419.55,6.49
5473.75,6.57
5528.49,6.67
5583.77,6.79
5639.61,6.90
5696.00,7.02
5752.96,7.08
5810.49,7.11
5868.60,7.07
5927.28,6.97
5986.56,6.80
6046.42,6.53
6106.89,6.19
6167.96,5.80
6229.64,5.36
6291.93,4.88
6354.85,4.42
6418.40,4.02
6482.58,3.72
6547.41,3.60
6612.88,3.57
6679.01,3.68
6745.80,3.81
6813.26,3.91
6881.39,3.93
6950.21,3.88
7019.71,3.75
7089.91,3.52
7160.81,3.25
7232.41,2.99
7304.74,2.75
7377.79,2.55
7451.56,2.43
7526.08,2.37
7601.34,2.40
7677.35,2.51
7754.13,2.66
7831.67,2.89
7909.98,3.13
7989.08,3.39
8068.98,3.66
8149.67,3.91
8231.16,4.13
8313.47,4.28
8396.61,4.39
8480.57,4.42
8565.38,4.39
8651.03,4.32
8737.54,4.21
8824.92,4.10
8913.17,4.00
9002.30,3.90
9092.32,3.86
9183.25,3.84
9275.08,3.85
9367.83,3.87
9461.51,3.90
9556.12,3.95
9651.68,4.03
9748.20,4.14
9845.68,4.32
9944.14,4.52
10043.58,4.75
10144.02,5.00
10245.46,5.24
10347.91,5.46
10451.39,5.65
10555.91,5.78
10661.46,5.81
10768.08,5.71
10875.76,5.34
10984.52,4.62
11094.36,3.64
11205.31,2.31
11317.36,0.55
11430.53,-1.33
11544.84,-3.40
11660.29,-5.54
11776.89,-7.68
11894.66,-9.70
12013.60,-11.69
12133.74,-13.15
12255.08,-13.65
12377.63,-13.40
12501.41,-12.66
12626.42,-11.64
12752.68,-10.66
12880.21,-9.87
13009.01,-9.20
13139.10,-8.52
13270.49,-8.09
13403.20,-7.70
13537.23,-7.41
13672.60,-7.24
13809.33,-7.18
13947.42,-7.42
14086.90,-7.90
14227.77,-8.53
14370.04,-9.32
14513.74,-10.29
14658.88,-11.49
14805.47,-12.71
14953.52,-13.99
15103.06,-14.82
15254.09,-15.42
15406.63,-14.86
15560.70,-14.23
15716.30,-13.47
15873.47,-12.96
16032.20,-12.54
16192.52,-12.21
16354.45,-11.92
16517.99,-11.79
16683.17,-12.84
16850.01,-14.87
17018.51,-17.66
17188.69,-21.22
17360.58,-21.48
17534.18,-19.81
17709.53,-17.85
17886.62,-15.87
18065.49,-13.76
18246.14,-11.45
18428.60,-9.21
18612.89,-7.25
18799.02,-5.75
18987.01,-5.05
19176.88,-5.41
19368.65,-6.07
19562.33,-6.83
19757.96,-7.49
19955.54,-7.95
