frequency,raw,error,smoothed,error_smoothed,equalization,parametric_eq,equalized_raw,equalized_smoothed,target
20.00,-20.56,-14.68,-20.56,-14.68,6.00,2.80,-14.56,-14.56,-5.88
20.20,-20.43,-14.59,-20.43,-14.59,6.00,2.88,-14.43,-14.43,-5.84
20.40,-20.29,-14.49,-20.29,-14.49,6.00,2.96,-14.29,-14.29,-5.80
20.61,-20.16,-14.40,-20.16,-14.40,6.00,3.05,-14.16,-14.16,-5.76
20.81,-20.02,-14.30,-20.02,-14.30,6.00,3.13,-14.02,-14.02,-5.72
21.02,-19.89,-14.21,-19.89,-14.21,6.00,3.22,-13.89,-13.89,-5.68
21.23,-19.75,-14.11,-19.75,-14.11,6.00,3.31,-13.75,-13.75,-5.64
21.44,-19.62,-14.02,-19.62,-14.02,6.00,3.41,-13.62,-13.62,-5.60
21.66,-19.48,-13.92,-19.48,-13.92,6.00,3.50,-13.48,-13.48,-5.56
21.87,-19.35,-13.83,-19.35,-13.83,6.00,3.60,-13.35,-13.35,-5.52
22.09,-19.21,-13.73,-19.21,-13.73,6.00,3.71,-13.21,-13.21,-5.48
22.31,-19.08,-13.64,-19.08,-13.64,6.00,3.81,-13.08,-13.08,-5.44
22.54,-18.94,-13.54,-18.94,-13.54,6.00,3.92,-12.94,-12.94,-5.40
22.76,-18.80,-13.44,-18.80,-13.44,6.00,4.03,-12.80,-12.80,-5.36
22.99,-18.67,-13.35,-18.67,-13.35,6.00,4.14,-12.67,-12.67,-5.32
23.22,-18.53,-13.25,-18.53,-13.25,6.00,4.26,-12.53,-12.53,-5.28
23.45,-18.40,-13.16,-18.39,-13.15,6.00,4.38,-12.40,-12.39,-5.24
23.69,-18.26,-13.06,-18.26,-13.05,6.00,4.50,-12.26,-12.26,-5.20
23.92,-18.12,-12.95,-18.12,-12.96,6.00,4.62,-12.12,-12.12,-5.17
24.16,-17.99,-12.86,-17.99,-12.86,6.00,4.75,-11.99,-11.99,-5.13
24.40,-17.85,-12.76,-17.85,-12.76,6.00,4.88,-11.85,-11.85,-5.09
24.65,-17.71,-12.66,-17.71,-12.66,6.00,5.01,-11.71,-11.71,-5.05
24.89,-17.58,-12.57,-17.58,-12.57,6.00,5.14,-11.58,-11.58,-5.01
25.14,-17.44,-12.46,-17.44,-12.47,6.00,5.27,-11.44,-11.44,-4.97
25.39,-17.31,-12.37,-17.31,-12.37,6.00,5.41,-11.31,-11.31,-4.94
25.65,-17.17,-12.27,-17.17,-12.27,6.00,5.54,-11.17,-11.17,-4.90
25.91,-17.04,-12.18,-17.04,-12.17,6.00,5.68,-11.04,-11.04,-4.86
26.16,-16.90,-12.07,-16.90,-12.07,6.00,5.81,-10.90,-10.90,-4.83
26.43,-16.77,-11.98,-16.77,-11.98,6.00,5.95,-10.77,-10.77,-4.79
26.69,-16.64,-11.88,-16.63,-11.88,6.00,6.08,-10.64,-10.63,-4.76
26.96,-16.50,-11.78,-16.50,-11.78,6.00,6.21,-10.50,-10.50,-4.72
27.23,-16.37,-11.68,-16.37,-11.68,6.00,6.34,-10.37,-10.37,-4.69
27.50,-16.23,-11.58,-16.23,-11.58,6.00,6.47,-10.23,-10.23,-4.65
27.77,-16.10,-11.48,-16.10,-11.48,6.00,6.59,-10.10,-10.10,-4.62
28.05,-15.97,-11.38,-15.97,-11.38,6.00,6.71,-9.97,-9.97,-4.59
28.33,-15.84,-11.28,-15.84,-11.28,6.00,6.82,-9.84,-9.84,-4.55
28.62,-15.71,-11.19,-15.71,-11.18,6.00,6.93,-9.71,-9.71,-4.52
28.90,-15.57,-11.08,-15.58,-11.09,6.00,7.03,-9.57,-9.58,-4.49
29.19,-15.45,-10.99,-15.45,-10.99,6.00,7.12,-9.45,-9.45,-4.46
29.48,-15.32,-10.89,-15.33,-10.90,6.00,7.20,-9.32,-9.33,-4.43
29.78,-15.19,-10.79,-15.20,-10.80,6.00,7.27,-9.19,-9.20,-4.40
30.08,-15.07,-10.70,-15.08,-10.71,6.00,7.34,-9.07,-9.08,-4.37
30.38,-14.96,-10.62,-14.96,-10.62,6.00,7.39,-8.96,-8.96,-4.34
30.68,-14.84,-10.53,-14.84,-10.52,6.00,7.43,-8.84,-8.84,-4.31
30.99,-14.73,-10.44,-14.72,-10.43,6.00,7.46,-8.73,-8.72,-4.29
31.30,-14.61,-10.35,-14.60,-10.34,6.00,7.48,-8.61,-8.60,-4.26
31.61,-14.49,-10.25,-14.49,-10.25,6.00,7.49,-8.49,-8.49,-4.24
31.93,-14.38,-10.17,-14.37,-10.16,6.00,7.49,-8.38,-8.37,-4.21
32.24,-14.26,-10.07,-14.26,-10.07,6.00,7.47,-8.26,-8.26,-4.19
32.57,-14.14,-9.97,-14.14,-9.98,6.00,7.45,-8.14,-8.14,-4.17
32.89,-14.03,-9.88,-14.03,-9.88,6.00,7.41,-8.03,-8.03,-4.15
33.22,-13.92,-9.79,-13.92,-9.79,6.00,7.37,-7.92,-7.92,-4.13
33.55,-13.81,-9.70,-13.81,-9.70,6.00,7.32,-7.81,-7.81,-4.11
33.89,-13.70,-9.61,-13.69,-9.60,6.00,7.26,-7.70,-7.69,-4.09
34.23,-13.58,-9.51,-13.58,-9.51,6.00,7.20,-7.58,-7.58,-4.07
34.57,-13.47,-9.41,-13.47,-9.42,6.00,7.12,-7.47,-7.47,-4.06
34.92,-13.36,-9.32,-13.36,-9.32,6.00,7.05,-7.36,-7.36,-4.04
35.27,-13.25,-9.22,-13.25,-9.23,6.00,6.97,-7.25,-7.25,-4.03
35.62,-13.15,-9.14,-13.15,-9.13,6.00,6.88,-7.15,-7.15,-4.01
35.97,-13.05,-9.05,-13.04,-9.04,6.00,6.79,-7.05,-7.04,-4.00
36.33,-12.94,-8.95,-12.93,-8.94,6.00,6.71,-6.94,-6.93,-3.99
36.70,-12.82,-8.84,-12.83,-8.84,6.00,6.62,-6.82,-6.83,-3.98
37.06,-12.71,-8.74,-12.72,-8.75,6.00,6.53,-6.71,-6.72,-3.97
37.43,-12.62,-8.65,-12.62,-8.65,6.00,6.44,-6.62,-6.62,-3.96
37.81,-12.52,-8.56,-12.52,-8.56,6.00,6.35,-6.52,-6.52,-3.96
38.19,-12.42,-8.47,-12.42,-8.47,6.00,6.26,-6.42,-6.42,-3.95
38.57,-12.32,-8.37,-12.32,-8.37,6.00,6.17,-6.32,-6.32,-3.95
38.95,-12.22,-8.27,-12.22,-8.28,6.00,6.09,-6.22,-6.22,-3.94
39.34,-12.13,-8.19,-12.13,-8.18,6.00,6.00,-6.13,-6.13,-3.94
39.74,-12.03,-8.09,-12.03,-8.09,6.00,5.92,-6.03,-6.03,-3.94
40.14,-11.94,-8.00,-11.94,-8.00,6.00,5.85,-5.94,-5.94,-3.94
40.54,-11.85,-7.91,-11.84,-7.91,6.00,5.78,-5.85,-5.84,-3.94
40.94,-11.75,-7.81,-11.75,-7.81,6.00,5.71,-5.75,-5.75,-3.94
41.35,-11.66,-7.72,-11.66,-7.72,6.00,5.64,-5.66,-5.66,-3.94
41.76,-11.57,-7.63,-11.57,-7.63,6.00,5.58,-5.57,-5.57,-3.94
42.18,-11.48,-7.54,-11.48,-7.54,6.00,5.52,-5.48,-5.48,-3.94
42.60,-11.39,-7.45,-11.39,-7.46,6.00,5.46,-5.39,-5.39,-3.94
43.03,-11.30,-7.36,-11.31,-7.37,6.00,5.41,-5.30,-5.31,-3.94
43.46,-11.22,-7.28,-11.22,-7.28,6.00,5.37,-5.22,-5.22,-3.94
43.90,-11.13,-7.19,-11.13,-7.19,6.00,5.32,-5.13,-5.13,-3.94
44.33,-11.05,-7.11,-11.04,-7.10,6.00,5.29,-5.05,-5.04,-3.94
44.78,-10.96,-7.02,-10.96,-7.02,6.00,5.25,-4.96,-4.96,-3.94
45.23,-10.88,-6.94,-10.87,-6.93,6.00,5.22,-4.88,-4.87,-3.94
45.68,-10.79,-6.85,-10.79,-6.85,6.00,5.20,-4.79,-4.79,-3.94
46.13,-10.71,-6.77,-10.70,-6.77,6.00,5.17,-4.71,-4.70,-3.94
46.60,-10.62,-6.69,-10.62,-6.69,6.00,5.16,-4.62,-4.62,-3.93
47.06,-10.54,-6.61,-10.54,-6.61,6.00,5.14,-4.54,-4.54,-3.93
47.53,-10.45,-6.52,-10.46,-6.53,6.00,5.13,-4.45,-4.46,-3.93
48.01,-10.36,-6.43,-10.38,-6.45,6.00,5.12,-4.36,-4.38,-3.93
48.49,-10.29,-6.37,-10.29,-6.37,6.00,5.12,-4.29,-4.29,-3.92
48.97,-10.21,-6.29,-10.22,-6.30,6.00,5.12,-4.21,-4.22,-3.92
49.46,-10.14,-6.23,-10.14,-6.22,6.00,5.12,-4.14,-4.14,-3.91
49.96,-10.07,-6.16,-10.06,-6.15,5.99,5.12,-4.08,-4.07,-3.91
50.46,-9.99,-6.09,-9.98,-6.08,5.97,5.13,-4.02,-4.01,-3.90
50.96,-9.91,-6.01,-9.91,-6.01,5.94,5.14,-3.97,-3.97,-3.90
51.47,-9.83,-5.94,-9.83,-5.94,5.89,5.15,-3.94,-3.94,-3.89
51.99,-9.75,-5.86,-9.76,-5.87,5.84,5.16,-3.91,-3.92,-3.89
52.51,-9.68,-5.80,-9.68,-5.80,5.78,5.18,-3.90,-3.90,-3.88
53.03,-9.61,-5.73,-9.61,-5.73,5.72,5.19,-3.89,-3.89,-3.88
53.56,-9.54,-5.66,-9.54,-5.66,5.66,5.21,-3.88,-3.88,-3.88
54.10,-9.47,-5.59,-9.46,-5.59,5.59,5.22,-3.89,-3.88,-3.88
54.64,-9.39,-5.52,-9.39,-5.51,5.51,5.24,-3.88,-3.88,-3.87
55.18,-9.32,-5.44,-9.32,-5.44,5.44,5.26,-3.88,-3.88,-3.87
55.74,-9.25,-5.37,-9.25,-5.37,5.37,5.27,-3.88,-3.88,-3.88
56.29,-9.18,-5.30,-9.18,-5.30,5.30,5.28,-3.88,-3.88,-3.88
56.86,-9.12,-5.24,-9.11,-5.23,5.23,5.29,-3.89,-3.89,-3.88
57.42,-9.05,-5.16,-9.05,-5.16,5.16,5.30,-3.89,-3.89,-3.89
58.00,-8.99,-5.10,-8.98,-5.09,5.09,5.30,-3.90,-3.90,-3.89
58.58,-8.92,-5.02,-8.92,-5.01,5.01,5.30,-3.91,-3.90,-3.90
59.16,-8.85,-4.94,-8.86,-4.94,4.94,5.30,-3.91,-3.91,-3.91
59.76,-8.79,-4.87,-8.80,-4.87,4.87,5.29,-3.92,-3.92,-3.92
60.35,-8.73,-4.80,-8.74,-4.80,4.80,5.28,-3.93,-3.93,-3.93
60.96,-8.67,-4.73,-8.68,-4.74,4.74,5.26,-3.93,-3.94,-3.94
61.57,-8.62,-4.67,-8.62,-4.67,4.67,5.24,-3.95,-3.95,-3.95
62.18,-8.56,-4.60,-8.56,-4.60,4.60,5.22,-3.96,-3.96,-3.96
62.80,-8.51,-4.54,-8.50,-4.53,4.53,5.18,-3.97,-3.97,-3.97
63.43,-8.46,-4.48,-8.45,-4.47,4.47,5.15,-3.99,-3.98,-3.98
64.07,-8.40,-4.41,-8.39,-4.41,4.41,5.10,-3.99,-3.99,-3.99
64.71,-8.35,-4.36,-8.34,-4.34,4.34,5.06,-4.01,-3.99,-3.99
65.35,-8.29,-4.29,-8.29,-4.28,4.28,5.00,-4.00,-4.00,-4.00
66.01,-8.24,-4.23,-8.24,-4.23,4.23,4.95,-4.01,-4.01,-4.01
66.67,-8.19,-4.18,-8.19,-4.17,4.17,4.89,-4.02,-4.01,-4.01
67.33,-8.13,-4.11,-8.14,-4.12,4.12,4.82,-4.01,-4.02,-4.02
68.01,-8.08,-4.06,-8.09,-4.07,4.07,4.75,-4.01,-4.02,-4.02
68.69,-8.04,-4.01,-8.05,-4.02,4.02,4.68,-4.02,-4.03,-4.03
69.37,-8.00,-3.97,-8.01,-3.98,3.98,4.60,-4.02,-4.03,-4.03
70.07,-7.96,-3.93,-7.97,-3.94,3.94,4.52,-4.02,-4.04,-4.03
70.77,-7.93,-3.89,-7.94,-3.90,3.90,4.44,-4.03,-4.04,-4.04
71.48,-7.90,-3.86,-7.90,-3.86,3.86,4.36,-4.04,-4.04,-4.04
72.19,-7.87,-3.83,-7.87,-3.82,3.82,4.27,-4.05,-4.05,-4.04
72.91,-7.85,-3.81,-7.84,-3.79,3.79,4.19,-4.06,-4.05,-4.04
73.64,-7.82,-3.77,-7.81,-3.76,3.76,4.10,-4.06,-4.05,-4.05
74.38,-7.79,-3.74,-7.78,-3.73,3.73,4.01,-4.06,-4.06,-4.05
75.12,-7.77,-3.71,-7.76,-3.70,3.70,3.92,-4.07,-4.06,-4.06
75.87,-7.74,-3.68,-7.73,-3.67,3.67,3.84,-4.07,-4.07,-4.06
76.63,-7.71,-3.65,-7.71,-3.64,3.64,3.75,-4.07,-4.07,-4.06
77.40,-7.68,-3.61,-7.68,-3.61,3.61,3.66,-4.07,-4.07,-4.07
78.17,-7.65,-3.58,-7.66,-3.58,3.58,3.58,-4.07,-4.07,-4.07
78.95,-7.63,-3.55,-7.63,-3.56,3.56,3.49,-4.07,-4.08,-4.08
79.74,-7.61,-3.53,-7.61,-3.53,3.53,3.41,-4.08,-4.08,-4.08
80.54,-7.59,-3.51,-7.59,-3.51,3.51,3.33,-4.08,-4.08,-4.08
81.35,-7.57,-3.49,-7.56,-3.49,3.49,3.25,-4.08,-4.08,-4.08
82.16,-7.55,-3.47,-7.54,-3.47,3.47,3.17,-4.08,-4.07,-4.08
82.98,-7.52,-3.44,-7.52,-3.45,3.45,3.09,-4.07,-4.07,-4.08
83.81,-7.50,-3.42,-7.51,-3.44,3.44,3.02,-4.06,-4.07,-4.08
84.65,-7.48,-3.40,-7.49,-3.42,3.42,2.95,-4.06,-4.07,-4.08
85.50,-7.47,-3.40,-7.48,-3.41,3.41,2.88,-4.06,-4.07,-4.07
86.35,-7.46,-3.39,-7.47,-3.40,3.40,2.81,-4.06,-4.07,-4.07
87.22,-7.45,-3.38,-7.46,-3.38,3.38,2.74,-4.07,-4.08,-4.07
88.09,-7.43,-3.36,-7.44,-3.36,3.36,2.68,-4.07,-4.08,-4.07
88.97,-7.41,-3.34,-7.42,-3.34,3.34,2.61,-4.07,-4.08,-4.07
89.86,-7.41,-3.34,-7.40,-3.32,3.32,2.55,-4.09,-4.09,-4.07
90.76,-7.40,-3.33,-7.38,-3.28,3.28,2.49,-4.12,-4.10,-4.07
91.66,-7.39,-3.31,-7.35,-3.25,3.25,2.44,-4.14,-4.11,-4.08
92.58,-7.36,-3.26,-7.32,-3.20,3.20,2.38,-4.16,-4.12,-4.10
93.51,-7.31,-3.20,-7.29,-3.15,3.15,2.33,-4.16,-4.14,-4.11
94.44,-7.27,-3.14,-7.25,-3.09,3.09,2.28,-4.18,-4.15,-4.13
95.39,-7.22,-3.06,-7.20,-3.03,3.03,2.23,-4.19,-4.18,-4.16
96.34,-7.16,-2.97,-7.16,-2.96,2.96,2.18,-4.20,-4.20,-4.19
97.30,-7.10,-2.88,-7.12,-2.88,2.88,2.13,-4.22,-4.23,-4.22
98.28,-7.05,-2.80,-7.07,-2.80,2.80,2.09,-4.25,-4.27,-4.25
99.26,-7.00,-2.71,-7.02,-2.72,2.72,2.05,-4.28,-4.30,-4.29
100.25,-6.95,-2.62,-6.98,-2.64,2.64,2.00,-4.31,-4.34,-4.33
101.25,-6.91,-2.53,-6.93,-2.56,2.56,1.97,-4.35,-4.37,-4.37
102.27,-6.87,-2.45,-6.89,-2.47,2.47,1.93,-4.40,-4.42,-4.42
103.29,-6.85,-2.39,-6.85,-2.39,2.39,1.89,-4.46,-4.46,-4.46
104.32,-6.83,-2.32,-6.82,-2.31,2.31,1.85,-4.52,-4.51,-4.51
105.37,-6.80,-2.25,-6.78,-2.23,2.23,1.82,-4.57,-4.55,-4.55
106.42,-6.75,-2.15,-6.75,-2.15,2.15,1.79,-4.60,-4.60,-4.60
107.48,-6.71,-2.07,-6.72,-2.08,2.08,1.76,-4.63,-4.64,-4.64
108.56,-6.68,-2.00,-6.68,-2.00,2.00,1.72,-4.68,-4.68,-4.68
109.64,-6.66,-1.94,-6.64,-1.93,1.93,1.69,-4.73,-4.72,-4.72
110.74,-6.63,-1.88,-6.61,-1.85,1.85,1.66,-4.78,-4.75,-4.75
111.85,-6.59,-1.80,-6.57,-1.78,1.78,1.64,-4.81,-4.79,-4.78
112.97,-6.54,-1.72,-6.53,-1.71,1.71,1.61,-4.83,-4.82,-4.82
114.10,-6.49,-1.65,-6.49,-1.64,1.64,1.58,-4.85,-4.84,-4.84
115.24,-6.43,-1.56,-6.44,-1.58,1.58,1.55,-4.85,-4.87,-4.87
116.39,-6.41,-1.52,-6.40,-1.51,1.51,1.53,-4.90,-4.89,-4.89
117.55,-6.36,-1.45,-6.36,-1.46,1.46,1.50,-4.90,-4.90,-4.91
118.73,-6.31,-1.39,-6.32,-1.40,1.40,1.48,-4.91,-4.92,-4.92
119.92,-6.27,-1.34,-6.29,-1.36,1.36,1.45,-4.91,-4.93,-4.93
121.12,-6.24,-1.30,-6.26,-1.32,1.32,1.43,-4.92,-4.94,-4.94
122.33,-6.22,-1.27,-6.23,-1.28,1.28,1.40,-4.94,-4.95,-4.95
123.55,-6.20,-1.24,-6.20,-1.25,1.25,1.38,-4.95,-4.96,-4.96
124.79,-6.17,-1.20,-6.19,-1.22,1.22,1.35,-4.95,-4.97,-4.97
126.03,-6.15,-1.18,-6.17,-1.20,1.20,1.33,-4.95,-4.98,-4.97
127.29,-6.14,-1.16,-6.16,-1.17,1.17,1.31,-4.97,-4.99,-4.98
128.57,-6.13,-1.15,-6.15,-1.15,1.15,1.28,-4.98,-4.99,-4.98
129.85,-6.14,-1.15,-6.14,-1.13,1.13,1.26,-5.00,-5.00,-4.99
131.15,-6.14,-1.14,-6.13,-1.11,1.11,1.23,-5.03,-5.01,-5.00
132.46,-6.14,-1.14,-6.11,-1.09,1.09,1.21,-5.05,-5.02,-5.00
133.79,-6.13,-1.12,-6.10,-1.07,1.07,1.19,-5.06,-5.03,-5.01
135.12,-6.10,-1.08,-6.08,-1.04,1.04,1.16,-5.06,-5.04,-5.02
136.48,-6.09,-1.06,-6.06,-1.01,1.01,1.14,-5.08,-5.05,-5.03
137.84,-6.05,-1.00,-6.04,-0.97,0.97,1.12,-5.08,-5.07,-5.05
139.22,-6.03,-0.97,-6.01,-0.93,0.93,1.09,-5.10,-5.08,-5.06
140.61,-5.99,-0.91,-5.98,-0.89,0.89,1.07,-5.10,-5.09,-5.08
142.02,-5.95,-0.85,-5.96,-0.85,0.85,1.05,-5.10,-5.11,-5.10
143.44,-5.92,-0.80,-5.93,-0.80,0.80,1.02,-5.12,-5.12,-5.12
144.87,-5.88,-0.74,-5.90,-0.76,0.76,1.00,-5.12,-5.14,-5.14
146.32,-5.86,-0.70,-5.87,-0.72,0.72,0.98,-5.14,-5.16,-5.16
147.78,-5.83,-0.65,-5.85,-0.68,0.68,0.96,-5.15,-5.18,-5.18
149.26,-5.82,-0.62,-5.84,-0.64,0.64,0.94,-5.18,-5.20,-5.20
150.75,-5.80,-0.58,-5.82,-0.60,0.60,0.91,-5.20,-5.22,-5.22
152.26,-5.80,-0.55,-5.81,-0.57,0.57,0.89,-5.23,-5.25,-5.25
153.78,-5.80,-0.53,-5.81,-0.54,0.54,0.87,-5.26,-5.27,-5.27
155.32,-5.81,-0.52,-5.80,-0.51,0.51,0.85,-5.30,-5.29,-5.29
156.88,-5.81,-0.50,-5.80,-0.48,0.48,0.83,-5.33,-5.32,-5.31
158.44,-5.82,-0.48,-5.80,-0.46,0.46,0.82,-5.36,-5.34,-5.34
160.03,-5.82,-0.46,-5.81,-0.44,0.44,0.80,-5.38,-5.37,-5.36
161.63,-5.82,-0.44,-5.81,-0.42,0.42,0.78,-5.40,-5.39,-5.38
163.24,-5.82,-0.42,-5.81,-0.40,0.40,0.76,-5.42,-5.41,-5.40
164.88,-5.82,-0.39,-5.82,-0.39,0.39,0.74,-5.43,-5.43,-5.43
166.53,-5.82,-0.37,-5.82,-0.37,0.37,0.73,-5.45,-5.45,-5.45
168.19,-5.82,-0.35,-5.82,-0.35,0.35,0.71,-5.47,-5.47,-5.47
169.87,-5.82,-0.34,-5.82,-0.34,0.34,0.70,-5.48,-5.48,-5.48
171.57,-5.82,-0.32,-5.82,-0.33,0.33,0.68,-5.49,-5.50,-5.50
173.29,-5.82,-0.31,-5.82,-0.31,0.31,0.67,-5.51,-5.51,-5.51
175.02,-5.82,-0.30,-5.82,-0.31,0.31,0.65,-5.51,-5.51,-5.52
176.77,-5.82,-0.29,-5.82,-0.30,0.30,0.64,-5.52,-5.52,-5.53
178.54,-5.82,-0.29,-5.82,-0.29,0.29,0.63,-5.53,-5.53,-5.53
180.32,-5.82,-0.28,-5.82,-0.29,0.29,0.61,-5.53,-5.53,-5.54
182.13,-5.82,-0.28,-5.82,-0.29,0.29,0.60,-5.53,-5.53,-5.54
183.95,-5.82,-0.28,-5.82,-0.29,0.29,0.59,-5.53,-5.54,-5.54
185.79,-5.82,-0.28,-5.82,-0.29,0.29,0.58,-5.53,-5.54,-5.53
187.65,-5.82,-0.29,-5.82,-0.29,0.29,0.57,-5.53,-5.54,-5.53
189.52,-5.82,-0.29,-5.82,-0.29,0.29,0.56,-5.53,-5.53,-5.53
191.42,-5.82,-0.30,-5.82,-0.29,0.29,0.55,-5.53,-5.53,-5.52
193.33,-5.82,-0.30,-5.82,-0.29,0.29,0.54,-5.53,-5.53,-5.52
195.27,-5.82,-0.30,-5.81,-0.29,0.29,0.53,-5.53,-5.52,-5.52
197.22,-5.82,-0.31,-5.81,-0.29,0.29,0.52,-5.53,-5.52,-5.51
199.19,-5.82,-0.31,-5.81,-0.29,0.29,0.51,-5.53,-5.52,-5.51
201.18,-5.82,-0.31,-5.80,-0.28,0.28,0.50,-5.54,-5.52,-5.51
203.19,-5.81,-0.30,-5.80,-0.28,0.28,0.49,-5.53,-5.52,-5.51
205.23,-5.80,-0.29,-5.80,-0.28,0.28,0.48,-5.52,-5.52,-5.51
207.28,-5.80,-0.28,-5.80,-0.28,0.28,0.47,-5.52,-5.52,-5.52
209.35,-5.79,-0.27,-5.81,-0.28,0.28,0.47,-5.51,-5.53,-5.52
211.44,-5.80,-0.27,-5.82,-0.28,0.28,0.46,-5.52,-5.53,-5.53
213.56,-5.81,-0.27,-5.83,-0.29,0.29,0.45,-5.52,-5.54,-5.54
215.69,-5.83,-0.28,-5.85,-0.29,0.29,0.44,-5.54,-5.55,-5.55
217.85,-5.86,-0.29,-5.87,-0.30,0.30,0.43,-5.56,-5.56,-5.57
220.03,-5.88,-0.30,-5.89,-0.31,0.31,0.42,-5.57,-5.58,-5.58
222.23,-5.91,-0.32,-5.92,-0.32,0.32,0.41,-5.59,-5.60,-5.59
224.45,-5.94,-0.33,-5.95,-0.33,0.33,0.40,-5.61,-5.61,-5.61
226.70,-5.98,-0.35,-5.98,-0.35,0.35,0.39,-5.63,-5.63,-5.63
228.96,-6.02,-0.38,-6.01,-0.36,0.36,0.38,-5.66,-5.65,-5.64
231.25,-6.04,-0.38,-6.04,-0.37,0.37,0.36,-5.67,-5.67,-5.66
233.57,-6.07,-0.39,-6.06,-0.38,0.38,0.35,-5.69,-5.69,-5.68
235.90,-6.11,-0.41,-6.09,-0.38,0.38,0.34,-5.73,-5.70,-5.70
238.26,-6.13,-0.42,-6.11,-0.39,0.39,0.32,-5.74,-5.72,-5.71
240.64,-6.15,-0.42,-6.13,-0.39,0.39,0.31,-5.76,-5.73,-5.73
243.05,-6.16,-0.42,-6.14,-0.40,0.40,0.29,-5.76,-5.74,-5.74
245.48,-6.16,-0.40,-6.15,-0.40,0.40,0.27,-5.76,-5.76,-5.76
247.93,-6.16,-0.39,-6.17,-0.40,0.40,0.26,-5.76,-5.77,-5.77
250.41,-6.15,-0.38,-6.17,-0.40,0.40,0.24,-5.75,-5.78,-5.77
252.92,-6.14,-0.36,-6.18,-0.40,0.40,0.22,-5.74,-5.78,-5.78
255.45,-6.15,-0.37,-6.18,-0.39,0.39,0.19,-5.76,-5.79,-5.78
258.00,-6.16,-0.37,-6.18,-0.39,0.39,0.17,-5.77,-5.79,-5.79
260.58,-6.17,-0.38,-6.18,-0.39,0.39,0.15,-5.78,-5.79,-5.79
263.19,-6.17,-0.38,-6.17,-0.38,0.38,0.12,-5.79,-5.79,-5.79
265.82,-6.17,-0.38,-6.16,-0.37,0.37,0.10,-5.80,-5.79,-5.79
268.48,-6.16,-0.37,-6.14,-0.35,0.35,0.07,-5.81,-5.79,-5.79
271.16,-6.14,-0.36,-6.12,-0.33,0.33,0.04,-5.81,-5.79,-5.78
273.87,-6.09,-0.32,-6.09,-0.31,0.31,0.01,-5.78,-5.78,-5.77
276.61,-6.06,-0.30,-6.05,-0.28,0.28,-0.02,-5.78,-5.77,-5.76
279.38,-6.02,-0.27,-6.00,-0.24,0.24,-0.05,-5.78,-5.76,-5.75
282.17,-5.97,-0.23,-5.94,-0.19,0.19,-0.08,-5.78,-5.75,-5.74
284.99,-5.90,-0.18,-5.88,-0.14,0.14,-0.11,-5.76,-5.73,-5.72
287.84,-5.82,-0.11,-5.80,-0.08,0.08,-0.15,-5.74,-5.72,-5.71
290.72,-5.73,-0.04,-5.72,-0.02,0.02,-0.18,-5.71,-5.70,-5.69
293.63,-5.64,0.03,-5.64,0.05,-0.05,-0.22,-5.69,-5.69,-5.67
296.57,-5.54,0.12,-5.54,0.12,-0.12,-0.25,-5.66,-5.67,-5.66
299.53,-5.44,0.20,-5.45,0.20,-0.20,-0.29,-5.64,-5.65,-5.64
302.53,-5.34,0.29,-5.35,0.28,-0.28,-0.33,-5.62,-5.63,-5.63
305.55,-5.23,0.38,-5.26,0.36,-0.36,-0.37,-5.59,-5.62,-5.61
308.61,-5.13,0.46,-5.16,0.44,-0.44,-0.40,-5.57,-5.60,-5.59
311.69,-5.05,0.53,-5.06,0.52,-0.52,-0.44,-5.57,-5.58,-5.58
314.81,-4.98,0.58,-4.96,0.60,-0.60,-0.48,-5.58,-5.56,-5.56
317.96,-4.89,0.65,-4.87,0.67,-0.67,-0.53,-5.56,-5.54,-5.54
321.14,-4.80,0.73,-4.78,0.74,-0.74,-0.57,-5.54,-5.52,-5.53
324.35,-4.70,0.81,-4.70,0.81,-0.81,-0.61,-5.51,-5.50,-5.51
327.59,-4.60,0.89,-4.62,0.86,-0.86,-0.65,-5.46,-5.48,-5.49
330.87,-4.53,0.94,-4.55,0.91,-0.91,-0.70,-5.44,-5.46,-5.46
334.18,-4.46,0.98,-4.49,0.95,-0.95,-0.74,-5.41,-5.44,-5.44
337.52,-4.40,1.02,-4.43,0.99,-0.99,-0.79,-5.39,-5.42,-5.42
340.90,-4.35,1.04,-4.38,1.01,-1.01,-0.83,-5.36,-5.39,-5.39
344.30,-4.31,1.06,-4.33,1.04,-1.04,-0.88,-5.35,-5.37,-5.37
347.75,-4.28,1.06,-4.29,1.05,-1.05,-0.93,-5.33,-5.34,-5.34
351.23,-4.26,1.06,-4.26,1.06,-1.06,-0.97,-5.32,-5.31,-5.32
354.74,-4.24,1.05,-4.23,1.06,-1.06,-1.02,-5.30,-5.29,-5.29
358.28,-4.21,1.06,-4.20,1.07,-1.07,-1.07,-5.28,-5.27,-5.27
361.87,-4.20,1.04,-4.18,1.07,-1.07,-1.12,-5.27,-5.25,-5.24
365.49,-4.17,1.05,-4.16,1.06,-1.06,-1.17,-5.23,-5.23,-5.22
369.14,-4.14,1.06,-4.14,1.06,-1.06,-1.23,-5.20,-5.21,-5.20
372.83,-4.12,1.06,-4.12,1.07,-1.07,-1.28,-5.19,-5.19,-5.18
376.56,-4.10,1.06,-4.10,1.07,-1.07,-1.33,-5.17,-5.17,-5.16
380.33,-4.08,1.06,-4.07,1.08,-1.08,-1.38,-5.16,-5.15,-5.14
384.13,-4.06,1.06,-4.04,1.09,-1.09,-1.44,-5.15,-5.13,-5.12
387.97,-4.03,1.08,-4.01,1.11,-1.11,-1.49,-5.14,-5.12,-5.11
391.85,-3.99,1.11,-3.98,1.13,-1.13,-1.55,-5.12,-5.10,-5.10
395.77,-3.95,1.14,-3.95,1.15,-1.15,-1.61,-5.10,-5.10,-5.09
399.73,-3.91,1.17,-3.91,1.18,-1.18,-1.66,-5.09,-5.09,-5.08
403.72,-3.86,1.22,-3.88,1.21,-1.21,-1.72,-5.07,-5.09,-5.08
407.76,-3.82,1.26,-3.84,1.25,-1.25,-1.78,-5.07,-5.09,-5.08
411.84,-3.79,1.29,-3.80,1.29,-1.29,-1.84,-5.08,-5.09,-5.08
415.96,-3.74,1.34,-3.75,1.34,-1.34,-1.89,-5.08,-5.09,-5.08
420.12,-3.70,1.39,-3.71,1.38,-1.38,-1.95,-5.08,-5.09,-5.09
424.32,-3.67,1.42,-3.66,1.44,-1.44,-2.01,-5.11,-5.10,-5.09
428.56,-3.63,1.47,-3.61,1.49,-1.49,-2.07,-5.12,-5.10,-5.10
432.85,-3.58,1.53,-3.56,1.55,-1.55,-2.12,-5.13,-5.11,-5.11
437.18,-3.52,1.60,-3.51,1.61,-1.61,-2.18,-5.13,-5.12,-5.12
441.55,-3.46,1.67,-3.46,1.67,-1.67,-2.23,-5.13,-5.13,-5.13
445.96,-3.40,1.74,-3.40,1.73,-1.73,-2.29,-5.13,-5.13,-5.14
450.42,-3.34,1.81,-3.34,1.80,-1.80,-2.34,-5.14,-5.14,-5.14
454.93,-3.28,1.87,-3.29,1.86,-1.86,-2.39,-5.14,-5.15,-5.15
459.48,-3.22,1.93,-3.23,1.93,-1.93,-2.44,-5.15,-5.15,-5.15
464.07,-3.16,2.00,-3.16,1.99,-1.99,-2.49,-5.15,-5.16,-5.16
468.71,-3.11,2.05,-3.10,2.06,-2.06,-2.54,-5.17,-5.16,-5.16
473.40,-3.03,2.13,-3.03,2.13,-2.13,-2.59,-5.16,-5.16,-5.16
478.13,-2.96,2.20,-2.97,2.19,-2.19,-2.63,-5.15,-5.16,-5.16
482.91,-2.90,2.26,-2.90,2.26,-2.26,-2.67,-5.16,-5.17,-5.16
487.74,-2.84,2.32,-2.84,2.33,-2.33,-2.71,-5.17,-5.17,-5.16
492.62,-2.78,2.38,-2.77,2.39,-2.39,-2.75,-5.17,-5.16,-5.16
497.55,-2.72,2.44,-2.71,2.45,-2.45,-2.78,-5.17,-5.16,-5.16
502.52,-2.65,2.51,-2.64,2.52,-2.52,-2.81,-5.17,-5.16,-5.16
507.55,-2.57,2.59,-2.57,2.58,-2.58,-2.84,-5.15,-5.15,-5.16
512.62,-2.50,2.65,-2.51,2.64,-2.64,-2.87,-5.14,-5.14,-5.15
517.75,-2.43,2.71,-2.44,2.70,-2.70,-2.89,-5.13,-5.14,-5.14
522.93,-2.37,2.76,-2.37,2.75,-2.75,-2.92,-5.12,-5.12,-5.13
528.16,-2.30,2.82,-2.30,2.81,-2.81,-2.94,-5.11,-5.11,-5.12
533.44,-2.24,2.87,-2.24,2.86,-2.86,-2.96,-5.10,-5.10,-5.11
538.77,-2.17,2.92,-2.17,2.92,-2.92,-2.98,-5.09,-5.09,-5.09
544.16,-2.10,2.97,-2.10,2.97,-2.97,-3.00,-5.07,-5.07,-5.07
