frequency,raw,error,smoothed,error_smoothed,equalization,parametric_eq,equalized_raw,equalized_smoothed,target
20,2.95,1.65,2.89,1.60,-1.60,-0.74,1.35,1.29,1.30
21,2.92,1.62,2.93,1.64,-1.64,-0.85,1.27,1.28,1.29
22,2.92,1.63,2.96,1.68,-1.68,-0.96,1.23,1.28,1.29
23,2.94,1.65,3.00,1.72,-1.72,-1.08,1.21,1.27,1.28
24,2.99,1.71,3.03,1.76,-1.76,-1.20,1.23,1.27,1.28
25,3.05,1.78,3.05,1.79,-1.79,-1.33,1.25,1.26,1.27
26,3.10,1.83,3.08,1.82,-1.82,-1.46,1.27,1.25,1.27
27,3.14,1.88,3.10,1.85,-1.85,-1.58,1.29,1.25,1.26
28,3.16,1.91,3.11,1.87,-1.87,-1.68,1.28,1.24,1.25
29,3.17,1.92,3.13,1.89,-1.89,-1.77,1.27,1.23,1.24
30,3.18,1.94,3.14,1.91,-1.91,-1.84,1.26,1.22,1.24
31,3.18,1.95,3.14,1.92,-1.92,-1.89,1.25,1.22,1.23
32,3.15,1.93,3.14,1.93,-1.93,-1.92,1.21,1.21,1.22
33,3.12,1.91,3.14,1.94,-1.94,-1.92,1.18,1.20,1.21
34,3.09,1.89,3.13,1.94,-1.94,-1.92,1.14,1.19,1.20
35,3.09,1.90,3.12,1.94,-1.94,-1.90,1.14,1.18,1.19
36,3.09,1.91,3.11,1.95,-1.95,-1.88,1.14,1.16,1.18
37,3.08,1.91,3.10,1.94,-1.94,-1.86,1.13,1.15,1.17
38,3.08,1.92,3.09,1.95,-1.95,-1.85,1.13,1.14,1.15
39,3.09,1.95,3.08,1.95,-1.95,-1.83,1.14,1.13,1.14
40,3.08,1.95,3.06,1.95,-1.95,-1.83,1.13,1.12,1.13
41,3.07,1.96,3.05,1.95,-1.95,-1.83,1.12,1.11,1.11
42,3.06,1.96,3.04,1.95,-1.95,-1.84,1.11,1.09,1.10
43,3.05,1.97,3.02,1.94,-1.94,-1.85,1.10,1.08,1.08
44,3.02,1.95,3.00,1.94,-1.94,-1.88,1.08,1.07,1.06
45,2.99,1.94,2.98,1.93,-1.93,-1.91,1.06,1.05,1.05
46,2.96,1.93,2.95,1.92,-1.92,-1.94,1.04,1.03,1.03
47,2.93,1.92,2.92,1.91,-1.91,-1.99,1.02,1.01,1.01
48,2.90,1.91,2.89,1.90,-1.90,-2.04,0.99,0.99,0.99
49,2.87,1.90,2.86,1.89,-1.89,-2.09,0.97,0.97,0.97
50,2.84,1.89,2.84,1.89,-1.89,-2.15,0.95,0.95,0.95
51,2.81,1.88,2.81,1.89,-1.89,-2.21,0.92,0.92,0.93
52,2.79,1.88,2.79,1.89,-1.89,-2.27,0.89,0.90,0.91
53,2.78,1.89,2.78,1.91,-1.91,-2.33,0.87,0.87,0.88
54,2.77,1.91,2.77,1.93,-1.93,-2.39,0.84,0.85,0.86
55,2.77,1.93,2.78,1.96,-1.96,-2.45,0.81,0.82,0.84
56,2.78,1.97,2.79,2.00,-2.00,-2.50,0.78,0.79,0.81
57,2.80,2.01,2.81,2.05,-2.05,-2.55,0.75,0.77,0.78
58,2.82,2.06,2.85,2.10,-2.10,-2.60,0.71,0.74,0.76
59,2.86,2.13,2.89,2.17,-2.17,-2.64,0.69,0.72,0.73
60,2.91,2.20,2.93,2.24,-2.24,-2.67,0.67,0.69,0.70
61,2.97,2.29,2.98,2.32,-2.32,-2.70,0.65,0.67,0.67
62,3.03,2.38,3.03,2.39,-2.39,-2.72,0.63,0.64,0.65
63,3.10,2.48,3.08,2.47,-2.47,-2.74,0.63,0.61,0.62
64,3.17,2.58,3.13,2.55,-2.55,-2.75,0.62,0.58,0.59
65,3.22,2.66,3.17,2.62,-2.62,-2.75,0.60,0.55,0.55
66,3.25,2.72,3.21,2.69,-2.69,-2.75,0.55,0.52,0.52
67,3.27,2.78,3.25,2.76,-2.76,-2.74,0.51,0.49,0.49
68,3.29,2.83,3.28,2.82,-2.82,-2.74,0.47,0.46,0.46
69,3.29,2.86,3.30,2.88,-2.88,-2.72,0.41,0.42,0.43
70,3.30,2.90,3.32,2.93,-2.93,-2.71,0.37,0.39,0.39
71,3.31,2.95,3.33,2.97,-2.97,-2.70,0.33,0.35,0.36
72,3.32,2.99,3.33,3.01,-3.01,-2.68,0.30,0.32,0.33
73,3.33,3.04,3.34,3.05,-3.05,-2.67,0.28,0.28,0.29
74,3.35,3.09,3.33,3.09,-3.09,-2.65,0.26,0.25,0.26
75,3.35,3.13,3.33,3.12,-3.12,-2.64,0.23,0.21,0.22
76,3.35,3.16,3.33,3.15,-3.15,-2.63,0.20,0.18,0.19
77,3.32,3.17,3.32,3.17,-3.17,-2.62,0.14,0.15,0.15
78,3.31,3.19,3.31,3.20,-3.20,-2.61,0.11,0.11,0.11
79,3.29,3.21,3.30,3.22,-3.22,-2.61,0.07,0.08,0.08
80,3.28,3.23,3.28,3.24,-3.24,-2.60,0.04,0.04,0.04
81,3.27,3.26,3.26,3.26,-3.26,-2.60,0.01,0.01,0.01
82,3.25,3.28,3.24,3.27,-3.27,-2.60,-0.02,-0.03,-0.03
83,3.22,3.28,3.21,3.28,-3.28,-2.61,-0.06,-0.07,-0.07
84,3.19,3.29,3.18,3.29,-3.29,-2.62,-0.10,-0.11,-0.10
85,3.16,3.30,3.15,3.29,-3.29,-2.63,-0.14,-0.14,-0.14
86,3.12,3.29,3.12,3.30,-3.30,-2.64,-0.18,-0.18,-0.18
87,3.08,3.29,3.09,3.30,-3.30,-2.66,-0.22,-0.21,-0.21
88,3.05,3.29,3.05,3.30,-3.30,-2.68,-0.26,-0.25,-0.25
89,3.02,3.30,3.02,3.30,-3.30,-2.70,-0.29,-0.29,-0.28
90,2.98,3.30,2.98,3.30,-3.30,-2.72,-0.32,-0.32,-0.32
91,2.94,3.29,2.94,3.30,-3.30,-2.75,-0.36,-0.36,-0.36
92,2.91,3.30,2.90,3.30,-3.30,-2.78,-0.39,-0.39,-0.39
93,2.86,3.28,2.86,3.29,-3.29,-2.81,-0.43,-0.43,-0.43
94,2.82,3.28,2.82,3.28,-3.28,-2.84,-0.47,-0.46,-0.46
95,2.77,3.26,2.78,3.27,-3.27,-2.87,-0.51,-0.49,-0.50
96,2.73,3.26,2.73,3.26,-3.26,-2.91,-0.53,-0.53,-0.53
97,2.70,3.26,2.68,3.25,-3.25,-2.95,-0.55,-0.57,-0.57
98,2.65,3.25,2.63,3.23,-3.23,-2.99,-0.59,-0.61,-0.60
99,2.60,3.23,2.57,3.22,-3.22,-3.02,-0.62,-0.65,-0.63
100,2.55,3.21,2.52,3.20,-3.20,-3.07,-0.65,-0.68,-0.67
101,2.48,3.18,2.46,3.18,-3.18,-3.11,-0.71,-0.72,-0.70
102,2.42,3.15,2.41,3.17,-3.17,-3.15,-0.75,-0.76,-0.73
104,2.31,3.11,2.36,3.15,-3.15,-3.23,-0.84,-0.79,-0.80
105,2.27,3.10,2.30,3.13,-3.13,-3.27,-0.86,-0.83,-0.83
106,2.22,3.08,2.25,3.11,-3.11,-3.31,-0.89,-0.86,-0.86
107,2.19,3.08,2.20,3.09,-3.09,-3.35,-0.91,-0.89,-0.89
108,2.15,3.07,2.15,3.07,-3.07,-3.39,-0.93,-0.92,-0.92
109,2.12,3.07,2.10,3.06,-3.06,-3.43,-0.94,-0.96,-0.95
110,2.07,3.05,2.05,3.04,-3.04,-3.46,-0.97,-0.99,-0.98
111,2.03,3.04,2.00,3.02,-3.02,-3.49,-1.00,-1.02,-1.01
112,1.97,3.01,1.95,3.01,-3.01,-3.52,-1.04,-1.05,-1.04
113,1.93,3.00,1.90,2.99,-2.99,-3.55,-1.06,-1.08,-1.07
114,1.88,2.97,1.86,2.97,-2.97,-3.58,-1.09,-1.11,-1.10
115,1.83,2.95,1.81,2.95,-2.95,-3.60,-1.13,-1.14,-1.13
117,1.73,2.91,1.77,2.94,-2.94,-3.64,-1.21,-1.17,-1.18
118,1.68,2.88,1.72,2.92,-2.92,-3.65,-1.25,-1.21,-1.21
119,1.64,2.87,1.67,2.91,-2.91,-3.66,-1.27,-1.24,-1.23
120,1.61,2.86,1.62,2.89,-2.89,-3.67,-1.28,-1.27,-1.26
121,1.58,2.86,1.58,2.88,-2.88,-3.67,-1.30,-1.30,-1.28
123,1.54,2.87,1.53,2.86,-2.86,-3.67,-1.32,-1.33,-1.33
124,1.52,2.87,1.48,2.85,-2.85,-3.66,-1.33,-1.36,-1.35
125,1.48,2.85,1.44,2.83,-2.83,-3.65,-1.36,-1.39,-1.38
126,1.45,2.85,1.40,2.82,-2.82,-3.63,-1.37,-1.42,-1.40
128,1.36,2.80,1.36,2.80,-2.80,-3.60,-1.45,-1.44,-1.45
129,1.30,2.76,1.32,2.79,-2.79,-3.57,-1.49,-1.47,-1.47
130,1.25,2.74,1.28,2.77,-2.77,-3.54,-1.53,-1.49,-1.49
131,1.22,2.73,1.23,2.76,-2.76,-3.51,-1.54,-1.52,-1.51
133,1.15,2.70,1.19,2.74,-2.74,-3.44,-1.59,-1.55,-1.55
134,1.14,2.71,1.14,2.72,-2.72,-3.41,-1.59,-1.58,-1.57
135,1.13,2.72,1.10,2.71,-2.71,-3.37,-1.58,-1.61,-1.59
137,1.09,2.71,1.06,2.69,-2.69,-3.28,-1.60,-1.64,-1.63
138,1.06,2.70,1.02,2.68,-2.68,-3.23,-1.62,-1.66,-1.64
140,0.99,2.67,0.98,2.66,-2.66,-3.14,-1.68,-1.68,-1.68
141,0.95,2.64,0.95,2.65,-2.65,-3.09,-1.71,-1.70,-1.70
142,0.91,2.62,0.92,2.64,-2.64,-3.04,-1.73,-1.72,-1.71
144,0.85,2.59,0.88,2.63,-2.63,-2.94,-1.78,-1.75,-1.75
145,0.83,2.59,0.85,2.62,-2.62,-2.88,-1.79,-1.77,-1.76
147,0.79,2.58,0.82,2.61,-2.61,-2.78,-1.82,-1.79,-1.79
148,0.79,2.60,0.78,2.60,-2.60,-2.72,-1.81,-1.82,-1.81
150,0.77,2.60,0.74,2.59,-2.59,-2.62,-1.82,-1.85,-1.84
151,0.75,2.60,0.71,2.58,-2.58,-2.56,-1.83,-1.87,-1.85
153,0.71,2.59,0.68,2.57,-2.57,-2.46,-1.86,-1.89,-1.88
154,0.68,2.57,0.66,2.56,-2.56,-2.40,-1.89,-1.91,-1.89
156,0.62,2.53,0.63,2.56,-2.56,-2.30,-1.94,-1.92,-1.92
157,0.60,2.53,0.61,2.55,-2.55,-2.25,-1.96,-1.94,-1.93
159,0.55,2.50,0.59,2.55,-2.55,-2.15,-2.00,-1.96,-1.95
160,0.54,2.50,0.57,2.54,-2.54,-2.10,-2.01,-1.98,-1.97
162,0.53,2.52,0.54,2.54,-2.54,-2.00,-2.01,-2.00,-1.99
164,0.52,2.53,0.52,2.53,-2.53,-1.90,-2.01,-2.01,-2.01
165,0.51,2.53,0.49,2.52,-2.52,-1.85,-2.01,-2.03,-2.02
167,0.49,2.53,0.46,2.51,-2.51,-1.76,-2.02,-2.05,-2.04
169,0.45,2.51,0.43,2.50,-2.50,-1.67,-2.05,-2.06,-2.06
170,0.44,2.51,0.40,2.48,-2.48,-1.63,-2.04,-2.08,-2.07
172,0.38,2.47,0.37,2.46,-2.46,-1.54,-2.08,-2.09,-2.09
174,0.33,2.43,0.33,2.44,-2.44,-1.46,-2.11,-2.11,-2.11
175,0.31,2.42,0.29,2.41,-2.41,-1.42,-2.10,-2.12,-2.12
177,0.25,2.38,0.25,2.38,-2.38,-1.34,-2.13,-2.14,-2.13
179,0.19,2.34,0.20,2.35,-2.35,-1.26,-2.16,-2.15,-2.15
181,0.13,2.29,0.15,2.32,-2.32,-1.18,-2.19,-2.17,-2.16
183,0.07,2.25,0.10,2.28,-2.28,-1.11,-2.21,-2.18,-2.18
184,0.05,2.23,0.05,2.24,-2.24,-1.07,-2.20,-2.19,-2.19
186,0.01,2.21,-0.00,2.21,-2.21,-1.00,-2.20,-2.21,-2.20
188,-0.03,2.18,-0.05,2.17,-2.17,-0.94,-2.20,-2.22,-2.21
190,-0.08,2.14,-0.10,2.14,-2.14,-0.87,-2.22,-2.24,-2.23
192,-0.14,2.10,-0.15,2.10,-2.10,-0.81,-2.25,-2.25,-2.24
194,-0.18,2.07,-0.19,2.07,-2.07,-0.74,-2.26,-2.26,-2.25
196,-0.24,2.02,-0.23,2.04,-2.04,-0.68,-2.29,-2.27,-2.26
198,-0.29,1.98,-0.27,2.02,-2.02,-0.62,-2.31,-2.29,-2.28
200,-0.33,1.95,-0.31,1.99,-1.99,-0.56,-2.32,-2.29,-2.29
202,-0.37,1.92,-0.34,1.96,-1.96,-0.51,-2.34,-2.31,-2.30
204,-0.40,1.90,-0.38,1.94,-1.94,-0.45,-2.34,-2.32,-2.31
206,-0.42,1.89,-0.42,1.91,-1.91,-0.39,-2.33,-2.33,-2.32
208,-0.46,1.86,-0.46,1.87,-1.87,-0.34,-2.34,-2.34,-2.33
210,-0.49,1.84,-0.50,1.84,-1.84,-0.29,-2.33,-2.34,-2.33
212,-0.54,1.80,-0.55,1.79,-1.79,-0.24,-2.33,-2.35,-2.34
214,-0.59,1.76,-0.62,1.74,-1.74,-0.19,-2.33,-2.35,-2.35
216,-0.65,1.71,-0.68,1.68,-1.68,-0.14,-2.33,-2.36,-2.36
218,-0.71,1.65,-0.76,1.61,-1.61,-0.09,-2.32,-2.37,-2.37
221,-0.84,1.54,-0.85,1.52,-1.52,-0.01,-2.37,-2.37,-2.38
223,-0.94,1.44,-0.95,1.43,-1.43,0.03,-2.38,-2.38,-2.39
225,-1.06,1.33,-1.06,1.33,-1.33,0.08,-2.39,-2.39,-2.39
227,-1.18,1.22,-1.18,1.22,-1.22,0.13,-2.40,-2.40,-2.40
229,-1.30,1.10,-1.31,1.10,-1.10,0.17,-2.40,-2.41,-2.41
232,-1.49,0.92,-1.45,0.97,-0.97,0.24,-2.46,-2.42,-2.41
234,-1.61,0.81,-1.59,0.83,-0.83,0.29,-2.44,-2.42,-2.42
236,-1.73,0.69,-1.75,0.68,-0.68,0.33,-2.41,-2.43,-2.43
239,-1.92,0.51,-1.91,0.53,-0.53,0.40,-2.45,-2.44,-2.43
241,-2.05,0.39,-2.07,0.37,-0.37,0.44,-2.43,-2.45,-2.44
244,-2.25,0.19,-2.24,0.21,-0.21,0.50,-2.47,-2.45,-2.45
246,-2.39,0.06,-2.41,0.05,-0.05,0.55,-2.44,-2.46,-2.45
248,-2.54,-0.09,-2.58,-0.12,0.12,0.59,-2.42,-2.47,-2.46
251,-2.76,-0.30,-2.76,-0.29,0.29,0.65,-2.47,-2.47,-2.46
253,-2.91,-0.44,-2.94,-0.46,0.46,0.70,-2.45,-2.47,-2.47
256,-3.13,-0.66,-3.11,-0.64,0.64,0.76,-2.50,-2.48,-2.47
259,-3.34,-0.86,-3.29,-0.81,0.81,0.82,-2.53,-2.48,-2.48
261,-3.48,-1.00,-3.48,-0.99,0.99,0.87,-2.49,-2.49,-2.48
264,-3.68,-1.19,-3.66,-1.16,1.16,0.93,-2.52,-2.49,-2.49
266,-3.81,-1.32,-3.84,-1.34,1.34,0.97,-2.48,-2.50,-2.49
269,-4.00,-1.50,-4.01,-1.51,1.51,1.03,-2.50,-2.51,-2.50
272,-4.18,-1.68,-4.19,-1.67,1.67,1.10,-2.51,-2.51,-2.50
274,-4.31,-1.81,-4.36,-1.84,1.84,1.14,-2.48,-2.52,-2.51
277,-4.50,-1.99,-4.52,-1.99,1.99,1.21,-2.51,-2.52,-2.51
280,-4.68,-2.17,-4.68,-2.15,2.15,1.27,-2.54,-2.53,-2.52
283,-4.85,-2.33,-4.82,-2.29,2.29,1.34,-2.56,-2.53,-2.52
286,-5.02,-2.50,-4.97,-2.43,2.43,1.40,-2.59,-2.53,-2.52
288,-5.12,-2.60,-5.11,-2.57,2.57,1.45,-2.55,-2.54,-2.53
291,-5.25,-2.72,-5.24,-2.70,2.70,1.51,-2.56,-2.54,-2.53
294,-5.38,-2.85,-5.37,-2.82,2.82,1.58,-2.56,-2.55,-2.53
297,-5.50,-2.97,-5.49,-2.94,2.94,1.65,-2.56,-2.55,-2.54
300,-5.61,-3.07,-5.61,-3.06,3.06,1.72,-2.55,-2.55,-2.54
303,-5.71,-3.17,-5.73,-3.18,3.18,1.79,-2.53,-2.55,-2.54
306,-5.82,-3.28,-5.85,-3.29,3.29,1.86,-2.53,-2.55,-2.55
309,-5.93,-3.38,-5.96,-3.41,3.41,1.93,-2.52,-2.55,-2.55
312,-6.04,-3.49,-6.08,-3.53,3.53,2.00,-2.52,-2.55,-2.55
316,-6.20,-3.65,-6.20,-3.65,3.65,2.10,-2.56,-2.55,-2.56
319,-6.32,-3.76,-6.32,-3.77,3.77,2.18,-2.56,-2.56,-2.56
322,-6.45,-3.89,-6.45,-3.89,3.89,2.25,-2.56,-2.56,-2.56
325,-6.57,-4.01,-6.58,-4.02,4.02,2.33,-2.56,-2.56,-2.57
328,-6.69,-4.13,-6.71,-4.14,4.14,2.41,-2.55,-2.57,-2.57
332,-6.85,-4.28,-6.84,-4.27,4.27,2.51,-2.58,-2.57,-2.57
335,-6.97,-4.40,-6.98,-4.40,4.40,2.59,-2.57,-2.57,-2.57
338,-7.09,-4.52,-7.11,-4.53,4.53,2.68,-2.56,-2.58,-2.57
342,-7.24,-4.67,-7.24,-4.66,4.66,2.79,-2.59,-2.58,-2.58
345,-7.35,-4.77,-7.36,-4.78,4.78,2.87,-2.57,-2.58,-2.58
349,-7.50,-4.92,-7.49,-4.90,4.90,2.98,-2.60,-2.58,-2.58
352,-7.60,-5.02,-7.61,-5.02,5.02,3.07,-2.58,-2.59,-2.58
356,-7.73,-5.15,-7.72,-5.13,5.13,3.19,-2.60,-2.59,-2.59
359,-7.82,-5.23,-7.83,-5.24,5.24,3.28,-2.59,-2.59,-2.59
363,-7.94,-5.35,-7.93,-5.34,5.34,3.40,-2.61,-2.59,-2.59
366,-8.02,-5.43,-8.03,-5.43,5.43,3.49,-2.59,-2.60,-2.59
370,-8.12,-5.53,-8.11,-5.51,5.51,3.61,-2.61,-2.60,-2.59
374,-8.20,-5.61,-8.19,-5.59,5.59,3.74,-2.61,-2.60,-2.60
377,-8.26,-5.67,-8.26,-5.66,5.66,3.83,-2.60,-2.60,-2.60
381,-8.33,-5.73,-8.33,-5.72,5.72,3.96,-2.61,-2.60,-2.60
385,-8.38,-5.78,-8.38,-5.78,5.78,4.08,-2.61,-2.60,-2.60
389,-8.43,-5.83,-8.43,-5.82,5.82,4.21,-2.61,-2.61,-2.60
393,-8.47,-5.87,-8.47,-5.86,5.86,4.34,-2.61,-2.61,-2.60
397,-8.50,-5.90,-8.50,-5.89,5.89,4.47,-2.61,-2.61,-2.61
401,-8.53,-5.93,-8.53,-5.92,5.92,4.60,-2.62,-2.61,-2.61
405,-8.54,-5.93,-8.55,-5.94,5.94,4.73,-2.61,-2.61,-2.61
409,-8.56,-5.95,-8.56,-5.95,5.95,4.85,-2.61,-2.61,-2.61
413,-8.56,-5.95,-8.57,-5.96,5.96,4.98,-2.60,-2.61,-2.61
417,-8.57,-5.96,-8.58,-5.96,5.96,5.11,-2.61,-2.62,-2.61
421,-8.57,-5.96,-8.58,-5.96,5.96,5.23,-2.61,-2.62,-2.62
425,-8.56,-5.95,-8.58,-5.96,5.96,5.35,-2.60,-2.63,-2.62
430,-8.55,-5.93,-8.58,-5.95,5.95,5.50,-2.60,-2.63,-2.62
434,-8.56,-5.94,-8.56,-5.93,5.93,5.61,-2.63,-2.63,-2.62
438,-8.54,-5.92,-8.54,-5.91,5.91,5.72,-2.63,-2.63,-2.62
443,-8.53,-5.91,-8.52,-5.89,5.89,5.85,-2.65,-2.63,-2.62
447,-8.52,-5.90,-8.48,-5.86,5.86,5.95,-2.67,-2.63,-2.62
451,-8.49,-5.88,-8.44,-5.82,5.82,6.05,-2.67,-2.62,-2.62
456,-8.43,-5.82,-8.40,-5.78,5.78,6.15,-2.65,-2.62,-2.61
460,-8.37,-5.77,-8.36,-5.75,5.75,6.23,-2.63,-2.61,-2.61
465,-8.28,-5.68,-8.31,-5.70,5.70,6.32,-2.58,-2.61,-2.60
470,-8.21,-5.62,-8.26,-5.66,5.66,6.40,-2.55,-2.60,-2.59
474,-8.16,-5.58,-8.20,-5.61,5.61,6.46,-2.55,-2.59,-2.58
479,-8.10,-5.53,-8.15,-5.57,5.57,6.51,-2.54,-2.58,-2.57
484,-8.06,-5.50,-8.09,-5.52,5.52,6.56,-2.54,-2.57,-2.56
489,-8.03,-5.49,-8.03,-5.48,5.48,6.59,-2.56,-2.55,-2.55
494,-7.98,-5.45,-7.96,-5.43,5.43,6.60,-2.55,-2.54,-2.53
499,-7.93,-5.42,-7.90,-5.38,5.38,6.61,-2.55,-2.52,-2.52
504,-7.87,-5.37,-7.84,-5.33,5.33,6.60,-2.54,-2.51,-2.50
509,-7.80,-5.32,-7.78,-5.28,5.28,6.57,-2.52,-2.50,-2.49
514,-7.72,-5.25,-7.72,-5.23,5.23,6.54,-2.49,-2.48,-2.47
519,-7.63,-5.18,-7.65,-5.18,5.18,6.49,-2.45,-2.46,-2.45
524,-7.56,-5.13,-7.58,-5.13,5.13,6.44,-2.43,-2.44,-2.44
529,-7.49,-5.08,-7.50,-5.08,5.08,6.37,-2.41,-2.42,-2.42
535,-7.40,-5.01,-7.43,-5.02,5.02,6.28,-2.38,-2.40,-2.40
540,-7.34,-4.97,-7.35,-4.97,4.97,6.20,-2.37,-2.38,-2.38
545,-7.27,-4.92,-7.27,-4.92,4.92,6.11,-2.36,-2.35,-2.35
551,-7.19,-4.86,-7.19,-4.86,4.86,5.99,-2.33,-2.32,-2.33
556,-7.12,-4.82,-7.11,-4.81,4.81,5.89,-2.31,-2.30,-2.30
562,-7.04,-4.77,-7.04,-4.76,4.76,5.76,-2.28,-2.28,-2.28
568,-6.95,-4.70,-6.96,-4.71,4.71,5.62,-2.24,-2.25,-2.25
573,-6.88,-4.66,-6.89,-4.67,4.67,5.51,-2.21,-2.22,-2.22
579,-6.80,-4.61,-6.81,-4.62,4.62,5.37,-2.18,-2.19,-2.19
585,-6.72,-4.56,-6.74,-4.58,4.58,5.22,-2.14,-2.16,-2.16
591,-6.64,-4.51,-6.66,-4.54,4.54,5.08,-2.11,-2.13,-2.13
596,-6.57,-4.47,-6.59,-4.49,4.49,4.96,-2.08,-2.10,-2.10
602,-6.50,-4.43,-6.51,-4.44,4.44,4.81,-2.06,-2.07,-2.07
608,-6.42,-4.38,-6.43,-4.38,4.38,4.67,-2.04,-2.05,-2.04
615,-6.32,-4.31,-6.35,-4.32,4.32,4.50,-2.00,-2.02,-2.01
621,-6.24,-4.26,-6.25,-4.25,4.25,4.36,-1.99,-2.00,-1.98
627,-6.15,-4.21,-6.14,-4.17,4.17,4.22,-1.98,-1.97,-1.95
633,-6.05,-4.14,-6.02,-4.07,4.07,4.09,-1.98,-1.94,-1.92
639,-5.93,-4.05,-5.88,-3.97,3.97,3.95,-1.97,-1.91,-1.88
646,-5.77,-3.92,-5.72,-3.84,3.84,3.80,-1.93,-1.88,-1.85
652,-5.61,-3.80,-5.55,-3.71,3.71,3.67,-1.90,-1.84,-1.82
659,-5.42,-3.64,-5.37,-3.56,3.56,3.52,-1.86,-1.81,-1.78
665,-5.22,-3.47,-5.18,-3.41,3.41,3.39,-1.81,-1.77,-1.75
672,-4.98,-3.27,-4.97,-3.25,3.25,3.25,-1.74,-1.73,-1.71
679,-4.74,-3.07,-4.77,-3.08,3.08,3.11,-1.66,-1.69,-1.68
686,-4.49,-2.85,-4.56,-2.92,2.92,2.98,-1.58,-1.65,-1.64
692,-4.30,-2.70,-4.36,-2.75,2.75,2.87,-1.55,-1.60,-1.60
699,-4.10,-2.54,-4.15,-2.59,2.59,2.74,-1.51,-1.56,-1.56
706,-3.91,-2.39,-3.96,-2.44,2.44,2.61,-1.48,-1.52,-1.53
713,-3.75,-2.27,-3.77,-2.29,2.29,2.49,-1.46,-1.48,-1.49
721,-3.58,-2.13,-3.59,-2.15,2.15,2.35,-1.43,-1.44,-1.45
728,-3.43,-2.02,-3.42,-2.02,2.02,2.24,-1.41,-1.40,-1.41
735,-3.29,-1.92,-3.26,-1.90,1.90,2.12,-1.40,-1.37,-1.37
742,-3.13,-1.80,-3.11,-1.78,1.78,2.01,-1.35,-1.33,-1.33
750,-2.97,-1.68,-2.97,-1.68,1.68,1.89,-1.30,-1.29,-1.29
757,-2.83,-1.58,-2.83,-1.58,1.58,1.78,-1.26,-1.26,-1.25
765,-2.69,-1.48,-2.70,-1.48,1.48,1.67,-1.21,-1.22,-1.22
773,-2.54,-1.36,-2.57,-1.39,1.39,1.55,-1.16,-1.18,-1.18
780,-2.44,-1.30,-2.45,-1.30,1.30,1.46,-1.15,-1.15,-1.14
788,-2.31,-1.21,-2.32,-1.21,1.21,1.35,-1.11,-1.12,-1.11
796,-2.19,-1.12,-2.20,-1.12,1.12,1.25,-1.07,-1.08,-1.07
804,-2.08,-1.04,-2.08,-1.03,1.03,1.15,-1.05,-1.05,-1.04
812,-1.97,-0.97,-1.96,-0.95,0.95,1.05,-1.02,-1.01,-1.01
820,-1.86,-0.89,-1.85,-0.86,0.86,0.95,-1.00,-0.98,-0.97
828,-1.76,-0.82,-1.73,-0.78,0.78,0.86,-0.98,-0.95,-0.94
837,-1.63,-0.72,-1.61,-0.70,0.70,0.76,-0.94,-0.92,-0.91
845,-1.52,-0.64,-1.50,-0.61,0.61,0.67,-0.91,-0.88,-0.88
853,-1.40,-0.55,-1.39,-0.53,0.53,0.59,-0.87,-0.85,-0.85
862,-1.26,-0.44,-1.28,-0.46,0.46,0.50,-0.81,-0.82,-0.82
871,-1.13,-0.34,-1.17,-0.38,0.38,0.41,-0.75,-0.79,-0.79
879,-1.04,-0.28,-1.07,-0.31,0.31,0.34,-0.74,-0.76,-0.76
888,-0.94,-0.21,-0.97,-0.24,0.24,0.26,-0.71,-0.74,-0.73
897,-0.86,-0.16,-0.88,-0.17,0.17,0.19,-0.70,-0.71,-0.71
906,-0.77,-0.09,-0.79,-0.10,0.10,0.11,-0.67,-0.68,-0.68
915,-0.70,-0.05,-0.70,-0.04,0.04,0.05,-0.66,-0.66,-0.65
924,-0.63,-0.01,-0.61,0.02,-0.02,-0.02,-0.65,-0.63,-0.63
933,-0.55,0.05,-0.53,0.08,-0.08,-0.08,-0.63,-0.61,-0.60
943,-0.47,0.10,-0.45,0.13,-0.13,-0.14,-0.61,-0.58,-0.57
952,-0.39,0.15,-0.37,0.19,-0.19,-0.19,-0.58,-0.56,-0.55
962,-0.31,0.21,-0.29,0.24,-0.24,-0.24,-0.55,-0.53,-0.52
971,-0.23,0.26,-0.22,0.28,-0.28,-0.29,-0.51,-0.50,-0.49
981,-0.14,0.33,-0.15,0.32,-0.32,-0.33,-0.46,-0.47,-0.47
991,-0.06,0.38,-0.09,0.36,-0.36,-0.37,-0.42,-0.44,-0.44
1001,0.01,0.42,-0.03,0.39,-0.39,-0.41,-0.38,-0.42,-0.42
1011,0.07,0.46,0.03,0.41,-0.41,-0.44,-0.34,-0.39,-0.39
1021,0.10,0.46,0.07,0.43,-0.43,-0.46,-0.33,-0.36,-0.36
1031,0.13,0.46,0.11,0.44,-0.44,-0.48,-0.31,-0.33,-0.34
1041,0.14,0.44,0.14,0.44,-0.44,-0.50,-0.31,-0.30,-0.31
1052,0.16,0.44,0.17,0.44,-0.44,-0.52,-0.28,-0.27,-0.28
1062,0.17,0.42,0.19,0.43,-0.43,-0.53,-0.27,-0.25,-0.25
1073,0.19,0.41,0.20,0.42,-0.42,-0.54,-0.24,-0.22,-0.22
1084,0.21,0.40,0.21,0.41,-0.41,-0.55,-0.20,-0.20,-0.19
1094,0.22,0.38,0.22,0.39,-0.39,-0.55,-0.17,-0.17,-0.16
1105,0.24,0.37,0.23,0.37,-0.37,-0.55,-0.14,-0.14,-0.13
1116,0.25,0.35,0.24,0.35,-0.35,-0.55,-0.11,-0.11,-0.10
1128,0.26,0.33,0.26,0.34,-0.34,-0.54,-0.08,-0.08,-0.07
1139,0.27,0.31,0.27,0.32,-0.32,-0.54,-0.05,-0.05,-0.04
1150,0.27,0.27,0.29,0.30,-0.30,-0.53,-0.04,-0.01,-0.01
1162,0.29,0.26,0.31,0.29,-0.29,-0.52,0.00,0.02,0.02
1173,0.31,0.25,0.32,0.27,-0.27,-0.51,0.04,0.05,0.06
1185,0.34,0.25,0.34,0.25,-0.25,-0.49,0.08,0.09,0.09
1197,0.36,0.24,0.35,0.24,-0.24,-0.48,0.12,0.12,0.12
1209,0.39,0.24,0.37,0.22,-0.22,-0.46,0.17,0.15,0.15
1221,0.41,0.22,0.38,0.20,-0.20,-0.45,0.21,0.18,0.18
1233,0.42,0.20,0.39,0.18,-0.18,-0.43,0.23,0.21,0.21
1246,0.43,0.18,0.41,0.16,-0.16,-0.41,0.26,0.24,0.25
1258,0.43,0.15,0.42,0.14,-0.14,-0.39,0.28,0.27,0.28
1271,0.44,0.12,0.43,0.13,-0.13,-0.37,0.31,0.31,0.31
1283,0.45,0.10,0.45,0.11,-0.11,-0.35,0.34,0.33,0.35
1296,0.45,0.06,0.46,0.10,-0.10,-0.33,0.35,0.36,0.38
1309,0.47,0.05,0.48,0.09,-0.09,-0.32,0.38,0.39,0.42
1322,0.50,0.04,0.51,0.08,-0.08,-0.30,0.41,0.43,0.46
1335,0.53,0.03,0.55,0.09,-0.09,-0.28,0.44,0.46,0.49
1349,0.58,0.05,0.59,0.09,-0.09,-0.25,0.48,0.50,0.53
1362,0.62,0.05,0.64,0.11,-0.11,-0.24,0.51,0.54,0.57
1376,0.68,0.07,0.71,0.13,-0.13,-0.22,0.55,0.58,0.60
1390,0.76,0.11,0.77,0.15,-0.15,-0.19,0.61,0.62,0.64
1404,0.83,0.15,0.85,0.18,-0.18,-0.18,0.65,0.67,0.68
1418,0.92,0.20,0.92,0.21,-0.21,-0.16,0.71,0.71,0.72
1432,1.01,0.25,1.00,0.24,-0.24,-0.14,0.77,0.75,0.76
1446,1.10,0.30,1.07,0.27,-0.27,-0.12,0.82,0.80,0.80
1461,1.17,0.33,1.14,0.30,-0.30,-0.10,0.86,0.84,0.84
1475,1.24,0.36,1.21,0.33,-0.33,-0.08,0.91,0.88,0.87
1490,1.29,0.37,1.27,0.35,-0.35,-0.06,0.94,0.92,0.91
1505,1.34,0.38,1.33,0.37,-0.37,-0.04,0.97,0.96,0.95
1520,1.37,0.37,1.38,0.38,-0.38,-0.03,0.99,1.00,0.99
1535,1.41,0.37,1.42,0.38,-0.38,-0.01,1.03,1.04,1.04
1550,1.44,0.36,1.45,0.37,-0.37,0.01,1.06,1.08,1.08
1566,1.47,0.34,1.48,0.36,-0.36,0.03,1.11,1.12,1.12
1582,1.49,0.32,1.50,0.33,-0.33,0.04,1.16,1.17,1.17
1597,1.50,0.28,1.50,0.29,-0.29,0.06,1.21,1.21,1.21
1613,1.51,0.25,1.51,0.24,-0.24,0.07,1.27,1.27,1.26
1629,1.50,0.19,1.49,0.17,-0.17,0.09,1.32,1.32,1.30
1646,1.48,0.13,1.47,0.10,-0.10,0.10,1.38,1.37,1.35
1662,1.46,0.06,1.43,0.01,-0.01,0.12,1.45,1.42,1.39
1679,1.42,-0.02,1.38,-0.09,0.09,0.13,1.51,1.47,1.44
1696,1.36,-0.13,1.31,-0.20,0.20,0.14,1.56,1.51,1.49
1713,1.29,-0.25,1.22,-0.32,0.32,0.15,1.61,1.55,1.54
1730,1.19,-0.40,1.13,-0.45,0.45,0.16,1.63,1.57,1.58
1747,1.08,-0.55,1.02,-0.57,0.57,0.17,1.65,1.59,1.63
