frequency,raw
20,-11.03
21,-10.25
22,-9.63
23,-9.08
24,-8.53
25,-8.10
26,-7.70
27,-7.17
28,-6.90
29,-6.51
30,-6.12
31,-5.84
32,-5.56
33,-5.21
34,-4.87
35,-4.55
36,-4.54
37,-4.22
38,-3.89
39,-3.65
40,-3.48
41,-3.24
42,-2.97
43,-2.87
44,-2.61
45,-2.44
46,-2.27
47,-2.03
48,-1.95
49,-1.82
50,-1.62
51,-1.43
52,-1.30
53,-1.30
54,-1.11
55,-0.97
56,-0.86
57,-0.66
58,-0.65
59,-0.65
60,-0.57
61,-0.38
62,-0.32
63,-0.32
64,-0.32
65,0.00
66,0.00
67,0.00
68,0.00
69,0.00
70,0.00
71,0.04
72,0.16
73,0.19
74,0.32
75,0.32
76,0.32
77,0.32
78,0.32
79,0.32
80,0.32
81,0.32
82,0.32
83,0.32
84,0.32
85,0.32
86,0.42
87,0.55
88,0.65
89,0.65
90,0.65
91,0.65
92,0.65
93,0.65
94,0.65
95,0.65
96,0.69
97,0.80
98,0.92
99,0.97
100,0.97
101,0.97
102,0.97
104,0.97
105,0.97
106,0.97
107,0.97
108,0.97
109,0.98
110,1.09
111,1.14
112,1.14
113,1.14
114,1.17
115,1.26
117,1.30
118,1.30
119,1.30
120,1.30
121,1.30
123,1.30
124,1.30
125,1.30
126,1.30
128,1.30
129,1.30
130,1.30
131,1.30
133,1.45
134,1.53
135,1.62
137,1.62
138,1.62
140,1.62
141,1.62
142,1.62
144,1.62
145,1.62
147,1.62
148,1.62
150,1.62
151,1.62
153,1.62
154,1.62
156,1.62
157,1.62
159,1.62
160,1.62
162,1.62
164,1.62
165,1.62
167,1.62
169,1.52
170,1.46
172,1.32
174,1.30
175,1.30
177,1.30
179,1.30
181,1.30
183,1.30
184,1.30
186,1.30
188,1.30
190,1.30
192,1.30
194,1.30
196,1.30
198,1.30
200,1.30
202,1.30
204,1.30
206,1.30
208,1.30
210,1.30
212,1.30
214,1.30
216,1.30
218,1.30
221,1.30
223,1.30
225,1.30
227,1.27
229,1.17
232,1.03
234,0.97
236,0.97
239,0.97
241,0.97
244,0.97
246,0.97
248,0.97
251,0.97
253,0.97
256,0.97
259,0.97
261,0.97
264,0.97
266,0.97
269,0.97
272,0.97
274,0.97
277,0.97
280,0.97
283,0.97
286,0.97
288,0.97
291,0.97
294,0.97
297,0.97
300,0.97
303,0.97
306,0.97
309,0.97
312,0.97
316,0.97
319,0.97
322,0.97
325,0.97
328,0.97
332,0.97
335,0.97
338,0.97
342,0.97
345,0.97
349,0.97
352,0.97
356,0.89
359,0.81
363,0.81
366,0.74
370,0.65
374,0.65
377,0.65
381,0.65
385,0.65
389,0.65
393,0.59
397,0.47
401,0.36
405,0.32
409,0.32
413,0.32
417,0.32
421,0.27
425,0.06
430,0.00
434,0.00
438,0.00
443,0.00
447,-0.05
451,-0.15
456,-0.28
460,-0.32
465,-0.34
470,-0.46
474,-0.55
479,-0.65
484,-0.65
489,-0.84
494,-0.97
499,-0.97
504,-1.09
509,-1.20
514,-1.31
519,-1.42
524,-1.52
529,-1.62
535,-1.62
540,-1.78
545,-1.95
551,-1.95
556,-2.12
562,-2.27
568,-2.27
573,-2.37
579,-2.49
585,-2.59
591,-2.59
596,-2.65
602,-2.77
608,-2.88
615,-2.92
621,-2.92
627,-2.92
633,-2.92
639,-2.92
646,-2.92
652,-3.02
659,-3.08
665,-3.08
672,-3.08
679,-3.01
686,-2.92
692,-2.92
699,-2.92
706,-2.92
713,-2.92
721,-2.82
728,-2.71
735,-2.60
742,-2.59
750,-2.53
757,-2.43
765,-2.31
773,-2.19
780,-2.09
788,-1.98
796,-1.86
804,-1.75
812,-1.64
820,-1.53
828,-1.42
837,-1.30
845,-1.19
853,-1.08
862,-0.96
871,-0.85
879,-0.74
888,-0.63
897,-0.51
906,-0.40
915,-0.32
924,-0.32
933,-0.23
943,-0.11
952,-0.00
962,-0.00
971,0.00
981,-0.00
991,0.00
1001,0.00
1011,-0.00
1021,-0.00
1031,0.00
1041,-0.00
1052,0.00
1062,0.00
1073,-0.00
1084,0.00
1094,0.11
1105,0.22
1116,0.32
1128,0.32
1139,0.32
1150,0.37
1162,0.60
1173,0.65
1185,0.68
1197,0.80
1209,0.91
1221,0.97
1233,0.97
1246,1.09
1258,1.20
1271,1.30
1283,1.30
1296,1.30
1309,1.32
1322,1.43
1335,1.54
1349,1.62
1362,1.62
1376,1.62
1390,1.62
1404,1.62
1418,1.62
1432,1.62
1446,1.62
1461,1.62
1475,1.62
1490,1.62
1505,1.62
1520,1.62
1535,1.62
1550,1.62
1566,1.62
1582,1.62
1597,1.62
1613,1.62
1629,1.68
1646,1.80
1662,1.91
1679,1.95
1696,1.95
1713,1.95
1730,1.95
1747,1.95
1764,1.95
1782,2.05
1800,2.16
1818,2.27
1836,2.27
1854,2.27
1873,2.27
1892,2.27
1911,2.35
1930,2.46
1949,2.57
1969,2.59
1988,2.59
2008,2.59
2028,2.59
2048,2.65
2069,2.76
2090,2.88
2111,2.92
2132,2.94
2153,3.05
2175,3.16
2196,3.24
2218,3.24
2240,3.42
2263,3.57
2285,3.57
2308,3.78
2331,3.95
2355,4.06
2378,4.17
2402,4.28
2426,4.40
2450,4.51
2475,4.62
2500,4.74
2525,4.85
2550,5.05
2575,5.19
2601,5.19
2627,5.40
2653,5.51
2680,5.51
2707,5.51
2734,5.65
2761,5.84
2789,5.84
2817,5.84
2845,5.84
2873,5.84
2902,5.84
2931,5.84
2960,5.84
2990,5.84
3020,5.84
3050,5.84
3080,5.84
3111,5.84
3142,5.80
3174,5.57
3206,5.51
3238,5.48
3270,5.37
3303,5.25
3336,5.14
3369,5.03
3403,4.92
3437,4.75
3471,4.53
3506,4.42
3541,4.31
3576,4.17
3612,3.95
3648,3.72
3685,3.53
3721,3.42
3759,3.21
3796,3.03
3834,2.92
3873,2.70
3911,2.54
3950,2.41
3990,2.19
4030,2.03
4070,1.90
4111,1.67
4152,1.54
4193,1.42
4235,1.31
4278,1.20
4321,1.09
4364,0.97
4407,0.86
4451,0.75
4496,0.65
4541,0.65
4586,0.65
4632,0.65
4679,0.65
4725,0.65
4773,0.65
4820,0.65
4868,0.85
4917,1.02
4966,1.13
5016,1.36
5066,1.58
5117,1.81
5168,2.03
5220,2.26
5272,2.48
5325,2.71
5378,2.93
5432,3.16
5486,3.38
5541,3.61
5596,3.83
5652,4.06
5709,4.28
5766,4.51
5823,4.73
5882,4.96
5940,5.18
6000,5.40
6060,5.63
6120,5.85
6182,6.08
6244,6.31
6306,6.63
6369,6.91
6433,7.14
6497,7.36
6562,7.52
6628,7.64
6694,7.75
6761,7.86
6828,7.97
6897,8.09
6966,8.11
7035,8.07
7106,7.95
7177,7.84
7249,7.78
7321,7.78
7394,7.78
7468,7.65
7543,7.44
7618,7.33
7694,7.14
7771,6.92
7849,6.69
7928,6.46
8007,6.16
8087,5.71
8168,5.36
8250,5.02
8332,4.68
8415,4.24
8499,3.79
8584,3.36
8670,3.02
8757,2.68
8845,2.37
8933,2.15
9022,1.92
9113,1.70
9204,1.47
9296,1.25
9389,1.02
9483,0.80
9577,0.58
9673,0.28
9770,-0.07
9868,-0.53
9966,-0.97
10066,-1.49
10167,-2.16
10268,-2.64
10371,-3.14
10475,-3.70
10579,-4.05
10685,-4.33
10792,-4.54
10900,-4.54
11009,-4.47
11119,-4.34
11230,-4.11
11343,-3.89
11456,-3.66
11571,-3.44
11686,-3.22
11803,-2.99
11921,-2.77
12040,-2.54
12161,-2.32
12282,-2.10
12405,-1.99
12529,-1.88
12655,-1.76
12781,-1.65
12909,-1.54
13038,-1.43
13168,-1.31
13300,-1.39
13433,-1.51
13567,-1.62
13703,-1.73
13840,-1.90
13978,-2.13
14118,-2.35
14259,-2.65
14402,-2.98
14546,-3.32
14692,-3.58
14838,-3.87
14987,-4.32
15137,-4.57
15288,-4.80
15441,-5.02
15595,-5.25
15751,-5.59
15909,-6.02
16068,-6.25
16229,-6.47
16391,-6.70
16555,-6.92
16720,-7.06
16888,-7.21
17056,-7.43
17227,-7.66
17399,-7.93
17573,-8.27
17749,-8.49
17926,-8.72
18106,-8.94
18287,-9.17
18470,-9.39
18654,-9.62
18841,-9.84
19029,-10.15
19220,-10.45
19412,-10.68
19606,-10.90
19802,-11.13
20000,-11.35
