frequency,raw
20,-5.18
21,-5.83
22,-5.62
23,-5.06
24,-4.31
25,-3.55
26,-2.87
27,-2.30
28,-1.87
29,-1.61
30,-1.29
31,-0.97
32,-0.69
33,-0.50
34,-0.32
35,0.00
36,0.16
37,0.47
38,0.66
39,0.90
40,1.02
41,1.30
42,1.52
43,1.63
44,1.78
45,1.95
46,2.11
47,2.36
48,2.60
49,2.60
50,2.73
51,2.93
52,3.01
53,3.23
54,3.25
55,3.39
56,3.57
57,3.57
58,3.57
59,3.63
60,3.82
61,3.90
62,3.90
63,4.04
64,4.22
65,4.22
66,4.22
67,4.28
68,4.55
69,4.55
70,4.59
71,4.75
72,4.87
73,4.87
74,4.89
75,5.04
76,5.19
77,5.20
78,5.20
79,5.20
80,5.28
81,5.42
82,5.52
83,5.52
84,5.52
85,5.64
86,5.77
87,5.85
88,5.85
89,5.85
90,5.85
91,5.93
92,6.05
93,6.17
94,6.17
95,6.17
96,6.21
97,6.32
98,6.44
99,6.49
100,6.50
101,6.62
102,6.73
104,6.82
105,6.82
106,6.86
107,7.07
108,7.14
109,7.14
110,7.14
111,7.20
112,7.30
113,7.40
114,7.47
115,7.47
117,7.47
118,7.47
119,7.53
120,7.71
121,7.79
123,7.79
124,7.79
125,7.79
126,7.82
128,8.00
129,8.08
130,8.12
131,8.12
133,8.12
134,8.12
135,8.12
137,8.12
138,8.12
140,8.20
141,8.28
142,8.28
144,8.35
145,8.43
147,8.44
148,8.44
150,8.44
151,8.44
153,8.44
154,8.44
156,8.44
157,8.44
159,8.44
160,8.44
162,8.44
164,8.44
165,8.44
167,8.44
169,8.44
170,8.44
172,8.44
174,8.44
175,8.44
177,8.44
179,8.44
181,8.44
183,8.44
184,8.44
186,8.44
188,8.44
190,8.44
192,8.44
194,8.44
196,8.44
198,8.44
200,8.44
202,8.44
204,8.44
206,8.44
208,8.44
210,8.44
212,8.44
214,8.44
216,8.44
218,8.44
221,8.44
223,8.44
225,8.44
227,8.44
229,8.44
232,8.44
234,8.40
236,8.30
239,8.16
241,8.12
244,8.12
246,8.12
248,8.12
251,8.12
253,8.12
256,8.12
259,8.12
261,8.12
264,8.12
266,8.12
269,8.12
272,8.12
274,8.12
277,8.12
280,8.12
283,8.12
286,8.12
288,8.12
291,8.12
294,8.09
297,7.97
300,7.86
303,7.79
306,7.79
309,7.79
312,7.79
316,7.79
319,7.79
322,7.79
325,7.77
328,7.66
332,7.53
335,7.47
338,7.47
342,7.47
345,7.47
349,7.45
352,7.35
356,7.23
359,7.14
363,7.14
366,7.14
370,7.09
374,6.84
377,6.82
381,6.82
385,6.82
389,6.61
393,6.49
397,6.48
401,6.37
405,6.26
409,6.17
413,6.17
417,6.01
421,5.85
425,5.85
430,5.64
434,5.52
438,5.52
443,5.29
447,5.20
451,5.20
456,4.96
460,4.87
465,4.85
470,4.60
474,4.48
479,4.36
484,4.24
489,4.03
494,3.90
499,3.90
504,3.68
509,3.51
514,3.40
519,3.29
524,3.12
529,2.92
535,2.79
540,2.68
545,2.58
551,2.46
556,2.35
562,2.23
568,2.11
573,2.01
579,1.95
585,1.93
591,1.70
596,1.63
602,1.61
608,1.38
615,1.30
621,1.30
627,1.30
633,1.12
639,0.98
646,0.98
652,0.88
659,0.76
665,0.66
672,0.66
679,0.58
686,0.47
692,0.37
699,0.33
706,0.31
713,0.19
721,0.07
728,0.01
735,0.01
742,-0.09
750,-0.21
757,-0.32
765,-0.32
773,-0.39
780,-0.50
788,-0.61
796,-0.64
804,-0.64
812,-0.64
820,-0.64
828,-0.68
837,-0.81
845,-0.91
853,-0.97
862,-0.97
871,-0.97
879,-0.97
888,-0.94
897,-0.83
906,-0.72
915,-0.64
924,-0.64
933,-0.64
943,-0.59
952,-0.48
962,-0.36
971,-0.32
981,-0.30
991,-0.07
1001,0.01
1011,0.03
1021,0.14
1031,0.26
1041,0.33
1052,0.33
1062,0.43
1073,0.54
1084,0.66
1094,0.66
1105,0.66
1116,0.66
1128,0.66
1139,0.66
1150,0.61
1162,0.38
1173,0.25
1185,0.13
1197,0.02
1209,-0.19
1221,-0.37
1233,-0.48
1246,-0.60
1258,-0.70
1271,-0.82
1283,-0.93
1296,-1.04
1309,-1.15
1322,-1.26
1335,-1.29
1349,-1.29
1362,-1.29
1376,-1.29
1390,-1.18
1404,-0.96
1418,-0.85
1432,-0.67
1446,-0.45
1461,-0.22
1475,-0.00
1490,0.22
1505,0.45
1520,0.67
1535,0.90
1550,1.12
1566,1.25
1582,1.42
1597,1.63
1613,1.74
1629,1.85
1646,1.99
1662,2.20
1679,2.28
1696,2.31
1713,2.42
1730,2.53
1747,2.60
1764,2.60
1782,2.60
1800,2.60
1818,2.60
1836,2.60
1854,2.60
1873,2.62
1892,2.73
1911,2.84
1930,2.93
1949,2.93
1969,3.11
1988,3.33
2008,3.56
2028,3.68
2048,3.94
2069,4.39
2090,4.62
2111,4.92
2132,5.25
2153,5.59
2175,6.01
2196,6.39
2218,6.61
2240,7.02
2263,7.39
2285,7.61
2308,7.94
2331,8.22
2355,8.45
2378,8.67
2402,8.90
2426,9.11
2450,9.22
2475,9.33
2500,9.41
2525,9.41
2550,9.41
2575,9.41
2601,9.41
2627,9.41
2653,9.30
2680,9.08
2707,8.97
2734,8.86
2761,8.73
2789,8.50
2817,8.19
2845,7.89
2873,7.67
2902,7.34
2931,7.01
2960,6.67
2990,6.33
3020,5.99
3050,5.65
3080,5.21
3111,4.76
3142,4.35
3174,4.12
3206,3.72
3238,3.34
3270,3.12
3303,2.80
3336,2.51
3369,2.28
3403,2.06
3437,1.89
3471,1.78
3506,1.67
3541,1.63
3576,1.63
3612,1.63
3648,1.63
3685,1.66
3721,1.77
3759,1.99
3796,2.21
3834,2.43
3873,2.77
3911,3.10
3950,3.43
3990,3.66
4030,3.81
4070,3.94
4111,4.17
4152,4.31
4193,4.42
4235,4.53
4278,4.55
4321,4.60
4364,4.71
4407,4.82
4451,4.87
4496,4.87
4541,4.87
4586,4.87
4632,4.87
4679,4.87
4725,4.87
4773,4.83
4820,4.72
4868,4.61
4917,4.45
4966,4.23
5016,4.22
5066,4.16
5117,4.05
5168,3.94
5220,3.90
5272,3.90
5325,3.90
5378,3.90
5432,3.90
5486,3.90
5541,3.90
5596,3.95
5652,4.06
5709,4.18
5766,4.29
5823,4.41
5882,4.64
5940,4.86
6000,5.09
6060,5.31
6120,5.54
6182,5.76
6244,5.99
6306,6.21
6369,6.44
6433,6.66
6497,6.77
6562,6.95
6628,7.14
6694,7.14
6761,7.14
6828,7.14
6897,7.14
6966,7.14
7035,7.02
7106,6.68
7177,6.35
7249,6.06
7321,5.84
7394,5.61
7468,5.32
7543,5.00
7618,4.78
7694,4.40
7771,3.95
7849,3.50
7928,3.04
8007,2.60
8087,2.15
8168,1.70
8250,1.36
8332,1.12
8415,0.68
8499,0.36
8584,0.17
8670,0.17
8757,0.33
8845,0.59
8933,0.92
9022,1.26
9113,1.64
9204,2.09
9296,2.22
9389,2.39
9483,2.60
9577,2.60
9673,2.60
9770,2.60
9868,2.60
9966,2.68
10066,2.76
10167,2.76
10268,2.86
10371,2.93
10475,2.93
10579,2.93
10685,2.93
10792,2.93
10900,2.93
11009,2.79
11119,2.58
11230,2.47
11343,2.19
11456,1.86
11571,1.52
11686,1.37
11803,1.21
11921,0.99
12040,0.98
12161,0.86
12282,0.66
12405,0.66
12529,0.66
12655,0.66
12781,0.66
12909,0.66
13038,0.69
13168,0.80
13300,0.91
13433,1.03
13567,1.14
13703,1.25
13840,1.42
13978,1.63
14118,1.63
14259,1.63
14402,1.63
14546,1.63
14692,1.63
14838,1.59
14987,1.48
15137,1.37
15288,1.26
15441,1.14
15595,0.92
15751,0.76
15909,0.62
16068,0.29
16229,-0.05
16391,-0.41
16555,-0.86
16720,-1.39
16888,-1.96
17056,-2.52
17227,-2.88
17399,-3.22
17573,-3.56
17749,-3.67
17926,-3.72
18106,-3.71
18287,-3.60
18470,-3.56
18654,-3.56
18841,-3.56
19029,-3.56
19220,-3.52
19412,-3.41
19606,-3.40
19802,-3.40
20000,-3.40
