frequency,raw,error,smoothed,error_smoothed,equalization,parametric_eq,fixed_band_eq,equalized_raw,equalized_smoothed,target
20.00,0.03,-3.06,0.02,-3.07,3.07,2.18,0.83,3.10,3.09,3.09
20.20,0.05,-3.07,0.06,-3.06,3.06,2.17,0.85,3.10,3.12,3.12
20.40,0.11,-3.04,0.11,-3.04,3.04,2.16,0.88,3.15,3.15,3.15
20.61,0.16,-3.01,0.15,-3.02,3.02,2.15,0.91,3.18,3.17,3.17
20.81,0.20,-3.00,0.20,-3.00,3.00,2.14,0.93,3.20,3.20,3.20
21.02,0.24,-2.99,0.24,-2.98,2.98,2.13,0.96,3.21,3.22,3.23
21.23,0.29,-2.95,0.28,-2.96,2.95,2.12,0.99,3.24,3.23,3.24
21.44,0.33,-2.92,0.33,-2.92,2.92,2.11,1.02,3.25,3.25,3.25
21.66,0.37,-2.89,0.37,-2.88,2.88,2.10,1.05,3.25,3.26,3.26
21.87,0.42,-2.84,0.41,-2.85,2.85,2.09,1.09,3.26,3.26,3.26
22.09,0.46,-2.81,0.46,-2.81,2.81,2.08,1.12,3.26,3.26,3.27
22.31,0.50,-2.77,0.50,-2.76,2.76,2.07,1.16,3.26,3.27,3.27
22.54,0.55,-2.72,0.54,-2.72,2.72,2.05,1.19,3.27,3.26,3.27
22.76,0.59,-2.68,0.59,-2.68,2.67,2.04,1.23,3.26,3.26,3.26
22.99,0.63,-2.63,0.63,-2.63,2.63,2.03,1.26,3.26,3.26,3.25
23.22,0.67,-2.59,0.67,-2.58,2.59,2.02,1.30,3.26,3.26,3.25
23.45,0.72,-2.54,0.71,-2.54,2.55,2.01,1.34,3.27,3.26,3.25
23.69,0.75,-2.51,0.75,-2.50,2.51,1.99,1.38,3.25,3.26,3.25
23.92,0.79,-2.47,0.79,-2.47,2.47,1.98,1.42,3.26,3.26,3.25
24.16,0.83,-2.43,0.83,-2.43,2.43,1.97,1.46,3.26,3.25,3.26
24.40,0.86,-2.40,0.87,-2.39,2.39,1.95,1.50,3.25,3.26,3.26
24.65,0.91,-2.34,0.90,-2.36,2.35,1.94,1.54,3.26,3.25,3.25
24.89,0.94,-2.31,0.94,-2.31,2.32,1.93,1.58,3.25,3.25,3.25
25.14,0.97,-2.28,0.98,-2.27,2.28,1.91,1.63,3.25,3.25,3.25
25.39,1.02,-2.23,1.01,-2.24,2.24,1.90,1.67,3.26,3.25,3.25
25.65,1.05,-2.20,1.05,-2.20,2.20,1.89,1.71,3.25,3.24,3.25
25.91,1.08,-2.16,1.08,-2.16,2.16,1.87,1.75,3.24,3.24,3.24
26.16,1.11,-2.13,1.11,-2.13,2.13,1.86,1.79,3.23,3.24,3.24
26.43,1.16,-2.08,1.15,-2.09,2.09,1.84,1.83,3.25,3.24,3.24
26.69,1.19,-2.05,1.19,-2.05,2.06,1.83,1.87,3.24,3.24,3.24
26.96,1.22,-2.02,1.22,-2.02,2.02,1.81,1.91,3.24,3.24,3.24
27.23,1.25,-1.99,1.25,-1.99,1.98,1.79,1.95,3.23,3.23,3.24
27.50,1.28,-1.96,1.28,-1.96,1.95,1.78,1.99,3.22,3.22,3.24
27.77,1.31,-1.92,1.31,-1.91,1.91,1.76,2.02,3.22,3.22,3.22
28.05,1.35,-1.88,1.35,-1.87,1.88,1.75,2.06,3.22,3.22,3.22
28.33,1.39,-1.83,1.38,-1.84,1.84,1.73,2.09,3.23,3.22,3.21
28.62,1.41,-1.80,1.41,-1.80,1.80,1.71,2.12,3.21,3.22,3.21
28.90,1.44,-1.77,1.44,-1.76,1.77,1.69,2.14,3.21,3.21,3.21
29.19,1.48,-1.72,1.47,-1.74,1.73,1.68,2.16,3.21,3.20,3.20
29.48,1.51,-1.70,1.50,-1.70,1.70,1.66,2.18,3.21,3.20,3.21
29.78,1.52,-1.68,1.53,-1.67,1.67,1.64,2.20,3.18,3.20,3.20
30.08,1.57,-1.63,1.56,-1.64,1.63,1.62,2.21,3.20,3.19,3.20
30.38,1.60,-1.59,1.59,-1.60,1.60,1.60,2.22,3.20,3.19,3.19
30.68,1.61,-1.58,1.62,-1.56,1.57,1.58,2.22,3.18,3.19,3.19
30.99,1.65,-1.53,1.64,-1.54,1.54,1.56,2.23,3.18,3.18,3.17
31.30,1.67,-1.51,1.67,-1.50,1.50,1.54,2.22,3.17,3.17,3.17
31.61,1.70,-1.47,1.70,-1.47,1.47,1.52,2.22,3.17,3.17,3.17
31.93,1.73,-1.43,1.72,-1.44,1.44,1.50,2.20,3.17,3.16,3.16
32.24,1.74,-1.41,1.75,-1.41,1.41,1.48,2.19,3.14,3.15,3.15
32.57,1.78,-1.37,1.77,-1.37,1.37,1.46,2.17,3.15,3.15,3.15
32.89,1.80,-1.35,1.80,-1.34,1.34,1.44,2.15,3.14,3.14,3.15
33.22,1.83,-1.31,1.83,-1.31,1.31,1.41,2.12,3.14,3.14,3.13
33.55,1.86,-1.28,1.85,-1.28,1.28,1.39,2.10,3.14,3.13,3.13
33.89,1.87,-1.25,1.87,-1.25,1.25,1.37,2.06,3.12,3.12,3.12
34.23,1.91,-1.21,1.90,-1.22,1.22,1.35,2.03,3.12,3.11,3.12
34.57,1.91,-1.20,1.92,-1.19,1.18,1.32,1.99,3.09,3.10,3.11
34.92,1.96,-1.14,1.95,-1.15,1.15,1.30,1.95,3.11,3.10,3.10
35.27,1.97,-1.13,1.97,-1.12,1.12,1.27,1.91,3.09,3.09,3.09
35.62,2.00,-1.08,2.00,-1.08,1.09,1.25,1.86,3.08,3.09,3.08
35.97,2.03,-1.04,2.02,-1.06,1.05,1.22,1.82,3.08,3.07,3.07
36.33,2.04,-1.03,2.04,-1.02,1.02,1.20,1.77,3.06,3.06,3.07
36.70,2.06,-1.00,2.06,-0.99,0.99,1.17,1.72,3.05,3.05,3.06
37.06,2.09,-0.96,2.09,-0.96,0.96,1.15,1.67,3.05,3.05,3.04
37.43,2.12,-0.92,2.11,-0.93,0.93,1.12,1.62,3.05,3.04,3.04
37.81,2.13,-0.90,2.13,-0.90,0.90,1.09,1.57,3.03,3.03,3.03
38.19,2.15,-0.87,2.15,-0.87,0.87,1.07,1.52,3.02,3.02,3.02
38.57,2.17,-0.85,2.17,-0.84,0.84,1.04,1.46,3.01,3.01,3.01
38.95,2.18,-0.82,2.19,-0.81,0.81,1.01,1.41,2.99,2.99,3.00
39.34,2.22,-0.77,2.21,-0.78,0.78,0.98,1.36,3.00,2.99,2.99
39.74,2.22,-0.76,2.23,-0.75,0.75,0.95,1.31,2.97,2.98,2.97
40.14,2.26,-0.71,2.25,-0.72,0.72,0.92,1.25,2.98,2.97,2.97
40.54,2.26,-0.70,2.27,-0.69,0.70,0.89,1.20,2.95,2.96,2.96
40.94,2.30,-0.66,2.28,-0.67,0.67,0.86,1.15,2.97,2.95,2.95
41.35,2.30,-0.64,2.30,-0.65,0.65,0.83,1.10,2.94,2.94,2.94
41.76,2.30,-0.64,2.32,-0.62,0.62,0.80,1.05,2.92,2.94,2.94
42.18,2.35,-0.58,2.33,-0.60,0.60,0.77,1.00,2.94,2.92,2.93
42.60,2.35,-0.57,2.35,-0.58,0.57,0.74,0.95,2.92,2.92,2.92
43.03,2.35,-0.57,2.37,-0.55,0.55,0.71,0.90,2.89,2.91,2.91
43.46,2.39,-0.51,2.37,-0.53,0.52,0.68,0.85,2.91,2.89,2.90
43.90,2.39,-0.49,2.39,-0.49,0.49,0.65,0.80,2.88,2.88,2.88
44.33,2.39,-0.47,2.40,-0.46,0.46,0.61,0.76,2.85,2.87,2.86
44.78,2.43,-0.42,2.41,-0.43,0.43,0.58,0.71,2.86,2.85,2.85
45.23,2.43,-0.40,2.42,-0.41,0.41,0.55,0.66,2.83,2.83,2.83
45.68,2.43,-0.39,2.44,-0.38,0.38,0.52,0.62,2.81,2.82,2.82
46.13,2.45,-0.35,2.45,-0.35,0.36,0.48,0.57,2.80,2.81,2.80
46.60,2.48,-0.32,2.47,-0.32,0.33,0.45,0.53,2.81,2.80,2.79
47.06,2.48,-0.30,2.47,-0.30,0.30,0.42,0.49,2.78,2.78,2.78
47.53,2.48,-0.28,2.48,-0.28,0.28,0.39,0.44,2.76,2.76,2.76
48.01,2.48,-0.28,2.49,-0.26,0.25,0.36,0.40,2.73,2.74,2.76
48.49,2.52,-0.21,2.50,-0.22,0.22,0.32,0.36,2.74,2.72,2.73
48.97,2.52,-0.18,2.51,-0.19,0.19,0.29,0.32,2.71,2.70,2.70
49.46,2.52,-0.16,2.52,-0.15,0.16,0.26,0.28,2.68,2.68,2.68
49.96,2.52,-0.13,2.53,-0.13,0.13,0.23,0.24,2.65,2.66,2.65
50.46,2.54,-0.10,2.54,-0.10,0.10,0.20,0.20,2.64,2.64,2.64
50.96,2.56,-0.06,2.55,-0.07,0.07,0.17,0.16,2.63,2.62,2.62
51.47,2.56,-0.04,2.56,-0.04,0.04,0.14,0.12,2.60,2.60,2.59
51.99,2.56,-0.02,2.56,-0.02,0.02,0.11,0.09,2.57,2.58,2.58
52.51,2.56,-0.01,2.57,0.01,-0.01,0.08,0.05,2.55,2.56,2.57
53.03,2.59,0.04,2.58,0.04,-0.04,0.05,0.02,2.55,2.54,2.55
53.56,2.61,0.08,2.60,0.07,-0.07,0.02,-0.02,2.54,2.53,2.53
54.10,2.61,0.10,2.61,0.10,-0.10,-0.00,-0.05,2.51,2.51,2.51
54.64,2.61,0.12,2.61,0.13,-0.13,-0.03,-0.09,2.48,2.49,2.49
55.18,2.62,0.15,2.62,0.16,-0.15,-0.06,-0.12,2.46,2.47,2.47
55.74,2.65,0.20,2.64,0.19,-0.18,-0.09,-0.15,2.47,2.46,2.45
56.29,2.65,0.21,2.65,0.22,-0.21,-0.11,-0.19,2.44,2.44,2.44
56.86,2.65,0.23,2.65,0.23,-0.23,-0.14,-0.22,2.41,2.42,2.41
57.42,2.65,0.26,2.65,0.25,-0.26,-0.16,-0.25,2.39,2.39,2.39
58.00,2.65,0.27,2.66,0.28,-0.28,-0.19,-0.28,2.37,2.38,2.38
58.58,2.67,0.30,2.67,0.30,-0.30,-0.21,-0.30,2.37,2.37,2.37
59.16,2.69,0.33,2.68,0.33,-0.32,-0.23,-0.33,2.36,2.36,2.35
59.76,2.69,0.35,2.69,0.35,-0.35,-0.26,-0.36,2.34,2.34,2.34
60.35,2.69,0.37,2.69,0.37,-0.37,-0.28,-0.38,2.32,2.32,2.32
60.96,2.69,0.39,2.69,0.39,-0.40,-0.31,-0.41,2.29,2.29,2.30
61.57,2.69,0.42,2.69,0.42,-0.42,-0.33,-0.43,2.27,2.27,2.27
62.18,2.69,0.45,2.69,0.44,-0.44,-0.35,-0.45,2.25,2.25,2.24
62.80,2.69,0.46,2.69,0.47,-0.46,-0.37,-0.48,2.23,2.23,2.23
63.43,2.69,0.49,2.69,0.49,-0.48,-0.40,-0.50,2.20,2.20,2.20
64.07,2.69,0.51,2.69,0.50,-0.50,-0.42,-0.52,2.18,2.18,2.18
64.71,2.69,0.52,2.69,0.52,-0.52,-0.44,-0.54,2.16,2.16,2.16
65.35,2.69,0.54,2.69,0.54,-0.54,-0.47,-0.56,2.15,2.15,2.15
66.01,2.69,0.56,2.69,0.56,-0.56,-0.49,-0.57,2.13,2.13,2.13
66.67,2.69,0.58,2.69,0.58,-0.58,-0.51,-0.59,2.11,2.11,2.11
67.33,2.69,0.60,2.69,0.60,-0.60,-0.53,-0.61,2.09,2.09,2.09
68.01,2.69,0.62,2.69,0.62,-0.62,-0.56,-0.62,2.07,2.07,2.07
68.69,2.69,0.64,2.69,0.64,-0.64,-0.58,-0.64,2.05,2.05,2.05
69.37,2.69,0.66,2.69,0.66,-0.66,-0.60,-0.65,2.03,2.03,2.03
70.07,2.69,0.68,2.69,0.68,-0.68,-0.63,-0.67,2.01,2.01,2.01
70.77,2.69,0.69,2.69,0.70,-0.70,-0.65,-0.68,1.99,1.99,1.99
71.48,2.69,0.72,2.69,0.72,-0.72,-0.67,-0.70,1.96,1.96,1.97
72.19,2.69,0.74,2.69,0.74,-0.74,-0.70,-0.71,1.94,1.94,1.95
72.91,2.69,0.77,2.69,0.76,-0.76,-0.72,-0.73,1.92,1.92,1.92
73.64,2.69,0.79,2.69,0.79,-0.78,-0.74,-0.74,1.91,1.91,1.90
74.38,2.69,0.81,2.69,0.81,-0.80,-0.77,-0.76,1.89,1.89,1.88
75.12,2.69,0.83,2.68,0.82,-0.81,-0.79,-0.77,1.88,1.86,1.86
75.87,2.66,0.82,2.66,0.82,-0.83,-0.81,-0.79,1.83,1.84,1.84
76.63,2.65,0.83,2.65,0.83,-0.84,-0.84,-0.80,1.81,1.81,1.82
77.40,2.65,0.84,2.65,0.84,-0.86,-0.86,-0.82,1.79,1.79,1.80
78.17,2.65,0.87,2.65,0.86,-0.87,-0.88,-0.83,1.78,1.78,1.78
78.95,2.65,0.88,2.65,0.89,-0.88,-0.90,-0.85,1.77,1.77,1.77
79.74,2.65,0.90,2.65,0.90,-0.89,-0.93,-0.87,1.76,1.76,1.75
80.54,2.65,0.92,2.64,0.91,-0.90,-0.95,-0.88,1.74,1.74,1.73
81.35,2.63,0.92,2.63,0.92,-0.92,-0.97,-0.90,1.71,1.71,1.71
82.16,2.61,0.92,2.62,0.93,-0.94,-0.99,-0.92,1.67,1.68,1.69
82.98,2.61,0.93,2.61,0.94,-0.95,-1.02,-0.94,1.65,1.65,1.67
83.81,2.61,0.97,2.61,0.96,-0.97,-1.04,-0.96,1.64,1.64,1.64
84.65,2.61,0.99,2.61,0.98,-0.98,-1.06,-0.98,1.63,1.63,1.62
85.50,2.61,1.00,2.61,1.01,-1.00,-1.08,-1.00,1.61,1.61,1.61
86.35,2.61,1.03,2.61,1.03,-1.01,-1.10,-1.03,1.59,1.59,1.58
87.22,2.61,1.05,2.60,1.04,-1.03,-1.12,-1.05,1.58,1.56,1.56
88.09,2.58,1.05,2.58,1.04,-1.05,-1.13,-1.07,1.53,1.53,1.53
88.97,2.56,1.04,2.57,1.05,-1.07,-1.15,-1.10,1.49,1.50,1.52
89.86,2.56,1.07,2.56,1.07,-1.08,-1.17,-1.12,1.48,1.48,1.49
90.76,2.56,1.10,2.56,1.10,-1.09,-1.19,-1.15,1.46,1.47,1.46
91.66,2.56,1.12,2.56,1.12,-1.11,-1.20,-1.18,1.45,1.45,1.44
92.58,2.56,1.16,2.54,1.14,-1.13,-1.22,-1.21,1.43,1.41,1.40
93.51,2.52,1.13,2.53,1.15,-1.15,-1.23,-1.24,1.36,1.38,1.38
94.44,2.52,1.16,2.52,1.17,-1.18,-1.25,-1.27,1.34,1.34,1.36
95.39,2.52,1.19,2.51,1.19,-1.20,-1.26,-1.30,1.32,1.31,1.33
96.34,2.52,1.23,2.52,1.23,-1.22,-1.27,-1.33,1.30,1.30,1.29
97.30,2.52,1.26,2.52,1.26,-1.24,-1.29,-1.36,1.27,1.27,1.26
98.28,2.52,1.28,2.51,1.28,-1.27,-1.30,-1.39,1.25,1.24,1.23
99.26,2.50,1.29,2.50,1.30,-1.29,-1.32,-1.43,1.21,1.21,1.20
100.25,2.49,1.31,2.49,1.31,-1.32,-1.33,-1.46,1.17,1.17,1.18
101.25,2.48,1.33,2.48,1.33,-1.34,-1.35,-1.49,1.14,1.14,1.15
102.27,2.48,1.36,2.48,1.36,-1.37,-1.36,-1.53,1.11,1.11,1.12
103.29,2.48,1.40,2.48,1.39,-1.39,-1.38,-1.56,1.09,1.09,1.08
104.32,2.48,1.42,2.48,1.42,-1.42,-1.40,-1.60,1.06,1.06,1.06
105.37,2.48,1.45,2.48,1.45,-1.45,-1.42,-1.64,1.03,1.03,1.03
106.42,2.48,1.48,2.48,1.48,-1.48,-1.44,-1.67,1.00,1.00,1.00
107.48,2.48,1.51,2.48,1.51,-1.51,-1.47,-1.71,0.96,0.96,0.97
108.56,2.48,1.55,2.48,1.54,-1.55,-1.50,-1.74,0.93,0.93,0.93
109.64,2.48,1.58,2.49,1.58,-1.59,-1.53,-1.78,0.89,0.90,0.90
110.74,2.50,1.63,2.50,1.63,-1.62,-1.56,-1.82,0.87,0.87,0.87
111.85,2.52,1.67,2.51,1.67,-1.67,-1.60,-1.85,0.85,0.84,0.84
112.97,2.52,1.72,2.52,1.72,-1.71,-1.64,-1.88,0.81,0.81,0.79
114.10,2.52,1.75,2.52,1.75,-1.75,-1.68,-1.92,0.77,0.76,0.77
115.24,2.52,1.79,2.52,1.79,-1.80,-1.73,-1.95,0.72,0.72,0.73
116.39,2.52,1.83,2.53,1.84,-1.85,-1.77,-1.98,0.67,0.68,0.69
117.55,2.56,1.91,2.54,1.89,-1.89,-1.82,-2.01,0.66,0.65,0.65
118.73,2.56,1.94,2.56,1.94,-1.94,-1.88,-2.04,0.62,0.62,0.61
119.92,2.57,1.98,2.58,1.99,-1.99,-1.93,-2.07,0.58,0.59,0.59
121.12,2.61,2.06,2.60,2.04,-2.04,-1.99,-2.10,0.57,0.55,0.55
122.33,2.61,2.09,2.62,2.10,-2.09,-2.05,-2.13,0.51,0.52,0.51
123.55,2.65,2.16,2.64,2.15,-2.15,-2.11,-2.15,0.50,0.49,0.49
124.79,2.65,2.19,2.65,2.20,-2.20,-2.17,-2.18,0.45,0.45,0.45
126.03,2.67,2.25,2.67,2.25,-2.25,-2.23,-2.20,0.41,0.41,0.42
127.29,2.69,2.30,2.68,2.30,-2.31,-2.29,-2.22,0.38,0.37,0.38
128.57,2.69,2.35,2.70,2.36,-2.36,-2.35,-2.24,0.33,0.34,0.34
129.85,2.74,2.43,2.73,2.42,-2.42,-2.41,-2.26,0.32,0.31,0.31
131.15,2.75,2.47,2.75,2.48,-2.47,-2.47,-2.28,0.28,0.28,0.27
132.46,2.78,2.54,2.78,2.53,-2.53,-2.53,-2.29,0.25,0.25,0.24
133.79,2.79,2.57,2.79,2.58,-2.58,-2.59,-2.31,0.21,0.21,0.22
135.12,2.82,2.64,2.81,2.63,-2.63,-2.64,-2.32,0.19,0.18,0.18
136.48,2.82,2.66,2.83,2.68,-2.68,-2.70,-2.34,0.13,0.15,0.16
137.84,2.87,2.74,2.85,2.73,-2.73,-2.75,-2.35,0.14,0.12,0.13
139.22,2.87,2.78,2.87,2.78,-2.78,-2.81,-2.37,0.09,0.10,0.09
140.61,2.89,2.83,2.89,2.82,-2.82,-2.86,-2.38,0.07,0.07,0.06
142.02,2.91,2.86,2.90,2.86,-2.86,-2.91,-2.40,0.05,0.04,0.05
143.44,2.91,2.89,2.92,2.90,-2.90,-2.96,-2.41,0.01,0.02,0.02
144.87,2.95,2.95,2.94,2.94,-2.94,-3.00,-2.43,0.01,-0.00,-0.01
146.32,2.95,2.98,2.94,2.97,-2.97,-3.05,-2.44,-0.03,-0.03,-0.03
147.78,2.95,3.00,2.95,3.01,-3.01,-3.10,-2.46,-0.06,-0.06,-0.05
149.26,2.95,3.02,2.96,3.04,-3.05,-3.14,-2.47,-0.10,-0.08,-0.07
150.75,2.99,3.10,2.98,3.08,-3.08,-3.18,-2.49,-0.10,-0.11,-0.11
152.26,3.00,3.13,2.99,3.12,-3.12,-3.22,-2.51,-0.12,-0.13,-0.13
153.78,3.00,3.16,3.00,3.16,-3.16,-3.26,-2.53,-0.16,-0.16,-0.16
155.32,3.00,3.19,3.01,3.20,-3.20,-3.30,-2.55,-0.20,-0.19,-0.19
156.88,3.04,3.25,3.02,3.24,-3.24,-3.34,-2.58,-0.20,-0.22,-0.21
158.44,3.04,3.28,3.03,3.28,-3.28,-3.37,-2.60,-0.24,-0.25,-0.25
160.03,3.04,3.32,3.04,3.32,-3.32,-3.41,-2.63,-0.28,-0.28,-0.28
161.63,3.04,3.35,3.05,3.36,-3.36,-3.44,-2.66,-0.32,-0.31,-0.31
163.24,3.08,3.42,3.06,3.40,-3.39,-3.48,-2.69,-0.31,-0.33,-0.34
164.88,3.08,3.44,3.08,3.44,-3.43,-3.51,-2.72,-0.35,-0.35,-0.36
166.53,3.08,3.47,3.08,3.47,-3.46,-3.54,-2.76,-0.38,-0.38,-0.39
168.19,3.08,3.49,3.08,3.49,-3.50,-3.57,-2.80,-0.42,-0.42,-0.42
169.87,3.08,3.52,3.08,3.52,-3.53,-3.60,-2.84,-0.46,-0.46,-0.44
171.57,3.08,3.55,3.09,3.56,-3.57,-3.63,-2.88,-0.49,-0.48,-0.47
173.29,3.10,3.60,3.10,3.60,-3.60,-3.66,-2.92,-0.51,-0.50,-0.50
175.02,3.13,3.65,3.12,3.65,-3.64,-3.68,-2.97,-0.51,-0.52,-0.53
176.77,3.13,3.69,3.13,3.69,-3.68,-3.71,-3.02,-0.55,-0.55,-0.56
178.54,3.13,3.73,3.13,3.72,-3.72,-3.74,-3.07,-0.59,-0.59,-0.60
180.32,3.13,3.75,3.13,3.75,-3.76,-3.76,-3.12,-0.63,-0.63,-0.62
182.13,3.13,3.77,3.14,3.79,-3.80,-3.79,-3.18,-0.67,-0.66,-0.65
183.95,3.16,3.84,3.15,3.83,-3.83,-3.81,-3.24,-0.67,-0.68,-0.68
185.79,3.17,3.87,3.16,3.87,-3.86,-3.83,-3.30,-0.69,-0.70,-0.71
187.65,3.17,3.91,3.17,3.91,-3.89,-3.86,-3.36,-0.73,-0.72,-0.74
189.52,3.17,3.93,3.17,3.93,-3.92,-3.88,-3.43,-0.76,-0.76,-0.76
191.42,3.17,3.95,3.17,3.95,-3.96,-3.90,-3.49,-0.79,-0.79,-0.78
193.33,3.17,3.97,3.17,3.97,-3.99,-3.92,-3.56,-0.82,-0.82,-0.81
195.27,3.17,4.00,3.17,4.00,-4.01,-3.94,-3.63,-0.85,-0.84,-0.83
197.22,3.19,4.04,3.18,4.04,-4.04,-3.96,-3.71,-0.85,-0.85,-0.85
199.19,3.20,4.08,3.20,4.07,-4.06,-3.98,-3.78,-0.86,-0.87,-0.88
201.18,3.21,4.10,3.21,4.10,-4.09,-4.00,-3.85,-0.88,-0.88,-0.89
203.19,3.21,4.11,3.21,4.11,-4.11,-4.02,-3.93,-0.90,-0.90,-0.90
205.23,3.21,4.13,3.21,4.12,-4.12,-4.03,-4.00,-0.92,-0.92,-0.92
207.28,3.21,4.13,3.21,4.14,-4.14,-4.05,-4.08,-0.93,-0.93,-0.92
209.35,3.21,4.15,3.21,4.15,-4.15,-4.06,-4.16,-0.94,-0.94,-0.94
211.44,3.21,4.17,3.21,4.16,-4.16,-4.08,-4.23,-0.95,-0.95,-0.96
213.56,3.21,4.16,3.21,4.16,-4.16,-4.09,-4.31,-0.96,-0.96,-0.96
215.69,3.21,4.16,3.21,4.17,-4.17,-4.10,-4.38,-0.96,-0.96,-0.95
217.85,3.21,4.17,3.21,4.17,-4.17,-4.10,-4.45,-0.97,-0.97,-0.96
220.03,3.21,4.18,3.21,4.18,-4.18,-4.11,-4.52,-0.97,-0.97,-0.97
222.23,3.21,4.19,3.21,4.18,-4.18,-4.11,-4.59,-0.97,-0.97,-0.98
224.45,3.21,4.17,3.21,4.18,-4.17,-4.11,-4.65,-0.97,-0.97,-0.97
226.70,3.21,4.17,3.21,4.17,-4.17,-4.10,-4.71,-0.96,-0.96,-0.96
228.96,3.21,4.17,3.21,4.16,-4.17,-4.10,-4.76,-0.96,-0.96,-0.96
231.25,3.21,4.15,3.21,4.16,-4.16,-4.09,-4.81,-0.95,-0.95,-0.95
233.57,3.21,4.15,3.21,4.15,-4.16,-4.08,-4.86,-0.95,-0.95,-0.94
235.90,3.21,4.15,3.21,4.14,-4.15,-4.06,-4.89,-0.94,-0.94,-0.94
238.26,3.21,4.14,3.21,4.14,-4.13,-4.05,-4.92,-0.93,-0.92,-0.93
240.64,3.21,4.13,3.21,4.13,-4.12,-4.03,-4.95,-0.91,-0.91,-0.92
243.05,3.21,4.11,3.21,4.11,-4.10,-4.01,-4.97,-0.90,-0.90,-0.90
245.48,3.20,4.09,3.20,4.09,-4.09,-3.98,-4.97,-0.89,-0.89,-0.89
247.93,3.19,4.06,3.18,4.06,-4.07,-3.95,-4.98,-0.88,-0.88,-0.87
250.41,3.17,4.04,3.17,4.04,-4.04,-3.92,-4.97,-0.88,-0.87,-0.87
252.92,3.17,4.01,3.17,4.01,-4.02,-3.89,-4.95,-0.85,-0.85,-0.84
255.45,3.17,3.99,3.17,3.99,-3.99,-3.86,-4.93,-0.82,-0.82,-0.82
258.00,3.17,3.97,3.17,3.97,-3.97,-3.83,-4.90,-0.80,-0.80,-0.80
260.58,3.17,3.95,3.16,3.94,-3.94,-3.79,-4.86,-0.77,-0.78,-0.79
263.19,3.14,3.90,3.14,3.91,-3.91,-3.75,-4.82,-0.77,-0.76,-0.76
265.82,3.13,3.87,3.14,3.88,-3.87,-3.71,-4.76,-0.75,-0.74,-0.74
268.48,3.13,3.85,3.12,3.84,-3.84,-3.68,-4.71,-0.71,-0.72,-0.72
271.16,3.13,3.82,3.11,3.81,-3.80,-3.64,-4.64,-0.67,-0.69,-0.69
273.87,3.08,3.75,3.09,3.76,-3.76,-3.60,-4.57,-0.69,-0.67,-0.67
276.61,3.08,3.73,3.07,3.72,-3.72,-3.55,-4.50,-0.65,-0.66,-0.65
279.38,3.04,3.67,3.05,3.68,-3.69,-3.51,-4.42,-0.65,-0.64,-0.63
282.17,3.04,3.65,3.03,3.64,-3.65,-3.47,-4.33,-0.61,-0.62,-0.61
284.99,3.01,3.59,3.02,3.60,-3.61,-3.43,-4.25,-0.60,-0.59,-0.59
287.84,3.00,3.57,3.00,3.57,-3.57,-3.39,-4.15,-0.57,-0.56,-0.57
290.72,3.00,3.54,2.98,3.53,-3.52,-3.34,-4.06,-0.53,-0.54,-0.54
293.63,2.95,3.47,2.96,3.48,-3.48,-3.30,-3.97,-0.53,-0.52,-0.52
296.57,2.94,3.44,2.93,3.44,-3.43,-3.26,-3.87,-0.50,-0.50,-0.50
299.53,2.91,3.39,2.90,3.38,-3.38,-3.22,-3.77,-0.48,-0.48,-0.48
302.53,2.88,3.34,2.88,3.34,-3.33,-3.17,-3.68,-0.45,-0.45,-0.46
305.55,2.85,3.27,2.85,3.28,-3.28,-3.13,-3.58,-0.43,-0.43,-0.42
308.61,2.82,3.22,2.81,3.22,-3.22,-3.09,-3.48,-0.40,-0.40,-0.41
311.69,2.78,3.16,2.79,3.16,-3.16,-3.04,-3.38,-0.39,-0.38,-0.38
314.81,2.76,3.10,2.75,3.10,-3.11,-3.00,-3.28,-0.35,-0.36,-0.34
317.96,2.73,3.05,2.72,3.05,-3.06,-2.96,-3.19,-0.33,-0.33,-0.32
321.14,2.69,2.99,2.70,3.00,-3.00,-2.91,-3.09,-0.31,-0.30,-0.30
324.35,2.67,2.95,2.66,2.95,-2.94,-2.87,-2.99,-0.28,-0.28,-0.29
327.59,2.64,2.90,2.63,2.89,-2.89,-2.82,-2.90,-0.25,-0.25,-0.26
330.87,2.59,2.83,2.60,2.84,-2.83,-2.78,-2.81,-0.24,-0.23,-0.24
334.18,2.56,2.78,2.55,2.77,-2.77,-2.73,-2.72,-0.21,-0.21,-0.22
337.52,2.51,2.71,2.50,2.70,-2.70,-2.69,-2.63,-0.19,-0.20,-0.20
340.90,2.45,2.62,2.46,2.63,-2.64,-2.64,-2.54,-0.19,-0.18,-0.17
344.30,2.41,2.56,2.41,2.56,-2.57,-2.60,-2.45,-0.16,-0.16,-0.15
347.75,2.37,2.50,2.36,2.50,-2.50,-2.55,-2.37,-0.13,-0.14,-0.14
351.23,2.32,2.44,2.32,2.43,-2.43,-2.51,-2.29,-0.11,-0.12,-0.12
354.74,2.26,2.36,2.26,2.36,-2.37,-2.46,-2.21,-0.11,-0.10,-0.10
358.28,2.22,2.30,2.21,2.29,-2.30,-2.41,-2.13,-0.08,-0.09,-0.08
361.87,2.17,2.23,2.17,2.24,-2.24,-2.37,-2.05,-0.07,-0.07,-0.06
365.49,2.14,2.18,2.14,2.18,-2.18,-2.32,-1.97,-0.04,-0.04,-0.04
369.14,2.11,2.14,2.10,2.13,-2.12,-2.27,-1.90,-0.02,-0.03,-0.03
372.83,2.05,2.06,2.06,2.07,-2.07,-2.23,-1.83,-0.02,-0.01,-0.01
376.56,2.02,2.02,2.02,2.01,-2.01,-2.18,-1.76,0.00,0.00,-0.01
380.33,1.98,1.95,1.98,1.96,-1.96,-2.13,-1.69,0.01,0.01,0.02
384.13,1.94,1.90,1.94,1.91,-1.91,-2.08,-1.62,0.03,0.03,0.03
387.97,1.91,1.87,1.90,1.86,-1.86,-2.03,-1.55,0.05,0.04,0.04
391.85,1.87,1.82,1.87,1.81,-1.81,-1.98,-1.49,0.06,0.06,0.05
395.77,1.83,1.76,1.83,1.76,-1.76,-1.94,-1.42,0.07,0.07,0.07
399.73,1.80,1.72,1.79,1.71,-1.71,-1.89,-1.36,0.09,0.08,0.08
403.72,1.75,1.66,1.75,1.66,-1.66,-1.84,-1.30,0.09,0.09,0.09
407.76,1.72,1.62,1.71,1.61,-1.61,-1.79,-1.24,0.11,0.10,0.10
411.84,1.67,1.55,1.67,1.56,-1.56,-1.74,-1.19,0.10,0.11,0.12
415.96,1.64,1.51,1.64,1.51,-1.52,-1.68,-1.13,0.12,0.12,0.13
420.12,1.61,1.47,1.60,1.46,-1.47,-1.63,-1.07,0.14,0.13,0.14
424.32,1.56,1.41,1.57,1.42,-1.42,-1.58,-1.02,0.14,0.15,0.15
428.56,1.53,1.37,1.53,1.37,-1.37,-1.53,-0.97,0.16,0.16,0.16
432.85,1.50,1.33,1.49,1.33,-1.32,-1.48,-0.91,0.18,0.17,0.16
437.18,1.45,1.27,1.45,1.28,-1.27,-1.43,-0.86,0.18,0.18,0.17
441.55,1.42,1.22,1.41,1.22,-1.22,-1.37,-0.81,0.20,0.19,0.19
445.96,1.37,1.16,1.37,1.16,-1.17,-1.32,-0.76,0.20,0.20,0.20
450.42,1.33,1.11,1.33,1.11,-1.11,-1.27,-0.72,0.22,0.22,0.21
454.93,1.28,1.05,1.28,1.05,-1.06,-1.22,-0.67,0.22,0.23,0.23
459.48,1.25,1.01,1.24,1.00,-1.00,-1.16,-0.62,0.25,0.24,0.24
464.07,1.20,0.94,1.20,0.94,-0.94,-1.11,-0.58,0.25,0.26,0.26
468.71,1.17,0.89,1.16,0.88,-0.89,-1.05,-0.54,0.28,0.28,0.28
473.40,1.12,0.83,1.12,0.82,-0.83,-1.00,-0.49,0.29,0.29,0.29
478.13,1.07,0.76,1.08,0.77,-0.77,-0.95,-0.45,0.30,0.31,0.31
482.91,1.04,0.72,1.03,0.71,-0.71,-0.89,-0.41,0.33,0.33,0.32
487.74,0.99,0.65,0.98,0.64,-0.64,-0.84,-0.37,0.35,0.34,0.34
492.62,0.93,0.57,0.93,0.57,-0.57,-0.78,-0.33,0.36,0.36,0.36
497.55,0.87,0.50,0.87,0.50,-0.50,-0.73,-0.29,0.37,0.37,0.37
502.52,0.81,0.42,0.81,0.42,-0.42,-0.67,-0.25,0.39,0.39,0.39
507.55,0.75,0.35,0.74,0.34,-0.34,-0.62,-0.21,0.41,0.40,0.40
512.62,0.67,0.25,0.67,0.25,-0.25,-0.56,-0.17,0.42,0.42,0.42
517.75,0.61,0.17,0.60,0.17,-0.16,-0.51,-0.13,0.44,0.44,0.44
522.93,0.53,0.07,0.53,0.08,-0.08,-0.45,-0.10,0.45,0.46,0.46
528.16,0.47,0.00,0.46,-0.01,0.01,-0.40,-0.06,0.48,0.47,0.47
