frequency,raw,error,smoothed,error_smoothed,equalization,parametric_eq,fixed_band_eq,equalized_raw,equalized_smoothed,target
20.00,0.34,-1.05,0.33,-1.06,1.04,0.22,-0.63,1.38,1.37,1.39
20.20,0.49,-0.95,0.49,-0.95,0.94,0.18,-0.65,1.43,1.43,1.44
20.40,0.63,-0.86,0.64,-0.85,0.85,0.15,-0.66,1.47,1.48,1.49
20.61,0.77,-0.75,0.78,-0.75,0.75,0.11,-0.68,1.53,1.53,1.52
20.81,0.93,-0.64,0.92,-0.64,0.66,0.08,-0.70,1.59,1.59,1.57
21.02,1.07,-0.54,1.05,-0.55,0.58,0.05,-0.72,1.65,1.63,1.61
21.23,1.15,-0.48,1.15,-0.48,0.50,0.01,-0.74,1.65,1.65,1.63
21.44,1.23,-0.42,1.23,-0.42,0.42,-0.03,-0.77,1.65,1.65,1.65
21.66,1.30,-0.36,1.30,-0.36,0.36,-0.06,-0.79,1.66,1.66,1.67
21.87,1.38,-0.30,1.38,-0.30,0.30,-0.10,-0.81,1.68,1.68,1.68
22.09,1.46,-0.24,1.45,-0.24,0.24,-0.14,-0.84,1.70,1.69,1.70
22.31,1.52,-0.19,1.52,-0.19,0.18,-0.18,-0.86,1.70,1.70,1.71
22.54,1.58,-0.12,1.58,-0.13,0.12,-0.21,-0.88,1.70,1.70,1.71
22.76,1.65,-0.06,1.65,-0.06,0.04,-0.25,-0.91,1.69,1.69,1.71
22.99,1.72,0.02,1.72,0.02,-0.03,-0.29,-0.94,1.68,1.69,1.70
23.22,1.81,0.11,1.81,0.11,-0.11,-0.33,-0.96,1.69,1.69,1.70
23.45,1.91,0.21,1.90,0.20,-0.20,-0.37,-0.99,1.71,1.70,1.70
23.69,1.99,0.29,2.00,0.30,-0.29,-0.41,-1.02,1.71,1.71,1.70
23.92,2.10,0.39,2.09,0.38,-0.37,-0.46,-1.05,1.72,1.72,1.70
24.16,2.18,0.46,2.18,0.46,-0.46,-0.50,-1.07,1.72,1.72,1.71
24.40,2.26,0.53,2.26,0.54,-0.55,-0.54,-1.10,1.71,1.71,1.72
24.65,2.34,0.63,2.34,0.63,-0.63,-0.58,-1.13,1.71,1.71,1.71
24.89,2.43,0.71,2.43,0.71,-0.71,-0.63,-1.16,1.71,1.71,1.71
25.14,2.51,0.79,2.51,0.79,-0.80,-0.67,-1.19,1.71,1.71,1.71
25.39,2.59,0.86,2.59,0.87,-0.87,-0.71,-1.23,1.71,1.72,1.72
25.65,2.66,0.94,2.67,0.95,-0.94,-0.76,-1.26,1.72,1.72,1.72
25.91,2.74,1.03,2.74,1.02,-1.01,-0.80,-1.29,1.73,1.73,1.71
26.16,2.81,1.10,2.80,1.09,-1.08,-0.85,-1.32,1.73,1.73,1.71
26.43,2.85,1.14,2.86,1.15,-1.14,-0.90,-1.35,1.71,1.72,1.71
26.69,2.91,1.20,2.91,1.19,-1.20,-0.94,-1.38,1.71,1.71,1.71
26.96,2.95,1.24,2.96,1.24,-1.26,-0.99,-1.41,1.70,1.70,1.72
27.23,3.01,1.30,3.01,1.30,-1.31,-1.04,-1.44,1.70,1.70,1.72
27.50,3.08,1.36,3.08,1.36,-1.36,-1.08,-1.47,1.71,1.71,1.72
27.77,3.14,1.43,3.14,1.43,-1.41,-1.13,-1.50,1.72,1.72,1.71
28.05,3.20,1.49,3.19,1.49,-1.47,-1.18,-1.53,1.73,1.72,1.71
28.33,3.24,1.54,3.23,1.54,-1.53,-1.23,-1.56,1.71,1.71,1.69
28.62,3.27,1.58,3.27,1.58,-1.59,-1.28,-1.58,1.68,1.68,1.69
28.90,3.32,1.61,3.32,1.63,-1.65,-1.33,-1.61,1.66,1.67,1.70
29.19,3.39,1.69,3.39,1.69,-1.71,-1.38,-1.63,1.67,1.68,1.69
29.48,3.48,1.77,3.47,1.77,-1.77,-1.43,-1.66,1.70,1.70,1.71
29.78,3.55,1.85,3.56,1.85,-1.83,-1.48,-1.68,1.72,1.72,1.70
30.08,3.63,1.93,3.62,1.92,-1.89,-1.53,-1.70,1.74,1.73,1.71
30.38,3.66,1.97,3.67,1.97,-1.95,-1.58,-1.72,1.72,1.72,1.70
30.68,3.70,2.00,3.70,2.00,-2.00,-1.63,-1.73,1.69,1.69,1.70
30.99,3.72,2.03,3.73,2.04,-2.05,-1.68,-1.75,1.67,1.68,1.70
31.30,3.77,2.08,3.78,2.08,-2.09,-1.73,-1.76,1.68,1.69,1.69
31.61,3.83,2.13,3.83,2.13,-2.13,-1.78,-1.78,1.70,1.70,1.69
31.93,3.87,2.18,3.87,2.18,-2.16,-1.83,-1.79,1.71,1.71,1.69
32.24,3.90,2.21,3.89,2.20,-2.20,-1.88,-1.80,1.70,1.69,1.68
32.57,3.91,2.22,3.91,2.22,-2.24,-1.93,-1.80,1.67,1.67,1.69
32.89,3.93,2.24,3.93,2.25,-2.27,-1.98,-1.81,1.65,1.66,1.69
33.22,3.97,2.29,3.97,2.29,-2.31,-2.03,-1.82,1.66,1.66,1.68
33.55,4.02,2.34,4.02,2.34,-2.34,-2.08,-1.82,1.68,1.68,1.67
33.89,4.07,2.40,4.06,2.39,-2.36,-2.13,-1.82,1.70,1.69,1.66
34.23,4.09,2.41,4.08,2.42,-2.38,-2.17,-1.83,1.70,1.70,1.67
34.57,4.09,2.43,4.09,2.43,-2.41,-2.22,-1.83,1.68,1.68,1.66
34.92,4.09,2.43,4.09,2.43,-2.43,-2.27,-1.83,1.65,1.66,1.66
35.27,4.10,2.44,4.09,2.44,-2.46,-2.32,-1.83,1.64,1.63,1.66
35.62,4.11,2.45,4.10,2.45,-2.49,-2.36,-1.83,1.62,1.62,1.65
35.97,4.12,2.46,4.13,2.48,-2.51,-2.41,-1.83,1.60,1.62,1.65
36.33,4.18,2.52,4.18,2.53,-2.54,-2.46,-1.83,1.64,1.64,1.66
36.70,4.23,2.59,4.23,2.58,-2.56,-2.50,-1.83,1.68,1.67,1.65
37.06,4.29,2.64,4.27,2.62,-2.58,-2.54,-1.83,1.71,1.70,1.65
37.43,4.29,2.62,4.29,2.64,-2.59,-2.59,-1.83,1.69,1.70,1.66
37.81,4.29,2.63,4.29,2.63,-2.61,-2.63,-1.83,1.68,1.68,1.66
38.19,4.28,2.62,4.27,2.61,-2.62,-2.67,-1.83,1.65,1.65,1.66
38.57,4.27,2.60,4.26,2.60,-2.63,-2.71,-1.84,1.63,1.63,1.66
38.95,4.25,2.57,4.27,2.60,-2.64,-2.74,-1.84,1.60,1.63,1.67
39.34,4.30,2.63,4.30,2.63,-2.65,-2.78,-1.84,1.65,1.65,1.67
39.74,4.35,2.68,4.34,2.67,-2.66,-2.82,-1.85,1.68,1.68,1.67
40.14,4.38,2.71,4.37,2.71,-2.68,-2.85,-1.86,1.71,1.70,1.67
40.54,4.39,2.72,4.39,2.72,-2.69,-2.88,-1.87,1.69,1.69,1.67
40.94,4.39,2.72,4.39,2.72,-2.71,-2.91,-1.88,1.68,1.68,1.67
41.35,4.39,2.72,4.39,2.72,-2.72,-2.94,-1.89,1.66,1.66,1.66
41.76,4.39,2.73,4.39,2.72,-2.73,-2.97,-1.90,1.65,1.65,1.66
42.18,4.39,2.72,4.39,2.73,-2.74,-3.00,-1.91,1.65,1.65,1.66
42.60,4.39,2.74,4.39,2.73,-2.74,-3.02,-1.93,1.65,1.65,1.65
43.03,4.39,2.74,4.39,2.74,-2.75,-3.04,-1.95,1.64,1.64,1.65
43.46,4.39,2.74,4.39,2.75,-2.75,-3.06,-1.96,1.63,1.63,1.64
43.90,4.39,2.77,4.39,2.77,-2.77,-3.08,-1.99,1.62,1.62,1.62
44.33,4.39,2.78,4.39,2.78,-2.78,-3.09,-2.01,1.61,1.61,1.60
44.78,4.39,2.80,4.39,2.80,-2.79,-3.11,-2.03,1.59,1.59,1.59
45.23,4.39,2.80,4.39,2.81,-2.80,-3.12,-2.06,1.58,1.58,1.58
45.68,4.39,2.82,4.39,2.82,-2.82,-3.13,-2.08,1.57,1.57,1.57
46.13,4.39,2.83,4.39,2.83,-2.83,-3.13,-2.11,1.56,1.56,1.55
46.60,4.39,2.83,4.39,2.84,-2.84,-3.14,-2.14,1.54,1.54,1.56
47.06,4.39,2.85,4.38,2.84,-2.85,-3.14,-2.17,1.53,1.53,1.54
47.53,4.39,2.85,4.38,2.85,-2.86,-3.14,-2.20,1.53,1.53,1.53
48.01,4.39,2.85,4.39,2.86,-2.86,-3.14,-2.24,1.53,1.54,1.54
48.49,4.40,2.87,4.40,2.88,-2.86,-3.13,-2.27,1.54,1.54,1.52
48.97,4.41,2.90,4.38,2.88,-2.86,-3.12,-2.31,1.55,1.52,1.50
49.46,4.35,2.86,4.35,2.86,-2.85,-3.11,-2.35,1.49,1.49,1.49
49.96,4.30,2.83,4.31,2.84,-2.85,-3.10,-2.38,1.44,1.46,1.47
50.46,4.29,2.81,4.29,2.82,-2.85,-3.09,-2.42,1.43,1.43,1.47
50.96,4.29,2.82,4.28,2.82,-2.85,-3.07,-2.46,1.44,1.44,1.46
51.47,4.29,2.84,4.28,2.84,-2.84,-3.05,-2.50,1.45,1.45,1.45
51.99,4.29,2.85,4.29,2.85,-2.82,-3.03,-2.54,1.46,1.47,1.44
52.51,4.28,2.84,4.28,2.84,-2.81,-3.00,-2.57,1.47,1.47,1.44
53.03,4.27,2.83,4.25,2.81,-2.79,-2.98,-2.61,1.48,1.46,1.44
53.56,4.20,2.77,4.20,2.77,-2.76,-2.95,-2.65,1.43,1.44,1.43
54.10,4.14,2.72,4.15,2.73,-2.74,-2.91,-2.68,1.40,1.41,1.42
54.64,4.11,2.70,4.10,2.69,-2.71,-2.88,-2.72,1.39,1.39,1.41
55.18,4.08,2.67,4.07,2.67,-2.68,-2.84,-2.75,1.39,1.39,1.41
55.74,4.05,2.65,4.05,2.64,-2.66,-2.81,-2.78,1.38,1.39,1.40
56.29,4.03,2.63,4.02,2.63,-2.64,-2.77,-2.81,1.39,1.38,1.40
56.86,4.00,2.61,4.01,2.62,-2.62,-2.72,-2.83,1.37,1.38,1.39
57.42,3.99,2.62,3.99,2.62,-2.60,-2.68,-2.85,1.38,1.39,1.36
58.00,3.99,2.62,3.97,2.60,-2.58,-2.63,-2.87,1.40,1.38,1.36
58.58,3.93,2.57,3.93,2.57,-2.56,-2.59,-2.88,1.37,1.37,1.36
59.16,3.86,2.52,3.87,2.52,-2.52,-2.54,-2.89,1.34,1.35,1.35
59.76,3.81,2.47,3.81,2.48,-2.49,-2.49,-2.89,1.32,1.32,1.33
60.35,3.75,2.45,3.75,2.44,-2.45,-2.43,-2.89,1.30,1.30,1.30
60.96,3.69,2.41,3.67,2.40,-2.40,-2.38,-2.89,1.28,1.27,1.27
61.57,3.59,2.35,3.59,2.35,-2.36,-2.32,-2.88,1.23,1.23,1.24
62.18,3.49,2.28,3.50,2.30,-2.31,-2.27,-2.86,1.18,1.19,1.20
62.80,3.42,2.26,3.43,2.26,-2.26,-2.21,-2.84,1.17,1.17,1.17
63.43,3.36,2.22,3.35,2.22,-2.21,-2.15,-2.81,1.15,1.15,1.13
64.07,3.29,2.19,3.27,2.18,-2.16,-2.09,-2.78,1.13,1.11,1.09
64.71,3.17,2.11,3.17,2.11,-2.11,-2.03,-2.74,1.06,1.06,1.06
65.35,3.05,2.03,3.06,2.04,-2.06,-1.97,-2.70,0.99,1.00,1.03
66.01,2.96,1.97,2.97,1.98,-2.01,-1.90,-2.65,0.94,0.96,0.99
66.67,2.91,1.95,2.90,1.95,-1.96,-1.84,-2.60,0.95,0.95,0.95
67.33,2.84,1.93,2.84,1.92,-1.89,-1.77,-2.54,0.95,0.94,0.91
68.01,2.77,1.88,2.75,1.87,-1.83,-1.71,-2.48,0.94,0.92,0.88
68.69,2.64,1.80,2.64,1.80,-1.77,-1.64,-2.41,0.87,0.87,0.84
69.37,2.50,1.71,2.51,1.71,-1.71,-1.57,-2.34,0.80,0.80,0.80
70.07,2.39,1.63,2.38,1.62,-1.65,-1.50,-2.27,0.74,0.74,0.76
70.77,2.28,1.55,2.28,1.56,-1.59,-1.44,-2.20,0.68,0.69,0.72
71.48,2.21,1.52,2.21,1.53,-1.54,-1.37,-2.12,0.66,0.66,0.68
72.19,2.15,1.52,2.14,1.51,-1.51,-1.30,-2.03,0.63,0.63,0.63
72.91,2.08,1.50,2.08,1.49,-1.50,-1.23,-1.95,0.59,0.58,0.58
73.64,2.02,1.48,2.02,1.48,-1.50,-1.16,-1.86,0.51,0.52,0.54
74.38,1.98,1.48,1.99,1.49,-1.52,-1.09,-1.78,0.45,0.46,0.49
75.12,1.98,1.53,1.97,1.52,-1.55,-1.02,-1.69,0.42,0.42,0.45
75.87,1.98,1.57,1.97,1.57,-1.58,-0.95,-1.60,0.40,0.40,0.40
76.63,1.98,1.61,1.98,1.62,-1.60,-0.88,-1.50,0.37,0.38,0.36
77.40,1.97,1.64,1.96,1.64,-1.61,-0.81,-1.41,0.35,0.35,0.33
78.17,1.92,1.65,1.92,1.63,-1.60,-0.74,-1.32,0.32,0.31,0.28
78.95,1.83,1.58,1.85,1.60,-1.57,-0.67,-1.22,0.26,0.28,0.26
79.74,1.75,1.54,1.75,1.53,-1.51,-0.60,-1.13,0.25,0.24,0.22
80.54,1.63,1.45,1.62,1.44,-1.42,-0.53,-1.04,0.21,0.20,0.19
81.35,1.47,1.32,1.46,1.31,-1.31,-0.47,-0.94,0.16,0.16,0.15
82.16,1.27,1.15,1.28,1.16,-1.17,-0.40,-0.85,0.10,0.11,0.12
82.98,1.07,0.98,1.08,0.99,-1.00,-0.33,-0.75,0.07,0.08,0.10
83.81,0.88,0.83,0.87,0.82,-0.82,-0.26,-0.65,0.06,0.05,0.05
84.65,0.67,0.64,0.66,0.64,-0.63,-0.19,-0.56,0.03,0.03,0.02
85.50,0.43,0.43,0.44,0.45,-0.43,-0.13,-0.46,-0.00,0.01,-0.00
86.35,0.20,0.24,0.19,0.23,-0.22,-0.06,-0.37,-0.02,-0.03,-0.04
87.22,-0.03,0.04,-0.06,0.01,-0.01,0.01,-0.27,-0.05,-0.08,-0.07
88.09,-0.35,-0.25,-0.31,-0.21,0.20,0.07,-0.18,-0.15,-0.11,-0.11
88.97,-0.56,-0.42,-0.55,-0.41,0.41,0.14,-0.08,-0.16,-0.14,-0.14
89.86,-0.75,-0.58,-0.78,-0.61,0.60,0.20,0.01,-0.15,-0.18,-0.18
90.76,-0.98,-0.77,-1.00,-0.79,0.78,0.27,0.11,-0.20,-0.22,-0.21
91.66,-1.25,-1.01,-1.22,-0.98,0.95,0.33,0.20,-0.30,-0.28,-0.24
92.58,-1.43,-1.15,-1.42,-1.14,1.10,0.39,0.30,-0.34,-0.32,-0.29
93.51,-1.57,-1.26,-1.57,-1.26,1.24,0.45,0.39,-0.34,-0.34,-0.31
94.44,-1.68,-1.34,-1.70,-1.35,1.37,0.52,0.49,-0.32,-0.33,-0.34
95.39,-1.82,-1.45,-1.83,-1.46,1.50,0.58,0.58,-0.33,-0.34,-0.37
96.34,-1.98,-1.58,-1.99,-1.58,1.62,0.63,0.68,-0.36,-0.36,-0.41
97.30,-2.17,-1.73,-2.15,-1.72,1.75,0.69,0.77,-0.42,-0.40,-0.44
98.28,-2.31,-1.85,-2.32,-1.85,1.87,0.75,0.86,-0.44,-0.45,-0.47
99.26,-2.47,-1.98,-2.47,-1.98,1.99,0.81,0.96,-0.49,-0.49,-0.49
100.25,-2.62,-2.10,-2.64,-2.12,2.09,0.86,1.05,-0.53,-0.55,-0.52
101.25,-2.78,-2.22,-2.78,-2.23,2.18,0.91,1.14,-0.60,-0.60,-0.55
102.27,-2.92,-2.34,-2.88,-2.30,2.25,0.97,1.23,-0.67,-0.63,-0.58
103.29,-2.93,-2.31,-2.94,-2.33,2.30,1.02,1.32,-0.63,-0.64,-0.62
104.32,-2.95,-2.31,-2.97,-2.33,2.34,1.07,1.40,-0.62,-0.63,-0.64
105.37,-2.99,-2.32,-3.00,-2.33,2.36,1.11,1.49,-0.63,-0.64,-0.67
106.42,-3.04,-2.35,-3.03,-2.33,2.37,1.16,1.57,-0.67,-0.66,-0.70
107.48,-3.09,-2.36,-3.08,-2.34,2.37,1.20,1.65,-0.73,-0.71,-0.74
108.56,-3.08,-2.31,-3.12,-2.35,2.36,1.25,1.73,-0.73,-0.77,-0.78
109.64,-3.18,-2.38,-3.17,-2.36,2.34,1.29,1.81,-0.84,-0.83,-0.81
110.74,-3.20,-2.36,-3.21,-2.36,2.32,1.32,1.88,-0.88,-0.88,-0.85
111.85,-3.21,-2.35,-3.17,-2.30,2.30,1.36,1.95,-0.92,-0.88,-0.86
112.97,-3.14,-2.23,-3.14,-2.23,2.25,1.39,2.02,-0.89,-0.88,-0.91
114.10,-3.01,-2.06,-3.12,-2.18,2.19,1.42,2.08,-0.82,-0.94,-0.94
115.24,-3.16,-2.19,-3.09,-2.12,2.11,1.44,2.13,-1.06,-0.99,-0.97
116.39,-3.11,-2.11,-3.05,-2.05,2.01,1.47,2.19,-1.11,-1.05,-1.01
117.55,-2.92,-1.90,-3.00,-1.97,1.91,1.48,2.23,-1.02,-1.09,-1.03
118.73,-2.86,-1.81,-2.85,-1.80,1.81,1.50,2.28,-1.05,-1.04,-1.05
119.92,-2.76,-1.70,-2.71,-1.64,1.71,1.50,2.31,-1.05,-1.00,-1.06
121.12,-2.57,-1.48,-2.65,-1.56,1.61,1.51,2.35,-0.95,-1.03,-1.09
122.33,-2.56,-1.46,-2.58,-1.48,1.52,1.50,2.37,-1.05,-1.07,-1.10
123.55,-2.61,-1.51,-2.54,-1.42,1.42,1.49,2.39,-1.19,-1.11,-1.11
124.79,-2.49,-1.36,-2.51,-1.39,1.34,1.47,2.40,-1.15,-1.17,-1.13
126.03,-2.40,-1.26,-2.42,-1.28,1.26,1.44,2.41,-1.14,-1.16,-1.14
127.29,-2.34,-1.20,-2.30,-1.15,1.18,1.40,2.41,-1.16,-1.12,-1.14
128.57,-2.20,-1.03,-2.26,-1.09,1.08,1.35,2.41,-1.11,-1.18,-1.17
129.85,-2.17,-0.99,-2.20,-1.02,0.98,1.28,2.39,-1.20,-1.23,-1.18
131.15,-2.21,-1.02,-2.09,-0.89,0.86,1.22,2.38,-1.35,-1.23,-1.20
132.46,-1.95,-0.75,-1.99,-0.78,0.74,1.12,2.35,-1.22,-1.25,-1.21
133.79,-1.76,-0.54,-1.86,-0.63,0.62,1.03,2.33,-1.14,-1.24,-1.22
135.12,-1.81,-0.57,-1.71,-0.47,0.52,0.93,2.29,-1.30,-1.19,-1.24
136.48,-1.64,-0.39,-1.65,-0.41,0.43,0.82,2.26,-1.20,-1.22,-1.24
137.84,-1.56,-0.30,-1.64,-0.38,0.38,0.73,2.21,-1.19,-1.27,-1.26
139.22,-1.66,-0.38,-1.59,-0.31,0.36,0.63,2.17,-1.31,-1.24,-1.28
140.61,-1.66,-0.36,-1.62,-0.32,0.37,0.60,2.12,-1.29,-1.24,-1.30
142.02,-1.59,-0.30,-1.71,-0.40,0.43,0.57,2.07,-1.17,-1.28,-1.30
143.44,-1.83,-0.52,-1.84,-0.51,0.51,0.63,2.01,-1.32,-1.32,-1.32
144.87,-2.07,-0.73,-2.00,-0.65,0.63,0.70,1.95,-1.44,-1.36,-1.34
146.32,-2.20,-0.83,-2.19,-0.82,0.78,0.86,1.89,-1.43,-1.41,-1.37
147.78,-2.29,-0.90,-2.37,-0.98,0.95,1.02,1.83,-1.33,-1.42,-1.39
149.26,-2.58,-1.16,-2.55,-1.12,1.15,1.24,1.76,-1.44,-1.40,-1.42
150.75,-2.85,-1.37,-2.79,-1.31,1.36,1.46,1.70,-1.48,-1.43,-1.48
152.26,-3.04,-1.50,-3.10,-1.57,1.59,1.70,1.63,-1.45,-1.52,-1.53
153.78,-3.43,-1.84,-3.45,-1.86,1.82,1.95,1.56,-1.60,-1.63,-1.59
155.32,-3.91,-2.26,-3.84,-2.20,2.07,2.21,1.49,-1.83,-1.77,-1.65
156.88,-4.29,-2.58,-4.27,-2.56,2.33,2.46,1.43,-1.97,-1.95,-1.71
158.44,-4.69,-2.90,-4.73,-2.94,2.62,2.72,1.36,-2.06,-2.10,-1.78
160.03,-5.19,-3.34,-5.24,-3.38,2.93,2.97,1.29,-2.26,-2.30,-1.86
161.63,-5.82,-3.91,-5.82,-3.91,3.22,3.19,1.22,-2.60,-2.60,-1.92
163.24,-6.42,-4.45,-6.41,-4.44,3.47,3.40,1.15,-2.95,-2.94,-1.97
164.88,-6.89,-4.89,-6.88,-4.87,3.66,3.51,1.08,-3.24,-3.22,-2.01
166.53,-7.16,-5.12,-7.14,-5.09,3.78,3.61,1.01,-3.38,-3.35,-2.05
168.19,-7.18,-5.11,-7.16,-5.09,3.83,3.56,0.94,-3.35,-3.33,-2.07
169.87,-6.97,-4.87,-6.98,-4.88,3.80,3.51,0.87,-3.17,-3.18,-2.10
171.57,-6.64,-4.53,-6.67,-4.56,3.70,3.33,0.80,-2.94,-2.97,-2.11
173.29,-6.25,-4.13,-6.24,-4.12,3.53,3.15,0.74,-2.72,-2.72,-2.12
175.02,-5.82,-3.71,-5.78,-3.66,3.29,2.92,0.67,-2.53,-2.48,-2.11
176.77,-5.26,-3.14,-5.33,-3.21,3.02,2.69,0.60,-2.25,-2.31,-2.12
178.54,-4.90,-2.79,-4.93,-2.82,2.72,2.47,0.54,-2.19,-2.21,-2.12
180.32,-4.61,-2.51,-4.58,-2.47,2.42,2.25,0.47,-2.19,-2.16,-2.10
182.13,-4.30,-2.21,-4.28,-2.19,2.16,2.05,0.41,-2.14,-2.13,-2.09
183.95,-3.97,-1.89,-4.00,-1.91,1.89,1.86,0.34,-2.08,-2.11,-2.09
185.79,-3.72,-1.64,-3.73,-1.64,1.63,1.69,0.28,-2.09,-2.10,-2.08
187.65,-3.51,-1.41,-3.49,-1.39,1.37,1.52,0.21,-2.13,-2.11,-2.10
189.52,-3.25,-1.15,-3.25,-1.15,1.13,1.38,0.15,-2.13,-2.12,-2.10
191.42,-3.01,-0.90,-3.02,-0.91,0.91,1.23,0.09,-2.11,-2.11,-2.11
193.33,-2.78,-0.66,-2.79,-0.67,0.71,1.10,0.03,-2.07,-2.08,-2.12
195.27,-2.62,-0.48,-2.59,-0.46,0.54,0.98,-0.03,-2.07,-2.05,-2.14
197.22,-2.43,-0.29,-2.46,-0.31,0.39,0.87,-0.09,-2.04,-2.07,-2.15
199.19,-2.35,-0.19,-2.39,-0.23,0.25,0.75,-0.15,-2.11,-2.14,-2.17
201.18,-2.37,-0.20,-2.33,-0.15,0.11,0.65,-0.21,-2.26,-2.22,-2.18
203.19,-2.27,-0.09,-2.25,-0.06,-0.02,0.55,-0.27,-2.30,-2.27,-2.19
205.23,-2.11,0.09,-2.13,0.07,-0.16,0.45,-0.33,-2.28,-2.29,-2.21
207.28,-1.94,0.26,-1.96,0.26,-0.32,0.35,-0.38,-2.26,-2.27,-2.21
209.35,-1.78,0.44,-1.77,0.47,-0.48,0.26,-0.44,-2.26,-2.24,-2.23
211.44,-1.58,0.67,-1.57,0.67,-0.65,0.17,-0.49,-2.23,-2.22,-2.26
213.56,-1.37,0.88,-1.42,0.84,-0.81,0.09,-0.54,-2.19,-2.23,-2.26
215.69,-1.25,1.01,-1.26,1.01,-0.97,0.00,-0.60,-2.22,-2.23,-2.26
217.85,-1.19,1.08,-1.11,1.17,-1.11,-0.08,-0.65,-2.30,-2.21,-2.27
220.03,-0.95,1.32,-1.01,1.27,-1.22,-0.16,-0.70,-2.17,-2.23,-2.28
222.23,-0.90,1.39,-1.00,1.29,-1.31,-0.23,-0.74,-2.21,-2.30,-2.30
224.45,-1.01,1.27,-0.94,1.35,-1.37,-0.31,-0.79,-2.38,-2.31,-2.28
226.70,-1.01,1.27,-0.89,1.39,-1.42,-0.38,-0.83,-2.44,-2.31,-2.28
228.96,-0.67,1.59,-0.80,1.47,-1.48,-0.45,-0.87,-2.15,-2.27,-2.27
231.25,-0.68,1.57,-0.73,1.52,-1.52,-0.52,-0.91,-2.21,-2.25,-2.25
233.57,-0.71,1.53,-0.70,1.54,-1.56,-0.59,-0.95,-2.27,-2.26,-2.24
235.90,-0.79,1.43,-0.68,1.55,-1.59,-0.65,-0.98,-2.38,-2.27,-2.23
238.26,-0.56,1.65,-0.58,1.63,-1.62,-0.71,-1.01,-2.18,-2.20,-2.21
240.64,-0.39,1.79,-0.48,1.71,-1.64,-0.77,-1.04,-2.04,-2.12,-2.19
243.05,-0.42,1.73,-0.43,1.72,-1.67,-0.83,-1.07,-2.09,-2.10,-2.15
245.48,-0.48,1.64,-0.47,1.66,-1.68,-0.88,-1.09,-2.17,-2.15,-2.13
247.93,-0.51,1.58,-0.47,1.63,-1.70,-0.94,-1.11,-2.22,-2.17,-2.09
250.41,-0.41,1.66,-0.41,1.67,-1.71,-0.99,-1.13,-2.13,-2.12,-2.08
252.92,-0.27,1.77,-0.33,1.72,-1.72,-1.04,-1.15,-1.99,-2.04,-2.04
255.45,-0.26,1.75,-0.26,1.76,-1.71,-1.08,-1.16,-1.98,-1.98,-2.02
258.00,-0.25,1.74,-0.24,1.75,-1.71,-1.13,-1.17,-1.96,-1.95,-1.99
260.58,-0.25,1.72,-0.25,1.72,-1.71,-1.17,-1.18,-1.96,-1.96,-1.97
263.19,-0.24,1.69,-0.25,1.70,-1.71,-1.21,-1.19,-1.95,-1.96,-1.94
265.82,-0.25,1.67,-0.25,1.67,-1.69,-1.25,-1.19,-1.95,-1.94,-1.92
268.48,-0.25,1.64,-0.26,1.64,-1.66,-1.28,-1.19,-1.91,-1.92,-1.90
271.16,-0.25,1.60,-0.24,1.63,-1.62,-1.31,-1.19,-1.87,-1.86,-1.86
273.87,-0.24,1.60,-0.23,1.61,-1.57,-1.34,-1.19,-1.82,-1.80,-1.84
276.61,-0.19,1.61,-0.24,1.57,-1.53,-1.37,-1.19,-1.73,-1.77,-1.81
279.38,-0.28,1.49,-0.28,1.50,-1.49,-1.40,-1.18,-1.77,-1.77,-1.78
282.17,-0.34,1.41,-0.32,1.43,-1.45,-1.42,-1.17,-1.79,-1.77,-1.75
284.99,-0.35,1.36,-0.35,1.37,-1.41,-1.44,-1.17,-1.77,-1.77,-1.72
287.84,-0.34,1.35,-0.35,1.34,-1.38,-1.46,-1.16,-1.72,-1.73,-1.70
290.72,-0.33,1.33,-0.34,1.32,-1.34,-1.48,-1.15,-1.68,-1.68,-1.66
293.63,-0.32,1.31,-0.32,1.31,-1.31,-1.49,-1.14,-1.63,-1.63,-1.63
296.57,-0.31,1.28,-0.29,1.31,-1.28,-1.51,-1.12,-1.59,-1.57,-1.60
299.53,-0.25,1.31,-0.28,1.29,-1.25,-1.52,-1.11,-1.50,-1.53,-1.57
302.53,-0.26,1.29,-0.29,1.25,-1.22,-1.53,-1.10,-1.49,-1.52,-1.55
305.55,-0.35,1.15,-0.32,1.19,-1.19,-1.53,-1.09,-1.55,-1.51,-1.50
308.61,-0.36,1.12,-0.36,1.12,-1.15,-1.54,-1.08,-1.52,-1.51,-1.48
311.69,-0.36,1.09,-0.37,1.09,-1.12,-1.54,-1.06,-1.48,-1.48,-1.46
314.81,-0.35,1.07,-0.34,1.09,-1.08,-1.55,-1.05,-1.43,-1.42,-1.43
317.96,-0.33,1.08,-0.36,1.06,-1.05,-1.55,-1.04,-1.38,-1.40,-1.41
321.14,-0.34,1.06,-0.37,1.02,-1.02,-1.55,-1.03,-1.37,-1.40,-1.40
324.35,-0.44,0.94,-0.39,1.00,-1.00,-1.54,-1.02,-1.45,-1.39,-1.38
327.59,-0.38,0.98,-0.39,0.98,-0.99,-1.54,-1.01,-1.37,-1.38,-1.37
330.87,-0.36,0.99,-0.38,0.97,-0.98,-1.53,-1.00,-1.34,-1.36,-1.36
334.18,-0.35,0.98,-0.36,0.98,-0.97,-1.53,-0.99,-1.32,-1.32,-1.34
337.52,-0.36,0.97,-0.36,0.97,-0.96,-1.52,-0.98,-1.32,-1.32,-1.33
340.90,-0.36,0.95,-0.36,0.95,-0.96,-1.51,-0.97,-1.32,-1.32,-1.31
344.30,-0.36,0.94,-0.37,0.94,-0.95,-1.50,-0.96,-1.32,-1.32,-1.30
347.75,-0.36,0.94,-0.36,0.94,-0.94,-1.49,-0.95,-1.31,-1.31,-1.30
351.23,-0.36,0.93,-0.36,0.94,-0.93,-1.48,-0.95,-1.30,-1.29,-1.30
354.74,-0.35,0.94,-0.36,0.94,-0.92,-1.47,-0.94,-1.27,-1.27,-1.30
358.28,-0.35,0.93,-0.37,0.92,-0.90,-1.46,-0.94,-1.26,-1.27,-1.29
361.87,-0.39,0.89,-0.39,0.89,-0.89,-1.44,-0.94,-1.29,-1.29,-1.29
365.49,-0.43,0.85,-0.42,0.87,-0.88,-1.43,-0.93,-1.32,-1.30,-1.28
369.14,-0.43,0.86,-0.43,0.86,-0.88,-1.41,-0.93,-1.31,-1.31,-1.29
372.83,-0.42,0.87,-0.43,0.86,-0.87,-1.40,-0.93,-1.30,-1.31,-1.29
376.56,-0.42,0.87,-0.42,0.87,-0.87,-1.38,-0.93,-1.30,-1.30,-1.29
380.33,-0.41,0.87,-0.41,0.87,-0.88,-1.36,-0.93,-1.29,-1.29,-1.28
384.13,-0.40,0.88,-0.41,0.88,-0.88,-1.35,-0.93,-1.29,-1.29,-1.29
387.97,-0.40,0.89,-0.40,0.89,-0.88,-1.33,-0.93,-1.29,-1.28,-1.30
391.85,-0.39,0.91,-0.39,0.91,-0.88,-1.31,-0.93,-1.28,-1.28,-1.31
395.77,-0.39,0.90,-0.40,0.90,-0.88,-1.30,-0.93,-1.27,-1.28,-1.30
399.73,-0.41,0.89,-0.43,0.88,-0.87,-1.28,-0.94,-1.28,-1.30,-1.31
403.72,-0.47,0.83,-0.46,0.85,-0.86,-1.26,-0.94,-1.33,-1.32,-1.31
407.76,-0.50,0.82,-0.49,0.82,-0.84,-1.24,-0.95,-1.35,-1.34,-1.32
411.84,-0.50,0.82,-0.51,0.81,-0.83,-1.22,-0.95,-1.33,-1.34,-1.32
415.96,-0.50,0.82,-0.51,0.81,-0.82,-1.20,-0.95,-1.33,-1.33,-1.32
420.12,-0.50,0.82,-0.51,0.82,-0.82,-1.19,-0.96,-1.32,-1.32,-1.32
424.32,-0.50,0.82,-0.50,0.82,-0.82,-1.17,-0.96,-1.32,-1.32,-1.32
428.56,-0.49,0.82,-0.50,0.82,-0.82,-1.15,-0.97,-1.32,-1.32,-1.31
432.85,-0.48,0.82,-0.48,0.82,-0.82,-1.13,-0.97,-1.31,-1.30,-1.30
437.18,-0.45,0.84,-0.45,0.83,-0.82,-1.11,-0.98,-1.28,-1.28,-1.29
441.55,-0.41,0.84,-0.41,0.85,-0.82,-1.09,-0.98,-1.24,-1.24,-1.25
445.96,-0.37,0.85,-0.38,0.85,-0.83,-1.07,-0.99,-1.20,-1.21,-1.22
450.42,-0.34,0.85,-0.37,0.82,-0.83,-1.06,-0.99,-1.18,-1.20,-1.20
454.93,-0.35,0.79,-0.34,0.81,-0.84,-1.04,-1.00,-1.20,-1.18,-1.15
459.48,-0.30,0.79,-0.28,0.82,-0.85,-1.02,-1.00,-1.16,-1.13,-1.10
464.07,-0.18,0.86,-0.20,0.85,-0.87,-1.00,-1.00,-1.05,-1.06,-1.05
468.71,-0.09,0.89,-0.10,0.89,-0.88,-0.98,-1.01,-0.97,-0.98,-0.99
473.40,-0.01,0.93,-0.02,0.92,-0.89,-0.97,-1.01,-0.90,-0.91,-0.95
478.13,0.04,0.92,0.03,0.93,-0.90,-0.95,-1.01,-0.87,-0.87,-0.89
