frequency,raw,smoothed,error,error_smoothed,equalization,parametric_eq,fixed_band_eq,equalized_raw,equalized_smoothed,target
20.00,15.19,15.19,7.46,7.46,-7.47,-7.28,-2.89,7.72,7.72,7.73
20.20,15.18,15.18,7.45,7.45,-7.45,-7.26,-2.97,7.73,7.73,7.73
20.40,15.17,15.17,7.44,7.44,-7.44,-7.24,-3.06,7.73,7.74,7.73
20.61,15.16,15.15,7.43,7.43,-7.42,-7.22,-3.14,7.74,7.74,7.73
20.81,15.13,15.13,7.40,7.40,-7.39,-7.20,-3.23,7.74,7.74,7.73
21.02,15.10,15.10,7.37,7.37,-7.37,-7.17,-3.33,7.73,7.73,7.73
21.23,15.07,15.07,7.34,7.34,-7.34,-7.15,-3.42,7.73,7.73,7.73
21.44,15.04,15.04,7.31,7.31,-7.31,-7.13,-3.52,7.73,7.72,7.73
21.66,15.00,15.00,7.27,7.28,-7.28,-7.11,-3.62,7.72,7.73,7.73
21.87,14.97,14.97,7.24,7.24,-7.24,-7.08,-3.72,7.73,7.73,7.73
22.09,14.93,14.93,7.21,7.21,-7.21,-7.06,-3.82,7.73,7.72,7.72
22.31,14.89,14.89,7.17,7.17,-7.17,-7.04,-3.93,7.72,7.72,7.72
22.54,14.85,14.85,7.13,7.13,-7.13,-7.01,-4.04,7.72,7.72,7.72
22.76,14.81,14.81,7.09,7.09,-7.09,-6.99,-4.16,7.72,7.72,7.72
22.99,14.77,14.77,7.05,7.05,-7.05,-6.96,-4.28,7.72,7.72,7.72
23.22,14.73,14.73,7.01,7.01,-7.01,-6.94,-4.40,7.72,7.72,7.72
23.45,14.69,14.69,6.97,6.97,-6.97,-6.91,-4.52,7.72,7.72,7.72
23.69,14.65,14.65,6.93,6.93,-6.93,-6.89,-4.64,7.72,7.72,7.72
23.92,14.61,14.61,6.89,6.89,-6.90,-6.86,-4.77,7.71,7.72,7.72
24.16,14.57,14.57,6.85,6.86,-6.86,-6.83,-4.90,7.71,7.72,7.72
24.40,14.54,14.54,6.83,6.82,-6.82,-6.81,-5.03,7.72,7.71,7.71
24.65,14.50,14.50,6.79,6.79,-6.79,-6.78,-5.17,7.71,7.71,7.71
24.89,14.46,14.47,6.75,6.75,-6.75,-6.75,-5.30,7.71,7.71,7.71
25.14,14.43,14.43,6.72,6.72,-6.72,-6.72,-5.44,7.71,7.71,7.71
25.39,14.40,14.40,6.69,6.69,-6.69,-6.69,-5.58,7.71,7.71,7.71
25.65,14.36,14.36,6.65,6.66,-6.66,-6.66,-5.72,7.70,7.71,7.71
25.91,14.33,14.33,6.63,6.63,-6.63,-6.63,-5.86,7.70,7.71,7.71
26.16,14.30,14.30,6.60,6.60,-6.60,-6.60,-6.00,7.70,7.70,7.70
26.43,14.27,14.27,6.57,6.57,-6.57,-6.57,-6.14,7.71,7.70,7.70
26.69,14.24,14.24,6.54,6.54,-6.54,-6.54,-6.28,7.70,7.70,7.70
26.96,14.20,14.21,6.50,6.51,-6.51,-6.51,-6.42,7.70,7.70,7.70
27.23,14.17,14.17,6.47,6.47,-6.48,-6.47,-6.55,7.70,7.70,7.70
27.50,14.14,14.14,6.45,6.44,-6.44,-6.44,-6.68,7.70,7.69,7.70
27.77,14.10,14.10,6.41,6.41,-6.41,-6.41,-6.81,7.69,7.69,7.69
28.05,14.07,14.07,6.38,6.38,-6.37,-6.37,-6.93,7.70,7.69,7.69
28.33,14.03,14.03,6.34,6.34,-6.34,-6.34,-7.04,7.69,7.69,7.69
28.62,13.99,13.99,6.30,6.30,-6.30,-6.30,-7.15,7.69,7.69,7.69
28.90,13.94,13.94,6.26,6.26,-6.26,-6.27,-7.25,7.68,7.69,7.69
29.19,13.90,13.90,6.22,6.22,-6.21,-6.23,-7.35,7.69,7.68,7.68
29.48,13.85,13.85,6.17,6.17,-6.17,-6.20,-7.43,7.68,7.68,7.68
29.78,13.80,13.80,6.12,6.12,-6.13,-6.16,-7.50,7.67,7.68,7.68
30.08,13.75,13.75,6.08,6.08,-6.08,-6.12,-7.56,7.67,7.67,7.68
30.38,13.71,13.71,6.04,6.04,-6.04,-6.08,-7.61,7.67,7.67,7.67
30.68,13.66,13.66,5.99,5.99,-5.99,-6.04,-7.65,7.67,7.67,7.67
30.99,13.62,13.62,5.95,5.95,-5.95,-6.01,-7.67,7.67,7.67,7.67
31.30,13.57,13.57,5.91,5.91,-5.91,-5.97,-7.68,7.66,7.66,7.66
31.61,13.53,13.53,5.87,5.87,-5.87,-5.93,-7.68,7.66,7.66,7.66
31.93,13.48,13.48,5.82,5.83,-5.82,-5.89,-7.66,7.66,7.66,7.66
32.24,13.44,13.44,5.79,5.78,-5.78,-5.85,-7.64,7.66,7.66,7.65
32.57,13.39,13.39,5.74,5.74,-5.74,-5.80,-7.60,7.65,7.65,7.65
32.89,13.34,13.34,5.69,5.69,-5.70,-5.76,-7.55,7.64,7.65,7.65
33.22,13.29,13.29,5.65,5.65,-5.65,-5.72,-7.48,7.64,7.64,7.64
33.55,13.25,13.25,5.61,5.61,-5.61,-5.68,-7.41,7.64,7.64,7.64
33.89,13.20,13.20,5.57,5.57,-5.56,-5.63,-7.33,7.64,7.64,7.64
34.23,13.15,13.15,5.52,5.52,-5.52,-5.59,-7.24,7.63,7.63,7.63
34.57,13.10,13.10,5.47,5.47,-5.47,-5.55,-7.14,7.63,7.63,7.63
34.92,13.05,13.05,5.43,5.43,-5.43,-5.50,-7.04,7.62,7.62,7.62
35.27,13.00,13.00,5.38,5.38,-5.39,-5.46,-6.93,7.62,7.62,7.62
35.62,12.95,12.95,5.34,5.34,-5.34,-5.41,-6.82,7.61,7.61,7.61
35.97,12.90,12.90,5.29,5.29,-5.30,-5.37,-6.70,7.60,7.60,7.61
36.33,12.85,12.85,5.25,5.25,-5.25,-5.32,-6.58,7.60,7.60,7.60
36.70,12.80,12.80,5.20,5.20,-5.21,-5.27,-6.46,7.60,7.59,7.60
37.06,12.75,12.75,5.16,5.16,-5.16,-5.23,-6.33,7.59,7.59,7.59
37.43,12.69,12.69,5.11,5.11,-5.11,-5.18,-6.21,7.58,7.59,7.58
37.81,12.64,12.64,5.06,5.06,-5.05,-5.13,-6.08,7.59,7.59,7.58
38.19,12.57,12.57,5.00,5.00,-4.99,-5.08,-5.96,7.58,7.58,7.57
38.57,12.51,12.51,4.94,4.94,-4.93,-5.04,-5.84,7.58,7.58,7.57
38.95,12.43,12.43,4.87,4.87,-4.87,-4.99,-5.71,7.56,7.56,7.56
39.34,12.36,12.36,4.81,4.80,-4.81,-4.94,-5.59,7.55,7.55,7.55
39.74,12.28,12.28,4.74,4.74,-4.75,-4.89,-5.47,7.53,7.54,7.54
40.14,12.21,12.22,4.67,4.68,-4.69,-4.84,-5.36,7.52,7.52,7.54
40.54,12.16,12.16,4.63,4.63,-4.64,-4.79,-5.24,7.52,7.52,7.53
40.94,12.11,12.11,4.59,4.59,-4.60,-4.74,-5.13,7.51,7.51,7.52
41.35,12.07,12.07,4.56,4.56,-4.56,-4.69,-5.02,7.51,7.51,7.51
41.76,12.04,12.04,4.54,4.53,-4.53,-4.64,-4.92,7.51,7.51,7.50
42.18,12.00,12.00,4.51,4.51,-4.50,-4.59,-4.82,7.50,7.50,7.50
42.60,11.97,11.97,4.48,4.48,-4.48,-4.54,-4.72,7.49,7.49,7.49
43.03,11.93,11.93,4.45,4.46,-4.45,-4.49,-4.62,7.48,7.48,7.48
43.46,11.89,11.89,4.42,4.43,-4.42,-4.44,-4.53,7.47,7.47,7.47
43.90,11.85,11.85,4.40,4.39,-4.39,-4.39,-4.44,7.46,7.46,7.46
44.33,11.80,11.80,4.36,4.36,-4.36,-4.34,-4.35,7.44,7.45,7.44
44.78,11.76,11.76,4.33,4.32,-4.32,-4.29,-4.27,7.44,7.43,7.43
45.23,11.70,11.70,4.28,4.28,-4.28,-4.24,-4.19,7.42,7.42,7.42
45.68,11.65,11.65,4.24,4.24,-4.24,-4.19,-4.11,7.41,7.41,7.41
46.13,11.60,11.60,4.20,4.20,-4.20,-4.14,-4.04,7.40,7.40,7.40
46.60,11.54,11.54,4.16,4.16,-4.16,-4.09,-3.96,7.39,7.39,7.38
47.06,11.48,11.48,4.11,4.11,-4.11,-4.05,-3.90,7.37,7.37,7.37
47.53,11.42,11.42,4.06,4.06,-4.06,-4.00,-3.83,7.36,7.36,7.36
48.01,11.36,11.36,4.02,4.02,-4.02,-3.95,-3.77,7.34,7.34,7.34
48.49,11.30,11.30,3.97,3.97,-3.97,-3.90,-3.71,7.33,7.33,7.33
48.97,11.23,11.23,3.92,3.92,-3.92,-3.85,-3.66,7.31,7.31,7.31
49.46,11.17,11.17,3.87,3.87,-3.88,-3.81,-3.60,7.29,7.30,7.30
49.96,11.11,11.11,3.83,3.83,-3.83,-3.76,-3.55,7.28,7.28,7.28
50.46,11.05,11.05,3.79,3.79,-3.79,-3.71,-3.50,7.26,7.26,7.26
50.96,10.99,10.99,3.74,3.75,-3.75,-3.67,-3.46,7.24,7.24,7.25
51.47,10.93,10.93,3.70,3.71,-3.71,-3.62,-3.41,7.22,7.22,7.23
51.99,10.88,10.88,3.67,3.67,-3.67,-3.58,-3.37,7.21,7.21,7.21
52.51,10.82,10.82,3.63,3.63,-3.64,-3.53,-3.33,7.19,7.19,7.19
53.03,10.77,10.77,3.60,3.60,-3.60,-3.49,-3.30,7.17,7.17,7.17
53.56,10.72,10.72,3.57,3.57,-3.57,-3.45,-3.26,7.16,7.15,7.15
54.10,10.66,10.66,3.53,3.53,-3.53,-3.41,-3.22,7.13,7.13,7.13
54.64,10.60,10.60,3.49,3.49,-3.49,-3.37,-3.19,7.11,7.11,7.11
55.18,10.54,10.54,3.46,3.45,-3.45,-3.33,-3.16,7.09,7.09,7.08
55.74,10.47,10.47,3.41,3.41,-3.41,-3.29,-3.13,7.06,7.06,7.06
56.29,10.41,10.41,3.37,3.37,-3.37,-3.25,-3.10,7.04,7.04,7.04
56.86,10.34,10.34,3.33,3.33,-3.33,-3.21,-3.07,7.01,7.01,7.01
57.42,10.27,10.27,3.28,3.29,-3.29,-3.18,-3.05,6.98,6.98,6.99
58.00,10.20,10.20,3.24,3.24,-3.25,-3.14,-3.02,6.95,6.96,6.96
58.58,10.14,10.14,3.21,3.21,-3.21,-3.11,-2.99,6.94,6.93,6.93
59.16,10.07,10.07,3.17,3.17,-3.17,-3.08,-2.97,6.90,6.90,6.90
59.76,10.00,10.00,3.13,3.13,-3.13,-3.04,-2.94,6.87,6.88,6.88
60.35,9.93,9.93,3.08,3.09,-3.09,-3.01,-2.92,6.84,6.84,6.85
60.96,9.87,9.87,3.06,3.05,-3.05,-2.98,-2.89,6.82,6.81,6.81
61.57,9.80,9.80,3.02,3.02,-3.02,-2.95,-2.87,6.78,6.78,6.78
62.18,9.73,9.73,2.98,2.98,-2.98,-2.93,-2.84,6.75,6.75,6.75
62.80,9.67,9.67,2.95,2.95,-2.95,-2.90,-2.81,6.72,6.72,6.72
63.43,9.60,9.60,2.92,2.92,-2.92,-2.87,-2.79,6.68,6.68,6.68
64.07,9.53,9.53,2.88,2.89,-2.89,-2.85,-2.76,6.65,6.65,6.65
64.71,9.47,9.47,2.86,2.86,-2.85,-2.82,-2.74,6.62,6.61,6.61
65.35,9.40,9.40,2.83,2.83,-2.82,-2.80,-2.71,6.58,6.58,6.58
66.01,9.33,9.33,2.79,2.79,-2.79,-2.78,-2.69,6.54,6.54,6.54
66.67,9.26,9.26,2.76,2.76,-2.76,-2.76,-2.66,6.50,6.50,6.50
67.33,9.19,9.19,2.73,2.73,-2.73,-2.74,-2.64,6.46,6.46,6.46
68.01,9.12,9.12,2.70,2.70,-2.70,-2.72,-2.61,6.42,6.42,6.42
68.69,9.05,9.05,2.68,2.68,-2.68,-2.70,-2.59,6.37,6.37,6.37
69.37,8.98,8.98,2.65,2.65,-2.65,-2.69,-2.56,6.33,6.33,6.33
70.07,8.91,8.91,2.62,2.62,-2.62,-2.67,-2.54,6.29,6.29,6.29
70.77,8.84,8.84,2.60,2.59,-2.59,-2.65,-2.52,6.25,6.24,6.24
71.48,8.76,8.76,2.56,2.57,-2.57,-2.64,-2.49,6.19,6.20,6.20
72.19,8.69,8.69,2.54,2.54,-2.54,-2.63,-2.47,6.15,6.15,6.15
72.91,8.62,8.62,2.52,2.52,-2.52,-2.61,-2.45,6.10,6.10,6.10
73.64,8.55,8.55,2.50,2.50,-2.50,-2.60,-2.43,6.05,6.05,6.05
74.38,8.48,8.48,2.48,2.48,-2.47,-2.59,-2.41,6.01,6.00,6.00
75.12,8.40,8.40,2.45,2.45,-2.45,-2.58,-2.39,5.95,5.95,5.95
75.87,8.33,8.33,2.43,2.43,-2.44,-2.57,-2.37,5.90,5.90,5.90
76.63,8.26,8.26,2.42,2.41,-2.42,-2.56,-2.36,5.84,5.84,5.84
77.40,8.19,8.19,2.40,2.40,-2.40,-2.55,-2.34,5.79,5.79,5.79
78.17,8.12,8.12,2.39,2.38,-2.38,-2.54,-2.33,5.74,5.74,5.74
78.95,8.05,8.05,2.37,2.37,-2.37,-2.53,-2.32,5.68,5.68,5.68
79.74,7.97,7.97,2.35,2.35,-2.35,-2.53,-2.31,5.62,5.62,5.62
80.54,7.90,7.90,2.34,2.34,-2.34,-2.52,-2.30,5.56,5.56,5.56
81.35,7.83,7.83,2.33,2.32,-2.32,-2.51,-2.29,5.51,5.50,5.50
82.16,7.75,7.75,2.31,2.31,-2.31,-2.51,-2.28,5.44,5.45,5.44
82.98,7.68,7.68,2.30,2.30,-2.29,-2.50,-2.28,5.39,5.38,5.38
83.81,7.60,7.60,2.28,2.28,-2.28,-2.49,-2.28,5.32,5.32,5.32
84.65,7.52,7.52,2.26,2.26,-2.26,-2.49,-2.27,5.26,5.26,5.26
85.50,7.44,7.44,2.25,2.25,-2.25,-2.48,-2.28,5.19,5.19,5.19
86.35,7.36,7.36,2.23,2.23,-2.23,-2.48,-2.28,5.13,5.13,5.13
87.22,7.28,7.28,2.22,2.22,-2.22,-2.47,-2.28,5.07,5.07,5.06
88.09,7.20,7.20,2.20,2.20,-2.20,-2.47,-2.29,5.00,5.00,5.00
88.97,7.11,7.11,2.18,2.18,-2.18,-2.47,-2.29,4.93,4.93,4.93
89.86,7.02,7.02,2.16,2.16,-2.16,-2.46,-2.30,4.86,4.87,4.86
90.76,6.94,6.93,2.14,2.14,-2.14,-2.46,-2.31,4.80,4.80,4.80
91.66,6.84,6.84,2.11,2.12,-2.11,-2.45,-2.32,4.73,4.73,4.73
92.58,6.75,6.75,2.09,2.09,-2.09,-2.45,-2.34,4.66,4.66,4.66
93.51,6.66,6.66,2.07,2.07,-2.06,-2.45,-2.35,4.60,4.59,4.59
94.44,6.56,6.56,2.04,2.04,-2.04,-2.44,-2.37,4.52,4.52,4.52
95.39,6.46,6.46,2.01,2.01,-2.01,-2.44,-2.39,4.45,4.45,4.45
96.34,6.36,6.36,1.98,1.98,-1.98,-2.44,-2.41,4.38,4.38,4.38
97.30,6.27,6.27,1.96,1.96,-1.96,-2.44,-2.43,4.31,4.31,4.31
98.28,6.17,6.17,1.94,1.94,-1.94,-2.43,-2.45,4.23,4.24,4.23
99.26,6.09,6.09,1.93,1.93,-1.93,-2.43,-2.47,4.16,4.16,4.16
100.25,6.01,6.01,1.92,1.92,-1.93,-2.43,-2.50,4.08,4.08,4.09
101.25,5.95,5.95,1.93,1.94,-1.95,-2.43,-2.52,4.00,4.00,4.02
102.27,5.91,5.91,1.97,1.97,-1.99,-2.43,-2.55,3.93,3.93,3.94
103.29,5.89,5.89,2.02,2.02,-2.04,-2.43,-2.57,3.85,3.85,3.87
104.32,5.89,5.89,2.09,2.09,-2.11,-2.43,-2.60,3.78,3.78,3.80
105.37,5.90,5.90,2.18,2.18,-2.19,-2.42,-2.63,3.71,3.72,3.72
106.42,5.93,5.93,2.28,2.28,-2.28,-2.42,-2.65,3.65,3.65,3.65
107.48,5.96,5.96,2.38,2.38,-2.38,-2.42,-2.68,3.58,3.58,3.58
108.56,5.99,5.99,2.49,2.48,-2.47,-2.43,-2.71,3.52,3.52,3.51
109.64,6.01,6.01,2.58,2.58,-2.57,-2.43,-2.73,3.45,3.45,3.43
110.74,6.02,6.02,2.66,2.66,-2.65,-2.43,-2.76,3.37,3.37,3.36
111.85,6.02,6.02,2.73,2.73,-2.72,-2.43,-2.78,3.30,3.30,3.29
112.97,6.00,6.00,2.78,2.78,-2.77,-2.43,-2.80,3.23,3.23,3.22
114.10,5.97,5.97,2.83,2.82,-2.82,-2.43,-2.82,3.15,3.15,3.14
115.24,5.92,5.92,2.85,2.85,-2.85,-2.44,-2.84,3.07,3.07,3.07
116.39,5.87,5.87,2.87,2.87,-2.87,-2.44,-2.86,3.00,3.00,3.00
117.55,5.81,5.81,2.88,2.88,-2.88,-2.44,-2.87,2.93,2.93,2.93
118.73,5.75,5.75,2.89,2.89,-2.89,-2.45,-2.89,2.86,2.86,2.86
119.92,5.68,5.68,2.89,2.89,-2.89,-2.45,-2.89,2.79,2.79,2.79
121.12,5.61,5.61,2.89,2.89,-2.89,-2.45,-2.90,2.72,2.72,2.72
122.33,5.54,5.54,2.89,2.88,-2.89,-2.46,-2.90,2.66,2.65,2.66
123.55,5.46,5.46,2.87,2.88,-2.88,-2.46,-2.91,2.58,2.58,2.59
124.79,5.39,5.39,2.87,2.87,-2.87,-2.47,-2.90,2.52,2.52,2.52
126.03,5.32,5.32,2.87,2.86,-2.87,-2.48,-2.90,2.45,2.45,2.45
127.29,5.25,5.25,2.86,2.86,-2.86,-2.48,-2.89,2.39,2.39,2.39
128.57,5.17,5.17,2.85,2.85,-2.85,-2.49,-2.88,2.32,2.33,2.32
129.85,5.10,5.10,2.84,2.84,-2.84,-2.49,-2.87,2.26,2.26,2.26
131.15,5.03,5.03,2.83,2.83,-2.83,-2.50,-2.85,2.20,2.20,2.20
132.46,4.95,4.95,2.81,2.82,-2.82,-2.51,-2.83,2.13,2.13,2.14
133.79,4.88,4.88,2.81,2.81,-2.81,-2.51,-2.81,2.07,2.07,2.07
135.12,4.81,4.81,2.80,2.80,-2.80,-2.52,-2.78,2.01,2.01,2.01
136.48,4.74,4.74,2.79,2.79,-2.78,-2.53,-2.76,1.96,1.96,1.95
137.84,4.67,4.67,2.77,2.77,-2.77,-2.54,-2.73,1.90,1.90,1.90
139.22,4.60,4.60,2.76,2.76,-2.76,-2.54,-2.70,1.84,1.84,1.84
140.61,4.52,4.52,2.74,2.74,-2.74,-2.55,-2.67,1.78,1.78,1.78
142.02,4.45,4.45,2.72,2.73,-2.73,-2.55,-2.64,1.72,1.72,1.73
143.44,4.38,4.38,2.71,2.71,-2.71,-2.56,-2.60,1.67,1.67,1.67
144.87,4.31,4.31,2.69,2.69,-2.69,-2.57,-2.57,1.62,1.62,1.62
146.32,4.24,4.24,2.68,2.68,-2.68,-2.57,-2.53,1.56,1.57,1.57
147.78,4.18,4.18,2.67,2.66,-2.66,-2.58,-2.50,1.52,1.51,1.51
149.26,4.11,4.11,2.65,2.65,-2.65,-2.58,-2.46,1.47,1.47,1.46
150.75,4.04,4.04,2.63,2.63,-2.63,-2.58,-2.43,1.41,1.41,1.41
152.26,3.98,3.98,2.62,2.61,-2.61,-2.58,-2.39,1.37,1.36,1.36
153.78,3.91,3.91,2.59,2.60,-2.60,-2.59,-2.36,1.31,1.32,1.32
155.32,3.85,3.85,2.58,2.58,-2.58,-2.59,-2.33,1.27,1.27,1.27
156.88,3.79,3.79,2.57,2.56,-2.57,-2.59,-2.29,1.22,1.22,1.23
158.44,3.73,3.73,2.55,2.55,-2.55,-2.59,-2.26,1.18,1.18,1.18
160.03,3.67,3.67,2.53,2.54,-2.53,-2.58,-2.23,1.14,1.14,1.14
161.63,3.61,3.61,2.53,2.52,-2.52,-2.58,-2.20,1.09,1.09,1.09
163.24,3.55,3.55,2.51,2.51,-2.50,-2.58,-2.17,1.05,1.05,1.04
164.88,3.49,3.49,2.49,2.49,-2.49,-2.57,-2.15,1.00,1.00,1.00
166.53,3.43,3.43,2.47,2.47,-2.47,-2.56,-2.12,0.96,0.96,0.96
168.19,3.38,3.38,2.45,2.45,-2.45,-2.55,-2.10,0.93,0.92,0.93
169.87,3.32,3.32,2.43,2.44,-2.43,-2.54,-2.07,0.89,0.89,0.89
171.57,3.27,3.27,2.42,2.42,-2.42,-2.53,-2.05,0.85,0.85,0.85
173.29,3.22,3.22,2.40,2.40,-2.40,-2.52,-2.03,0.82,0.82,0.82
175.02,3.16,3.16,2.38,2.38,-2.38,-2.51,-2.01,0.78,0.78,0.78
176.77,3.11,3.11,2.36,2.37,-2.37,-2.49,-1.99,0.74,0.75,0.75
178.54,3.07,3.07,2.35,2.35,-2.35,-2.47,-1.98,0.72,0.72,0.72
180.32,3.02,3.02,2.34,2.33,-2.33,-2.46,-1.96,0.69,0.68,0.68
182.13,2.97,2.97,2.32,2.32,-2.32,-2.44,-1.95,0.65,0.65,0.65
183.95,2.92,2.92,2.30,2.30,-2.30,-2.42,-1.94,0.62,0.62,0.62
185.79,2.88,2.88,2.29,2.28,-2.28,-2.39,-1.93,0.60,0.60,0.59
187.65,2.83,2.83,2.26,2.26,-2.26,-2.37,-1.92,0.57,0.57,0.57
189.52,2.78,2.78,2.24,2.24,-2.24,-2.34,-1.92,0.54,0.54,0.54
191.42,2.73,2.73,2.22,2.22,-2.22,-2.32,-1.91,0.51,0.51,0.51
193.33,2.68,2.68,2.19,2.19,-2.20,-2.29,-1.91,0.49,0.49,0.49
195.27,2.63,2.63,2.17,2.17,-2.17,-2.26,-1.90,0.46,0.46,0.46
197.22,2.58,2.58,2.14,2.14,-2.15,-2.23,-1.90,0.44,0.44,0.44
199.19,2.53,2.53,2.12,2.12,-2.12,-2.20,-1.90,0.41,0.41,0.41
201.18,2.48,2.48,2.09,2.09,-2.09,-2.17,-1.90,0.39,0.39,0.39
203.19,2.43,2.43,2.06,2.06,-2.06,-2.13,-1.90,0.37,0.37,0.37
205.23,2.38,2.38,2.03,2.04,-2.03,-2.10,-1.90,0.35,0.35,0.35
207.28,2.33,2.33,2.00,2.00,-2.00,-2.07,-1.91,0.33,0.33,0.33
209.35,2.28,2.28,1.98,1.97,-1.97,-2.03,-1.91,0.31,0.31,0.31
211.44,2.22,2.22,1.93,1.94,-1.94,-1.99,-1.91,0.28,0.29,0.29
213.56,2.17,2.17,1.90,1.90,-1.91,-1.96,-1.91,0.26,0.27,0.27
215.69,2.12,2.12,1.87,1.87,-1.87,-1.92,-1.92,0.25,0.25,0.25
217.85,2.07,2.07,1.84,1.84,-1.84,-1.88,-1.92,0.23,0.23,0.23
220.03,2.02,2.02,1.81,1.81,-1.81,-1.84,-1.92,0.21,0.21,0.21
222.23,1.97,1.97,1.77,1.78,-1.77,-1.80,-1.92,0.20,0.20,0.20
224.45,1.93,1.93,1.75,1.75,-1.74,-1.76,-1.92,0.19,0.18,0.18
226.70,1.88,1.88,1.71,1.71,-1.71,-1.72,-1.92,0.17,0.17,0.17
228.96,1.83,1.83,1.68,1.68,-1.68,-1.68,-1.92,0.15,0.15,0.15
231.25,1.78,1.78,1.64,1.64,-1.65,-1.64,-1.91,0.13,0.13,0.14
233.57,1.73,1.73,1.61,1.61,-1.62,-1.60,-1.91,0.11,0.12,0.12
235.90,1.69,1.69,1.59,1.58,-1.59,-1.56,-1.90,0.10,0.10,0.10
238.26,1.64,1.64,1.55,1.56,-1.56,-1.52,-1.89,0.08,0.09,0.09
240.64,1.60,1.60,1.53,1.53,-1.53,-1.48,-1.88,0.07,0.07,0.07
243.05,1.56,1.56,1.50,1.50,-1.50,-1.44,-1.87,0.06,0.06,0.06
245.48,1.52,1.52,1.47,1.47,-1.47,-1.40,-1.85,0.05,0.05,0.05
247.93,1.48,1.48,1.44,1.44,-1.44,-1.36,-1.83,0.04,0.04,0.04
250.41,1.43,1.43,1.40,1.41,-1.41,-1.32,-1.81,0.02,0.03,0.03
252.92,1.39,1.39,1.37,1.37,-1.38,-1.28,-1.79,0.02,0.02,0.02
255.45,1.35,1.35,1.34,1.34,-1.34,-1.24,-1.76,0.01,0.01,0.01
258.00,1.31,1.31,1.31,1.31,-1.31,-1.20,-1.74,0.00,-0.00,-0.00
260.58,1.26,1.26,1.27,1.28,-1.28,-1.16,-1.71,-0.01,-0.01,-0.01
263.19,1.22,1.22,1.24,1.24,-1.24,-1.13,-1.67,-0.02,-0.02,-0.02
265.82,1.18,1.18,1.21,1.21,-1.21,-1.09,-1.64,-0.03,-0.03,-0.03
268.48,1.13,1.13,1.17,1.17,-1.18,-1.05,-1.60,-0.04,-0.04,-0.04
271.16,1.09,1.09,1.14,1.14,-1.14,-1.01,-1.56,-0.05,-0.05,-0.05
273.87,1.05,1.05,1.11,1.10,-1.11,-0.97,-1.52,-0.06,-0.06,-0.06
276.61,1.01,1.01,1.07,1.07,-1.07,-0.94,-1.48,-0.06,-0.06,-0.06
279.38,0.97,0.97,1.04,1.04,-1.04,-0.90,-1.43,-0.07,-0.07,-0.07
282.17,0.93,0.93,1.01,1.00,-1.00,-0.86,-1.39,-0.07,-0.07,-0.08
284.99,0.89,0.89,0.96,0.96,-0.96,-0.83,-1.34,-0.07,-0.07,-0.07
287.84,0.85,0.85,0.92,0.93,-0.93,-0.79,-1.29,-0.08,-0.08,-0.07
290.72,0.81,0.81,0.89,0.89,-0.89,-0.76,-1.24,-0.08,-0.08,-0.08
293.63,0.77,0.77,0.85,0.85,-0.85,-0.72,-1.19,-0.08,-0.08,-0.08
296.57,0.73,0.73,0.81,0.81,-0.81,-0.69,-1.14,-0.08,-0.08,-0.08
299.53,0.69,0.69,0.77,0.77,-0.77,-0.65,-1.09,-0.08,-0.08,-0.07
302.53,0.66,0.66,0.74,0.73,-0.74,-0.62,-1.04,-0.07,-0.08,-0.08
305.55,0.62,0.62,0.70,0.70,-0.70,-0.58,-0.98,-0.08,-0.08,-0.08
308.61,0.58,0.58,0.66,0.66,-0.66,-0.55,-0.93,-0.08,-0.08,-0.08
311.69,0.55,0.55,0.63,0.63,-0.63,-0.52,-0.88,-0.08,-0.08,-0.08
314.81,0.51,0.51,0.59,0.59,-0.59,-0.48,-0.82,-0.08,-0.08,-0.08
317.96,0.48,0.48,0.56,0.56,-0.56,-0.45,-0.77,-0.07,-0.08,-0.08
321.14,0.44,0.44,0.52,0.52,-0.52,-0.42,-0.71,-0.08,-0.08,-0.08
324.35,0.41,0.41,0.48,0.48,-0.49,-0.39,-0.66,-0.07,-0.07,-0.07
327.59,0.38,0.38,0.45,0.45,-0.45,-0.36,-0.61,-0.07,-0.07,-0.07
330.87,0.34,0.34,0.41,0.41,-0.41,-0.33,-0.55,-0.07,-0.07,-0.07
334.18,0.31,0.31,0.38,0.38,-0.38,-0.30,-0.50,-0.07,-0.07,-0.07
337.52,0.28,0.28,0.35,0.34,-0.34,-0.27,-0.44,-0.06,-0.07,-0.07
340.90,0.24,0.24,0.30,0.31,-0.31,-0.24,-0.39,-0.07,-0.06,-0.06
344.30,0.21,0.21,0.27,0.27,-0.27,-0.21,-0.34,-0.06,-0.06,-0.06
347.75,0.18,0.18,0.23,0.23,-0.23,-0.18,-0.28,-0.05,-0.05,-0.05
351.23,0.15,0.15,0.20,0.20,-0.20,-0.15,-0.23,-0.05,-0.05,-0.05
354.74,0.12,0.12,0.16,0.16,-0.16,-0.12,-0.17,-0.04,-0.04,-0.04
358.28,0.09,0.09,0.13,0.13,-0.13,-0.09,-0.12,-0.04,-0.04,-0.04
361.87,0.06,0.06,0.09,0.09,-0.09,-0.06,-0.07,-0.03,-0.03,-0.03
365.49,0.03,0.03,0.06,0.06,-0.06,-0.03,-0.01,-0.03,-0.03,-0.02
369.14,0.00,-0.00,0.03,0.02,-0.02,-0.01,0.04,-0.02,-0.02,-0.03
372.83,-0.03,-0.03,-0.02,-0.01,0.01,0.02,0.09,-0.02,-0.02,-0.01
376.56,-0.06,-0.06,-0.05,-0.05,0.04,0.05,0.14,-0.02,-0.01,-0.01
380.33,-0.08,-0.08,-0.07,-0.08,0.08,0.07,0.20,-0.00,-0.01,-0.00
384.13,-0.11,-0.11,-0.10,-0.11,0.11,0.10,0.25,0.00,0.00,-0.01
387.97,-0.14,-0.14,-0.14,-0.14,0.14,0.13,0.30,0.00,0.01,0.00
391.85,-0.16,-0.16,-0.18,-0.17,0.17,0.15,0.35,0.01,0.01,0.02
395.77,-0.19,-0.19,-0.21,-0.21,0.20,0.18,0.40,0.02,0.02,0.02
399.73,-0.21,-0.21,-0.23,-0.24,0.24,0.21,0.46,0.03,0.02,0.02
403.72,-0.24,-0.24,-0.27,-0.26,0.27,0.23,0.51,0.03,0.03,0.03
407.76,-0.26,-0.26,-0.29,-0.29,0.29,0.26,0.56,0.04,0.04,0.03
411.84,-0.28,-0.28,-0.32,-0.32,0.32,0.28,0.61,0.04,0.04,0.04
415.96,-0.31,-0.31,-0.36,-0.35,0.35,0.31,0.66,0.04,0.04,0.05
420.12,-0.33,-0.33,-0.38,-0.38,0.38,0.33,0.70,0.05,0.05,0.05
424.32,-0.35,-0.35,-0.40,-0.41,0.40,0.36,0.75,0.05,0.05,0.05
428.56,-0.37,-0.37,-0.43,-0.43,0.43,0.38,0.80,0.06,0.06,0.06
432.85,-0.39,-0.39,-0.46,-0.46,0.46,0.41,0.84,0.07,0.07,0.07
437.18,-0.41,-0.41,-0.48,-0.48,0.48,0.43,0.89,0.08,0.07,0.07
441.55,-0.43,-0.43,-0.51,-0.51,0.51,0.46,0.93,0.08,0.08,0.08
445.96,-0.45,-0.45,-0.54,-0.54,0.54,0.48,0.97,0.09,0.09,0.09
450.42,-0.46,-0.46,-0.57,-0.57,0.56,0.50,1.01,0.10,0.10,0.11
454.93,-0.48,-0.48,-0.59,-0.59,0.59,0.53,1.05,0.11,0.11,0.11
459.48,-0.50,-0.50,-0.62,-0.62,0.61,0.55,1.09,0.11,0.12,0.12
464.07,-0.51,-0.51,-0.63,-0.64,0.64,0.58,1.12,0.13,0.13,0.12
468.71,-0.53,-0.53,-0.66,-0.66,0.66,0.60,1.16,0.13,0.13,0.13
473.40,-0.55,-0.55,-0.69,-0.69,0.69,0.62,1.19,0.14,0.14,0.14
478.13,-0.56,-0.56,-0.71,-0.71,0.71,0.64,1.22,0.15,0.15,0.15
482.91,-0.58,-0.58,-0.74,-0.73,0.74,0.67,1.24,0.16,0.16,0.16
487.74,-0.59,-0.59,-0.76,-0.76,0.76,0.69,1.26,0.17,0.17,0.17
492.62,-0.61,-0.61,-0.79,-0.79,0.79,0.71,1.29,0.18,0.18,0.18
497.55,-0.63,-0.63,-0.81,-0.81,0.82,0.73,1.30,0.19,0.19,0.19
502.52,-0.65,-0.65,-0.84,-0.84,0.84,0.76,1.32,0.19,0.20,0.19
507.55,-0.66,-0.66,-0.87,-0.87,0.87,0.78,1.33,0.21,0.21,0.21
512.62,-0.68,-0.68,-0.90,-0.90,0.90,0.80,1.35,0.22,0.22,0.22
