frequency,raw
20.00,9.78
20.20,9.75
20.40,9.73
20.61,9.72
20.81,9.70
21.02,9.69
21.23,9.69
21.44,9.68
21.66,9.68
21.87,9.69
22.09,9.69
22.31,9.70
22.54,9.71
22.76,9.73
22.99,9.75
23.22,9.77
23.45,9.80
23.69,9.83
23.92,9.86
24.16,9.89
24.40,9.92
24.65,9.95
24.89,9.98
25.14,10.01
25.39,10.03
25.65,10.05
25.91,10.06
26.16,10.07
26.43,10.07
26.69,10.06
26.96,10.05
27.23,10.05
27.50,10.05
27.77,10.05
28.05,10.05
28.33,10.05
28.62,10.05
28.90,10.05
29.19,10.05
29.48,10.05
29.78,10.05
30.08,10.05
30.38,10.05
30.68,10.05
30.99,10.05
31.30,10.05
31.61,10.05
31.93,10.05
32.24,10.05
32.57,10.05
32.89,10.05
33.22,10.05
33.55,10.05
33.89,10.05
34.23,10.05
34.57,10.05
34.92,10.05
35.27,10.05
35.62,10.05
35.97,10.05
36.33,10.05
36.70,10.05
37.06,10.05
37.43,10.05
37.81,10.05
38.19,10.05
38.57,10.05
38.95,10.05
39.34,10.05
39.74,10.05
40.14,10.05
40.54,10.05
40.94,10.05
41.35,10.05
41.76,10.05
42.18,10.05
42.60,10.05
43.03,10.05
43.46,10.05
43.90,10.05
44.33,10.05
44.78,10.05
45.23,10.05
45.68,10.05
46.13,10.05
46.60,10.05
47.06,10.05
47.53,10.05
48.01,10.05
48.49,10.05
48.97,10.05
49.46,10.05
49.96,10.05
50.46,10.05
50.96,10.05
51.47,10.05
51.99,10.05
52.51,10.05
53.03,10.05
53.56,10.05
54.10,10.05
54.64,10.05
55.18,10.05
55.74,10.05
56.29,10.05
56.86,10.05
57.42,10.05
58.00,10.05
58.58,10.05
59.16,10.05
59.76,10.05
60.35,10.05
60.96,10.05
61.57,10.05
62.18,10.05
62.80,10.05
63.43,10.05
64.07,10.05
64.71,10.05
65.35,10.05
66.01,10.05
66.67,10.05
67.33,10.05
68.01,10.05
68.69,10.05
69.37,10.05
70.07,10.05
70.77,10.05
71.48,10.05
72.19,10.05
72.91,10.05
73.64,10.05
74.38,10.05
75.12,10.05
75.87,10.05
76.63,10.05
77.40,10.05
78.17,10.05
78.95,10.05
79.74,10.05
80.54,10.05
81.35,10.05
82.16,10.05
82.98,10.05
83.81,10.05
84.65,10.05
85.50,10.05
86.35,10.05
87.22,10.05
88.09,10.05
88.97,10.05
89.86,10.05
90.76,10.06
91.66,10.06
92.58,10.07
93.51,10.07
94.44,10.06
95.39,10.05
96.34,10.03
97.30,10.00
98.28,9.98
99.26,9.95
100.25,9.92
101.25,9.89
102.27,9.86
103.29,9.83
104.32,9.80
105.37,9.78
106.42,9.77
107.48,9.75
108.56,9.73
109.64,9.71
110.74,9.69
111.85,9.67
112.97,9.66
114.10,9.63
115.24,9.61
116.39,9.58
117.55,9.55
118.73,9.51
119.92,9.48
121.12,9.46
122.33,9.43
123.55,9.41
124.79,9.39
126.03,9.38
127.29,9.37
128.57,9.38
129.85,9.38
131.15,9.39
132.46,9.40
133.79,9.40
135.12,9.40
136.48,9.40
137.84,9.40
139.22,9.40
140.61,9.40
142.02,9.40
143.44,9.40
144.87,9.40
146.32,9.41
147.78,9.41
149.26,9.42
150.75,9.42
152.26,9.41
153.78,9.40
155.32,9.38
156.88,9.36
158.44,9.34
160.03,9.31
161.63,9.29
163.24,9.27
164.88,9.24
166.53,9.21
168.19,9.17
169.87,9.13
171.57,9.08
173.29,9.04
175.02,8.99
176.77,8.96
178.54,8.93
180.32,8.91
182.13,8.88
183.95,8.86
185.79,8.82
187.65,8.79
189.52,8.74
191.42,8.70
193.33,8.66
195.27,8.63
197.22,8.60
199.19,8.59
201.18,8.57
203.19,8.54
205.23,8.51
207.28,8.47
209.35,8.43
211.44,8.39
213.56,8.36
215.69,8.33
217.85,8.29
220.03,8.26
222.23,8.23
224.45,8.18
226.70,8.13
228.96,8.09
231.25,8.04
233.57,8.00
235.90,7.96
238.26,7.91
240.64,7.87
243.05,7.83
245.48,7.80
247.93,7.76
250.41,7.73
252.92,7.69
255.45,7.64
258.00,7.60
260.58,7.56
263.19,7.52
265.82,7.48
268.48,7.43
271.16,7.39
273.87,7.35
276.61,7.30
279.38,7.26
282.17,7.22
284.99,7.18
287.84,7.14
290.72,7.10
293.63,7.07
296.57,7.03
299.53,7.00
302.53,6.96
305.55,6.92
308.61,6.88
311.69,6.85
314.81,6.81
317.96,6.77
321.14,6.72
324.35,6.67
327.59,6.62
330.87,6.57
334.18,6.54
337.52,6.49
340.90,6.44
344.30,6.38
347.75,6.32
351.23,6.27
354.74,6.21
358.28,6.16
361.87,6.10
365.49,6.05
369.14,5.99
372.83,5.92
376.56,5.86
380.33,5.81
384.13,5.76
387.97,5.72
391.85,5.68
395.77,5.63
399.73,5.58
403.72,5.54
407.76,5.50
411.84,5.47
415.96,5.44
420.12,5.40
424.32,5.35
428.56,5.31
432.85,5.28
437.18,5.25
441.55,5.21
445.96,5.15
450.42,5.09
454.93,5.03
459.48,4.98
464.07,4.93
468.71,4.87
473.40,4.82
478.13,4.76
482.91,4.70
487.74,4.64
492.62,4.57
497.55,4.51
502.52,4.44
507.55,4.39
512.62,4.34
517.75,4.27
522.93,4.20
528.16,4.14
533.44,4.08
538.77,4.03
544.16,3.96
549.60,3.89
555.10,3.82
560.65,3.76
566.25,3.70
571.92,3.64
577.64,3.56
583.41,3.48
589.25,3.42
595.14,3.36
601.09,3.29
607.10,3.23
613.17,3.16
619.30,3.09
625.50,3.03
631.75,2.97
638.07,2.90
644.45,2.83
650.89,2.76
657.40,2.70
663.98,2.64
670.62,2.58
677.32,2.52
684.10,2.46
690.94,2.40
697.85,2.33
704.83,2.26
711.87,2.19
718.99,2.13
726.18,2.07
733.44,2.00
740.78,1.93
748.19,1.86
755.67,1.80
763.23,1.74
770.86,1.67
778.57,1.60
786.35,1.52
794.22,1.46
802.16,1.40
810.18,1.34
818.28,1.27
826.46,1.20
834.73,1.14
843.08,1.08
851.51,1.02
860.02,0.95
868.62,0.88
877.31,0.82
886.08,0.76
894.94,0.70
903.89,0.63
912.93,0.55
922.06,0.49
931.28,0.44
940.59,0.38
950.00,0.31
959.50,0.24
969.09,0.18
978.78,0.13
988.57,0.08
998.46,0.01
1008.44,-0.06
1018.53,-0.12
1028.71,-0.18
1039.00,-0.23
1049.39,-0.29
1059.88,-0.35
1070.48,-0.42
1081.19,-0.48
1092.00,-0.54
1102.92,-0.60
1113.95,-0.65
1125.09,-0.71
1136.34,-0.76
1147.70,-0.81
1159.18,-0.86
1170.77,-0.92
1182.48,-0.97
1194.30,-1.02
1206.25,-1.05
1218.31,-1.09
1230.49,-1.12
1242.80,-1.17
1255.22,-1.21
1267.78,-1.25
1280.45,-1.29
1293.26,-1.33
1306.19,-1.37
1319.25,-1.42
1332.45,-1.46
1345.77,-1.49
1359.23,-1.52
1372.82,-1.54
1386.55,-1.56
1400.41,-1.59
1414.42,-1.61
1428.56,-1.63
1442.85,-1.64
1457.28,-1.65
1471.85,-1.65
1486.57,-1.65
1501.43,-1.64
1516.45,-1.63
1531.61,-1.63
1546.93,-1.63
1562.40,-1.63
1578.02,-1.63
1593.80,-1.63
1609.74,-1.63
1625.84,-1.63
1642.10,-1.63
1658.52,-1.63
1675.10,-1.63
1691.85,-1.63
1708.77,-1.64
1725.86,-1.65
1743.12,-1.65
1760.55,-1.65
1778.15,-1.64
1795.94,-1.62
1813.90,-1.60
1832.03,-1.57
1850.36,-1.54
1868.86,-1.52
1887.55,-1.50
1906.42,-1.47
1925.49,-1.44
1944.74,-1.41
1964.19,-1.37
1983.83,-1.33
2003.67,-1.29
2023.71,-1.26
2043.94,-1.22
2064.38,-1.19
2085.03,-1.16
2105.88,-1.13
2126.94,-1.09
2148.20,-1.04
2169.69,-0.99
2191.38,-0.94
2213.30,-0.89
2235.43,-0.85
2257.78,-0.82
2280.36,-0.78
2303.17,-0.75
2326.20,-0.72
2349.46,-0.69
2372.95,-0.65
2396.68,-0.61
2420.65,-0.57
2444.86,-0.53
2469.31,-0.50
2494.00,-0.47
2518.94,-0.45
2544.13,-0.43
2569.57,-0.40
2595.27,-0.37
2621.22,-0.35
2647.43,-0.33
2673.90,-0.31
2700.64,-0.30
2727.65,-0.29
2754.93,-0.29
2782.48,-0.30
2810.30,-0.32
2838.40,-0.33
2866.79,-0.35
2895.46,-0.36
2924.41,-0.39
2953.65,-0.42
2983.19,-0.44
3013.02,-0.48
3043.15,-0.53
3073.58,-0.58
3104.32,-0.64
3135.36,-0.71
3166.72,-0.80
3198.38,-0.88
3230.37,-0.97
3262.67,-1.08
3295.30,-1.19
3328.25,-1.30
3361.53,-1.42
3395.15,-1.56
3429.10,-1.71
3463.39,-1.86
3498.03,-2.02
3533.01,-2.16
3568.34,-2.31
3604.02,-2.45
3640.06,-2.57
3676.46,-2.67
3713.22,-2.77
3750.36,-2.84
3787.86,-2.88
3825.74,-2.90
3864.00,-2.89
3902.64,-2.86
3941.66,-2.80
3981.08,-2.72
4020.89,-2.61
4061.10,-2.50
4101.71,-2.38
4142.73,-2.24
4184.15,-2.10
4226.00,-1.96
4268.26,-1.82
4310.94,-1.67
4354.05,-1.54
4397.59,-1.42
4441.56,-1.32
4485.98,-1.23
4530.84,-1.16
4576.15,-1.11
4621.91,-1.09
4668.13,-1.09
4714.81,-1.11
4761.96,-1.16
4809.58,-1.24
4857.67,-1.34
4906.25,-1.48
4955.31,-1.63
5004.87,-1.81
5054.91,-2.00
5105.46,-2.23
5156.52,-2.46
5208.08,-2.70
5260.16,-2.94
5312.77,-3.18
5365.89,-3.41
5419.55,-3.65
5473.75,-3.86
5528.49,-4.05
5583.77,-4.20
5639.61,-4.32
5696.00,-4.41
5752.96,-4.47
5810.49,-4.49
5868.60,-4.48
5927.28,-4.44
5986.56,-4.37
6046.42,-4.29
6106.89,-4.19
6167.96,-4.08
6229.64,-3.96
6291.93,-3.85
6354.85,-3.75
6418.40,-3.65
6482.58,-3.58
6547.41,-3.53
6612.88,-3.51
6679.01,-3.53
6745.80,-3.58
6813.26,-3.67
6881.39,-3.79
6950.21,-3.93
7019.71,-4.12
7089.91,-4.35
7160.81,-4.61
7232.41,-4.89
7304.74,-5.20
7377.79,-5.53
7451.56,-5.88
7526.08,-6.24
7601.34,-6.59
7677.35,-6.92
7754.13,-7.25
7831.67,-7.55
7909.98,-7.83
7989.08,-8.09
8068.98,-8.34
8149.67,-8.56
8231.16,-8.75
8313.47,-8.93
8396.61,-9.08
8480.57,-9.23
8565.38,-9.36
8651.03,-9.48
8737.54,-9.58
8824.92,-9.68
8913.17,-9.77
9002.30,-9.86
9092.32,-9.94
9183.25,-10.03
9275.08,-10.10
9367.83,-10.16
9461.51,-10.20
9556.12,-10.19
9651.68,-10.15
9748.20,-10.06
9845.68,-9.91
9944.14,-9.70
10043.58,-9.42
10144.02,-9.08
10245.46,-8.69
10347.91,-8.24
10451.39,-7.76
10555.91,-7.23
10661.46,-6.68
10768.08,-6.11
10875.76,-5.55
10984.52,-5.02
11094.36,-4.52
11205.31,-4.08
11317.36,-3.70
11430.53,-3.37
11544.84,-3.09
11660.29,-2.87
11776.89,-2.70
11894.66,-2.58
12013.60,-2.50
12133.74,-2.46
12255.08,-2.45
12377.63,-2.48
12501.41,-2.55
12626.42,-2.66
12752.68,-2.81
12880.21,-3.00
13009.01,-3.24
13139.10,-3.55
13270.49,-3.91
13403.20,-4.32
13537.23,-4.81
13672.60,-5.37
13809.33,-5.98
13947.42,-6.64
14086.90,-7.34
14227.77,-8.05
14370.04,-8.79
14513.74,-9.55
14658.88,-10.31
14805.47,-11.04
14953.52,-11.76
15103.06,-12.45
15254.09,-13.11
15406.63,-13.76
15560.70,-14.39
15716.30,-15.02
15873.47,-15.65
16032.20,-16.27
16192.52,-16.91
16354.45,-17.55
16517.99,-18.18
16683.17,-18.78
16850.01,-19.37
17018.51,-19.90
17188.69,-20.36
17360.58,-20.74
17534.18,-21.03
17709.53,-21.21
17886.62,-21.30
18065.49,-21.32
18246.14,-21.26
18428.60,-21.12
18612.89,-20.90
18799.02,-20.59
18987.01,-20.20
19176.88,-19.74
19368.65,-19.19
19562.33,-18.56
19757.96,-17.85
19955.54,-17.05
