frequency,raw,smoothed,error,error_smoothed,equalization,parametric_eq,fixed_band_eq,equalized_raw,equalized_smoothed,target
20.00,7.85,7.85,1.96,1.96,-1.93,-1.74,-0.97,5.92,5.92,5.89
20.20,7.86,7.85,1.97,1.97,-1.96,-1.74,-1.00,5.90,5.89,5.89
20.40,7.87,7.86,1.98,1.98,-1.99,-1.74,-1.03,5.88,5.88,5.88
20.61,7.88,7.88,1.99,2.00,-2.02,-1.74,-1.06,5.86,5.86,5.88
20.81,7.91,7.90,2.02,2.02,-2.05,-1.74,-1.09,5.86,5.85,5.88
21.02,7.94,7.94,2.05,2.05,-2.08,-1.74,-1.12,5.85,5.86,5.88
21.23,7.98,7.98,2.09,2.10,-2.11,-1.74,-1.16,5.86,5.87,5.88
21.44,8.03,8.03,2.15,2.14,-2.15,-1.74,-1.19,5.88,5.88,5.88
21.66,8.08,8.07,2.20,2.19,-2.19,-1.74,-1.23,5.89,5.88,5.88
21.87,8.12,8.12,2.24,2.24,-2.23,-1.74,-1.26,5.88,5.89,5.88
22.09,8.16,8.15,2.28,2.28,-2.27,-1.74,-1.30,5.89,5.88,5.88
22.31,8.19,8.19,2.31,2.31,-2.30,-1.74,-1.34,5.88,5.88,5.88
22.54,8.21,8.21,2.33,2.33,-2.32,-1.74,-1.38,5.88,5.88,5.88
22.76,8.23,8.22,2.35,2.35,-2.34,-1.74,-1.42,5.89,5.88,5.88
22.99,8.23,8.22,2.35,2.35,-2.34,-1.74,-1.46,5.88,5.88,5.87
23.22,8.22,8.22,2.34,2.35,-2.34,-1.74,-1.50,5.87,5.88,5.87
23.45,8.21,8.20,2.33,2.33,-2.33,-1.74,-1.55,5.87,5.87,5.87
23.69,8.19,8.19,2.31,2.32,-2.32,-1.74,-1.59,5.87,5.87,5.87
23.92,8.17,8.17,2.30,2.30,-2.30,-1.74,-1.63,5.87,5.87,5.87
24.16,8.15,8.14,2.28,2.27,-2.28,-1.74,-1.68,5.87,5.87,5.87
24.40,8.12,8.12,2.25,2.25,-2.25,-1.74,-1.73,5.87,5.87,5.87
24.65,8.10,8.09,2.23,2.23,-2.22,-1.74,-1.77,5.87,5.87,5.87
24.89,8.07,8.06,2.20,2.20,-2.19,-1.74,-1.82,5.87,5.87,5.87
25.14,8.04,8.03,2.17,2.17,-2.17,-1.74,-1.87,5.87,5.87,5.86
25.39,8.00,8.00,2.13,2.14,-2.14,-1.74,-1.92,5.86,5.86,5.86
25.65,7.98,7.97,2.11,2.11,-2.12,-1.74,-1.96,5.86,5.86,5.86
25.91,7.95,7.95,2.09,2.09,-2.10,-1.74,-2.01,5.85,5.85,5.86
26.16,7.94,7.93,2.08,2.07,-2.08,-1.74,-2.06,5.85,5.85,5.86
26.43,7.92,7.92,2.06,2.06,-2.07,-1.74,-2.11,5.85,5.85,5.86
26.69,7.92,7.92,2.06,2.06,-2.06,-1.74,-2.15,5.86,5.86,5.86
26.96,7.92,7.91,2.06,2.06,-2.06,-1.74,-2.20,5.86,5.86,5.85
27.23,7.92,7.91,2.06,2.06,-2.05,-1.74,-2.24,5.86,5.86,5.85
27.50,7.91,7.91,2.06,2.06,-2.05,-1.74,-2.29,5.85,5.86,5.85
27.77,7.91,7.91,2.06,2.06,-2.06,-1.74,-2.33,5.85,5.85,5.85
28.05,7.91,7.90,2.06,2.06,-2.06,-1.74,-2.37,5.84,5.84,5.85
28.33,7.91,7.91,2.06,2.06,-2.07,-1.74,-2.40,5.83,5.84,5.84
28.62,7.92,7.92,2.07,2.07,-2.08,-1.74,-2.44,5.83,5.83,5.84
28.90,7.93,7.93,2.09,2.09,-2.10,-1.73,-2.47,5.83,5.83,5.84
29.19,7.96,7.95,2.12,2.12,-2.12,-1.73,-2.50,5.84,5.83,5.84
29.48,7.98,7.98,2.14,2.14,-2.14,-1.73,-2.53,5.84,5.84,5.83
29.78,8.00,8.00,2.16,2.17,-2.16,-1.73,-2.55,5.84,5.84,5.83
30.08,8.02,8.01,2.19,2.18,-2.17,-1.73,-2.57,5.84,5.84,5.83
30.38,8.03,8.02,2.20,2.20,-2.19,-1.73,-2.59,5.84,5.84,5.83
30.68,8.03,8.03,2.20,2.20,-2.20,-1.73,-2.60,5.83,5.83,5.82
30.99,8.03,8.02,2.21,2.20,-2.20,-1.73,-2.61,5.82,5.82,5.82
31.30,8.02,8.02,2.20,2.20,-2.21,-1.73,-2.61,5.81,5.81,5.82
31.61,8.02,8.02,2.20,2.20,-2.22,-1.73,-2.61,5.80,5.80,5.81
31.93,8.02,8.02,2.20,2.21,-2.22,-1.73,-2.61,5.79,5.80,5.81
32.24,8.03,8.03,2.22,2.22,-2.22,-1.73,-2.60,5.80,5.80,5.81
32.57,8.04,8.03,2.23,2.23,-2.23,-1.72,-2.59,5.81,5.81,5.80
32.89,8.04,8.03,2.24,2.23,-2.22,-1.72,-2.58,5.81,5.81,5.80
33.22,8.03,8.03,2.23,2.23,-2.22,-1.72,-2.56,5.81,5.81,5.80
33.55,8.01,8.01,2.21,2.21,-2.20,-1.72,-2.54,5.80,5.80,5.79
33.89,7.98,7.98,2.19,2.19,-2.18,-1.72,-2.51,5.80,5.80,5.79
34.23,7.94,7.94,2.15,2.15,-2.15,-1.72,-2.49,5.79,5.79,5.78
34.57,7.90,7.89,2.12,2.11,-2.11,-1.72,-2.46,5.78,5.78,5.78
34.92,7.85,7.85,2.07,2.07,-2.07,-1.72,-2.43,5.77,5.78,5.78
35.27,7.81,7.80,2.04,2.03,-2.03,-1.71,-2.39,5.77,5.77,5.77
35.62,7.76,7.76,1.99,1.99,-2.00,-1.71,-2.36,5.76,5.76,5.77
35.97,7.72,7.72,1.95,1.96,-1.97,-1.71,-2.32,5.75,5.75,5.76
36.33,7.69,7.68,1.93,1.93,-1.94,-1.71,-2.29,5.74,5.74,5.76
36.70,7.66,7.66,1.91,1.91,-1.93,-1.71,-2.25,5.73,5.73,5.75
37.06,7.65,7.65,1.90,1.90,-1.91,-1.70,-2.21,5.74,5.74,5.74
37.43,7.64,7.64,1.90,1.90,-1.90,-1.70,-2.17,5.74,5.74,5.74
37.81,7.64,7.63,1.90,1.90,-1.88,-1.70,-2.13,5.75,5.75,5.73
38.19,7.63,7.62,1.90,1.89,-1.87,-1.70,-2.09,5.75,5.75,5.73
38.57,7.60,7.60,1.88,1.88,-1.86,-1.70,-2.05,5.74,5.74,5.72
38.95,7.56,7.56,1.84,1.85,-1.84,-1.69,-2.00,5.72,5.72,5.71
39.34,7.53,7.52,1.82,1.82,-1.82,-1.69,-1.96,5.70,5.70,5.71
39.74,7.49,7.49,1.79,1.79,-1.81,-1.69,-1.93,5.68,5.68,5.70
40.14,7.47,7.47,1.77,1.78,-1.79,-1.68,-1.89,5.67,5.67,5.69
40.54,7.46,7.45,1.77,1.77,-1.78,-1.68,-1.85,5.67,5.67,5.68
40.94,7.45,7.45,1.77,1.77,-1.77,-1.68,-1.81,5.67,5.67,5.68
41.35,7.45,7.44,1.78,1.78,-1.77,-1.67,-1.78,5.67,5.67,5.67
41.76,7.44,7.44,1.78,1.78,-1.77,-1.67,-1.74,5.67,5.67,5.66
42.18,7.43,7.43,1.78,1.78,-1.77,-1.67,-1.71,5.65,5.66,5.65
42.60,7.42,7.41,1.78,1.77,-1.77,-1.66,-1.67,5.64,5.64,5.64
43.03,7.40,7.40,1.77,1.77,-1.77,-1.66,-1.64,5.63,5.63,5.63
43.46,7.38,7.38,1.76,1.76,-1.76,-1.65,-1.61,5.61,5.61,5.62
43.90,7.36,7.36,1.75,1.75,-1.75,-1.65,-1.58,5.60,5.61,5.61
44.33,7.35,7.34,1.75,1.74,-1.74,-1.64,-1.55,5.61,5.60,5.60
44.78,7.32,7.32,1.73,1.73,-1.72,-1.64,-1.52,5.60,5.60,5.59
45.23,7.29,7.28,1.71,1.71,-1.69,-1.63,-1.50,5.59,5.59,5.58
45.68,7.24,7.24,1.67,1.67,-1.66,-1.63,-1.47,5.57,5.58,5.56
46.13,7.19,7.19,1.63,1.64,-1.63,-1.62,-1.45,5.56,5.56,5.55
46.60,7.14,7.13,1.60,1.59,-1.59,-1.61,-1.43,5.54,5.54,5.54
47.06,7.08,7.08,1.55,1.55,-1.56,-1.61,-1.40,5.51,5.52,5.53
47.53,7.03,7.03,1.51,1.52,-1.53,-1.60,-1.38,5.49,5.50,5.51
48.01,6.99,6.99,1.49,1.49,-1.51,-1.59,-1.37,5.48,5.48,5.50
48.49,6.96,6.96,1.47,1.48,-1.49,-1.58,-1.35,5.47,5.47,5.48
48.97,6.94,6.93,1.47,1.47,-1.47,-1.58,-1.33,5.46,5.46,5.47
49.46,6.92,6.92,1.46,1.47,-1.46,-1.57,-1.31,5.46,5.46,5.45
49.96,6.90,6.90,1.46,1.46,-1.45,-1.56,-1.30,5.44,5.45,5.43
50.46,6.88,6.87,1.46,1.46,-1.44,-1.55,-1.29,5.43,5.43,5.42
50.96,6.85,6.84,1.45,1.44,-1.43,-1.54,-1.27,5.41,5.41,5.40
51.47,6.81,6.81,1.42,1.43,-1.42,-1.53,-1.26,5.38,5.39,5.38
51.99,6.78,6.77,1.41,1.41,-1.41,-1.52,-1.25,5.36,5.36,5.36
52.51,6.74,6.74,1.39,1.39,-1.40,-1.51,-1.24,5.33,5.33,5.34
53.03,6.71,6.71,1.38,1.38,-1.39,-1.50,-1.23,5.31,5.31,5.32
53.56,6.69,6.68,1.38,1.38,-1.39,-1.49,-1.22,5.30,5.30,5.30
54.10,6.66,6.66,1.37,1.38,-1.38,-1.48,-1.21,5.28,5.28,5.28
54.64,6.64,6.63,1.38,1.37,-1.37,-1.46,-1.21,5.27,5.27,5.26
55.18,6.61,6.60,1.37,1.36,-1.36,-1.45,-1.20,5.25,5.24,5.24
55.74,6.57,6.57,1.35,1.35,-1.35,-1.44,-1.19,5.22,5.22,5.21
56.29,6.53,6.53,1.34,1.34,-1.33,-1.43,-1.19,5.19,5.20,5.19
56.86,6.49,6.48,1.32,1.32,-1.31,-1.41,-1.18,5.17,5.17,5.17
57.42,6.44,6.44,1.30,1.30,-1.29,-1.40,-1.18,5.14,5.14,5.14
58.00,6.39,6.39,1.27,1.27,-1.27,-1.39,-1.18,5.11,5.11,5.11
58.58,6.34,6.34,1.25,1.25,-1.25,-1.38,-1.17,5.08,5.08,5.09
59.16,6.29,6.29,1.23,1.23,-1.23,-1.37,-1.17,5.05,5.05,5.06
59.76,6.25,6.24,1.22,1.21,-1.22,-1.36,-1.17,5.03,5.02,5.03
60.35,6.21,6.21,1.21,1.21,-1.21,-1.34,-1.16,4.99,4.99,5.00
60.96,6.17,6.17,1.20,1.20,-1.21,-1.33,-1.16,4.96,4.96,4.97
61.57,6.15,6.14,1.21,1.20,-1.21,-1.32,-1.16,4.94,4.93,4.94
62.18,6.12,6.12,1.21,1.21,-1.21,-1.32,-1.16,4.90,4.90,4.90
62.80,6.10,6.10,1.22,1.22,-1.22,-1.31,-1.16,4.87,4.87,4.87
63.43,6.08,6.07,1.24,1.24,-1.23,-1.30,-1.16,4.84,4.84,4.84
64.07,6.05,6.05,1.24,1.25,-1.25,-1.30,-1.15,4.80,4.80,4.80
64.71,6.03,6.02,1.26,1.26,-1.26,-1.29,-1.15,4.77,4.77,4.77
65.35,6.00,6.00,1.27,1.27,-1.26,-1.29,-1.15,4.73,4.73,4.73
66.01,5.97,5.96,1.28,1.27,-1.27,-1.29,-1.15,4.70,4.69,4.69
66.67,5.93,5.93,1.27,1.28,-1.27,-1.28,-1.15,4.65,4.66,4.65
67.33,5.89,5.89,1.27,1.28,-1.27,-1.28,-1.16,4.61,4.62,4.61
68.01,5.85,5.84,1.28,1.27,-1.27,-1.29,-1.16,4.58,4.57,4.57
68.69,5.80,5.80,1.27,1.27,-1.27,-1.29,-1.16,4.53,4.53,4.53
69.37,5.75,5.75,1.26,1.26,-1.26,-1.29,-1.16,4.48,4.48,4.49
70.07,5.70,5.70,1.25,1.25,-1.26,-1.30,-1.16,4.44,4.44,4.44
70.77,5.65,5.65,1.25,1.25,-1.26,-1.30,-1.17,4.39,4.39,4.40
71.48,5.61,5.60,1.26,1.25,-1.25,-1.31,-1.17,4.35,4.35,4.35
72.19,5.56,5.56,1.25,1.25,-1.25,-1.31,-1.17,4.31,4.31,4.30
72.91,5.51,5.51,1.25,1.25,-1.25,-1.32,-1.18,4.26,4.26,4.26
73.64,5.46,5.45,1.25,1.25,-1.25,-1.33,-1.18,4.20,4.20,4.21
74.38,5.41,5.41,1.25,1.25,-1.25,-1.34,-1.19,4.15,4.15,4.16
75.12,5.36,5.36,1.25,1.25,-1.26,-1.35,-1.20,4.10,4.10,4.10
75.87,5.32,5.31,1.26,1.26,-1.26,-1.35,-1.20,4.05,4.05,4.05
76.63,5.27,5.27,1.27,1.27,-1.27,-1.36,-1.21,4.00,4.00,4.00
77.40,5.22,5.22,1.27,1.27,-1.27,-1.37,-1.22,3.95,3.95,3.94
78.17,5.17,5.17,1.28,1.28,-1.28,-1.38,-1.23,3.89,3.89,3.89
78.95,5.12,5.11,1.28,1.28,-1.28,-1.39,-1.24,3.84,3.83,3.83
79.74,5.06,5.06,1.28,1.28,-1.28,-1.40,-1.26,3.78,3.78,3.78
80.54,5.00,5.00,1.28,1.28,-1.28,-1.41,-1.27,3.72,3.72,3.72
81.35,4.94,4.94,1.28,1.28,-1.28,-1.42,-1.28,3.66,3.66,3.66
82.16,4.88,4.87,1.28,1.28,-1.27,-1.42,-1.30,3.61,3.61,3.60
82.98,4.81,4.81,1.27,1.27,-1.26,-1.43,-1.31,3.55,3.55,3.54
83.81,4.74,4.74,1.26,1.26,-1.25,-1.44,-1.33,3.48,3.48,3.47
84.65,4.67,4.66,1.25,1.25,-1.25,-1.45,-1.35,3.42,3.41,3.41
85.50,4.59,4.59,1.24,1.24,-1.25,-1.45,-1.37,3.33,3.34,3.35
86.35,4.53,4.53,1.24,1.24,-1.26,-1.46,-1.39,3.27,3.27,3.28
87.22,4.48,4.48,1.26,1.26,-1.28,-1.47,-1.41,3.20,3.20,3.22
88.09,4.44,4.44,1.28,1.29,-1.30,-1.47,-1.43,3.13,3.14,3.15
88.97,4.42,4.42,1.33,1.33,-1.33,-1.48,-1.46,3.08,3.08,3.09
89.86,4.40,4.40,1.38,1.38,-1.37,-1.49,-1.48,3.03,3.03,3.02
90.76,4.38,4.37,1.43,1.42,-1.41,-1.49,-1.51,2.97,2.96,2.95
91.66,4.34,4.34,1.45,1.46,-1.44,-1.50,-1.53,2.89,2.89,2.88
92.58,4.30,4.30,1.48,1.49,-1.48,-1.51,-1.56,2.82,2.82,2.81
93.51,4.26,4.25,1.51,1.51,-1.50,-1.51,-1.59,2.75,2.75,2.74
94.44,4.21,4.21,1.53,1.53,-1.52,-1.52,-1.62,2.68,2.68,2.67
95.39,4.16,4.15,1.55,1.55,-1.54,-1.53,-1.65,2.61,2.61,2.60
96.34,4.10,4.10,1.56,1.56,-1.56,-1.53,-1.68,2.53,2.53,2.53
97.30,4.04,4.04,1.58,1.58,-1.59,-1.54,-1.71,2.45,2.45,2.46
98.28,3.99,3.98,1.60,1.59,-1.62,-1.55,-1.75,2.37,2.37,2.39
99.26,3.94,3.94,1.62,1.62,-1.65,-1.56,-1.78,2.29,2.29,2.32
100.25,3.91,3.91,1.66,1.67,-1.69,-1.56,-1.81,2.22,2.22,2.24
101.25,3.90,3.90,1.73,1.73,-1.73,-1.57,-1.85,2.17,2.17,2.17
102.27,3.89,3.88,1.79,1.79,-1.77,-1.58,-1.88,2.12,2.11,2.10
103.29,3.87,3.86,1.84,1.84,-1.81,-1.59,-1.92,2.06,2.05,2.02
104.32,3.83,3.82,1.87,1.87,-1.84,-1.60,-1.95,1.98,1.98,1.95
105.37,3.77,3.77,1.89,1.89,-1.87,-1.61,-1.99,1.89,1.89,1.88
106.42,3.71,3.70,1.90,1.90,-1.90,-1.62,-2.02,1.81,1.80,1.81
107.48,3.64,3.64,1.90,1.91,-1.93,-1.63,-2.06,1.71,1.72,1.73
108.56,3.59,3.59,1.93,1.93,-1.95,-1.64,-2.09,1.64,1.64,1.66
109.64,3.55,3.55,1.96,1.96,-1.97,-1.65,-2.13,1.57,1.57,1.59
110.74,3.52,3.51,2.00,2.00,-2.00,-1.67,-2.16,1.51,1.51,1.51
111.85,3.48,3.48,2.03,2.04,-2.04,-1.68,-2.19,1.44,1.44,1.44
112.97,3.45,3.45,2.08,2.08,-2.07,-1.69,-2.22,1.37,1.37,1.37
114.10,3.42,3.42,2.12,2.12,-2.11,-1.71,-2.25,1.30,1.30,1.30
115.24,3.39,3.38,2.16,2.16,-2.15,-1.72,-2.27,1.23,1.23,1.23
116.39,3.35,3.35,2.19,2.19,-2.19,-1.74,-2.30,1.15,1.16,1.16
117.55,3.31,3.31,2.22,2.23,-2.23,-1.76,-2.32,1.08,1.09,1.09
118.73,3.28,3.27,2.26,2.26,-2.26,-1.77,-2.34,1.02,1.02,1.02
119.92,3.24,3.23,2.29,2.29,-2.28,-1.79,-2.36,0.95,0.95,0.95
121.12,3.19,3.19,2.31,2.31,-2.30,-1.81,-2.37,0.88,0.89,0.88
122.33,3.14,3.13,2.33,2.32,-2.32,-1.83,-2.39,0.82,0.81,0.81
123.55,3.08,3.08,2.33,2.33,-2.33,-1.85,-2.40,0.74,0.74,0.74
124.79,3.02,3.02,2.34,2.34,-2.34,-1.87,-2.40,0.67,0.67,0.67
126.03,2.96,2.96,2.35,2.35,-2.35,-1.90,-2.41,0.61,0.60,0.61
127.29,2.90,2.90,2.35,2.35,-2.36,-1.92,-2.41,0.54,0.54,0.54
128.57,2.84,2.84,2.36,2.36,-2.36,-1.94,-2.41,0.47,0.48,0.48
129.85,2.79,2.78,2.37,2.37,-2.37,-1.97,-2.40,0.42,0.41,0.41
131.15,2.73,2.73,2.37,2.38,-2.38,-1.99,-2.40,0.35,0.35,0.35
132.46,2.68,2.68,2.39,2.39,-2.39,-2.02,-2.39,0.29,0.29,0.29
133.79,2.63,2.63,2.40,2.40,-2.40,-2.05,-2.38,0.23,0.22,0.23
135.12,2.58,2.58,2.41,2.41,-2.41,-2.08,-2.37,0.16,0.17,0.17
136.48,2.54,2.53,2.43,2.42,-2.42,-2.10,-2.35,0.11,0.11,0.11
137.84,2.49,2.49,2.44,2.44,-2.43,-2.13,-2.33,0.05,0.05,0.05
139.22,2.44,2.44,2.44,2.45,-2.44,-2.16,-2.32,-0.00,-0.00,-0.01
140.61,2.39,2.39,2.45,2.45,-2.45,-2.19,-2.30,-0.06,-0.06,-0.06
142.02,2.34,2.33,2.46,2.45,-2.45,-2.22,-2.28,-0.11,-0.12,-0.12
143.44,2.28,2.28,2.45,2.45,-2.45,-2.25,-2.25,-0.17,-0.17,-0.17
144.87,2.22,2.22,2.44,2.45,-2.45,-2.28,-2.23,-0.23,-0.23,-0.23
146.32,2.17,2.17,2.45,2.45,-2.45,-2.30,-2.21,-0.28,-0.29,-0.28
147.78,2.12,2.11,2.45,2.45,-2.45,-2.33,-2.19,-0.33,-0.34,-0.33
149.26,2.07,2.07,2.45,2.45,-2.45,-2.36,-2.17,-0.39,-0.38,-0.38
150.75,2.02,2.02,2.45,2.45,-2.45,-2.39,-2.14,-0.44,-0.43,-0.43
152.26,1.98,1.97,2.46,2.45,-2.45,-2.41,-2.12,-0.48,-0.48,-0.48
153.78,1.93,1.93,2.45,2.46,-2.45,-2.44,-2.10,-0.53,-0.53,-0.53
155.32,1.89,1.88,2.46,2.46,-2.46,-2.46,-2.08,-0.57,-0.57,-0.57
156.88,1.84,1.84,2.46,2.46,-2.46,-2.49,-2.06,-0.62,-0.62,-0.62
158.44,1.79,1.79,2.45,2.46,-2.46,-2.51,-2.04,-0.67,-0.67,-0.66
160.03,1.75,1.74,2.45,2.45,-2.45,-2.53,-2.02,-0.71,-0.71,-0.71
161.63,1.70,1.70,2.46,2.45,-2.45,-2.54,-2.00,-0.75,-0.76,-0.76
163.24,1.65,1.65,2.45,2.45,-2.45,-2.56,-1.98,-0.80,-0.80,-0.80
164.88,1.60,1.60,2.44,2.44,-2.44,-2.57,-1.97,-0.84,-0.84,-0.84
166.53,1.55,1.55,2.43,2.43,-2.43,-2.58,-1.96,-0.88,-0.88,-0.88
168.19,1.50,1.50,2.42,2.42,-2.42,-2.59,-1.94,-0.92,-0.92,-0.92
169.87,1.45,1.45,2.40,2.40,-2.40,-2.59,-1.93,-0.96,-0.96,-0.96
171.57,1.40,1.39,2.39,2.39,-2.39,-2.60,-1.92,-0.99,-0.99,-0.99
173.29,1.34,1.34,2.37,2.37,-2.37,-2.60,-1.91,-1.03,-1.03,-1.03
175.02,1.29,1.29,2.35,2.35,-2.35,-2.59,-1.91,-1.07,-1.06,-1.06
176.77,1.24,1.23,2.33,2.33,-2.33,-2.59,-1.90,-1.10,-1.10,-1.10
178.54,1.19,1.18,2.32,2.31,-2.31,-2.58,-1.90,-1.13,-1.13,-1.13
180.32,1.13,1.13,2.29,2.29,-2.29,-2.57,-1.90,-1.16,-1.16,-1.16
182.13,1.08,1.08,2.27,2.27,-2.27,-2.55,-1.90,-1.19,-1.19,-1.19
183.95,1.03,1.02,2.25,2.24,-2.24,-2.54,-1.90,-1.22,-1.22,-1.22
185.79,0.97,0.97,2.22,2.22,-2.22,-2.52,-1.90,-1.26,-1.25,-1.25
187.65,0.92,0.92,2.20,2.20,-2.20,-2.49,-1.90,-1.28,-1.28,-1.28
189.52,0.87,0.86,2.17,2.17,-2.17,-2.47,-1.91,-1.31,-1.31,-1.31
191.42,0.82,0.82,2.15,2.15,-2.15,-2.44,-1.91,-1.33,-1.33,-1.33
193.33,0.77,0.77,2.13,2.13,-2.12,-2.41,-1.92,-1.36,-1.35,-1.36
195.27,0.73,0.72,2.11,2.11,-2.10,-2.38,-1.93,-1.37,-1.38,-1.38
197.22,0.68,0.67,2.09,2.08,-2.08,-2.35,-1.94,-1.41,-1.41,-1.41
199.19,0.63,0.63,2.06,2.06,-2.07,-2.31,-1.95,-1.44,-1.44,-1.43
201.18,0.59,0.59,2.04,2.04,-2.06,-2.27,-1.96,-1.47,-1.47,-1.46
203.19,0.56,0.56,2.03,2.03,-2.05,-2.24,-1.97,-1.50,-1.49,-1.48
205.23,0.54,0.54,2.04,2.04,-2.05,-2.20,-1.98,-1.51,-1.51,-1.50
207.28,0.53,0.53,2.05,2.05,-2.05,-2.16,-2.00,-1.52,-1.52,-1.52
209.35,0.52,0.52,2.06,2.06,-2.05,-2.12,-2.01,-1.53,-1.53,-1.54
211.44,0.51,0.50,2.07,2.06,-2.04,-2.07,-2.02,-1.54,-1.54,-1.56
213.56,0.48,0.47,2.05,2.05,-2.04,-2.03,-2.03,-1.56,-1.56,-1.58
215.69,0.44,0.44,2.03,2.04,-2.03,-1.99,-2.05,-1.59,-1.59,-1.60
217.85,0.40,0.40,2.01,2.01,-2.01,-1.95,-2.06,-1.62,-1.62,-1.61
220.03,0.36,0.36,1.99,1.99,-1.99,-1.90,-2.07,-1.64,-1.64,-1.63
222.23,0.32,0.32,1.96,1.96,-1.97,-1.86,-2.08,-1.66,-1.66,-1.65
224.45,0.28,0.28,1.94,1.94,-1.95,-1.82,-2.09,-1.67,-1.67,-1.66
226.70,0.25,0.25,1.93,1.92,-1.93,-1.77,-2.10,-1.68,-1.68,-1.68
228.96,0.22,0.21,1.91,1.91,-1.91,-1.73,-2.11,-1.69,-1.70,-1.69
231.25,0.18,0.18,1.89,1.89,-1.89,-1.69,-2.11,-1.71,-1.71,-1.71
233.57,0.15,0.14,1.87,1.87,-1.87,-1.65,-2.12,-1.72,-1.72,-1.72
235.90,0.11,0.11,1.85,1.85,-1.84,-1.60,-2.12,-1.74,-1.74,-1.75
238.26,0.07,0.07,1.83,1.83,-1.82,-1.56,-2.12,-1.76,-1.75,-1.76
240.64,0.03,0.03,1.80,1.80,-1.80,-1.52,-2.11,-1.77,-1.77,-1.77
243.05,-0.01,-0.01,1.77,1.77,-1.77,-1.48,-2.11,-1.79,-1.79,-1.78
245.48,-0.05,-0.05,1.74,1.74,-1.75,-1.44,-2.10,-1.80,-1.80,-1.80
247.93,-0.08,-0.09,1.72,1.72,-1.72,-1.41,-2.09,-1.81,-1.81,-1.81
250.41,-0.12,-0.12,1.69,1.70,-1.70,-1.37,-2.07,-1.82,-1.82,-1.82
252.92,-0.15,-0.15,1.67,1.67,-1.67,-1.33,-2.06,-1.83,-1.83,-1.83
255.45,-0.18,-0.19,1.66,1.65,-1.65,-1.30,-2.04,-1.83,-1.84,-1.84
258.00,-0.22,-0.22,1.62,1.63,-1.62,-1.26,-2.01,-1.85,-1.84,-1.85
260.58,-0.25,-0.26,1.60,1.60,-1.60,-1.23,-1.99,-1.85,-1.86,-1.86
263.19,-0.29,-0.29,1.57,1.57,-1.57,-1.19,-1.96,-1.87,-1.87,-1.87
265.82,-0.33,-0.33,1.54,1.55,-1.55,-1.16,-1.93,-1.88,-1.88,-1.88
268.48,-0.36,-0.37,1.52,1.52,-1.52,-1.13,-1.90,-1.89,-1.89,-1.88
271.16,-0.40,-0.40,1.49,1.49,-1.49,-1.10,-1.86,-1.90,-1.90,-1.89
273.87,-0.43,-0.43,1.47,1.47,-1.47,-1.07,-1.83,-1.90,-1.90,-1.90
276.61,-0.46,-0.47,1.44,1.44,-1.44,-1.04,-1.79,-1.90,-1.91,-1.91
279.38,-0.50,-0.50,1.41,1.42,-1.41,-1.01,-1.75,-1.91,-1.91,-1.92
282.17,-0.53,-0.54,1.39,1.38,-1.38,-0.98,-1.70,-1.91,-1.92,-1.92
284.99,-0.57,-0.57,1.35,1.35,-1.35,-0.95,-1.66,-1.93,-1.92,-1.92
287.84,-0.60,-0.60,1.31,1.32,-1.32,-0.93,-1.62,-1.93,-1.92,-1.92
290.72,-0.63,-0.63,1.29,1.29,-1.29,-0.90,-1.57,-1.92,-1.93,-1.92
293.63,-0.66,-0.66,1.27,1.26,-1.26,-0.88,-1.52,-1.92,-1.92,-1.93
296.57,-0.69,-0.69,1.23,1.23,-1.23,-0.85,-1.48,-1.92,-1.92,-1.93
299.53,-0.72,-0.72,1.20,1.20,-1.20,-0.83,-1.43,-1.92,-1.92,-1.92
302.53,-0.75,-0.75,1.17,1.17,-1.17,-0.80,-1.38,-1.92,-1.92,-1.93
305.55,-0.78,-0.78,1.14,1.14,-1.14,-0.78,-1.33,-1.92,-1.92,-1.92
308.61,-0.81,-0.81,1.11,1.11,-1.11,-0.76,-1.28,-1.92,-1.92,-1.93
311.69,-0.84,-0.84,1.08,1.08,-1.08,-0.74,-1.23,-1.92,-1.92,-1.92
314.81,-0.87,-0.87,1.05,1.05,-1.05,-0.72,-1.18,-1.92,-1.92,-1.93
317.96,-0.90,-0.90,1.02,1.02,-1.02,-0.70,-1.13,-1.92,-1.92,-1.92
321.14,-0.93,-0.93,0.99,0.99,-0.99,-0.68,-1.08,-1.92,-1.92,-1.93
324.35,-0.96,-0.96,0.96,0.96,-0.96,-0.66,-1.03,-1.92,-1.92,-1.92
327.59,-0.98,-0.99,0.93,0.93,-0.93,-0.64,-0.98,-1.92,-1.92,-1.91
330.87,-1.01,-1.01,0.90,0.90,-0.90,-0.62,-0.93,-1.92,-1.92,-1.92
334.18,-1.04,-1.04,0.87,0.87,-0.87,-0.60,-0.89,-1.92,-1.91,-1.91
337.52,-1.06,-1.07,0.85,0.85,-0.84,-0.59,-0.84,-1.91,-1.91,-1.92
340.90,-1.09,-1.09,0.82,0.82,-0.82,-0.57,-0.79,-1.91,-1.91,-1.91
344.30,-1.11,-1.12,0.79,0.79,-0.79,-0.55,-0.74,-1.90,-1.90,-1.90
347.75,-1.14,-1.14,0.75,0.76,-0.76,-0.54,-0.70,-1.90,-1.90,-1.90
351.23,-1.16,-1.16,0.74,0.73,-0.73,-0.52,-0.65,-1.89,-1.89,-1.90
354.74,-1.18,-1.19,0.70,0.70,-0.70,-0.51,-0.60,-1.88,-1.89,-1.88
358.28,-1.21,-1.21,0.67,0.67,-0.67,-0.49,-0.56,-1.89,-1.88,-1.88
361.87,-1.23,-1.23,0.64,0.64,-0.64,-0.48,-0.51,-1.88,-1.88,-1.88
365.49,-1.25,-1.26,0.62,0.62,-0.61,-0.46,-0.47,-1.87,-1.87,-1.87
369.14,-1.28,-1.28,0.59,0.59,-0.59,-0.45,-0.42,-1.87,-1.87,-1.87
372.83,-1.30,-1.30,0.55,0.56,-0.56,-0.44,-0.38,-1.86,-1.86,-1.86
376.56,-1.32,-1.33,0.53,0.53,-0.53,-0.42,-0.34,-1.86,-1.86,-1.86
380.33,-1.34,-1.35,0.51,0.51,-0.50,-0.41,-0.29,-1.85,-1.85,-1.85
384.13,-1.37,-1.37,0.48,0.48,-0.48,-0.40,-0.25,-1.85,-1.85,-1.85
387.97,-1.39,-1.39,0.45,0.45,-0.45,-0.38,-0.21,-1.85,-1.84,-1.85
391.85,-1.40,-1.41,0.42,0.43,-0.43,-0.37,-0.17,-1.83,-1.83,-1.83
395.77,-1.42,-1.42,0.41,0.40,-0.40,-0.36,-0.13,-1.83,-1.83,-1.83
399.73,-1.44,-1.44,0.38,0.38,-0.38,-0.35,-0.09,-1.82,-1.82,-1.82
403.72,-1.46,-1.46,0.35,0.35,-0.35,-0.33,-0.05,-1.82,-1.82,-1.81
407.76,-1.48,-1.48,0.33,0.33,-0.33,-0.32,-0.01,-1.81,-1.81,-1.81
411.84,-1.49,-1.50,0.31,0.31,-0.31,-0.31,0.03,-1.80,-1.81,-1.81
415.96,-1.51,-1.51,0.28,0.29,-0.29,-0.30,0.06,-1.80,-1.80,-1.80
420.12,-1.53,-1.53,0.27,0.27,-0.27,-0.29,0.10,-1.80,-1.80,-1.80
424.32,-1.54,-1.55,0.25,0.24,-0.25,-0.27,0.14,-1.79,-1.79,-1.79
428.56,-1.56,-1.56,0.22,0.22,-0.22,-0.26,0.17,-1.79,-1.79,-1.78
432.85,-1.57,-1.58,0.20,0.20,-0.20,-0.25,0.20,-1.78,-1.78,-1.77
437.18,-1.59,-1.59,0.18,0.18,-0.18,-0.24,0.24,-1.77,-1.77,-1.78
441.55,-1.60,-1.61,0.16,0.16,-0.15,-0.23,0.27,-1.76,-1.76,-1.77
445.96,-1.62,-1.62,0.13,0.13,-0.13,-0.22,0.30,-1.76,-1.75,-1.76
450.42,-1.63,-1.64,0.11,0.11,-0.11,-0.20,0.32,-1.74,-1.74,-1.74
454.93,-1.65,-1.65,0.08,0.08,-0.09,-0.19,0.35,-1.74,-1.74,-1.73
459.48,-1.66,-1.67,0.06,0.06,-0.06,-0.18,0.37,-1.73,-1.73,-1.72
464.07,-1.68,-1.68,0.04,0.04,-0.04,-0.17,0.40,-1.72,-1.72,-1.72
468.71,-1.69,-1.69,0.02,0.02,-0.02,-0.16,0.42,-1.71,-1.71,-1.71
473.40,-1.70,-1.70,0.00,0.00,-0.00,-0.14,0.44,-1.70,-1.71,-1.71
478.13,-1.71,-1.71,-0.02,-0.02,0.02,-0.13,0.46,-1.70,-1.70,-1.70
482.91,-1.72,-1.72,-0.04,-0.04,0.04,-0.12,0.47,-1.69,-1.69,-1.69
487.74,-1.73,-1.73,-0.06,-0.06,0.06,-0.10,0.48,-1.68,-1.68,-1.68
492.62,-1.74,-1.74,-0.07,-0.07,0.08,-0.09,0.49,-1.67,-1.67,-1.67
497.55,-1.75,-1.75,-0.09,-0.09,0.10,-0.07,0.50,-1.66,-1.66,-1.66
502.52,-1.76,-1.76,-0.11,-0.12,0.12,-0.06,0.51,-1.65,-1.65,-1.65
