frequency,raw,error,smoothed,error_smoothed,equalization,parametric_eq,equalized_raw,equalized_smoothed,target
20.00,-8.87,-5.04,-8.87,-5.04,5.04,-0.38,-3.83,-3.83,-3.83
20.20,-8.71,-4.89,-8.71,-4.89,4.89,-0.38,-3.82,-3.82,-3.82
20.40,-8.55,-4.74,-8.55,-4.74,4.74,-0.39,-3.81,-3.81,-3.81
20.61,-8.40,-4.60,-8.39,-4.59,4.59,-0.40,-3.80,-3.80,-3.80
20.81,-8.23,-4.44,-8.23,-4.44,4.44,-0.40,-3.79,-3.79,-3.79
21.02,-8.07,-4.29,-8.07,-4.29,4.29,-0.41,-3.78,-3.78,-3.78
21.23,-7.91,-4.14,-7.91,-4.14,4.14,-0.42,-3.77,-3.77,-3.77
21.44,-7.75,-3.99,-7.75,-3.99,3.99,-0.43,-3.76,-3.76,-3.76
21.66,-7.59,-3.85,-7.59,-3.84,3.84,-0.43,-3.75,-3.75,-3.75
21.87,-7.43,-3.69,-7.43,-3.69,3.69,-0.44,-3.74,-3.74,-3.74
22.09,-7.27,-3.54,-7.27,-3.54,3.54,-0.45,-3.73,-3.73,-3.73
22.31,-7.11,-3.39,-7.11,-3.39,3.39,-0.46,-3.72,-3.72,-3.72
22.54,-6.94,-3.24,-6.94,-3.24,3.24,-0.46,-3.70,-3.70,-3.70
22.76,-6.78,-3.09,-6.78,-3.09,3.09,-0.47,-3.69,-3.69,-3.69
22.99,-6.62,-2.94,-6.62,-2.94,2.94,-0.48,-3.69,-3.68,-3.68
23.22,-6.45,-2.78,-6.46,-2.79,2.79,-0.49,-3.67,-3.67,-3.67
23.45,-6.29,-2.63,-6.29,-2.63,2.63,-0.50,-3.66,-3.66,-3.66
23.69,-6.13,-2.49,-6.13,-2.48,2.48,-0.51,-3.66,-3.65,-3.65
23.92,-5.96,-2.32,-5.96,-2.33,2.33,-0.52,-3.63,-3.64,-3.64
24.16,-5.80,-2.18,-5.80,-2.17,2.17,-0.53,-3.63,-3.63,-3.63
24.40,-5.63,-2.02,-5.63,-2.02,2.02,-0.54,-3.61,-3.62,-3.61
24.65,-5.47,-1.87,-5.47,-1.86,1.86,-0.55,-3.61,-3.60,-3.60
24.89,-5.30,-1.71,-5.30,-1.71,1.71,-0.56,-3.59,-3.59,-3.59
25.14,-5.14,-1.56,-5.14,-1.56,1.56,-0.57,-3.58,-3.58,-3.58
25.39,-4.97,-1.40,-4.97,-1.40,1.40,-0.58,-3.57,-3.57,-3.57
25.65,-4.81,-1.25,-4.81,-1.25,1.25,-0.60,-3.57,-3.56,-3.56
25.91,-4.65,-1.09,-4.64,-1.09,1.09,-0.61,-3.55,-3.55,-3.55
26.16,-4.47,-0.93,-4.48,-0.93,0.93,-0.63,-3.53,-3.54,-3.54
26.43,-4.31,-0.78,-4.31,-0.78,0.78,-0.64,-3.54,-3.53,-3.53
26.69,-4.14,-0.62,-4.14,-0.62,0.62,-0.66,-3.52,-3.52,-3.52
26.96,-3.98,-0.47,-3.98,-0.47,0.47,-0.68,-3.52,-3.51,-3.51
27.23,-3.81,-0.31,-3.81,-0.31,0.31,-0.69,-3.50,-3.50,-3.50
27.50,-3.64,-0.15,-3.65,-0.16,0.16,-0.71,-3.49,-3.49,-3.49
27.77,-3.48,-0.00,-3.48,-0.00,0.00,-0.74,-3.48,-3.48,-3.48
28.05,-3.31,0.16,-3.31,0.15,-0.15,-0.76,-3.47,-3.47,-3.47
28.33,-3.15,0.31,-3.15,0.31,-0.31,-0.78,-3.46,-3.46,-3.46
28.62,-2.98,0.46,-2.98,0.46,-0.46,-0.81,-3.45,-3.45,-3.45
28.90,-2.82,0.62,-2.82,0.62,-0.62,-0.83,-3.44,-3.44,-3.44
29.19,-2.65,0.77,-2.66,0.77,-0.77,-0.86,-3.42,-3.43,-3.43
29.48,-2.49,0.93,-2.49,0.92,-0.92,-0.89,-3.42,-3.42,-3.42
29.78,-2.32,1.08,-2.33,1.08,-1.08,-0.92,-3.40,-3.41,-3.41
30.08,-2.16,1.23,-2.17,1.23,-1.23,-0.96,-3.39,-3.40,-3.40
30.38,-2.00,1.38,-2.00,1.38,-1.38,-1.00,-3.39,-3.39,-3.39
30.68,-1.84,1.53,-1.84,1.53,-1.53,-1.03,-3.38,-3.38,-3.38
30.99,-1.68,1.68,-1.68,1.68,-1.68,-1.07,-3.37,-3.37,-3.37
31.30,-1.52,1.83,-1.52,1.83,-1.83,-1.12,-3.36,-3.36,-3.35
31.61,-1.36,1.98,-1.36,1.99,-1.99,-1.16,-3.35,-3.35,-3.34
31.93,-1.20,2.13,-1.20,2.14,-2.14,-1.21,-3.34,-3.34,-3.33
32.24,-1.04,2.29,-1.04,2.29,-2.29,-1.26,-3.33,-3.33,-3.33
32.57,-0.89,2.42,-0.88,2.44,-2.44,-1.31,-3.33,-3.32,-3.32
32.89,-0.73,2.58,-0.72,2.58,-2.58,-1.36,-3.32,-3.31,-3.31
33.22,-0.57,2.73,-0.57,2.73,-2.73,-1.42,-3.30,-3.30,-3.30
33.55,-0.41,2.88,-0.41,2.88,-2.88,-1.48,-3.29,-3.29,-3.29
33.89,-0.25,3.03,-0.26,3.03,-3.03,-1.54,-3.28,-3.28,-3.28
34.23,-0.10,3.17,-0.10,3.17,-3.17,-1.60,-3.28,-3.27,-3.27
34.57,0.06,3.32,0.05,3.32,-3.32,-1.67,-3.26,-3.27,-3.27
34.92,0.21,3.46,0.20,3.46,-3.46,-1.74,-3.25,-3.26,-3.26
35.27,0.36,3.61,0.35,3.60,-3.60,-1.81,-3.24,-3.25,-3.25
35.62,0.50,3.74,0.50,3.74,-3.74,-1.88,-3.24,-3.24,-3.24
35.97,0.64,3.87,0.64,3.87,-3.87,-1.96,-3.24,-3.23,-3.23
36.33,0.78,4.01,0.78,4.01,-4.01,-2.03,-3.23,-3.23,-3.23
36.70,0.92,4.14,0.92,4.14,-4.14,-2.11,-3.23,-3.22,-3.22
37.06,1.06,4.27,1.06,4.27,-4.27,-2.20,-3.21,-3.21,-3.21
37.43,1.20,4.41,1.19,4.40,-4.40,-2.28,-3.20,-3.21,-3.21
37.81,1.33,4.53,1.33,4.53,-4.53,-2.37,-3.20,-3.20,-3.20
38.19,1.46,4.65,1.46,4.65,-4.65,-2.46,-3.20,-3.20,-3.19
38.57,1.59,4.77,1.59,4.78,-4.78,-2.55,-3.19,-3.19,-3.19
38.95,1.72,4.90,1.71,4.90,-4.90,-2.64,-3.18,-3.18,-3.18
39.34,1.84,5.02,1.84,5.02,-5.02,-2.74,-3.18,-3.18,-3.18
39.74,1.96,5.13,1.96,5.13,-5.13,-2.84,-3.18,-3.17,-3.17
40.14,2.08,5.24,2.08,5.25,-5.25,-2.94,-3.17,-3.17,-3.17
40.54,2.20,5.36,2.20,5.36,-5.36,-3.04,-3.17,-3.16,-3.16
40.94,2.31,5.47,2.31,5.47,-5.47,-3.15,-3.16,-3.16,-3.16
41.35,2.43,5.58,2.43,5.58,-5.58,-3.26,-3.15,-3.15,-3.15
41.76,2.54,5.69,2.53,5.68,-5.68,-3.37,-3.15,-3.15,-3.15
42.18,2.64,5.78,2.64,5.79,-5.79,-3.48,-3.15,-3.14,-3.14
42.60,2.75,5.89,2.74,5.88,-5.88,-3.60,-3.14,-3.14,-3.14
43.03,2.85,5.98,2.84,5.98,-5.98,-3.72,-3.13,-3.14,-3.14
43.46,2.94,6.07,2.94,6.07,-6.07,-3.84,-3.13,-3.13,-3.13
43.90,3.03,6.15,3.03,6.16,-6.16,-3.97,-3.13,-3.13,-3.13
44.33,3.12,6.24,3.12,6.24,-6.24,-4.10,-3.12,-3.12,-3.12
44.78,3.21,6.32,3.20,6.32,-6.32,-4.23,-3.11,-3.12,-3.12
45.23,3.29,6.40,3.28,6.40,-6.40,-4.36,-3.11,-3.11,-3.11
45.68,3.37,6.48,3.36,6.47,-6.47,-4.50,-3.10,-3.11,-3.11
46.13,3.44,6.54,3.43,6.53,-6.53,-4.64,-3.10,-3.10,-3.10
46.60,3.50,6.60,3.50,6.60,-6.60,-4.78,-3.10,-3.10,-3.10
47.06,3.56,6.66,3.56,6.66,-6.66,-4.93,-3.10,-3.10,-3.10
47.53,3.62,6.71,3.62,6.72,-6.72,-5.08,-3.10,-3.10,-3.09
48.01,3.68,6.77,3.68,6.77,-6.77,-5.23,-3.09,-3.09,-3.09
48.49,3.73,6.82,3.73,6.82,-6.82,-5.38,-3.09,-3.09,-3.09
48.97,3.78,6.87,3.78,6.87,-6.87,-5.54,-3.09,-3.09,-3.09
49.46,3.82,6.90,3.83,6.92,-6.92,-5.70,-3.10,-3.09,-3.09
49.96,3.87,6.95,3.87,6.96,-6.96,-5.86,-3.09,-3.09,-3.09
50.46,3.90,6.98,3.91,7.00,-7.00,-6.02,-3.10,-3.09,-3.09
50.96,3.94,7.03,3.95,7.04,-7.04,-6.18,-3.10,-3.09,-3.09
51.47,3.98,7.07,3.98,7.07,-7.07,-6.35,-3.10,-3.09,-3.09
51.99,4.02,7.11,4.01,7.11,-7.11,-6.51,-3.09,-3.09,-3.09
52.51,4.05,7.15,4.04,7.14,-7.14,-6.67,-3.09,-3.10,-3.10
53.03,4.07,7.17,4.06,7.16,-7.16,-6.84,-3.09,-3.10,-3.10
53.56,4.08,7.19,4.07,7.18,-7.18,-7.00,-3.10,-3.11,-3.11
54.10,4.09,7.20,4.08,7.20,-7.20,-7.16,-3.11,-3.12,-3.12
54.64,4.10,7.22,4.09,7.21,-7.21,-7.32,-3.12,-3.13,-3.12
55.18,4.11,7.24,4.09,7.23,-7.23,-7.47,-3.12,-3.14,-3.13
55.74,4.10,7.24,4.09,7.23,-7.23,-7.63,-3.14,-3.15,-3.15
56.29,4.08,7.23,4.08,7.24,-7.24,-7.77,-3.16,-3.16,-3.16
56.86,4.07,7.24,4.07,7.24,-7.24,-7.91,-3.17,-3.17,-3.17
57.42,4.05,7.23,4.05,7.24,-7.24,-8.04,-3.20,-3.19,-3.19
58.00,4.03,7.23,4.04,7.24,-7.24,-8.16,-3.21,-3.20,-3.20
58.58,4.01,7.22,4.02,7.24,-7.24,-8.27,-3.23,-3.22,-3.22
59.16,4.00,7.23,4.00,7.24,-7.24,-8.38,-3.24,-3.24,-3.23
59.76,3.98,7.23,3.98,7.24,-7.24,-8.47,-3.26,-3.26,-3.25
60.35,3.96,7.23,3.96,7.23,-7.23,-8.55,-3.28,-3.28,-3.27
60.96,3.93,7.22,3.93,7.23,-7.23,-8.61,-3.31,-3.30,-3.30
61.57,3.91,7.23,3.91,7.23,-7.23,-8.67,-3.32,-3.32,-3.32
62.18,3.89,7.23,3.89,7.23,-7.23,-8.71,-3.34,-3.34,-3.34
62.80,3.87,7.23,3.86,7.23,-7.23,-8.73,-3.36,-3.37,-3.37
63.43,3.84,7.23,3.84,7.23,-7.23,-8.75,-3.39,-3.39,-3.39
64.07,3.82,7.24,3.81,7.23,-7.23,-8.75,-3.41,-3.42,-3.42
64.71,3.78,7.22,3.79,7.23,-7.23,-8.73,-3.45,-3.45,-3.45
65.35,3.76,7.23,3.76,7.23,-7.23,-8.70,-3.48,-3.48,-3.47
66.01,3.74,7.24,3.73,7.23,-7.23,-8.67,-3.50,-3.50,-3.50
66.67,3.71,7.24,3.70,7.24,-7.24,-8.62,-3.53,-3.53,-3.53
67.33,3.67,7.23,3.67,7.24,-7.24,-8.56,-3.57,-3.56,-3.56
68.01,3.64,7.23,3.64,7.23,-7.23,-8.49,-3.60,-3.59,-3.59
68.69,3.61,7.23,3.61,7.23,-7.23,-8.41,-3.63,-3.62,-3.62
69.37,3.57,7.22,3.58,7.23,-7.23,-8.33,-3.66,-3.65,-3.65
70.07,3.54,7.22,3.54,7.23,-7.23,-8.24,-3.69,-3.68,-3.68
70.77,3.51,7.22,3.51,7.22,-7.22,-8.15,-3.71,-3.71,-3.71
71.48,3.48,7.22,3.47,7.21,-7.21,-8.05,-3.73,-3.74,-3.74
72.19,3.45,7.22,3.43,7.20,-7.20,-7.95,-3.75,-3.77,-3.77
72.91,3.41,7.21,3.39,7.19,-7.19,-7.85,-3.78,-3.80,-3.80
73.64,3.35,7.17,3.35,7.17,-7.17,-7.74,-3.83,-3.83,-3.83
74.38,3.30,7.15,3.30,7.16,-7.16,-7.64,-3.86,-3.85,-3.85
75.12,3.25,7.13,3.26,7.14,-7.14,-7.54,-3.89,-3.88,-3.88
75.87,3.21,7.11,3.21,7.11,-7.11,-7.43,-3.91,-3.91,-3.91
76.63,3.16,7.09,3.16,7.09,-7.09,-7.33,-3.93,-3.93,-3.93
77.40,3.11,7.06,3.11,7.07,-7.07,-7.24,-3.96,-3.96,-3.96
78.17,3.06,7.04,3.06,7.04,-7.04,-7.14,-3.98,-3.98,-3.98
78.95,3.01,7.01,3.01,7.01,-7.01,-7.05,-4.00,-4.00,-4.00
79.74,2.97,6.99,2.96,6.98,-6.98,-6.96,-4.01,-4.02,-4.02
80.54,2.91,6.95,2.91,6.95,-6.95,-6.87,-4.04,-4.04,-4.04
81.35,2.86,6.92,2.86,6.92,-6.92,-6.79,-4.06,-4.06,-4.06
82.16,2.80,6.88,2.81,6.89,-6.89,-6.71,-4.09,-4.08,-4.08
82.98,2.75,6.85,2.76,6.86,-6.86,-6.63,-4.11,-4.10,-4.10
83.81,2.71,6.82,2.71,6.82,-6.82,-6.56,-4.12,-4.11,-4.11
84.65,2.67,6.80,2.66,6.79,-6.79,-6.50,-4.12,-4.13,-4.13
85.50,2.63,6.77,2.61,6.76,-6.76,-6.44,-4.13,-4.14,-4.14
86.35,2.58,6.73,2.57,6.73,-6.73,-6.38,-4.15,-4.16,-4.16
87.22,2.53,6.70,2.53,6.69,-6.69,-6.33,-4.17,-4.17,-4.17
88.09,2.48,6.66,2.48,6.66,-6.66,-6.28,-4.18,-4.18,-4.18
88.97,2.43,6.62,2.44,6.63,-6.63,-6.23,-4.20,-4.19,-4.19
89.86,2.39,6.58,2.40,6.60,-6.60,-6.20,-4.21,-4.20,-4.20
90.76,2.36,6.56,2.37,6.57,-6.57,-6.16,-4.21,-4.20,-4.20
91.66,2.32,6.53,2.33,6.54,-6.54,-6.13,-4.22,-4.21,-4.21
92.58,2.29,6.51,2.29,6.51,-6.51,-6.11,-4.22,-4.22,-4.22
93.51,2.26,6.48,2.25,6.48,-6.48,-6.09,-4.22,-4.23,-4.22
94.44,2.23,6.46,2.22,6.45,-6.45,-6.07,-4.23,-4.24,-4.23
95.39,2.19,6.43,2.18,6.43,-6.43,-6.06,-4.24,-4.25,-4.24
96.34,2.16,6.41,2.15,6.40,-6.40,-6.05,-4.24,-4.25,-4.25
97.30,2.12,6.38,2.11,6.37,-6.37,-6.05,-4.26,-4.26,-4.26
98.28,2.08,6.35,2.08,6.35,-6.35,-6.05,-4.27,-4.27,-4.27
99.26,2.04,6.32,2.04,6.32,-6.32,-6.05,-4.29,-4.28,-4.28
100.25,2.00,6.30,2.00,6.30,-6.30,-6.06,-4.30,-4.30,-4.30
101.25,1.95,6.26,1.96,6.28,-6.28,-6.07,-4.33,-4.32,-4.32
102.27,1.91,6.24,1.91,6.25,-6.25,-6.08,-4.35,-4.34,-4.34
103.29,1.89,6.24,1.87,6.23,-6.23,-6.10,-4.35,-4.36,-4.36
104.32,1.86,6.24,1.83,6.21,-6.21,-6.11,-4.36,-4.39,-4.38
105.37,1.81,6.21,1.78,6.20,-6.20,-6.13,-4.39,-4.41,-4.40
106.42,1.74,6.17,1.74,6.18,-6.18,-6.16,-4.44,-4.44,-4.43
107.48,1.69,6.15,1.70,6.17,-6.17,-6.18,-4.48,-4.47,-4.46
108.56,1.64,6.13,1.66,6.16,-6.16,-6.20,-4.52,-4.50,-4.49
109.64,1.59,6.11,1.62,6.15,-6.15,-6.23,-4.56,-4.53,-4.52
110.74,1.57,6.12,1.58,6.14,-6.14,-6.26,-4.58,-4.56,-4.56
111.85,1.54,6.13,1.54,6.14,-6.14,-6.28,-4.60,-4.60,-4.59
112.97,1.51,6.14,1.51,6.14,-6.14,-6.31,-4.63,-4.63,-4.63
114.10,1.48,6.14,1.47,6.14,-6.14,-6.33,-4.66,-4.67,-4.66
115.24,1.45,6.15,1.44,6.14,-6.14,-6.35,-4.70,-4.70,-4.70
116.39,1.42,6.15,1.41,6.15,-6.15,-6.38,-4.73,-4.74,-4.73
117.55,1.39,6.16,1.38,6.15,-6.15,-6.40,-4.76,-4.77,-4.77
118.73,1.36,6.17,1.35,6.16,-6.16,-6.41,-4.80,-4.81,-4.81
119.92,1.33,6.17,1.32,6.16,-6.16,-6.43,-4.83,-4.84,-4.84
121.12,1.30,6.17,1.29,6.17,-6.17,-6.44,-4.87,-4.87,-4.88
122.33,1.28,6.19,1.27,6.17,-6.17,-6.45,-4.90,-4.91,-4.91
123.55,1.25,6.19,1.24,6.18,-6.18,-6.46,-4.93,-4.94,-4.94
124.79,1.22,6.19,1.22,6.19,-6.19,-6.46,-4.97,-4.97,-4.97
126.03,1.18,6.18,1.19,6.19,-6.19,-6.46,-5.02,-5.00,-5.00
127.29,1.17,6.19,1.18,6.20,-6.20,-6.46,-5.04,-5.03,-5.02
128.57,1.15,6.20,1.16,6.21,-6.21,-6.45,-5.07,-5.05,-5.05
129.85,1.13,6.20,1.15,6.23,-6.23,-6.44,-5.10,-5.08,-5.07
131.15,1.12,6.22,1.14,6.24,-6.24,-6.43,-5.12,-5.10,-5.10
132.46,1.13,6.25,1.13,6.26,-6.26,-6.41,-5.13,-5.13,-5.12
133.79,1.13,6.27,1.13,6.28,-6.28,-6.40,-5.15,-5.15,-5.14
135.12,1.14,6.30,1.13,6.30,-6.30,-6.38,-5.16,-5.17,-5.16
136.48,1.14,6.32,1.13,6.32,-6.32,-6.36,-5.18,-5.19,-5.18
137.84,1.14,6.34,1.13,6.35,-6.35,-6.33,-5.21,-5.21,-5.20
139.22,1.14,6.36,1.14,6.37,-6.37,-6.31,-5.23,-5.23,-5.22
140.61,1.14,6.38,1.15,6.40,-6.40,-6.29,-5.26,-5.25,-5.25
142.02,1.15,6.41,1.15,6.42,-6.42,-6.26,-5.27,-5.27,-5.27
143.44,1.15,6.44,1.15,6.44,-6.44,-6.24,-5.30,-5.29,-5.29
144.87,1.16,6.47,1.16,6.47,-6.47,-6.22,-5.31,-5.31,-5.31
146.32,1.16,6.49,1.15,6.48,-6.48,-6.19,-5.33,-5.33,-5.33
147.78,1.16,6.51,1.14,6.50,-6.50,-6.17,-5.34,-5.35,-5.36
149.26,1.15,6.53,1.13,6.51,-6.51,-6.15,-5.36,-5.38,-5.38
150.75,1.14,6.54,1.12,6.52,-6.52,-6.14,-5.38,-5.40,-5.40
152.26,1.13,6.55,1.10,6.53,-6.53,-6.12,-5.40,-5.42,-5.42
153.78,1.10,6.55,1.08,6.53,-6.53,-6.11,-5.43,-5.45,-5.45
155.32,1.07,6.54,1.06,6.53,-6.53,-6.10,-5.46,-5.47,-5.47
156.88,1.03,6.52,1.03,6.52,-6.52,-6.10,-5.50,-5.50,-5.50
158.44,1.01,6.53,1.00,6.52,-6.52,-6.09,-5.51,-5.52,-5.52
160.03,0.96,6.50,0.97,6.52,-6.52,-6.09,-5.56,-5.55,-5.54
161.63,0.94,6.51,0.94,6.51,-6.51,-6.10,-5.58,-5.58,-5.57
163.24,0.91,6.50,0.91,6.51,-6.51,-6.11,-5.61,-5.60,-5.59
164.88,0.87,6.49,0.89,6.51,-6.51,-6.12,-5.65,-5.63,-5.62
166.53,0.85,6.49,0.86,6.52,-6.52,-6.14,-5.67,-5.66,-5.64
168.19,0.83,6.50,0.84,6.53,-6.53,-6.16,-5.70,-5.68,-5.67
169.87,0.81,6.51,0.83,6.54,-6.54,-6.18,-5.73,-5.71,-5.70
171.57,0.80,6.53,0.82,6.56,-6.56,-6.21,-5.76,-5.74,-5.73
173.29,0.80,6.55,0.81,6.58,-6.58,-6.25,-5.78,-5.77,-5.76
175.02,0.81,6.60,0.81,6.60,-6.60,-6.29,-5.79,-5.80,-5.79
176.77,0.81,6.63,0.80,6.63,-6.63,-6.33,-5.82,-5.83,-5.82
178.54,0.82,6.67,0.80,6.66,-6.66,-6.38,-5.84,-5.85,-5.85
180.32,0.82,6.70,0.80,6.69,-6.69,-6.43,-5.87,-5.89,-5.88
182.13,0.82,6.73,0.81,6.72,-6.72,-6.49,-5.91,-5.92,-5.92
183.95,0.82,6.77,0.81,6.76,-6.76,-6.55,-5.94,-5.95,-5.95
185.79,0.82,6.80,0.81,6.79,-6.79,-6.62,-5.97,-5.98,-5.98
187.65,0.82,6.83,0.81,6.83,-6.83,-6.69,-6.01,-6.01,-6.02
189.52,0.82,6.87,0.82,6.87,-6.87,-6.77,-6.05,-6.05,-6.05
191.42,0.82,6.90,0.82,6.90,-6.90,-6.85,-6.08,-6.08,-6.08
193.33,0.82,6.93,0.82,6.94,-6.94,-6.93,-6.12,-6.12,-6.12
195.27,0.82,6.97,0.82,6.98,-6.98,-7.02,-6.16,-6.16,-6.15
197.22,0.82,7.00,0.82,7.01,-7.01,-7.11,-6.20,-6.19,-6.18
199.19,0.82,7.04,0.83,7.05,-7.05,-7.20,-6.23,-6.23,-6.22
201.18,0.82,7.07,0.83,7.09,-7.09,-7.30,-6.27,-6.26,-6.26
203.19,0.82,7.11,0.83,7.13,-7.13,-7.40,-6.31,-6.30,-6.29
205.23,0.82,7.14,0.83,7.17,-7.17,-7.50,-6.35,-6.33,-6.33
207.28,0.83,7.19,0.83,7.20,-7.20,-7.61,-6.38,-6.37,-6.36
209.35,0.84,7.24,0.83,7.24,-7.24,-7.71,-6.40,-6.41,-6.40
211.44,0.84,7.27,0.83,7.27,-7.27,-7.82,-6.43,-6.44,-6.44
213.56,0.84,7.31,0.82,7.30,-7.30,-7.93,-6.46,-6.48,-6.47
215.69,0.83,7.34,0.81,7.33,-7.33,-8.03,-6.50,-6.51,-6.51
217.85,0.81,7.36,0.80,7.35,-7.35,-8.13,-6.54,-6.55,-6.55
220.03,0.80,7.38,0.78,7.36,-7.36,-8.23,-6.56,-6.58,-6.58
222.23,0.77,7.38,0.77,7.37,-7.37,-8.33,-6.61,-6.61,-6.61
224.45,0.74,7.38,0.74,7.38,-7.38,-8.42,-6.64,-6.64,-6.65
226.70,0.70,7.37,0.71,7.38,-7.38,-8.51,-6.68,-6.66,-6.67
228.96,0.68,7.38,0.68,7.37,-7.37,-8.58,-6.70,-6.69,-6.70
231.25,0.66,7.38,0.65,7.36,-7.36,-8.65,-6.71,-6.72,-6.72
233.57,0.63,7.37,0.61,7.35,-7.35,-8.71,-6.72,-6.74,-6.74
235.90,0.58,7.33,0.57,7.33,-7.33,-8.76,-6.75,-6.76,-6.76
238.26,0.55,7.32,0.54,7.31,-7.31,-8.80,-6.76,-6.77,-6.77
240.64,0.50,7.28,0.50,7.28,-7.28,-8.83,-6.79,-6.78,-6.78
243.05,0.46,7.24,0.47,7.26,-7.26,-8.84,-6.80,-6.79,-6.79
245.48,0.41,7.20,0.43,7.23,-7.23,-8.84,-6.82,-6.80,-6.79
247.93,0.37,7.16,0.40,7.20,-7.20,-8.82,-6.83,-6.80,-6.80
250.41,0.34,7.13,0.36,7.17,-7.17,-8.79,-6.83,-6.81,-6.80
252.92,0.32,7.11,0.33,7.14,-7.14,-8.75,-6.82,-6.81,-6.80
255.45,0.30,7.09,0.29,7.10,-7.10,-8.69,-6.81,-6.81,-6.80
258.00,0.29,7.08,0.26,7.07,-7.07,-8.61,-6.78,-6.81,-6.80
260.58,0.26,7.05,0.23,7.03,-7.03,-8.52,-6.78,-6.80,-6.80
263.19,0.22,7.01,0.20,7.00,-7.00,-8.42,-6.78,-6.80,-6.80
265.82,0.17,6.96,0.17,6.96,-6.96,-8.30,-6.79,-6.79,-6.79
268.48,0.14,6.93,0.14,6.93,-6.93,-8.17,-6.79,-6.79,-6.79
271.16,0.11,6.90,0.11,6.89,-6.89,-8.03,-6.78,-6.78,-6.79
273.87,0.06,6.84,0.08,6.85,-6.85,-7.89,-6.79,-6.77,-6.78
276.61,0.04,6.81,0.04,6.81,-6.81,-7.73,-6.78,-6.77,-6.77
279.38,0.02,6.78,0.01,6.78,-6.78,-7.57,-6.76,-6.76,-6.76
282.17,-0.00,6.75,-0.02,6.74,-6.74,-7.39,-6.74,-6.76,-6.75
284.99,-0.04,6.70,-0.04,6.71,-6.71,-7.22,-6.75,-6.75,-6.74
287.84,-0.08,6.65,-0.07,6.67,-6.67,-7.04,-6.76,-6.74,-6.73
290.72,-0.10,6.61,-0.09,6.64,-6.64,-6.85,-6.74,-6.73,-6.72
293.63,-0.12,6.58,-0.11,6.61,-6.61,-6.67,-6.74,-6.72,-6.70
296.57,-0.13,6.56,-0.12,6.59,-6.59,-6.48,-6.72,-6.71,-6.69
299.53,-0.15,6.53,-0.14,6.56,-6.56,-6.29,-6.72,-6.70,-6.69
302.53,-0.16,6.52,-0.15,6.54,-6.54,-6.10,-6.70,-6.69,-6.68
305.55,-0.17,6.50,-0.16,6.52,-6.52,-5.90,-6.69,-6.68,-6.67
308.61,-0.18,6.48,-0.18,6.49,-6.49,-5.71,-6.68,-6.67,-6.67
311.69,-0.19,6.47,-0.20,6.47,-6.47,-5.52,-6.66,-6.67,-6.66
314.81,-0.20,6.46,-0.22,6.44,-6.44,-5.33,-6.64,-6.66,-6.66
317.96,-0.22,6.43,-0.24,6.41,-6.41,-5.14,-6.63,-6.66,-6.65
321.14,-0.25,6.40,-0.27,6.38,-6.38,-4.96,-6.63,-6.65,-6.65
324.35,-0.29,6.36,-0.31,6.34,-6.34,-4.77,-6.63,-6.65,-6.65
327.59,-0.33,6.32,-0.35,6.30,-6.30,-4.59,-6.63,-6.65,-6.65
330.87,-0.38,6.26,-0.39,6.26,-6.26,-4.41,-6.64,-6.64,-6.65
334.18,-0.44,6.20,-0.44,6.21,-6.21,-4.23,-6.65,-6.64,-6.65
337.52,-0.50,6.14,-0.49,6.15,-6.15,-4.05,-6.65,-6.64,-6.64
340.90,-0.56,6.08,-0.55,6.09,-6.09,-3.88,-6.65,-6.64,-6.64
344.30,-0.64,6.00,-0.62,6.02,-6.02,-3.70,-6.67,-6.64,-6.64
347.75,-0.70,5.94,-0.69,5.95,-5.95,-3.53,-6.65,-6.64,-6.64
351.23,-0.77,5.87,-0.77,5.88,-5.88,-3.36,-6.65,-6.65,-6.64
354.74,-0.84,5.80,-0.85,5.80,-5.80,-3.20,-6.64,-6.65,-6.64
358.28,-0.93,5.71,-0.94,5.71,-5.71,-3.03,-6.64,-6.65,-6.64
361.87,-1.01,5.64,-1.04,5.62,-5.62,-2.87,-6.63,-6.66,-6.65
365.49,-1.12,5.53,-1.14,5.53,-5.53,-2.71,-6.65,-6.66,-6.66
369.14,-1.23,5.43,-1.24,5.43,-5.43,-2.55,-6.66,-6.67,-6.66
372.83,-1.34,5.33,-1.35,5.33,-5.33,-2.40,-6.67,-6.67,-6.67
376.56,-1.49,5.19,-1.46,5.22,-5.22,-2.24,-6.71,-6.68,-6.68
380.33,-1.61,5.08,-1.59,5.10,-5.10,-2.09,-6.72,-6.69,-6.69
384.13,-1.72,4.98,-1.72,4.98,-4.98,-1.94,-6.71,-6.70,-6.70
387.97,-1.85,4.86,-1.85,4.86,-4.86,-1.80,-6.71,-6.71,-6.71
391.85,-1.99,4.73,-1.99,4.73,-4.73,-1.65,-6.72,-6.72,-6.72
395.77,-2.13,4.60,-2.14,4.60,-4.60,-1.51,-6.73,-6.74,-6.73
399.73,-2.28,4.46,-2.29,4.45,-4.45,-1.37,-6.74,-6.75,-6.74
403.72,-2.44,4.31,-2.45,4.31,-4.31,-1.23,-6.75,-6.76,-6.75
407.76,-2.61,4.15,-2.62,4.15,-4.15,-1.10,-6.77,-6.77,-6.77
411.84,-2.78,4.00,-2.78,3.99,-3.99,-0.97,-6.78,-6.78,-6.78
415.96,-2.96,3.83,-2.96,3.83,-3.83,-0.84,-6.79,-6.79,-6.79
420.12,-3.16,3.64,-3.15,3.65,-3.65,-0.72,-6.81,-6.80,-6.80
424.32,-3.35,3.46,-3.34,3.47,-3.47,-0.59,-6.82,-6.81,-6.81
428.56,-3.52,3.29,-3.54,3.28,-3.28,-0.48,-6.80,-6.81,-6.82
432.85,-3.73,3.09,-3.74,3.08,-3.08,-0.36,-6.81,-6.82,-6.82
437.18,-3.96,2.87,-3.96,2.87,-2.87,-0.25,-6.84,-6.83,-6.83
441.55,-4.15,2.68,-4.17,2.66,-2.66,-0.15,-6.81,-6.83,-6.84
445.96,-4.37,2.47,-4.40,2.44,-2.44,-0.05,-6.81,-6.84,-6.84
450.42,-4.63,2.21,-4.62,2.21,-2.21,0.04,-6.85,-6.84,-6.84
454.93,-4.86,1.98,-4.86,1.98,-1.98,0.13,-6.84,-6.84,-6.84
459.48,-5.12,1.71,-5.10,1.74,-1.74,0.21,-6.86,-6.83,-6.83
464.07,-5.35,1.48,-5.34,1.49,-1.49,0.29,-6.84,-6.83,-6.83
468.71,-5.58,1.24,-5.59,1.23,-1.23,0.35,-6.82,-6.83,-6.83
473.40,-5.85,0.97,-5.85,0.97,-0.97,0.41,-6.83,-6.82,-6.82
478.13,-6.11,0.71,-6.11,0.71,-0.71,0.47,-6.82,-6.82,-6.82
482.91,-6.36,0.45,-6.38,0.43,-0.43,0.51,-6.79,-6.82,-6.82
487.74,-6.62,0.19,-6.66,0.15,-0.15,0.55,-6.78,-6.81,-6.81
492.62,-6.90,-0.09,-6.94,-0.13,0.13,0.58,-6.78,-6.81,-6.81
497.55,-7.18,-0.37,-7.22,-0.41,0.41,0.60,-6.77,-6.81,-6.81
502.52,-7.46,-0.65,-7.50,-0.69,0.69,0.62,-6.77,-6.81,-6.81
507.55,-7.76,-0.96,-7.78,-0.97,0.97,0.62,-6.79,-6.80,-6.81
512.62,-8.04,-1.24,-8.05,-1.25,1.25,0.62,-6.79,-6.80,-6.80
517.75,-8.33,-1.53,-8.33,-1.53,1.53,0.61,-6.81,-6.80,-6.80
522.93,-8.61,-1.82,-8.59,-1.79,1.79,0.59,-6.82,-6.80,-6.80
528.16,-8.88,-2.09,-8.84,-2.04,2.04,0.56,-6.84,-6.80,-6.79
533.44,-9.09,-2.30,-9.08,-2.28,2.28,0.53,-6.81,-6.80,-6.79
538.77,-9.31,-2.53,-9.31,-2.51,2.51,0.49,-6.80,-6.80,-6.79
544.16,-9.53,-2.75,-9.51,-2.71,2.71,0.44,-6.82,-6.80,-6.78
549.60,-9.69,-2.91,-9.69,-2.90,2.90,0.39,-6.79,-6.80,-6.78
555.10,-9.86,-3.09,-9.85,-3.06,3.06,0.33,-6.80,-6.79,-6.77
560.65,-9.99,-3.22,-9.98,-3.20,3.20,0.26,-6.80,-6.79,-6.77
566.25,-10.10,-3.34,-10.09,-3.31,3.31,0.19,-6.80,-6.79,-6.77
571.92,-10.19,-3.43,-10.17,-3.39,3.39,0.11,-6.80,-6.78,-6.76
577.64,-10.25,-3.49,-10.22,-3.45,3.45,0.03,-6.81,-6.78,-6.76
583.41,-10.27,-3.52,-10.25,-3.47,3.47,-0.05,-6.80,-6.77,-6.76
589.25,-10.26,-3.51,-10.25,-3.47,3.47,-0.14,-6.79,-6.77,-6.75
595.14,-10.23,-3.48,-10.22,-3.45,3.45,-0.23,-6.79,-6.77,-6.75
601.09,-10.15,-3.40,-10.16,-3.39,3.39,-0.33,-6.76,-6.77,-6.75
607.10,-10.06,-3.31,-10.07,-3.31,3.31,-0.42,-6.76,-6.77,-6.75
613.17,-9.97,-3.22,-9.96,-3.20,3.20,-0.53,-6.78,-6.76,-6.75
619.30,-9.84,-3.09,-9.82,-3.06,3.06,-0.63,-6.78,-6.75,-6.75
