frequency,raw,error,smoothed,error_smoothed,equalization,parametric_eq,equalized_raw,equalized_smoothed,target
20,-0.27,-2.01,-0.15,-1.90,1.90,-0.80,1.63,1.74,1.74
21,0.94,-0.80,0.96,-0.78,0.78,-0.95,1.73,1.74,1.74
22,2.06,0.32,1.94,0.20,-0.20,-1.12,1.87,1.74,1.74
23,2.93,1.20,2.78,1.04,-1.04,-1.32,1.89,1.74,1.74
24,3.59,1.86,3.49,1.76,-1.76,-1.54,1.84,1.74,1.74
25,4.14,2.41,4.06,2.33,-2.33,-1.80,1.82,1.73,1.73
26,4.52,2.79,4.50,2.77,-2.77,-2.07,1.76,1.73,1.73
27,4.77,3.05,4.81,3.08,-3.08,-2.36,1.69,1.73,1.73
28,4.97,3.25,5.01,3.29,-3.29,-2.64,1.69,1.72,1.72
29,5.11,3.40,5.12,3.40,-3.40,-2.90,1.71,1.72,1.72
30,5.15,3.44,5.15,3.44,-3.44,-3.11,1.72,1.71,1.71
31,5.11,3.41,5.12,3.41,-3.41,-3.24,1.70,1.71,1.71
32,5.02,3.32,5.05,3.35,-3.35,-3.30,1.68,1.70,1.70
33,4.94,3.25,4.94,3.25,-3.25,-3.26,1.70,1.70,1.70
34,4.76,3.08,4.82,3.13,-3.13,-3.16,1.64,1.69,1.69
35,4.64,2.96,4.67,2.99,-2.99,-3.00,1.65,1.68,1.68
36,4.49,2.82,4.52,2.85,-2.85,-2.81,1.64,1.67,1.67
37,4.34,2.68,4.37,2.70,-2.70,-2.61,1.64,1.66,1.66
38,4.20,2.55,4.21,2.56,-2.56,-2.41,1.65,1.65,1.65
39,4.07,2.43,4.06,2.41,-2.41,-2.21,1.66,1.64,1.64
40,3.91,2.28,3.91,2.27,-2.27,-2.03,1.64,1.63,1.63
41,3.77,2.15,3.76,2.14,-2.14,-1.87,1.64,1.62,1.62
42,3.59,1.98,3.61,2.00,-2.00,-1.72,1.59,1.61,1.61
43,3.44,1.85,3.47,1.87,-1.87,-1.59,1.57,1.60,1.60
44,3.31,1.73,3.33,1.75,-1.75,-1.47,1.57,1.58,1.58
45,3.22,1.65,3.19,1.62,-1.62,-1.37,1.60,1.57,1.57
46,3.08,1.53,3.06,1.51,-1.51,-1.28,1.58,1.55,1.55
47,2.93,1.40,2.94,1.40,-1.40,-1.19,1.54,1.54,1.54
48,2.81,1.29,2.82,1.30,-1.30,-1.12,1.52,1.52,1.52
49,2.72,1.22,2.70,1.20,-1.20,-1.06,1.52,1.50,1.50
50,2.58,1.10,2.60,1.12,-1.12,-1.00,1.46,1.48,1.48
51,2.50,1.04,2.51,1.05,-1.05,-0.95,1.45,1.46,1.46
52,2.42,0.98,2.44,1.00,-1.00,-0.90,1.43,1.44,1.44
53,2.35,0.93,2.38,0.96,-0.96,-0.86,1.40,1.42,1.42
54,2.30,0.91,2.33,0.93,-0.93,-0.83,1.37,1.40,1.40
55,2.27,0.90,2.29,0.91,-0.91,-0.80,1.36,1.38,1.38
56,2.24,0.89,2.26,0.90,-0.90,-0.77,1.34,1.35,1.35
57,2.21,0.89,2.23,0.90,-0.90,-0.75,1.31,1.33,1.33
58,2.28,0.98,2.19,0.89,-0.89,-0.72,1.39,1.30,1.30
59,2.25,0.98,2.16,0.89,-0.89,-0.71,1.37,1.27,1.27
60,2.07,0.83,2.12,0.88,-0.88,-0.69,1.20,1.24,1.24
61,2.03,0.82,2.08,0.86,-0.86,-0.68,1.17,1.22,1.22
62,2.05,0.87,2.03,0.85,-0.85,-0.66,1.21,1.19,1.19
63,1.95,0.80,1.99,0.84,-0.84,-0.65,1.12,1.16,1.16
64,1.93,0.81,1.95,0.82,-0.82,-0.64,1.11,1.12,1.12
65,1.90,0.81,1.91,0.82,-0.82,-0.64,1.09,1.09,1.09
66,1.88,0.83,1.87,0.81,-0.81,-0.63,1.08,1.06,1.06
67,1.83,0.81,1.83,0.80,-0.80,-0.63,1.03,1.02,1.02
68,1.77,0.78,1.79,0.80,-0.80,-0.62,0.98,0.99,0.99
69,1.74,0.79,1.74,0.79,-0.79,-0.62,0.96,0.95,0.95
70,1.71,0.80,1.69,0.78,-0.78,-0.62,0.94,0.92,0.92
71,1.67,0.79,1.64,0.76,-0.76,-0.62,0.91,0.88,0.88
72,1.60,0.76,1.59,0.75,-0.75,-0.62,0.86,0.84,0.84
73,1.50,0.70,1.54,0.73,-0.73,-0.62,0.77,0.81,0.81
74,1.46,0.70,1.49,0.72,-0.72,-0.63,0.75,0.77,0.77
75,1.42,0.69,1.43,0.70,-0.70,-0.63,0.72,0.73,0.73
76,1.39,0.70,1.38,0.69,-0.69,-0.63,0.70,0.69,0.69
77,1.32,0.67,1.33,0.68,-0.68,-0.64,0.65,0.65,0.65
78,1.29,0.68,1.28,0.67,-0.67,-0.65,0.63,0.61,0.61
79,1.25,0.68,1.23,0.66,-0.66,-0.65,0.59,0.57,0.57
80,1.19,0.66,1.19,0.66,-0.66,-0.66,0.54,0.53,0.53
81,1.13,0.65,1.14,0.65,-0.65,-0.67,0.48,0.49,0.49
82,1.06,0.62,1.10,0.66,-0.66,-0.68,0.41,0.45,0.45
83,1.05,0.65,1.07,0.66,-0.66,-0.69,0.39,0.41,0.41
84,1.02,0.66,1.03,0.67,-0.67,-0.70,0.35,0.36,0.36
85,1.02,0.70,1.00,0.68,-0.68,-0.71,0.34,0.32,0.32
86,0.99,0.71,0.97,0.69,-0.69,-0.72,0.30,0.28,0.28
87,0.95,0.71,0.95,0.71,-0.71,-0.73,0.25,0.24,0.24
88,0.92,0.73,0.92,0.72,-0.72,-0.74,0.20,0.20,0.20
89,0.88,0.73,0.89,0.74,-0.74,-0.76,0.15,0.16,0.16
90,0.85,0.74,0.86,0.75,-0.75,-0.77,0.10,0.12,0.12
91,0.82,0.75,0.84,0.76,-0.76,-0.78,0.06,0.07,0.07
92,0.80,0.77,0.81,0.77,-0.77,-0.80,0.03,0.03,0.03
93,0.79,0.80,0.77,0.78,-0.78,-0.81,0.01,-0.01,-0.01
94,0.75,0.80,0.74,0.79,-0.79,-0.83,-0.03,-0.05,-0.05
95,0.71,0.80,0.71,0.79,-0.79,-0.84,-0.08,-0.09,-0.09
96,0.67,0.80,0.67,0.80,-0.80,-0.86,-0.12,-0.13,-0.13
97,0.63,0.80,0.64,0.80,-0.80,-0.87,-0.17,-0.17,-0.17
98,0.60,0.81,0.61,0.81,-0.81,-0.89,-0.21,-0.21,-0.21
99,0.56,0.81,0.58,0.83,-0.83,-0.90,-0.26,-0.25,-0.25
100,0.53,0.82,0.55,0.85,-0.85,-0.92,-0.31,-0.29,-0.29
101,0.52,0.85,0.54,0.87,-0.87,-0.94,-0.35,-0.33,-0.32
102,0.50,0.87,0.52,0.90,-0.90,-0.95,-0.39,-0.38,-0.36
104,0.54,0.98,0.51,0.93,-0.93,-0.99,-0.39,-0.42,-0.44
105,0.51,0.99,0.50,0.96,-0.96,-1.00,-0.45,-0.46,-0.47
106,0.48,0.99,0.49,1.00,-1.00,-1.02,-0.51,-0.50,-0.51
107,0.47,1.02,0.48,1.03,-1.03,-1.04,-0.55,-0.54,-0.54
108,0.47,1.05,0.48,1.05,-1.05,-1.05,-0.58,-0.58,-0.58
109,0.47,1.09,0.46,1.08,-1.08,-1.07,-0.60,-0.61,-0.61
110,0.45,1.10,0.45,1.10,-1.10,-1.08,-0.64,-0.65,-0.65
111,0.44,1.12,0.44,1.12,-1.12,-1.10,-0.67,-0.68,-0.68
112,0.43,1.15,0.42,1.13,-1.13,-1.12,-0.70,-0.72,-0.71
113,0.40,1.15,0.40,1.15,-1.15,-1.13,-0.75,-0.75,-0.75
114,0.36,1.14,0.38,1.17,-1.17,-1.15,-0.80,-0.78,-0.78
115,0.34,1.15,0.36,1.18,-1.18,-1.16,-0.84,-0.82,-0.81
117,0.33,1.20,0.34,1.20,-1.20,-1.19,-0.86,-0.85,-0.87
118,0.33,1.23,0.32,1.21,-1.21,-1.20,-0.88,-0.89,-0.90
119,0.32,1.25,0.30,1.23,-1.23,-1.21,-0.90,-0.93,-0.93
120,0.28,1.24,0.28,1.24,-1.24,-1.22,-0.96,-0.96,-0.96
121,0.24,1.23,0.26,1.25,-1.25,-1.24,-1.01,-0.99,-0.98
123,0.24,1.28,0.23,1.26,-1.26,-1.26,-1.02,-1.03,-1.04
124,0.21,1.28,0.21,1.27,-1.27,-1.26,-1.06,-1.06,-1.06
125,0.17,1.26,0.19,1.28,-1.28,-1.27,-1.10,-1.09,-1.09
126,0.14,1.26,0.16,1.28,-1.28,-1.28,-1.14,-1.12,-1.11
128,0.13,1.30,0.13,1.29,-1.29,-1.29,-1.15,-1.15,-1.16
129,0.12,1.31,0.11,1.29,-1.29,-1.30,-1.17,-1.18,-1.19
130,0.09,1.30,0.08,1.29,-1.29,-1.30,-1.20,-1.21,-1.21
131,0.05,1.29,0.05,1.29,-1.29,-1.31,-1.23,-1.24,-1.23
133,0.01,1.29,0.02,1.29,-1.29,-1.31,-1.27,-1.27,-1.27
134,-0.03,1.27,-0.01,1.28,-1.28,-1.31,-1.31,-1.30,-1.30
135,-0.05,1.27,-0.04,1.28,-1.28,-1.31,-1.33,-1.32,-1.32
137,-0.07,1.29,-0.07,1.28,-1.28,-1.31,-1.34,-1.35,-1.36
138,-0.12,1.26,-0.10,1.27,-1.27,-1.31,-1.39,-1.38,-1.38
140,-0.14,1.28,-0.13,1.27,-1.27,-1.30,-1.41,-1.40,-1.41
141,-0.16,1.27,-0.16,1.27,-1.27,-1.30,-1.43,-1.43,-1.43
142,-0.20,1.25,-0.19,1.27,-1.27,-1.29,-1.46,-1.45,-1.45
144,-0.20,1.29,-0.21,1.27,-1.27,-1.28,-1.46,-1.48,-1.48
145,-0.24,1.26,-0.24,1.26,-1.26,-1.27,-1.50,-1.50,-1.50
147,-0.28,1.25,-0.27,1.26,-1.26,-1.26,-1.53,-1.53,-1.53
148,-0.31,1.24,-0.30,1.25,-1.25,-1.25,-1.56,-1.55,-1.55
150,-0.32,1.26,-0.33,1.24,-1.24,-1.23,-1.56,-1.57,-1.57
151,-0.36,1.23,-0.36,1.23,-1.23,-1.22,-1.59,-1.59,-1.59
153,-0.40,1.22,-0.40,1.22,-1.22,-1.20,-1.61,-1.61,-1.62
154,-0.43,1.20,-0.43,1.20,-1.20,-1.19,-1.63,-1.63,-1.63
156,-0.47,1.19,-0.46,1.19,-1.19,-1.17,-1.66,-1.65,-1.65
157,-0.51,1.16,-0.49,1.18,-1.18,-1.15,-1.69,-1.67,-1.67
159,-0.51,1.18,-0.52,1.17,-1.17,-1.13,-1.68,-1.69,-1.69
160,-0.55,1.16,-0.55,1.16,-1.16,-1.12,-1.71,-1.71,-1.70
162,-0.59,1.14,-0.57,1.16,-1.16,-1.09,-1.74,-1.72,-1.72
164,-0.59,1.16,-0.59,1.15,-1.15,-1.07,-1.74,-1.74,-1.75
165,-0.62,1.14,-0.61,1.15,-1.15,-1.05,-1.77,-1.76,-1.76
167,-0.66,1.12,-0.63,1.15,-1.15,-1.03,-1.80,-1.77,-1.78
169,-0.66,1.14,-0.65,1.14,-1.14,-1.00,-1.80,-1.79,-1.79
170,-0.66,1.15,-0.68,1.13,-1.13,-0.99,-1.78,-1.81,-1.80
172,-0.70,1.12,-0.72,1.10,-1.10,-0.96,-1.80,-1.82,-1.82
174,-0.74,1.10,-0.76,1.07,-1.07,-0.94,-1.81,-1.83,-1.84
175,-0.77,1.08,-0.82,1.03,-1.03,-0.92,-1.80,-1.85,-1.85
177,-0.88,0.98,-0.88,0.98,-0.98,-0.90,-1.86,-1.86,-1.86
179,-0.95,0.93,-0.94,0.93,-0.93,-0.87,-1.88,-1.87,-1.88
181,-1.03,0.86,-1.01,0.88,-0.88,-0.85,-1.90,-1.89,-1.89
183,-1.13,0.78,-1.07,0.83,-0.83,-0.83,-1.96,-1.90,-1.90
184,-1.16,0.75,-1.12,0.79,-0.79,-0.81,-1.94,-1.91,-1.91
186,-1.19,0.74,-1.17,0.75,-0.75,-0.79,-1.94,-1.92,-1.92
188,-1.21,0.73,-1.21,0.72,-0.72,-0.77,-1.93,-1.93,-1.93
190,-1.24,0.71,-1.25,0.70,-0.70,-0.75,-1.94,-1.95,-1.95
192,-1.26,0.70,-1.28,0.68,-0.68,-0.73,-1.94,-1.96,-1.96
194,-1.29,0.68,-1.31,0.66,-0.66,-0.71,-1.95,-1.97,-1.97
196,-1.34,0.64,-1.34,0.64,-0.64,-0.69,-1.97,-1.98,-1.98
198,-1.38,0.61,-1.38,0.61,-0.61,-0.67,-1.99,-1.99,-1.99
200,-1.41,0.59,-1.41,0.58,-0.58,-0.65,-1.99,-2.00,-2.00
202,-1.44,0.57,-1.45,0.56,-0.56,-0.63,-1.99,-2.01,-2.01
204,-1.50,0.52,-1.49,0.53,-0.53,-0.61,-2.02,-2.01,-2.01
206,-1.53,0.50,-1.52,0.50,-0.50,-0.60,-2.03,-2.02,-2.02
208,-1.56,0.47,-1.55,0.48,-0.48,-0.58,-2.04,-2.03,-2.03
210,-1.58,0.46,-1.57,0.46,-0.46,-0.56,-2.04,-2.04,-2.04
212,-1.59,0.46,-1.59,0.45,-0.45,-0.54,-2.04,-2.04,-2.04
214,-1.61,0.44,-1.60,0.45,-0.45,-0.52,-2.06,-2.05,-2.05
216,-1.62,0.44,-1.60,0.46,-0.46,-0.50,-2.08,-2.06,-2.06
218,-1.64,0.43,-1.59,0.47,-0.47,-0.48,-2.11,-2.06,-2.06
221,-1.58,0.50,-1.58,0.49,-0.49,-0.45,-2.07,-2.07,-2.07
223,-1.56,0.52,-1.57,0.51,-0.51,-0.43,-2.07,-2.08,-2.08
225,-1.54,0.55,-1.55,0.53,-0.53,-0.41,-2.07,-2.08,-2.08
227,-1.55,0.54,-1.54,0.55,-0.55,-0.38,-2.09,-2.09,-2.09
229,-1.55,0.55,-1.54,0.55,-0.55,-0.36,-2.10,-2.10,-2.09
232,-1.52,0.59,-1.55,0.55,-0.55,-0.32,-2.07,-2.10,-2.10
234,-1.53,0.58,-1.56,0.54,-0.54,-0.30,-2.07,-2.11,-2.11
236,-1.58,0.53,-1.59,0.53,-0.53,-0.27,-2.10,-2.11,-2.11
239,-1.64,0.48,-1.62,0.50,-0.50,-0.24,-2.14,-2.12,-2.12
241,-1.66,0.46,-1.66,0.47,-0.47,-0.21,-2.12,-2.12,-2.12
244,-1.77,0.36,-1.70,0.43,-0.43,-0.17,-2.19,-2.13,-2.13
246,-1.78,0.35,-1.75,0.38,-0.38,-0.15,-2.15,-2.13,-2.13
248,-1.80,0.34,-1.81,0.32,-0.32,-0.12,-2.12,-2.13,-2.13
251,-1.85,0.29,-1.89,0.25,-0.25,-0.08,-2.10,-2.14,-2.14
253,-1.91,0.24,-1.97,0.18,-0.18,-0.06,-2.08,-2.14,-2.14
256,-2.04,0.11,-2.06,0.09,-0.09,-0.02,-2.12,-2.15,-2.15
259,-2.14,0.01,-2.16,-0.01,0.01,0.02,-2.13,-2.15,-2.15
261,-2.23,-0.07,-2.25,-0.10,0.10,0.04,-2.12,-2.15,-2.15
264,-2.39,-0.23,-2.35,-0.19,0.19,0.08,-2.19,-2.16,-2.16
266,-2.51,-0.35,-2.44,-0.28,0.28,0.10,-2.23,-2.16,-2.16
269,-2.58,-0.41,-2.51,-0.35,0.35,0.14,-2.23,-2.16,-2.16
272,-2.60,-0.43,-2.57,-0.41,0.41,0.17,-2.19,-2.17,-2.17
274,-2.62,-0.45,-2.62,-0.45,0.45,0.20,-2.17,-2.17,-2.17
277,-2.64,-0.46,-2.65,-0.48,0.48,0.23,-2.16,-2.17,-2.17
280,-2.64,-0.46,-2.68,-0.50,0.50,0.27,-2.13,-2.18,-2.18
283,-2.70,-0.52,-2.70,-0.52,0.52,0.30,-2.18,-2.18,-2.18
286,-2.71,-0.53,-2.72,-0.54,0.54,0.34,-2.17,-2.18,-2.18
288,-2.74,-0.55,-2.74,-0.56,0.56,0.36,-2.18,-2.18,-2.18
291,-2.78,-0.59,-2.76,-0.58,0.58,0.39,-2.20,-2.19,-2.18
294,-2.79,-0.60,-2.79,-0.60,0.60,0.43,-2.18,-2.19,-2.19
297,-2.83,-0.64,-2.82,-0.63,0.63,0.46,-2.20,-2.19,-2.19
300,-2.86,-0.66,-2.85,-0.66,0.66,0.50,-2.19,-2.19,-2.19
303,-2.88,-0.68,-2.89,-0.70,0.70,0.53,-2.18,-2.19,-2.19
306,-2.93,-0.73,-2.93,-0.73,0.73,0.57,-2.19,-2.20,-2.20
309,-2.95,-0.75,-2.97,-0.77,0.77,0.60,-2.17,-2.20,-2.20
312,-3.03,-0.83,-3.02,-0.82,0.82,0.64,-2.21,-2.20,-2.20
316,-3.08,-0.87,-3.06,-0.86,0.86,0.68,-2.21,-2.20,-2.20
319,-3.13,-0.92,-3.11,-0.91,0.91,0.72,-2.22,-2.20,-2.20
322,-3.15,-0.94,-3.16,-0.96,0.96,0.76,-2.19,-2.20,-2.20
325,-3.22,-1.01,-3.21,-1.00,1.00,0.79,-2.21,-2.21,-2.21
328,-3.28,-1.07,-3.26,-1.05,1.05,0.83,-2.23,-2.21,-2.21
332,-3.30,-1.09,-3.30,-1.09,1.09,0.88,-2.20,-2.21,-2.21
335,-3.33,-1.12,-3.35,-1.14,1.14,0.91,-2.19,-2.21,-2.21
338,-3.42,-1.20,-3.40,-1.19,1.19,0.95,-2.23,-2.21,-2.21
342,-3.44,-1.22,-3.44,-1.23,1.23,1.00,-2.21,-2.21,-2.21
345,-3.48,-1.26,-3.49,-1.27,1.27,1.04,-2.20,-2.21,-2.21
349,-3.55,-1.33,-3.53,-1.32,1.32,1.09,-2.23,-2.22,-2.22
352,-3.58,-1.36,-3.58,-1.36,1.36,1.13,-2.22,-2.22,-2.22
356,-3.62,-1.40,-3.62,-1.40,1.40,1.18,-2.21,-2.22,-2.22
359,-3.67,-1.45,-3.66,-1.44,1.44,1.22,-2.22,-2.22,-2.22
363,-3.72,-1.50,-3.70,-1.48,1.48,1.28,-2.24,-2.22,-2.22
366,-3.73,-1.50,-3.74,-1.51,1.51,1.32,-2.21,-2.22,-2.22
370,-3.75,-1.52,-3.77,-1.55,1.55,1.37,-2.20,-2.22,-2.22
374,-3.82,-1.59,-3.80,-1.58,1.58,1.42,-2.24,-2.22,-2.22
377,-3.86,-1.63,-3.83,-1.61,1.61,1.46,-2.25,-2.23,-2.23
381,-3.88,-1.65,-3.86,-1.64,1.64,1.52,-2.24,-2.23,-2.23
385,-3.88,-1.65,-3.89,-1.66,1.66,1.57,-2.21,-2.23,-2.23
389,-3.88,-1.65,-3.92,-1.69,1.69,1.63,-2.18,-2.23,-2.23
393,-3.95,-1.71,-3.95,-1.72,1.72,1.68,-2.23,-2.23,-2.23
397,-4.02,-1.78,-3.98,-1.75,1.75,1.73,-2.27,-2.23,-2.23
401,-4.02,-1.78,-4.01,-1.77,1.77,1.78,-2.24,-2.23,-2.23
405,-4.03,-1.79,-4.03,-1.80,1.80,1.83,-2.23,-2.24,-2.24
409,-4.07,-1.83,-4.06,-1.82,1.82,1.88,-2.24,-2.24,-2.24
413,-4.09,-1.85,-4.08,-1.85,1.85,1.93,-2.24,-2.24,-2.24
417,-4.10,-1.86,-4.11,-1.87,1.87,1.98,-2.23,-2.24,-2.24
421,-4.13,-1.89,-4.13,-1.89,1.89,2.02,-2.23,-2.24,-2.24
425,-4.17,-1.93,-4.16,-1.92,1.92,2.07,-2.25,-2.24,-2.24
430,-4.17,-1.93,-4.18,-1.95,1.95,2.12,-2.22,-2.24,-2.24
434,-4.20,-1.96,-4.21,-1.98,1.98,2.16,-2.22,-2.23,-2.23
438,-4.23,-1.99,-4.24,-2.01,2.01,2.19,-2.22,-2.23,-2.23
443,-4.28,-2.05,-4.27,-2.04,2.04,2.23,-2.24,-2.23,-2.23
447,-4.32,-2.09,-4.29,-2.07,2.07,2.26,-2.25,-2.23,-2.23
451,-4.33,-2.10,-4.31,-2.09,2.09,2.29,-2.23,-2.22,-2.22
456,-4.32,-2.10,-4.33,-2.11,2.11,2.32,-2.20,-2.22,-2.22
460,-4.35,-2.14,-4.34,-2.13,2.13,2.34,-2.21,-2.21,-2.21
465,-4.38,-2.17,-4.35,-2.15,2.15,2.36,-2.23,-2.20,-2.20
470,-4.37,-2.17,-4.36,-2.16,2.16,2.38,-2.20,-2.20,-2.20
474,-4.35,-2.16,-4.36,-2.17,2.17,2.39,-2.17,-2.19,-2.19
479,-4.35,-2.17,-4.36,-2.18,2.18,2.40,-2.16,-2.18,-2.18
484,-4.36,-2.19,-4.36,-2.20,2.20,2.40,-2.16,-2.17,-2.17
489,-4.38,-2.22,-4.37,-2.21,2.21,2.40,-2.16,-2.15,-2.15
494,-4.37,-2.23,-4.37,-2.23,2.23,2.40,-2.14,-2.14,-2.14
499,-4.37,-2.24,-4.38,-2.25,2.25,2.39,-2.12,-2.13,-2.13
504,-4.37,-2.26,-4.38,-2.27,2.27,2.38,-2.09,-2.11,-2.11
509,-4.39,-2.29,-4.39,-2.29,2.29,2.37,-2.09,-2.09,-2.09
514,-4.41,-2.33,-4.39,-2.31,2.31,2.35,-2.09,-2.08,-2.08
519,-4.40,-2.34,-4.39,-2.33,2.33,2.33,-2.06,-2.06,-2.06
524,-4.41,-2.37,-4.39,-2.35,2.35,2.31,-2.06,-2.04,-2.04
529,-4.39,-2.37,-4.38,-2.36,2.36,2.29,-2.02,-2.02,-2.02
535,-4.37,-2.37,-4.37,-2.37,2.37,2.26,-2.00,-2.00,-2.00
540,-4.34,-2.36,-4.35,-2.37,2.37,2.23,-1.96,-1.97,-1.97
545,-4.32,-2.36,-4.33,-2.37,2.37,2.21,-1.94,-1.95,-1.95
551,-4.30,-2.37,-4.30,-2.37,2.37,2.17,-1.92,-1.93,-1.93
556,-4.28,-2.37,-4.27,-2.37,2.37,2.14,-1.91,-1.90,-1.90
562,-4.25,-2.37,-4.23,-2.36,2.36,2.11,-1.89,-1.88,-1.88
568,-4.21,-2.36,-4.19,-2.34,2.34,2.07,-1.86,-1.85,-1.85
573,-4.15,-2.32,-4.15,-2.33,2.33,2.05,-1.82,-1.82,-1.82
579,-4.09,-2.29,-4.10,-2.31,2.31,2.01,-1.78,-1.79,-1.79
585,-4.06,-2.29,-4.05,-2.29,2.29,1.98,-1.77,-1.77,-1.77
591,-4.03,-2.29,-4.00,-2.27,2.27,1.94,-1.76,-1.74,-1.74
596,-3.94,-2.23,-3.95,-2.25,2.25,1.92,-1.69,-1.71,-1.71
602,-3.89,-2.21,-3.90,-2.23,2.23,1.89,-1.66,-1.68,-1.68
608,-3.86,-2.21,-3.85,-2.21,2.21,1.86,-1.65,-1.64,-1.64
615,-3.79,-2.17,-3.80,-2.19,2.19,1.82,-1.60,-1.61,-1.61
621,-3.76,-2.18,-3.75,-2.17,2.17,1.79,-1.58,-1.58,-1.58
627,-3.73,-2.18,-3.71,-2.16,2.16,1.77,-1.57,-1.55,-1.55
633,-3.64,-2.12,-3.65,-2.14,2.14,1.74,-1.50,-1.51,-1.51
639,-3.60,-2.12,-3.60,-2.12,2.12,1.72,-1.47,-1.48,-1.48
646,-3.56,-2.11,-3.55,-2.10,2.10,1.69,-1.45,-1.45,-1.45
652,-3.50,-2.09,-3.49,-2.08,2.08,1.67,-1.42,-1.41,-1.41
659,-3.44,-2.06,-3.42,-2.05,2.05,1.64,-1.39,-1.37,-1.37
665,-3.35,-2.01,-3.35,-2.02,2.02,1.62,-1.33,-1.34,-1.34
672,-3.28,-1.97,-3.28,-1.98,1.98,1.60,-1.30,-1.30,-1.30
679,-3.20,-1.93,-3.20,-1.93,1.93,1.58,-1.26,-1.27,-1.27
686,-3.12,-1.89,-3.11,-1.88,1.88,1.56,-1.23,-1.23,-1.23
692,-3.04,-1.84,-3.02,-1.83,1.83,1.55,-1.21,-1.19,-1.19
699,-2.93,-1.77,-2.92,-1.77,1.77,1.53,-1.16,-1.15,-1.15
706,-2.83,-1.71,-2.82,-1.71,1.71,1.52,-1.12,-1.12,-1.12
713,-2.74,-1.66,-2.72,-1.64,1.64,1.50,-1.10,-1.08,-1.08
721,-2.62,-1.58,-2.62,-1.58,1.58,1.49,-1.04,-1.04,-1.04
728,-2.51,-1.50,-2.52,-1.52,1.52,1.48,-0.99,-1.00,-1.00
735,-2.47,-1.50,-2.43,-1.46,1.46,1.47,-1.00,-0.96,-0.96
742,-2.36,-1.43,-2.35,-1.43,1.43,1.46,-0.93,-0.93,-0.93
750,-2.28,-1.39,-2.29,-1.41,1.41,1.45,-0.87,-0.89,-0.89
757,-2.21,-1.36,-2.26,-1.41,1.41,1.44,-0.80,-0.85,-0.85
765,-2.20,-1.38,-2.24,-1.43,1.43,1.43,-0.77,-0.81,-0.81
773,-2.22,-1.44,-2.25,-1.48,1.48,1.42,-0.74,-0.78,-0.78
780,-2.24,-1.50,-2.28,-1.54,1.54,1.42,-0.69,-0.74,-0.74
788,-2.32,-1.61,-2.32,-1.62,1.62,1.41,-0.70,-0.71,-0.71
796,-2.41,-1.74,-2.37,-1.70,1.70,1.40,-0.70,-0.67,-0.67
804,-2.47,-1.83,-2.42,-1.78,1.78,1.40,-0.68,-0.64,-0.64
812,-2.52,-1.91,-2.46,-1.86,1.86,1.40,-0.66,-0.60,-0.60
820,-2.50,-1.93,-2.48,-1.92,1.92,1.39,-0.58,-0.57,-0.57
828,-2.50,-1.96,-2.49,-1.96,1.96,1.39,-0.54,-0.54,-0.54
837,-2.48,-1.97,-2.48,-1.98,1.98,1.39,-0.50,-0.50,-0.50
845,-2.45,-1.97,-2.46,-1.98,1.98,1.38,-0.46,-0.47,-0.47
853,-2.45,-2.00,-2.41,-1.97,1.97,1.38,-0.48,-0.44,-0.44
862,-2.34,-1.92,-2.35,-1.94,1.94,1.38,-0.39,-0.41,-0.41
871,-2.29,-1.90,-2.28,-1.90,1.90,1.38,-0.38,-0.38,-0.38
879,-2.19,-1.83,-2.20,-1.85,1.85,1.38,-0.34,-0.35,-0.35
888,-2.10,-1.77,-2.11,-1.79,1.79,1.37,-0.31,-0.32,-0.32
897,-2.01,-1.71,-2.01,-1.71,1.71,1.37,-0.29,-0.30,-0.30
906,-1.90,-1.63,-1.89,-1.63,1.63,1.37,-0.27,-0.27,-0.27
915,-1.75,-1.51,-1.76,-1.52,1.52,1.37,-0.22,-0.24,-0.24
924,-1.62,-1.40,-1.62,-1.40,1.40,1.37,-0.21,-0.21,-0.21
933,-1.46,-1.27,-1.44,-1.26,1.26,1.36,-0.20,-0.19,-0.19
943,-1.30,-1.14,-1.25,-1.09,1.09,1.36,-0.21,-0.16,-0.16
952,-1.13,-0.99,-1.03,-0.90,0.90,1.36,-0.23,-0.13,-0.13
962,-0.99,-0.88,-0.81,-0.71,0.71,1.35,-0.28,-0.11,-0.11
971,-0.75,-0.67,-0.60,-0.52,0.52,1.34,-0.22,-0.08,-0.08
981,-0.48,-0.42,-0.43,-0.38,0.38,1.34,-0.10,-0.05,-0.05
991,-0.22,-0.19,-0.32,-0.29,0.29,1.33,0.08,-0.03,-0.03
1001,0.02,0.02,-0.29,-0.29,0.29,1.32,0.32,0.00,0.00
1011,0.08,0.06,-0.36,-0.38,0.38,1.31,0.47,0.03,0.03
1021,-0.22,-0.27,-0.51,-0.56,0.56,1.30,0.35,0.05,0.05
1031,-0.68,-0.76,-0.73,-0.81,0.81,1.28,0.14,0.08,0.08
1041,-1.13,-1.24,-0.99,-1.10,1.10,1.27,-0.03,0.11,0.11
1052,-1.41,-1.54,-1.24,-1.37,1.37,1.25,-0.03,0.14,0.14
1062,-1.62,-1.78,-1.44,-1.61,1.61,1.23,-0.01,0.17,0.17
1073,-1.81,-2.00,-1.57,-1.76,1.76,1.20,-0.05,0.19,0.19
1084,-1.86,-2.08,-1.60,-1.82,1.82,1.17,-0.04,0.22,0.22
1094,-1.71,-1.96,-1.53,-1.78,1.78,1.14,0.07,0.25,0.25
1105,-1.39,-1.67,-1.37,-1.66,1.66,1.11,0.27,0.28,0.28
1116,-1.06,-1.37,-1.15,-1.47,1.47,1.07,0.41,0.31,0.31
1128,-0.81,-1.15,-0.90,-1.24,1.24,1.02,0.44,0.34,0.34
1139,-0.51,-0.88,-0.64,-1.01,1.01,0.98,0.51,0.37,0.37
1150,-0.27,-0.67,-0.39,-0.80,0.80,0.93,0.53,0.40,0.40
1162,-0.15,-0.58,-0.18,-0.62,0.62,0.87,0.47,0.44,0.44
1173,-0.01,-0.47,-0.00,-0.47,0.47,0.81,0.47,0.47,0.47
1185,0.16,-0.34,0.13,-0.37,0.37,0.74,0.53,0.50,0.50
1197,0.24,-0.29,0.23,-0.30,0.30,0.67,0.55,0.53,0.53
1209,0.29,-0.27,0.30,-0.27,0.27,0.59,0.56,0.56,0.56
1221,0.34,-0.25,0.34,-0.26,0.26,0.52,0.60,0.60,0.60
1233,0.36,-0.27,0.37,-0.26,0.26,0.44,0.63,0.63,0.63
1246,0.35,-0.31,0.38,-0.28,0.28,0.36,0.64,0.66,0.66
1258,0.34,-0.35,0.39,-0.31,0.31,0.29,0.65,0.70,0.70
1271,0.40,-0.33,0.40,-0.34,0.34,0.23,0.74,0.73,0.73
1283,0.47,-0.29,0.40,-0.37,0.37,0.17,0.84,0.77,0.77
1296,0.36,-0.44,0.41,-0.39,0.39,0.13,0.76,0.80,0.80
1309,0.37,-0.46,0.42,-0.42,0.42,0.11,0.79,0.84,0.84
1322,0.37,-0.50,0.43,-0.44,0.44,0.12,0.82,0.87,0.87
1335,0.40,-0.51,0.44,-0.46,0.46,0.15,0.87,0.91,0.91
1349,0.43,-0.51,0.45,-0.49,0.49,0.22,0.93,0.95,0.95
1362,0.44,-0.54,0.45,-0.54,0.54,0.33,0.98,0.98,0.98
1376,0.44,-0.58,0.42,-0.60,0.60,0.47,1.04,1.02,1.02
1390,0.41,-0.64,0.37,-0.69,0.69,0.66,1.11,1.06,1.06
1404,0.32,-0.77,0.27,-0.82,0.82,0.89,1.14,1.10,1.10
1418,0.18,-0.95,0.14,-0.99,0.99,1.14,1.18,1.13,1.13
1432,-0.02,-1.19,-0.03,-1.21,1.21,1.43,1.19,1.17,1.17
1446,-0.24,-1.45,-0.26,-1.47,1.47,1.73,1.23,1.21,1.21
1461,-0.51,-1.76,-0.52,-1.77,1.77,2.07,1.26,1.25,1.25
1475,-0.83,-2.12,-0.81,-2.11,2.11,2.40,1.28,1.29,1.29
1490,-1.15,-2.48,-1.14,-2.48,2.48,2.76,1.33,1.33,1.33
1505,-1.51,-2.88,-1.50,-2.87,2.87,3.12,1.36,1.37,1.37
1520,-1.86,-3.27,-1.87,-3.29,3.29,3.46,1.43,1.41,1.41
1535,-2.27,-3.72,-2.26,-3.71,3.71,3.80,1.45,1.46,1.46
1550,-2.64,-4.13,-2.65,-4.15,4.15,4.12,1.51,1.50,1.50
1566,-3.07,-4.61,-3.05,-4.59,4.59,4.45,1.52,1.54,1.54
1582,-3.48,-5.06,-3.44,-5.03,5.03,4.75,1.55,1.58,1.58
1597,-3.85,-5.47,-3.83,-5.46,5.36,5.00,1.52,1.53,1.63
1613,-4.23,-5.90,-4.21,-5.88,5.62,5.25,1.40,1.41,1.67
1629,-4.58,-6.29,-4.58,-6.29,5.79,5.46,1.22,1.21,1.71
1646,-4.96,-6.71,-4.94,-6.69,5.90,5.66,0.95,0.97,1.76
1662,-5.30,-7.10,-5.28,-7.08,5.97,5.81,0.67,0.69,1.80
1679,-5.63,-7.48,-5.61,-7.46,6.00,5.95,0.37,0.39,1.85
1696,-5.93,-7.82,-5.94,-7.83,6.00,6.05,0.07,0.06,1.90
1713,-6.26,-8.20,-6.25,-8.20,6.00,6.13,-0.26,-0.25,1.94
