frequency,raw,smoothed,error,error_smoothed,equalization,parametric_eq,fixed_band_eq,equalized_raw,equalized_smoothed,target
20.00,10.62,10.62,3.28,3.28,-3.29,-3.44,-1.60,7.33,7.33,7.34
20.20,10.64,10.64,3.30,3.30,-3.31,-3.45,-1.65,7.34,7.34,7.34
20.40,10.66,10.66,3.32,3.32,-3.32,-3.45,-1.69,7.34,7.34,7.34
20.61,10.68,10.68,3.34,3.34,-3.34,-3.46,-1.74,7.34,7.34,7.34
20.81,10.69,10.69,3.36,3.36,-3.35,-3.46,-1.79,7.34,7.34,7.34
21.02,10.71,10.71,3.38,3.37,-3.37,-3.47,-1.85,7.34,7.34,7.33
21.23,10.72,10.72,3.39,3.39,-3.39,-3.47,-1.90,7.33,7.33,7.33
21.44,10.73,10.73,3.40,3.40,-3.40,-3.48,-1.95,7.33,7.33,7.33
21.66,10.75,10.75,3.42,3.41,-3.42,-3.48,-2.01,7.33,7.33,7.33
21.87,10.76,10.76,3.43,3.43,-3.43,-3.49,-2.07,7.33,7.33,7.33
22.09,10.77,10.77,3.44,3.44,-3.44,-3.49,-2.13,7.33,7.33,7.33
22.31,10.79,10.79,3.46,3.46,-3.46,-3.50,-2.19,7.33,7.33,7.33
22.54,10.80,10.80,3.47,3.47,-3.47,-3.50,-2.25,7.33,7.33,7.33
22.76,10.82,10.82,3.49,3.49,-3.49,-3.51,-2.32,7.33,7.33,7.33
22.99,10.83,10.83,3.50,3.51,-3.51,-3.52,-2.38,7.33,7.33,7.33
23.22,10.85,10.85,3.52,3.52,-3.52,-3.52,-2.45,7.33,7.33,7.33
23.45,10.86,10.86,3.54,3.53,-3.54,-3.53,-2.52,7.33,7.32,7.32
23.69,10.87,10.87,3.55,3.55,-3.55,-3.54,-2.59,7.32,7.32,7.32
23.92,10.88,10.89,3.56,3.56,-3.56,-3.54,-2.66,7.32,7.32,7.32
24.16,10.90,10.90,3.58,3.58,-3.57,-3.55,-2.74,7.33,7.32,7.32
24.40,10.91,10.91,3.59,3.59,-3.58,-3.56,-2.81,7.33,7.32,7.32
24.65,10.91,10.92,3.59,3.60,-3.60,-3.57,-2.89,7.32,7.32,7.32
24.89,10.92,10.92,3.60,3.60,-3.61,-3.57,-2.96,7.31,7.32,7.32
25.14,10.93,10.93,3.61,3.61,-3.62,-3.58,-3.04,7.31,7.31,7.32
25.39,10.94,10.94,3.63,3.63,-3.63,-3.59,-3.12,7.31,7.31,7.31
25.65,10.95,10.95,3.64,3.64,-3.64,-3.60,-3.20,7.31,7.31,7.31
25.91,10.96,10.96,3.65,3.65,-3.65,-3.61,-3.27,7.31,7.31,7.31
26.16,10.97,10.97,3.66,3.66,-3.66,-3.62,-3.35,7.31,7.31,7.31
26.43,10.98,10.98,3.67,3.67,-3.67,-3.63,-3.43,7.31,7.31,7.31
26.69,10.98,10.98,3.67,3.68,-3.68,-3.63,-3.51,7.30,7.31,7.31
26.96,10.99,10.99,3.69,3.69,-3.69,-3.64,-3.58,7.30,7.30,7.31
27.23,11.00,11.00,3.70,3.69,-3.69,-3.65,-3.66,7.31,7.30,7.30
27.50,11.00,11.00,3.70,3.70,-3.70,-3.66,-3.73,7.30,7.30,7.30
27.77,11.01,11.01,3.71,3.71,-3.71,-3.67,-3.80,7.30,7.30,7.30
28.05,11.01,11.01,3.71,3.71,-3.72,-3.68,-3.87,7.29,7.30,7.30
28.33,11.02,11.02,3.73,3.72,-3.72,-3.69,-3.93,7.30,7.30,7.30
28.62,11.02,11.02,3.73,3.73,-3.73,-3.70,-3.99,7.29,7.29,7.29
28.90,11.03,11.03,3.74,3.74,-3.74,-3.71,-4.05,7.30,7.29,7.29
29.19,11.03,11.03,3.74,3.74,-3.74,-3.72,-4.10,7.29,7.29,7.29
29.48,11.03,11.03,3.74,3.75,-3.75,-3.73,-4.15,7.28,7.29,7.29
29.78,11.03,11.03,3.75,3.75,-3.75,-3.74,-4.20,7.28,7.28,7.28
30.08,11.04,11.04,3.76,3.76,-3.76,-3.74,-4.23,7.28,7.28,7.28
30.38,11.04,11.04,3.76,3.76,-3.76,-3.75,-4.27,7.28,7.28,7.28
30.68,11.04,11.04,3.76,3.77,-3.76,-3.76,-4.30,7.28,7.28,7.28
30.99,11.04,11.04,3.77,3.77,-3.77,-3.77,-4.32,7.27,7.27,7.27
31.30,11.04,11.04,3.77,3.77,-3.77,-3.77,-4.34,7.27,7.27,7.27
31.61,11.04,11.04,3.77,3.77,-3.77,-3.78,-4.35,7.27,7.27,7.27
31.93,11.04,11.04,3.78,3.77,-3.77,-3.78,-4.36,7.27,7.26,7.26
32.24,11.03,11.03,3.77,3.77,-3.78,-3.79,-4.36,7.26,7.26,7.26
32.57,11.03,11.03,3.77,3.78,-3.78,-3.79,-4.35,7.25,7.26,7.26
32.89,11.03,11.03,3.78,3.78,-3.78,-3.80,-4.35,7.25,7.25,7.25
33.22,11.03,11.03,3.78,3.78,-3.78,-3.80,-4.33,7.25,7.25,7.25
33.55,11.02,11.02,3.78,3.78,-3.78,-3.80,-4.31,7.24,7.25,7.25
33.89,11.02,11.02,3.78,3.78,-3.78,-3.80,-4.29,7.24,7.24,7.24
34.23,11.02,11.02,3.78,3.78,-3.78,-3.80,-4.26,7.24,7.24,7.24
34.57,11.01,11.01,3.78,3.78,-3.78,-3.80,-4.23,7.23,7.23,7.23
34.92,11.01,11.01,3.78,3.78,-3.78,-3.80,-4.20,7.23,7.23,7.23
35.27,11.00,11.00,3.78,3.78,-3.78,-3.80,-4.17,7.22,7.22,7.22
35.62,11.00,11.00,3.78,3.78,-3.78,-3.80,-4.13,7.22,7.22,7.22
35.97,10.99,10.99,3.78,3.78,-3.78,-3.80,-4.09,7.21,7.21,7.21
36.33,10.99,10.99,3.78,3.78,-3.78,-3.80,-4.05,7.21,7.21,7.21
36.70,10.98,10.98,3.78,3.78,-3.78,-3.79,-4.01,7.20,7.20,7.20
37.06,10.97,10.97,3.77,3.77,-3.77,-3.79,-3.97,7.20,7.20,7.20
37.43,10.96,10.96,3.77,3.77,-3.77,-3.79,-3.93,7.19,7.19,7.19
37.81,10.95,10.95,3.77,3.77,-3.77,-3.78,-3.89,7.18,7.18,7.18
38.19,10.95,10.95,3.77,3.77,-3.77,-3.78,-3.85,7.18,7.18,7.18
38.57,10.94,10.94,3.77,3.77,-3.77,-3.78,-3.81,7.17,7.17,7.17
38.95,10.93,10.93,3.77,3.77,-3.76,-3.77,-3.77,7.17,7.17,7.17
39.34,10.92,10.92,3.76,3.76,-3.76,-3.77,-3.73,7.16,7.16,7.16
39.74,10.91,10.91,3.76,3.76,-3.76,-3.76,-3.70,7.15,7.15,7.15
40.14,10.90,10.90,3.76,3.76,-3.76,-3.76,-3.66,7.14,7.14,7.14
40.54,10.89,10.89,3.76,3.76,-3.76,-3.76,-3.63,7.13,7.13,7.14
40.94,10.88,10.88,3.75,3.75,-3.75,-3.75,-3.60,7.13,7.13,7.13
41.35,10.87,10.87,3.75,3.75,-3.75,-3.75,-3.57,7.12,7.12,7.12
41.76,10.86,10.86,3.75,3.75,-3.75,-3.74,-3.54,7.11,7.11,7.11
42.18,10.84,10.84,3.74,3.74,-3.74,-3.74,-3.52,7.10,7.10,7.10
42.60,10.83,10.83,3.74,3.74,-3.74,-3.74,-3.50,7.09,7.09,7.09
43.03,10.82,10.82,3.74,3.74,-3.74,-3.73,-3.48,7.08,7.08,7.08
43.46,10.80,10.80,3.73,3.73,-3.73,-3.73,-3.47,7.07,7.07,7.07
43.90,10.79,10.79,3.73,3.73,-3.73,-3.73,-3.45,7.06,7.06,7.06
44.33,10.77,10.77,3.72,3.72,-3.72,-3.72,-3.44,7.05,7.05,7.05
44.78,10.76,10.76,3.72,3.72,-3.72,-3.72,-3.43,7.04,7.04,7.04
45.23,10.74,10.74,3.71,3.72,-3.72,-3.72,-3.43,7.03,7.03,7.03
45.68,10.73,10.73,3.72,3.71,-3.71,-3.71,-3.42,7.02,7.02,7.02
46.13,10.71,10.71,3.71,3.71,-3.71,-3.71,-3.42,7.00,7.00,7.00
46.60,10.69,10.69,3.70,3.70,-3.70,-3.71,-3.43,6.99,6.99,6.99
47.06,10.68,10.68,3.70,3.70,-3.70,-3.70,-3.43,6.98,6.98,6.98
47.53,10.66,10.66,3.70,3.70,-3.70,-3.70,-3.44,6.96,6.96,6.96
48.01,10.64,10.64,3.69,3.69,-3.69,-3.70,-3.45,6.95,6.95,6.95
48.49,10.62,10.62,3.69,3.69,-3.69,-3.69,-3.46,6.93,6.93,6.93
48.97,10.61,10.61,3.69,3.69,-3.69,-3.69,-3.47,6.92,6.92,6.92
49.46,10.59,10.59,3.69,3.69,-3.69,-3.69,-3.49,6.90,6.90,6.90
49.96,10.57,10.57,3.68,3.69,-3.68,-3.68,-3.51,6.89,6.89,6.89
50.46,10.55,10.55,3.68,3.68,-3.68,-3.68,-3.53,6.87,6.87,6.87
50.96,10.53,10.53,3.68,3.68,-3.68,-3.68,-3.55,6.85,6.85,6.85
51.47,10.51,10.51,3.68,3.67,-3.67,-3.67,-3.57,6.84,6.83,6.83
51.99,10.48,10.48,3.67,3.67,-3.67,-3.67,-3.59,6.81,6.81,6.82
52.51,10.46,10.46,3.66,3.67,-3.67,-3.67,-3.62,6.79,6.79,6.80
53.03,10.44,10.44,3.66,3.66,-3.67,-3.66,-3.64,6.77,6.77,6.78
53.56,10.42,10.42,3.67,3.67,-3.66,-3.66,-3.67,6.76,6.76,6.76
54.10,10.40,10.40,3.67,3.67,-3.66,-3.66,-3.70,6.74,6.74,6.73
54.64,10.38,10.38,3.67,3.67,-3.66,-3.66,-3.73,6.72,6.72,6.71
55.18,10.35,10.35,3.66,3.66,-3.66,-3.66,-3.75,6.69,6.69,6.69
55.74,10.33,10.33,3.66,3.66,-3.67,-3.65,-3.78,6.66,6.66,6.67
56.29,10.30,10.30,3.66,3.66,-3.67,-3.65,-3.81,6.63,6.63,6.64
56.86,10.27,10.28,3.65,3.66,-3.67,-3.65,-3.83,6.60,6.61,6.62
57.42,10.26,10.26,3.67,3.67,-3.67,-3.65,-3.86,6.59,6.60,6.59
58.00,10.25,10.25,3.69,3.68,-3.66,-3.65,-3.88,6.59,6.58,6.57
58.58,10.22,10.22,3.68,3.68,-3.66,-3.65,-3.90,6.56,6.55,6.54
59.16,10.18,10.17,3.67,3.66,-3.66,-3.65,-3.92,6.52,6.51,6.51
59.76,10.12,10.13,3.64,3.65,-3.66,-3.66,-3.94,6.46,6.47,6.48
60.35,10.09,10.10,3.64,3.65,-3.66,-3.66,-3.96,6.43,6.44,6.45
60.96,10.08,10.07,3.66,3.65,-3.66,-3.66,-3.97,6.42,6.41,6.42
61.57,10.06,10.06,3.67,3.67,-3.66,-3.67,-3.98,6.40,6.39,6.39
62.18,10.03,10.03,3.67,3.68,-3.67,-3.67,-3.99,6.36,6.37,6.36
62.80,10.00,10.00,3.68,3.68,-3.67,-3.68,-4.00,6.33,6.33,6.32
63.43,9.97,9.97,3.68,3.68,-3.68,-3.69,-4.00,6.29,6.29,6.29
64.07,9.94,9.94,3.69,3.69,-3.69,-3.70,-4.00,6.25,6.25,6.25
64.71,9.91,9.91,3.69,3.69,-3.70,-3.71,-4.00,6.22,6.22,6.22
65.35,9.88,9.88,3.70,3.70,-3.70,-3.72,-4.00,6.18,6.18,6.18
66.01,9.85,9.85,3.71,3.71,-3.71,-3.73,-4.00,6.14,6.14,6.14
66.67,9.82,9.82,3.72,3.72,-3.72,-3.74,-3.99,6.10,6.11,6.10
67.33,9.79,9.79,3.73,3.73,-3.73,-3.75,-3.98,6.07,6.06,6.06
68.01,9.76,9.76,3.74,3.73,-3.73,-3.76,-3.97,6.03,6.02,6.02
68.69,9.72,9.72,3.74,3.74,-3.74,-3.78,-3.96,5.98,5.98,5.98
69.37,9.69,9.69,3.75,3.75,-3.75,-3.79,-3.95,5.94,5.94,5.94
70.07,9.66,9.66,3.77,3.76,-3.76,-3.80,-3.94,5.90,5.89,5.89
70.77,9.62,9.62,3.77,3.77,-3.77,-3.82,-3.93,5.85,5.85,5.85
71.48,9.58,9.59,3.78,3.78,-3.78,-3.83,-3.92,5.80,5.80,5.80
72.19,9.55,9.55,3.80,3.79,-3.79,-3.85,-3.90,5.76,5.76,5.76
72.91,9.51,9.51,3.80,3.80,-3.80,-3.86,-3.89,5.71,5.71,5.71
73.64,9.47,9.47,3.81,3.81,-3.81,-3.88,-3.88,5.66,5.66,5.66
74.38,9.43,9.43,3.82,3.82,-3.82,-3.90,-3.87,5.61,5.61,5.61
75.12,9.39,9.39,3.83,3.83,-3.84,-3.91,-3.86,5.55,5.55,5.56
75.87,9.35,9.35,3.85,3.85,-3.85,-3.93,-3.85,5.50,5.50,5.50
76.63,9.31,9.31,3.86,3.86,-3.86,-3.94,-3.84,5.45,5.45,5.45
77.40,9.27,9.27,3.87,3.88,-3.87,-3.96,-3.84,5.40,5.40,5.40
78.17,9.23,9.23,3.89,3.89,-3.89,-3.97,-3.84,5.34,5.34,5.34
78.95,9.19,9.19,3.91,3.90,-3.90,-3.99,-3.83,5.29,5.29,5.28
79.74,9.14,9.14,3.91,3.92,-3.92,-4.00,-3.84,5.22,5.23,5.23
80.54,9.10,9.10,3.93,3.93,-3.93,-4.02,-3.84,5.17,5.17,5.17
81.35,9.05,9.05,3.94,3.94,-3.94,-4.03,-3.84,5.11,5.11,5.11
82.16,9.01,9.01,3.96,3.96,-3.96,-4.05,-3.85,5.05,5.05,5.05
82.98,8.96,8.96,3.97,3.97,-3.97,-4.06,-3.86,4.99,4.99,4.99
83.81,8.91,8.91,3.98,3.99,-3.99,-4.08,-3.88,4.92,4.93,4.93
84.65,8.86,8.86,4.00,4.00,-4.00,-4.09,-3.90,4.86,4.86,4.86
85.50,8.82,8.82,4.02,4.02,-4.02,-4.11,-3.92,4.80,4.80,4.80
86.35,8.77,8.77,4.03,4.03,-4.03,-4.12,-3.94,4.74,4.74,4.74
87.22,8.72,8.72,4.05,4.05,-4.05,-4.14,-3.96,4.67,4.67,4.67
88.09,8.67,8.67,4.07,4.07,-4.06,-4.15,-3.99,4.61,4.61,4.61
88.97,8.62,8.62,4.08,4.08,-4.08,-4.17,-4.03,4.54,4.54,4.54
89.86,8.57,8.57,4.10,4.10,-4.10,-4.18,-4.06,4.47,4.47,4.47
90.76,8.52,8.52,4.12,4.12,-4.12,-4.20,-4.10,4.40,4.40,4.40
91.66,8.48,8.48,4.15,4.14,-4.14,-4.22,-4.14,4.34,4.33,4.33
92.58,8.43,8.43,4.17,4.17,-4.17,-4.23,-4.18,4.26,4.26,4.27
93.51,8.39,8.39,4.20,4.20,-4.20,-4.25,-4.23,4.20,4.20,4.20
94.44,8.35,8.35,4.23,4.22,-4.22,-4.26,-4.28,4.13,4.13,4.13
95.39,8.31,8.31,4.26,4.26,-4.26,-4.28,-4.33,4.05,4.05,4.05
96.34,8.27,8.27,4.29,4.29,-4.29,-4.29,-4.39,3.98,3.98,3.98
97.30,8.23,8.23,4.32,4.32,-4.32,-4.31,-4.44,3.91,3.91,3.91
98.28,8.20,8.20,4.36,4.36,-4.36,-4.33,-4.50,3.84,3.84,3.84
99.26,8.16,8.16,4.39,4.40,-4.39,-4.34,-4.56,3.77,3.77,3.77
100.25,8.13,8.13,4.44,4.43,-4.43,-4.36,-4.63,3.70,3.70,3.70
101.25,8.09,8.09,4.47,4.47,-4.46,-4.38,-4.69,3.63,3.63,3.62
102.27,8.05,8.05,4.50,4.50,-4.50,-4.40,-4.76,3.55,3.55,3.55
103.29,8.01,8.01,4.53,4.53,-4.54,-4.42,-4.83,3.48,3.47,3.48
104.32,7.97,7.97,4.57,4.57,-4.57,-4.43,-4.89,3.40,3.40,3.40
105.37,7.93,7.93,4.60,4.60,-4.60,-4.45,-4.96,3.33,3.33,3.33
106.42,7.90,7.90,4.64,4.64,-4.64,-4.47,-5.03,3.26,3.26,3.26
107.48,7.86,7.86,4.68,4.68,-4.67,-4.49,-5.10,3.19,3.19,3.18
108.56,7.82,7.82,4.71,4.71,-4.71,-4.51,-5.17,3.11,3.11,3.11
109.64,7.78,7.78,4.74,4.74,-4.74,-4.53,-5.23,3.04,3.04,3.04
110.74,7.74,7.74,4.77,4.78,-4.78,-4.55,-5.30,2.96,2.96,2.97
111.85,7.71,7.71,4.82,4.82,-4.82,-4.58,-5.36,2.89,2.89,2.89
112.97,7.68,7.68,4.86,4.85,-4.86,-4.60,-5.42,2.83,2.82,2.82
114.10,7.64,7.64,4.89,4.89,-4.89,-4.62,-5.48,2.75,2.75,2.75
115.24,7.61,7.61,4.93,4.93,-4.93,-4.64,-5.53,2.68,2.68,2.68
116.39,7.58,7.58,4.97,4.97,-4.97,-4.66,-5.58,2.61,2.61,2.61
117.55,7.55,7.55,5.01,5.01,-5.01,-4.69,-5.62,2.54,2.54,2.54
118.73,7.52,7.52,5.05,5.05,-5.05,-4.71,-5.66,2.47,2.47,2.47
119.92,7.48,7.48,5.08,5.09,-5.09,-4.74,-5.69,2.39,2.39,2.40
121.12,7.45,7.45,5.12,5.13,-5.13,-4.76,-5.72,2.32,2.33,2.33
122.33,7.43,7.43,5.17,5.17,-5.17,-4.78,-5.74,2.26,2.26,2.26
123.55,7.40,7.40,5.21,5.21,-5.20,-4.81,-5.75,2.20,2.20,2.19
124.79,7.37,7.37,5.24,5.24,-5.24,-4.83,-5.76,2.13,2.13,2.13
126.03,7.33,7.34,5.27,5.27,-5.27,-4.86,-5.76,2.06,2.07,2.06
127.29,7.30,7.30,5.31,5.30,-5.30,-4.88,-5.75,2.00,2.00,2.00
128.57,7.26,7.26,5.33,5.33,-5.33,-4.91,-5.74,1.93,1.93,1.93
129.85,7.21,7.22,5.34,5.35,-5.35,-4.93,-5.72,1.86,1.87,1.87
131.15,7.17,7.17,5.37,5.37,-5.37,-4.96,-5.70,1.80,1.80,1.80
132.46,7.13,7.13,5.39,5.39,-5.39,-4.98,-5.67,1.74,1.74,1.74
133.79,7.08,7.08,5.40,5.40,-5.40,-5.01,-5.64,1.68,1.68,1.68
135.12,7.04,7.04,5.42,5.42,-5.42,-5.03,-5.60,1.62,1.62,1.62
136.48,6.99,6.99,5.43,5.43,-5.43,-5.06,-5.56,1.56,1.56,1.56
137.84,6.94,6.94,5.44,5.44,-5.44,-5.08,-5.51,1.50,1.50,1.50
139.22,6.89,6.89,5.45,5.45,-5.45,-5.11,-5.46,1.44,1.44,1.44
140.61,6.84,6.84,5.45,5.45,-5.45,-5.13,-5.40,1.39,1.39,1.39
142.02,6.79,6.79,5.46,5.46,-5.46,-5.15,-5.35,1.33,1.33,1.33
143.44,6.74,6.74,5.46,5.46,-5.46,-5.17,-5.29,1.28,1.28,1.28
144.87,6.68,6.68,5.46,5.46,-5.46,-5.20,-5.23,1.22,1.22,1.22
146.32,6.63,6.63,5.46,5.46,-5.46,-5.22,-5.17,1.17,1.17,1.17
147.78,6.57,6.57,5.45,5.45,-5.45,-5.24,-5.11,1.12,1.12,1.12
149.26,6.52,6.52,5.45,5.45,-5.45,-5.25,-5.05,1.07,1.07,1.07
150.75,6.46,6.46,5.44,5.44,-5.44,-5.27,-4.99,1.02,1.02,1.02
152.26,6.40,6.40,5.43,5.43,-5.43,-5.29,-4.93,0.97,0.97,0.97
153.78,6.35,6.35,5.43,5.42,-5.42,-5.30,-4.87,0.93,0.92,0.92
155.32,6.29,6.29,5.41,5.41,-5.41,-5.32,-4.81,0.88,0.88,0.88
156.88,6.23,6.23,5.40,5.40,-5.40,-5.33,-4.76,0.83,0.83,0.83
158.44,6.17,6.17,5.38,5.39,-5.39,-5.34,-4.71,0.78,0.78,0.79
160.03,6.12,6.12,5.38,5.38,-5.38,-5.35,-4.66,0.74,0.74,0.74
161.63,6.06,6.06,5.37,5.37,-5.36,-5.36,-4.61,0.70,0.70,0.69
163.24,6.00,6.00,5.35,5.35,-5.35,-5.37,-4.56,0.65,0.65,0.65
164.88,5.94,5.94,5.33,5.33,-5.33,-5.37,-4.52,0.61,0.61,0.61
166.53,5.88,5.88,5.31,5.31,-5.31,-5.37,-4.48,0.57,0.57,0.57
168.19,5.82,5.82,5.29,5.29,-5.29,-5.37,-4.45,0.53,0.53,0.53
169.87,5.77,5.77,5.28,5.27,-5.27,-5.37,-4.41,0.50,0.49,0.49
171.57,5.71,5.71,5.25,5.25,-5.25,-5.37,-4.38,0.46,0.46,0.46
173.29,5.65,5.65,5.23,5.23,-5.23,-5.36,-4.35,0.42,0.43,0.42
175.02,5.59,5.59,5.20,5.20,-5.20,-5.36,-4.33,0.39,0.39,0.39
176.77,5.53,5.53,5.18,5.17,-5.18,-5.35,-4.31,0.35,0.35,0.35
178.54,5.47,5.47,5.15,5.15,-5.15,-5.33,-4.29,0.32,0.32,0.32
180.32,5.41,5.41,5.12,5.12,-5.12,-5.32,-4.28,0.29,0.29,0.29
182.13,5.36,5.36,5.10,5.10,-5.10,-5.31,-4.27,0.26,0.26,0.26
183.95,5.30,5.30,5.07,5.07,-5.07,-5.29,-4.26,0.23,0.23,0.23
185.79,5.24,5.24,5.04,5.04,-5.04,-5.27,-4.26,0.20,0.20,0.20
187.65,5.18,5.18,5.01,5.01,-5.01,-5.25,-4.26,0.17,0.17,0.17
189.52,5.12,5.12,4.98,4.98,-4.98,-5.22,-4.26,0.14,0.14,0.14
191.42,5.06,5.06,4.94,4.95,-4.95,-5.20,-4.26,0.11,0.12,0.12
193.33,5.01,5.01,4.92,4.92,-4.91,-5.17,-4.27,0.10,0.09,0.09
195.27,4.95,4.95,4.88,4.88,-4.88,-5.14,-4.28,0.07,0.07,0.07
197.22,4.89,4.89,4.85,4.85,-4.85,-5.11,-4.30,0.04,0.04,0.04
199.19,4.83,4.83,4.81,4.81,-4.81,-5.07,-4.31,0.02,0.02,0.02
201.18,4.77,4.77,4.77,4.78,-4.78,-5.04,-4.33,-0.01,-0.00,-0.00
203.19,4.72,4.72,4.75,4.74,-4.74,-5.00,-4.35,-0.02,-0.03,-0.03
205.23,4.66,4.66,4.71,4.71,-4.71,-4.96,-4.37,-0.04,-0.05,-0.05
207.28,4.60,4.60,4.67,4.67,-4.67,-4.92,-4.39,-0.07,-0.07,-0.07
209.35,4.54,4.54,4.63,4.63,-4.63,-4.88,-4.41,-0.09,-0.09,-0.09
211.44,4.48,4.48,4.59,4.59,-4.59,-4.84,-4.43,-0.11,-0.11,-0.11
213.56,4.42,4.42,4.55,4.55,-4.55,-4.79,-4.46,-0.13,-0.13,-0.13
215.69,4.36,4.36,4.51,4.51,-4.51,-4.75,-4.48,-0.15,-0.15,-0.14
217.85,4.31,4.31,4.47,4.47,-4.47,-4.70,-4.50,-0.16,-0.16,-0.16
220.03,4.25,4.25,4.43,4.43,-4.43,-4.65,-4.52,-0.18,-0.18,-0.18
222.23,4.19,4.19,4.39,4.39,-4.39,-4.60,-4.54,-0.19,-0.19,-0.20
224.45,4.13,4.13,4.34,4.35,-4.35,-4.55,-4.56,-0.22,-0.21,-0.21
226.70,4.08,4.08,4.31,4.30,-4.31,-4.50,-4.58,-0.23,-0.23,-0.23
228.96,4.02,4.02,4.26,4.26,-4.27,-4.44,-4.59,-0.25,-0.25,-0.24
231.25,3.97,3.97,4.23,4.23,-4.23,-4.39,-4.60,-0.26,-0.26,-0.26
233.57,3.92,3.92,4.19,4.19,-4.20,-4.34,-4.61,-0.28,-0.28,-0.27
235.90,3.87,3.87,4.17,4.17,-4.16,-4.28,-4.61,-0.29,-0.29,-0.29
238.26,3.83,3.83,4.14,4.13,-4.13,-4.23,-4.61,-0.30,-0.30,-0.31
240.64,3.78,3.78,4.10,4.10,-4.09,-4.17,-4.61,-0.31,-0.32,-0.32
243.05,3.72,3.73,4.05,4.06,-4.06,-4.11,-4.60,-0.34,-0.33,-0.33
245.48,3.67,3.67,4.01,4.02,-4.02,-4.06,-4.58,-0.35,-0.35,-0.34
247.93,3.63,3.63,3.99,3.98,-3.98,-4.00,-4.56,-0.35,-0.36,-0.36
250.41,3.58,3.58,3.95,3.95,-3.95,-3.94,-4.54,-0.37,-0.37,-0.37
252.92,3.53,3.53,3.91,3.91,-3.91,-3.89,-4.51,-0.38,-0.37,-0.38
255.45,3.48,3.48,3.87,3.87,-3.87,-3.83,-4.47,-0.39,-0.39,-0.39
258.00,3.43,3.43,3.83,3.83,-3.83,-3.77,-4.43,-0.40,-0.40,-0.40
260.58,3.38,3.38,3.79,3.79,-3.79,-3.71,-4.38,-0.41,-0.41,-0.41
263.19,3.33,3.33,3.75,3.75,-3.75,-3.66,-4.33,-0.42,-0.42,-0.42
265.82,3.28,3.28,3.71,3.71,-3.71,-3.60,-4.27,-0.43,-0.43,-0.42
268.48,3.23,3.23,3.66,3.66,-3.66,-3.54,-4.21,-0.43,-0.43,-0.43
271.16,3.18,3.18,3.62,3.62,-3.62,-3.48,-4.15,-0.44,-0.44,-0.44
273.87,3.13,3.13,3.58,3.58,-3.58,-3.43,-4.08,-0.45,-0.45,-0.45
276.61,3.07,3.07,3.53,3.53,-3.53,-3.37,-4.01,-0.46,-0.46,-0.46
279.38,3.02,3.02,3.48,3.49,-3.48,-3.31,-3.94,-0.46,-0.46,-0.46
282.17,2.97,2.97,3.44,3.44,-3.44,-3.26,-3.86,-0.47,-0.47,-0.47
284.99,2.92,2.92,3.39,3.39,-3.39,-3.20,-3.78,-0.47,-0.47,-0.47
287.84,2.87,2.87,3.34,3.34,-3.34,-3.15,-3.70,-0.47,-0.47,-0.46
290.72,2.81,2.81,3.28,3.29,-3.28,-3.09,-3.61,-0.47,-0.47,-0.47
293.63,2.76,2.76,3.24,3.23,-3.23,-3.04,-3.53,-0.47,-0.47,-0.48
296.57,2.71,2.71,3.18,3.18,-3.18,-2.98,-3.44,-0.47,-0.47,-0.47
299.53,2.65,2.65,3.12,3.13,-3.13,-2.93,-3.36,-0.48,-0.47,-0.47
302.53,2.60,2.60,3.08,3.07,-3.08,-2.87,-3.27,-0.47,-0.47,-0.47
305.55,2.55,2.55,3.02,3.02,-3.03,-2.82,-3.18,-0.47,-0.48,-0.47
308.61,2.50,2.50,2.98,2.97,-2.97,-2.77,-3.10,-0.47,-0.48,-0.47
311.69,2.45,2.45,2.92,2.92,-2.92,-2.72,-3.01,-0.47,-0.47,-0.47
314.81,2.40,2.40,2.88,2.88,-2.88,-2.66,-2.93,-0.47,-0.47,-0.47
317.96,2.36,2.36,2.83,2.83,-2.83,-2.61,-2.84,-0.47,-0.47,-0.47
321.14,2.31,2.31,2.78,2.78,-2.78,-2.56,-2.76,-0.47,-0.47,-0.47
324.35,2.26,2.26,2.73,2.73,-2.73,-2.51,-2.67,-0.47,-0.47,-0.47
327.59,2.21,2.21,2.67,2.68,-2.68,-2.46,-2.59,-0.47,-0.47,-0.46
330.87,2.16,2.16,2.63,2.62,-2.63,-2.41,-2.51,-0.47,-0.47,-0.47
334.18,2.11,2.11,2.57,2.58,-2.58,-2.37,-2.43,-0.47,-0.46,-0.46
337.52,2.07,2.07,2.53,2.53,-2.53,-2.32,-2.36,-0.46,-0.46,-0.46
340.90,2.02,2.02,2.48,2.47,-2.47,-2.27,-2.28,-0.45,-0.45,-0.46
344.30,1.97,1.97,2.42,2.43,-2.42,-2.22,-2.21,-0.45,-0.45,-0.45
347.75,1.92,1.92,2.36,2.37,-2.37,-2.18,-2.13,-0.45,-0.45,-0.44
351.23,1.88,1.88,2.33,2.32,-2.32,-2.13,-2.06,-0.44,-0.44,-0.45
354.74,1.83,1.83,2.26,2.27,-2.27,-2.09,-1.99,-0.43,-0.44,-0.43
358.28,1.78,1.78,2.21,2.21,-2.21,-2.04,-1.92,-0.43,-0.43,-0.43
361.87,1.73,1.73,2.16,2.16,-2.16,-2.00,-1.85,-0.43,-0.43,-0.43
365.49,1.69,1.69,2.11,2.11,-2.11,-1.95,-1.79,-0.42,-0.42,-0.42
369.14,1.64,1.64,2.06,2.06,-2.06,-1.91,-1.72,-0.42,-0.42,-0.42
372.83,1.59,1.59,1.99,2.00,-2.01,-1.87,-1.66,-0.41,-0.41,-0.40
376.56,1.55,1.55,1.96,1.95,-1.95,-1.82,-1.60,-0.40,-0.41,-0.41
380.33,1.50,1.50,1.90,1.90,-1.90,-1.78,-1.54,-0.40,-0.40,-0.40
384.13,1.46,1.46,1.86,1.86,-1.85,-1.74,-1.48,-0.39,-0.39,-0.40
387.97,1.41,1.41,1.80,1.80,-1.80,-1.70,-1.42,-0.39,-0.39,-0.39
391.85,1.37,1.37,1.75,1.75,-1.75,-1.66,-1.37,-0.38,-0.38,-0.38
395.77,1.32,1.32,1.70,1.70,-1.70,-1.62,-1.31,-0.38,-0.38,-0.38
399.73,1.28,1.28,1.65,1.65,-1.65,-1.58,-1.26,-0.37,-0.37,-0.37
403.72,1.24,1.24,1.60,1.60,-1.60,-1.54,-1.21,-0.36,-0.37,-0.36
407.76,1.19,1.19,1.55,1.55,-1.55,-1.50,-1.16,-0.36,-0.36,-0.36
411.84,1.15,1.15,1.51,1.51,-1.51,-1.46,-1.11,-0.35,-0.35,-0.35
415.96,1.11,1.11,1.46,1.46,-1.46,-1.42,-1.06,-0.35,-0.35,-0.35
420.12,1.07,1.07,1.42,1.42,-1.41,-1.38,-1.01,-0.34,-0.34,-0.35
424.32,1.03,1.03,1.37,1.37,-1.37,-1.35,-0.97,-0.34,-0.34,-0.34
428.56,0.98,0.98,1.31,1.32,-1.32,-1.31,-0.92,-0.34,-0.34,-0.33
432.85,0.94,0.94,1.26,1.27,-1.27,-1.27,-0.88,-0.33,-0.33,-0.32
437.18,0.90,0.90,1.22,1.23,-1.22,-1.23,-0.84,-0.32,-0.32,-0.32
441.55,0.87,0.87,1.19,1.18,-1.17,-1.20,-0.79,-0.30,-0.31,-0.32
445.96,0.83,0.83,1.14,1.13,-1.13,-1.16,-0.75,-0.30,-0.30,-0.31
450.42,0.78,0.79,1.07,1.08,-1.08,-1.12,-0.72,-0.30,-0.29,-0.29
454.93,0.74,0.74,1.02,1.02,-1.03,-1.09,-0.68,-0.29,-0.29,-0.28
459.48,0.71,0.71,0.98,0.98,-0.98,-1.05,-0.64,-0.27,-0.28,-0.27
464.07,0.67,0.67,0.94,0.94,-0.94,-1.01,-0.61,-0.27,-0.27,-0.27
468.71,0.63,0.63,0.89,0.89,-0.89,-0.98,-0.57,-0.26,-0.26,-0.26
473.40,0.59,0.59,0.84,0.85,-0.85,-0.94,-0.54,-0.26,-0.25,-0.25
478.13,0.56,0.56,0.81,0.80,-0.80,-0.91,-0.51,-0.24,-0.25,-0.24
482.91,0.52,0.52,0.76,0.76,-0.76,-0.87,-0.48,-0.24,-0.24,-0.24
487.74,0.48,0.49,0.71,0.71,-0.71,-0.84,-0.45,-0.23,-0.23,-0.23
492.62,0.45,0.45,0.67,0.67,-0.67,-0.80,-0.42,-0.22,-0.22,-0.22
497.55,0.42,0.42,0.63,0.63,-0.62,-0.76,-0.39,-0.20,-0.20,-0.21
502.52,0.38,0.38,0.58,0.58,-0.58,-0.73,-0.36,-0.20,-0.19,-0.20
