frequency,raw,error,smoothed,error_smoothed,equalization,parametric_eq,fixed_band_eq,equalized_raw,equalized_smoothed,target
20.00,-10.66,-11.68,-10.72,-11.75,6.00,5.57,2.69,-4.66,-4.72,1.02
20.20,-10.61,-11.67,-10.64,-11.71,6.00,5.60,2.77,-4.61,-4.64,1.06
20.40,-10.57,-11.66,-10.57,-11.66,6.00,5.63,2.85,-4.57,-4.57,1.09
20.61,-10.52,-11.64,-10.49,-11.61,6.00,5.66,2.93,-4.52,-4.49,1.12
20.81,-10.47,-11.63,-10.42,-11.56,6.00,5.68,3.01,-4.47,-4.42,1.16
21.02,-10.42,-11.61,-10.35,-11.52,6.00,5.71,3.10,-4.42,-4.35,1.20
21.23,-10.32,-11.52,-10.28,-11.47,6.00,5.74,3.19,-4.32,-4.28,1.21
21.44,-10.23,-11.45,-10.21,-11.42,6.00,5.76,3.28,-4.23,-4.21,1.23
21.66,-10.13,-11.38,-10.14,-11.37,6.00,5.79,3.37,-4.13,-4.14,1.24
21.87,-10.04,-11.29,-10.07,-11.32,6.00,5.81,3.47,-4.04,-4.07,1.25
22.09,-9.96,-11.23,-10.01,-11.27,6.00,5.83,3.57,-3.96,-4.01,1.27
22.31,-9.91,-11.18,-9.94,-11.22,6.00,5.86,3.67,-3.91,-3.94,1.27
22.54,-9.86,-11.14,-9.87,-11.16,6.00,5.88,3.78,-3.86,-3.87,1.28
22.76,-9.80,-11.09,-9.81,-11.11,6.00,5.90,3.88,-3.80,-3.81,1.29
22.99,-9.75,-11.04,-9.75,-11.05,6.00,5.92,3.99,-3.75,-3.75,1.29
23.22,-9.70,-11.00,-9.69,-11.00,6.00,5.94,4.11,-3.70,-3.69,1.30
23.45,-9.64,-10.95,-9.63,-10.95,6.00,5.96,4.22,-3.64,-3.63,1.31
23.69,-9.59,-10.91,-9.58,-10.90,6.00,5.98,4.34,-3.59,-3.58,1.32
23.92,-9.54,-10.87,-9.52,-10.85,6.00,6.00,4.46,-3.54,-3.52,1.33
24.16,-9.48,-10.82,-9.47,-10.80,6.00,6.02,4.58,-3.48,-3.47,1.34
24.40,-9.43,-10.78,-9.42,-10.75,6.00,6.03,4.71,-3.43,-3.42,1.35
24.65,-9.37,-10.71,-9.36,-10.70,6.00,6.05,4.83,-3.37,-3.36,1.34
24.89,-9.31,-10.65,-9.30,-10.64,6.00,6.07,4.96,-3.31,-3.30,1.34
25.14,-9.26,-10.60,-9.25,-10.59,6.00,6.08,5.09,-3.26,-3.25,1.34
25.39,-9.20,-10.54,-9.20,-10.54,6.00,6.10,5.22,-3.20,-3.20,1.34
25.65,-9.14,-10.48,-9.15,-10.49,6.00,6.11,5.35,-3.14,-3.15,1.34
25.91,-9.08,-10.41,-9.10,-10.44,6.00,6.12,5.49,-3.08,-3.10,1.33
26.16,-9.03,-10.37,-9.06,-10.40,6.00,6.14,5.62,-3.03,-3.06,1.34
26.43,-8.99,-10.33,-9.02,-10.35,6.00,6.15,5.75,-2.99,-3.02,1.34
26.69,-8.95,-10.29,-8.98,-10.31,6.00,6.16,5.88,-2.95,-2.98,1.34
26.96,-8.91,-10.24,-8.94,-10.27,6.00,6.17,6.01,-2.91,-2.94,1.34
27.23,-8.89,-10.22,-8.90,-10.23,6.00,6.18,6.14,-2.89,-2.90,1.33
27.50,-8.87,-10.20,-8.86,-10.19,6.00,6.19,6.27,-2.87,-2.86,1.33
27.77,-8.85,-10.17,-8.82,-10.14,6.00,6.19,6.39,-2.85,-2.82,1.32
28.05,-8.83,-10.15,-8.77,-10.09,6.00,6.20,6.51,-2.83,-2.77,1.32
28.33,-8.76,-10.07,-8.72,-10.04,6.00,6.21,6.62,-2.76,-2.72,1.31
28.62,-8.70,-10.02,-8.66,-9.98,6.00,6.21,6.73,-2.70,-2.66,1.32
28.90,-8.63,-9.95,-8.61,-9.93,6.00,6.22,6.83,-2.63,-2.61,1.32
29.19,-8.57,-9.88,-8.55,-9.87,6.00,6.22,6.92,-2.57,-2.55,1.31
29.48,-8.50,-9.82,-8.50,-9.81,6.00,6.23,7.01,-2.50,-2.50,1.32
29.78,-8.43,-9.75,-8.45,-9.76,6.00,6.23,7.09,-2.43,-2.45,1.32
30.08,-8.36,-9.68,-8.39,-9.70,6.00,6.23,7.16,-2.36,-2.39,1.32
30.38,-8.29,-9.60,-8.34,-9.64,6.00,6.23,7.22,-2.29,-2.34,1.30
30.68,-8.22,-9.52,-8.28,-9.58,6.00,6.24,7.27,-2.22,-2.28,1.30
30.99,-8.15,-9.44,-8.22,-9.52,6.00,6.24,7.31,-2.15,-2.22,1.29
31.30,-8.15,-9.44,-8.16,-9.46,6.00,6.23,7.34,-2.15,-2.16,1.29
31.61,-8.15,-9.44,-8.11,-9.40,6.00,6.23,7.35,-2.15,-2.11,1.29
31.93,-8.15,-9.43,-8.07,-9.35,6.00,6.23,7.36,-2.15,-2.07,1.28
32.24,-8.09,-9.36,-8.02,-9.30,6.00,6.23,7.36,-2.09,-2.02,1.27
32.57,-8.02,-9.29,-7.98,-9.25,6.00,6.23,7.35,-2.02,-1.98,1.27
32.89,-7.94,-9.20,-7.93,-9.20,6.00,6.22,7.33,-1.94,-1.93,1.26
33.22,-7.87,-9.13,-7.88,-9.14,6.00,6.22,7.31,-1.87,-1.88,1.26
33.55,-7.80,-9.06,-7.84,-9.10,6.00,6.21,7.27,-1.80,-1.84,1.26
33.89,-7.72,-8.98,-7.79,-9.05,6.00,6.21,7.23,-1.72,-1.79,1.26
34.23,-7.70,-8.96,-7.75,-9.00,6.00,6.20,7.18,-1.70,-1.75,1.26
34.57,-7.70,-8.95,-7.70,-8.95,6.00,6.19,7.12,-1.70,-1.70,1.25
34.92,-7.70,-8.94,-7.65,-8.89,6.00,6.19,7.06,-1.70,-1.65,1.24
35.27,-7.64,-8.88,-7.60,-8.84,6.00,6.18,7.00,-1.64,-1.60,1.24
35.62,-7.56,-8.79,-7.55,-8.79,6.00,6.17,6.93,-1.56,-1.55,1.23
35.97,-7.48,-8.71,-7.51,-8.74,6.00,6.16,6.86,-1.48,-1.51,1.23
36.33,-7.47,-8.70,-7.47,-8.70,6.00,6.15,6.79,-1.47,-1.47,1.23
36.70,-7.47,-8.69,-7.44,-8.66,6.00,6.14,6.72,-1.47,-1.44,1.22
37.06,-7.46,-8.67,-7.41,-8.62,6.00,6.13,6.65,-1.46,-1.41,1.21
37.43,-7.37,-8.58,-7.38,-8.58,6.00,6.12,6.58,-1.37,-1.38,1.21
37.81,-7.28,-8.49,-7.34,-8.54,6.00,6.11,6.51,-1.28,-1.34,1.21
38.19,-7.24,-8.43,-7.30,-8.50,6.00,6.10,6.44,-1.24,-1.30,1.19
38.57,-7.24,-8.43,-7.27,-8.46,6.00,6.08,6.37,-1.24,-1.27,1.19
38.95,-7.24,-8.43,-7.23,-8.42,6.00,6.07,6.30,-1.24,-1.23,1.19
39.34,-7.23,-8.40,-7.20,-8.38,6.00,6.06,6.24,-1.23,-1.20,1.18
39.74,-7.22,-8.38,-7.16,-8.34,6.00,6.04,6.18,-1.22,-1.16,1.16
40.14,-7.18,-8.35,-7.12,-8.30,6.00,6.03,6.12,-1.18,-1.12,1.17
40.54,-7.10,-8.27,-7.08,-8.25,6.00,6.01,6.07,-1.10,-1.08,1.17
40.94,-7.02,-8.18,-7.05,-8.20,6.00,6.00,6.02,-1.02,-1.05,1.16
41.35,-7.01,-8.16,-7.02,-8.16,6.00,5.99,5.97,-1.01,-1.02,1.15
41.76,-7.01,-8.14,-6.98,-8.11,6.00,5.97,5.93,-1.01,-0.98,1.13
42.18,-6.97,-8.09,-6.95,-8.05,6.00,5.95,5.89,-0.97,-0.95,1.12
42.60,-6.87,-7.97,-6.90,-7.99,6.00,5.94,5.85,-0.87,-0.90,1.10
43.03,-6.78,-7.86,-6.86,-7.92,6.00,5.92,5.82,-0.78,-0.86,1.08
43.46,-6.78,-7.84,-6.82,-7.86,6.00,5.91,5.80,-0.78,-0.82,1.06
43.90,-6.78,-7.79,-6.79,-7.80,6.00,5.89,5.78,-0.78,-0.79,1.01
44.33,-6.78,-7.77,-6.75,-7.74,6.00,5.87,5.76,-0.78,-0.75,0.99
44.78,-6.78,-7.73,-6.71,-7.68,6.00,5.86,5.75,-0.78,-0.71,0.95
45.23,-6.73,-7.66,-6.68,-7.62,6.00,5.84,5.74,-0.73,-0.68,0.93
45.68,-6.63,-7.53,-6.64,-7.56,6.00,5.83,5.74,-0.63,-0.64,0.90
46.13,-6.56,-7.45,-6.60,-7.51,6.00,5.81,5.74,-0.56,-0.60,0.89
46.60,-6.56,-7.44,-6.57,-7.46,6.00,5.79,5.74,-0.56,-0.57,0.88
47.06,-6.56,-7.43,-6.54,-7.42,6.00,5.78,5.75,-0.56,-0.54,0.87
47.53,-6.53,-7.39,-6.51,-7.38,6.00,5.76,5.76,-0.53,-0.51,0.86
48.01,-6.51,-7.37,-6.48,-7.34,6.00,5.74,5.78,-0.51,-0.48,0.86
48.49,-6.42,-7.28,-6.44,-7.30,6.00,5.73,5.80,-0.42,-0.44,0.86
48.97,-6.33,-7.18,-6.40,-7.26,6.00,5.71,5.82,-0.33,-0.40,0.85
49.46,-6.33,-7.17,-6.36,-7.22,6.00,5.70,5.85,-0.33,-0.36,0.84
49.96,-6.33,-7.18,-6.33,-7.19,6.00,5.68,5.88,-0.33,-0.33,0.85
50.46,-6.33,-7.19,-6.30,-7.16,6.00,5.67,5.91,-0.33,-0.30,0.86
50.96,-6.33,-7.20,-6.28,-7.13,6.00,5.65,5.94,-0.33,-0.28,0.87
51.47,-6.28,-7.14,-6.25,-7.10,6.00,5.64,5.98,-0.28,-0.25,0.86
51.99,-6.23,-7.08,-6.22,-7.06,6.00,5.63,6.02,-0.23,-0.22,0.85
52.51,-6.16,-7.01,-6.19,-7.02,6.00,5.61,6.06,-0.16,-0.19,0.85
53.03,-6.10,-6.93,-6.16,-6.96,6.00,5.60,6.10,-0.10,-0.16,0.83
53.56,-6.10,-6.90,-6.13,-6.91,6.00,5.59,6.14,-0.10,-0.13,0.80
54.10,-6.10,-6.86,-6.10,-6.85,6.00,5.58,6.18,-0.10,-0.10,0.76
54.64,-6.10,-6.82,-6.07,-6.79,6.00,5.57,6.22,-0.10,-0.07,0.72
55.18,-6.10,-6.78,-6.04,-6.72,6.00,5.56,6.26,-0.10,-0.04,0.68
55.74,-6.10,-6.73,-6.01,-6.64,6.00,5.55,6.30,-0.10,-0.01,0.63
56.29,-6.03,-6.61,-5.99,-6.57,6.00,5.54,6.33,-0.03,0.01,0.58
56.86,-5.90,-6.43,-5.97,-6.50,6.00,5.53,6.37,0.10,0.03,0.53
57.42,-5.87,-6.34,-5.95,-6.43,6.00,5.52,6.40,0.13,0.05,0.47
58.00,-5.87,-6.29,-5.93,-6.36,6.00,5.52,6.42,0.13,0.07,0.42
58.58,-5.87,-6.24,-5.91,-6.28,6.00,5.51,6.44,0.13,0.09,0.37
59.16,-5.87,-6.19,-5.88,-6.20,5.99,5.51,6.46,0.12,0.11,0.32
59.76,-5.87,-6.14,-5.85,-6.11,5.97,5.51,6.47,0.11,0.12,0.27
60.35,-5.87,-6.07,-5.83,-6.03,5.95,5.50,6.47,0.08,0.12,0.20
60.96,-5.87,-6.03,-5.80,-5.96,5.91,5.50,6.47,0.04,0.11,0.16
61.57,-5.87,-5.97,-5.79,-5.89,5.87,5.50,6.46,-0.00,0.08,0.10
62.18,-5.83,-5.87,-5.77,-5.82,5.82,5.50,6.45,-0.01,0.05,0.04
62.80,-5.69,-5.69,-5.75,-5.76,5.76,5.51,6.42,0.07,0.01,0.00
63.43,-5.65,-5.61,-5.74,-5.70,5.70,5.51,6.40,0.05,-0.04,-0.04
64.07,-5.65,-5.57,-5.71,-5.63,5.63,5.51,6.36,-0.02,-0.08,-0.08
64.71,-5.65,-5.53,-5.67,-5.56,5.56,5.52,6.32,-0.09,-0.11,-0.12
65.35,-5.65,-5.49,-5.64,-5.49,5.49,5.52,6.27,-0.16,-0.15,-0.15
66.01,-5.65,-5.47,-5.61,-5.43,5.43,5.53,6.22,-0.22,-0.18,-0.18
66.67,-5.65,-5.44,-5.58,-5.37,5.37,5.54,6.16,-0.28,-0.21,-0.21
67.33,-5.62,-5.39,-5.55,-5.32,5.32,5.55,6.09,-0.30,-0.23,-0.23
68.01,-5.55,-5.30,-5.52,-5.27,5.27,5.56,6.02,-0.28,-0.25,-0.25
68.69,-5.46,-5.19,-5.49,-5.22,5.22,5.57,5.95,-0.24,-0.27,-0.27
69.37,-5.42,-5.13,-5.47,-5.17,5.17,5.58,5.87,-0.24,-0.29,-0.29
70.07,-5.42,-5.10,-5.45,-5.13,5.13,5.59,5.79,-0.28,-0.31,-0.32
70.77,-5.42,-5.10,-5.42,-5.09,5.09,5.60,5.71,-0.33,-0.33,-0.32
71.48,-5.42,-5.08,-5.41,-5.06,5.06,5.61,5.62,-0.36,-0.35,-0.34
72.19,-5.42,-5.06,-5.40,-5.03,5.03,5.62,5.53,-0.38,-0.37,-0.36
72.91,-5.42,-5.04,-5.40,-5.01,5.01,5.63,5.45,-0.40,-0.38,-0.38
73.64,-5.42,-5.03,-5.40,-5.00,5.00,5.64,5.36,-0.42,-0.40,-0.39
74.38,-5.42,-5.01,-5.41,-4.99,4.99,5.65,5.27,-0.43,-0.42,-0.41
75.12,-5.42,-4.98,-5.44,-5.01,5.01,5.66,5.18,-0.41,-0.43,-0.44
75.87,-5.42,-4.97,-5.50,-5.05,5.05,5.66,5.09,-0.37,-0.45,-0.45
76.63,-5.53,-5.06,-5.58,-5.11,5.11,5.67,5.00,-0.42,-0.46,-0.47
77.40,-5.64,-5.16,-5.66,-5.19,5.19,5.67,4.92,-0.45,-0.47,-0.48
78.17,-5.74,-5.24,-5.77,-5.28,5.28,5.67,4.83,-0.46,-0.48,-0.50
78.95,-5.86,-5.37,-5.89,-5.40,5.40,5.66,4.75,-0.46,-0.49,-0.49
79.74,-5.87,-5.38,-6.03,-5.53,5.53,5.66,4.67,-0.34,-0.50,-0.49
80.54,-5.95,-5.45,-6.17,-5.67,5.65,5.65,4.59,-0.30,-0.52,-0.50
81.35,-6.13,-5.62,-6.29,-5.80,5.75,5.63,4.52,-0.38,-0.54,-0.50
82.16,-6.39,-5.89,-6.40,-5.91,5.83,5.61,4.44,-0.55,-0.57,-0.50
82.98,-6.65,-6.17,-6.50,-6.02,5.90,5.59,4.37,-0.75,-0.60,-0.48
83.81,-6.76,-6.29,-6.57,-6.10,5.95,5.57,4.31,-0.81,-0.62,-0.47
84.65,-6.78,-6.32,-6.60,-6.15,5.98,5.53,4.24,-0.80,-0.63,-0.46
85.50,-6.78,-6.34,-6.59,-6.16,5.99,5.50,4.18,-0.79,-0.60,-0.44
86.35,-6.78,-6.36,-6.55,-6.13,5.98,5.46,4.12,-0.80,-0.57,-0.42
87.22,-6.72,-6.31,-6.47,-6.07,5.94,5.41,4.06,-0.78,-0.53,-0.40
88.09,-6.48,-6.09,-6.37,-5.98,5.88,5.36,4.01,-0.60,-0.48,-0.39
88.97,-6.22,-5.86,-6.24,-5.87,5.80,5.31,3.96,-0.42,-0.44,-0.35
89.86,-5.96,-5.62,-6.08,-5.73,5.68,5.25,3.91,-0.28,-0.40,-0.34
90.76,-5.87,-5.53,-5.90,-5.57,5.55,5.19,3.87,-0.32,-0.36,-0.34
91.66,-5.66,-5.34,-5.71,-5.38,5.38,5.13,3.83,-0.28,-0.32,-0.31
92.58,-5.40,-5.08,-5.51,-5.20,5.20,5.06,3.79,-0.20,-0.31,-0.32
93.51,-5.14,-4.84,-5.33,-5.02,5.02,4.99,3.75,-0.12,-0.31,-0.30
94.44,-4.98,-4.68,-5.16,-4.86,4.86,4.92,3.72,-0.12,-0.30,-0.30
95.39,-4.96,-4.67,-5.01,-4.71,4.71,4.84,3.69,-0.25,-0.30,-0.29
96.34,-4.93,-4.62,-4.88,-4.58,4.58,4.77,3.67,-0.35,-0.30,-0.31
97.30,-4.82,-4.51,-4.78,-4.47,4.47,4.69,3.64,-0.35,-0.30,-0.31
98.28,-4.73,-4.41,-4.70,-4.39,4.39,4.61,3.62,-0.34,-0.31,-0.32
99.26,-4.67,-4.34,-4.64,-4.31,4.31,4.53,3.60,-0.36,-0.32,-0.33
100.25,-4.51,-4.17,-4.59,-4.25,4.25,4.44,3.58,-0.26,-0.34,-0.34
101.25,-4.51,-4.15,-4.55,-4.19,4.19,4.36,3.56,-0.32,-0.36,-0.36
102.27,-4.51,-4.13,-4.52,-4.15,4.15,4.28,3.55,-0.36,-0.38,-0.37
103.29,-4.51,-4.11,-4.51,-4.11,4.11,4.20,3.54,-0.40,-0.40,-0.40
104.32,-4.51,-4.09,-4.51,-4.08,4.08,4.12,3.52,-0.43,-0.44,-0.42
105.37,-4.51,-4.06,-4.51,-4.04,4.04,4.03,3.51,-0.47,-0.47,-0.45
106.42,-4.51,-4.02,-4.50,-3.99,3.99,3.95,3.50,-0.52,-0.51,-0.49
107.48,-4.51,-3.97,-4.50,-3.94,3.94,3.87,3.49,-0.57,-0.55,-0.54
108.56,-4.51,-3.91,-4.49,-3.89,3.89,3.79,3.49,-0.62,-0.60,-0.60
109.64,-4.51,-3.86,-4.50,-3.85,3.85,3.72,3.48,-0.66,-0.65,-0.65
110.74,-4.51,-3.81,-4.50,-3.79,3.79,3.64,3.47,-0.72,-0.70,-0.70
111.85,-4.51,-3.76,-4.49,-3.73,3.73,3.56,3.46,-0.78,-0.76,-0.75
112.97,-4.51,-3.69,-4.47,-3.65,3.65,3.49,3.45,-0.85,-0.81,-0.82
114.10,-4.51,-3.64,-4.44,-3.57,3.57,3.42,3.44,-0.94,-0.87,-0.87
115.24,-4.48,-3.56,-4.41,-3.49,3.49,3.35,3.43,-0.99,-0.92,-0.92
116.39,-4.35,-3.37,-4.38,-3.42,3.42,3.28,3.41,-0.93,-0.97,-0.98
117.55,-4.28,-3.25,-4.35,-3.34,3.34,3.21,3.40,-0.94,-1.01,-1.03
118.73,-4.28,-3.20,-4.31,-3.25,3.25,3.14,3.38,-1.03,-1.05,-1.08
119.92,-4.28,-3.18,-4.26,-3.17,3.17,3.08,3.36,-1.11,-1.09,-1.10
121.12,-4.27,-3.13,-4.21,-3.09,3.09,3.01,3.34,-1.18,-1.12,-1.14
122.33,-4.13,-2.96,-4.16,-3.01,3.01,2.95,3.32,-1.12,-1.15,-1.17
123.55,-4.05,-2.88,-4.12,-2.94,2.94,2.89,3.29,-1.10,-1.18,-1.17
124.79,-4.05,-2.85,-4.08,-2.88,2.88,2.83,3.27,-1.17,-1.20,-1.20
126.03,-4.05,-2.84,-4.03,-2.81,2.81,2.77,3.23,-1.24,-1.22,-1.21
127.29,-4.05,-2.82,-3.99,-2.75,2.75,2.71,3.20,-1.30,-1.24,-1.23
128.57,-4.00,-2.75,-3.94,-2.69,2.69,2.66,3.16,-1.31,-1.25,-1.25
129.85,-3.84,-2.57,-3.90,-2.63,2.63,2.60,3.12,-1.20,-1.27,-1.27
131.15,-3.82,-2.54,-3.86,-2.57,2.57,2.55,3.08,-1.24,-1.29,-1.28
132.46,-3.82,-2.52,-3.82,-2.51,2.51,2.50,3.04,-1.30,-1.30,-1.30
133.79,-3.82,-2.51,-3.78,-2.46,2.46,2.44,2.99,-1.36,-1.32,-1.31
135.12,-3.81,-2.47,-3.76,-2.42,2.42,2.40,2.94,-1.39,-1.34,-1.34
136.48,-3.76,-2.40,-3.73,-2.37,2.37,2.35,2.89,-1.39,-1.36,-1.36
137.84,-3.61,-2.23,-3.69,-2.32,2.32,2.30,2.84,-1.29,-1.38,-1.38
139.22,-3.59,-2.17,-3.66,-2.26,2.26,2.25,2.79,-1.33,-1.40,-1.42
140.61,-3.59,-2.15,-3.62,-2.20,2.20,2.21,2.73,-1.39,-1.42,-1.44
142.02,-3.59,-2.14,-3.59,-2.14,2.14,2.16,2.67,-1.45,-1.45,-1.45
143.44,-3.59,-2.11,-3.56,-2.08,2.08,2.12,2.62,-1.51,-1.48,-1.48
144.87,-3.59,-2.08,-3.54,-2.02,2.02,2.08,2.56,-1.57,-1.52,-1.51
146.32,-3.59,-2.04,-3.51,-1.94,1.94,2.04,2.50,-1.65,-1.56,-1.54
147.78,-3.54,-1.97,-3.48,-1.87,1.87,2.00,2.44,-1.67,-1.61,-1.57
149.26,-3.43,-1.80,-3.45,-1.79,1.79,1.96,2.38,-1.64,-1.66,-1.63
150.75,-3.37,-1.68,-3.43,-1.72,1.72,1.92,2.32,-1.65,-1.71,-1.69
152.26,-3.37,-1.62,-3.42,-1.65,1.65,1.88,2.26,-1.72,-1.77,-1.75
153.78,-3.37,-1.56,-3.42,-1.59,1.59,1.85,2.20,-1.78,-1.83,-1.81
155.32,-3.37,-1.48,-3.41,-1.52,1.52,1.81,2.14,-1.85,-1.89,-1.89
156.88,-3.37,-1.41,-3.39,-1.45,1.45,1.78,2.08,-1.92,-1.95,-1.96
158.44,-3.37,-1.35,-3.38,-1.37,1.37,1.74,2.02,-2.00,-2.00,-2.02
160.03,-3.37,-1.29,-3.36,-1.30,1.30,1.71,1.96,-2.07,-2.06,-2.08
161.63,-3.37,-1.24,-3.34,-1.24,1.24,1.68,1.91,-2.13,-2.11,-2.13
163.24,-3.37,-1.20,-3.33,-1.18,1.18,1.65,1.85,-2.19,-2.15,-2.17
164.88,-3.37,-1.17,-3.32,-1.13,1.13,1.61,1.79,-2.24,-2.18,-2.20
166.53,-3.37,-1.14,-3.30,-1.10,1.10,1.58,1.74,-2.27,-2.21,-2.23
168.19,-3.37,-1.12,-3.28,-1.06,1.06,1.55,1.69,-2.31,-2.22,-2.25
169.87,-3.31,-1.05,-3.26,-1.03,1.03,1.53,1.63,-2.28,-2.23,-2.26
171.57,-3.17,-0.92,-3.24,-1.01,1.01,1.50,1.58,-2.16,-2.23,-2.25
173.29,-3.14,-0.90,-3.22,-0.99,0.99,1.47,1.53,-2.15,-2.23,-2.24
175.02,-3.14,-0.92,-3.20,-0.97,0.97,1.44,1.48,-2.17,-2.23,-2.22
176.77,-3.14,-0.93,-3.18,-0.96,0.96,1.42,1.43,-2.18,-2.22,-2.21
178.54,-3.14,-0.94,-3.16,-0.95,0.95,1.39,1.38,-2.19,-2.21,-2.20
180.32,-3.14,-0.96,-3.14,-0.94,0.94,1.36,1.34,-2.20,-2.20,-2.18
182.13,-3.14,-0.97,-3.13,-0.94,0.94,1.34,1.29,-2.20,-2.20,-2.17
183.95,-3.14,-0.98,-3.12,-0.93,0.93,1.32,1.25,-2.21,-2.19,-2.16
185.79,-3.14,-0.97,-3.12,-0.93,0.93,1.29,1.20,-2.21,-2.19,-2.17
187.65,-3.14,-0.96,-3.12,-0.93,0.93,1.27,1.16,-2.21,-2.19,-2.18
189.52,-3.14,-0.95,-3.13,-0.94,0.94,1.25,1.12,-2.20,-2.19,-2.19
191.42,-3.14,-0.93,-3.14,-0.94,0.94,1.22,1.08,-2.20,-2.20,-2.21
193.33,-3.14,-0.92,-3.14,-0.93,0.93,1.20,1.04,-2.21,-2.21,-2.22
195.27,-3.14,-0.92,-3.15,-0.93,0.93,1.18,1.00,-2.21,-2.22,-2.22
197.22,-3.14,-0.91,-3.16,-0.92,0.92,1.16,0.96,-2.22,-2.23,-2.23
199.19,-3.14,-0.88,-3.16,-0.91,0.91,1.14,0.92,-2.23,-2.25,-2.26
201.18,-3.14,-0.88,-3.15,-0.89,0.89,1.12,0.89,-2.25,-2.26,-2.26
203.19,-3.14,-0.87,-3.15,-0.87,0.87,1.10,0.85,-2.27,-2.27,-2.27
205.23,-3.14,-0.85,-3.13,-0.85,0.85,1.08,0.82,-2.29,-2.29,-2.29
207.28,-3.14,-0.85,-3.12,-0.82,0.82,1.06,0.79,-2.32,-2.30,-2.29
209.35,-3.14,-0.83,-3.10,-0.79,0.79,1.04,0.75,-2.35,-2.31,-2.31
211.44,-3.14,-0.81,-3.08,-0.76,0.76,1.03,0.72,-2.38,-2.32,-2.33
213.56,-3.14,-0.81,-3.06,-0.73,0.73,1.01,0.69,-2.41,-2.33,-2.33
215.69,-3.14,-0.81,-3.04,-0.70,0.70,0.99,0.66,-2.44,-2.34,-2.33
217.85,-2.93,-0.58,-3.02,-0.68,0.68,0.98,0.64,-2.25,-2.35,-2.34
220.03,-2.91,-0.56,-3.01,-0.66,0.66,0.96,0.61,-2.25,-2.35,-2.35
222.23,-2.91,-0.54,-2.99,-0.63,0.63,0.94,0.58,-2.28,-2.36,-2.37
224.45,-2.91,-0.54,-2.97,-0.60,0.60,0.93,0.56,-2.31,-2.36,-2.37
226.70,-2.91,-0.55,-2.94,-0.57,0.57,0.91,0.54,-2.34,-2.37,-2.36
228.96,-2.91,-0.54,-2.91,-0.54,0.54,0.90,0.51,-2.37,-2.37,-2.37
231.25,-2.91,-0.54,-2.89,-0.51,0.51,0.88,0.49,-2.40,-2.37,-2.37
233.57,-2.91,-0.54,-2.86,-0.49,0.49,0.87,0.47,-2.42,-2.37,-2.37
235.90,-2.91,-0.53,-2.84,-0.47,0.47,0.86,0.45,-2.44,-2.37,-2.38
238.26,-2.91,-0.53,-2.82,-0.45,0.45,0.84,0.44,-2.46,-2.37,-2.37
240.64,-2.91,-0.54,-2.80,-0.44,0.44,0.83,0.42,-2.47,-2.36,-2.37
243.05,-2.75,-0.39,-2.79,-0.43,0.43,0.82,0.41,-2.32,-2.36,-2.36
245.48,-2.68,-0.33,-2.77,-0.42,0.42,0.80,0.40,-2.26,-2.35,-2.35
247.93,-2.68,-0.34,-2.75,-0.40,0.40,0.79,0.38,-2.28,-2.34,-2.34
250.41,-2.68,-0.34,-2.73,-0.39,0.39,0.78,0.37,-2.29,-2.34,-2.34
252.92,-2.68,-0.35,-2.71,-0.38,0.38,0.77,0.37,-2.30,-2.33,-2.33
255.45,-2.68,-0.38,-2.69,-0.37,0.37,0.76,0.36,-2.31,-2.31,-2.30
258.00,-2.68,-0.39,-2.66,-0.36,0.36,0.75,0.35,-2.32,-2.30,-2.29
260.58,-2.68,-0.39,-2.65,-0.36,0.36,0.73,0.35,-2.32,-2.29,-2.29
263.19,-2.68,-0.41,-2.65,-0.38,0.38,0.72,0.34,-2.30,-2.27,-2.27
265.82,-2.68,-0.41,-2.66,-0.41,0.41,0.71,0.34,-2.27,-2.26,-2.27
268.48,-2.68,-0.44,-2.68,-0.44,0.44,0.70,0.34,-2.24,-2.24,-2.24
271.16,-2.68,-0.46,-2.70,-0.48,0.48,0.69,0.34,-2.19,-2.22,-2.22
273.87,-2.68,-0.47,-2.72,-0.52,0.52,0.68,0.34,-2.16,-2.20,-2.21
276.61,-2.68,-0.51,-2.72,-0.55,0.55,0.68,0.35,-2.13,-2.17,-2.17
279.38,-2.68,-0.53,-2.73,-0.58,0.58,0.67,0.35,-2.10,-2.15,-2.15
282.17,-2.68,-0.55,-2.74,-0.61,0.61,0.66,0.35,-2.07,-2.12,-2.13
284.99,-2.73,-0.63,-2.74,-0.64,0.64,0.65,0.36,-2.09,-2.10,-2.10
287.84,-2.90,-0.83,-2.74,-0.68,0.68,0.64,0.37,-2.22,-2.07,-2.07
290.72,-2.91,-0.88,-2.74,-0.71,0.71,0.63,0.37,-2.20,-2.04,-2.03
293.63,-2.80,-0.79,-2.74,-0.73,0.73,0.62,0.38,-2.07,-2.01,-2.01
296.57,-2.70,-0.72,-2.74,-0.76,0.76,0.62,0.39,-1.94,-1.98,-1.98
299.53,-2.68,-0.73,-2.73,-0.78,0.78,0.61,0.40,-1.90,-1.95,-1.95
302.53,-2.68,-0.75,-2.73,-0.80,0.80,0.60,0.41,-1.88,-1.93,-1.93
305.55,-2.68,-0.78,-2.72,-0.81,0.81,0.60,0.42,-1.87,-1.91,-1.90
308.61,-2.68,-0.80,-2.71,-0.82,0.82,0.59,0.44,-1.86,-1.89,-1.88
311.69,-2.68,-0.82,-2.70,-0.83,0.83,0.58,0.45,-1.85,-1.87,-1.86
314.81,-2.68,-0.85,-2.69,-0.83,0.83,0.58,0.46,-1.85,-1.86,-1.83
317.96,-2.68,-0.85,-2.67,-0.83,0.83,0.57,0.47,-1.85,-1.85,-1.83
321.14,-2.68,-0.84,-2.67,-0.83,0.83,0.56,0.49,-1.85,-1.83,-1.84
324.35,-2.68,-0.85,-2.68,-0.85,0.85,0.56,0.50,-1.82,-1.82,-1.83
327.59,-2.68,-0.86,-2.69,-0.88,0.88,0.55,0.52,-1.80,-1.81,-1.82
330.87,-2.68,-0.87,-2.69,-0.89,0.89,0.55,0.54,-1.79,-1.80,-1.81
334.18,-2.68,-0.88,-2.69,-0.90,0.90,0.54,0.55,-1.78,-1.79,-1.80
337.52,-2.68,-0.89,-2.68,-0.90,0.90,0.54,0.57,-1.78,-1.78,-1.79
340.90,-2.68,-0.91,-2.67,-0.90,0.90,0.53,0.59,-1.78,-1.76,-1.77
344.30,-2.68,-0.92,-2.65,-0.90,0.90,0.53,0.60,-1.78,-1.75,-1.76
347.75,-2.68,-0.94,-2.63,-0.90,0.90,0.52,0.62,-1.78,-1.73,-1.74
351.23,-2.68,-0.97,-2.61,-0.90,0.90,0.52,0.64,-1.78,-1.71,-1.71
354.74,-2.68,-0.99,-2.59,-0.90,0.90,0.52,0.66,-1.78,-1.69,-1.69
358.28,-2.57,-0.91,-2.57,-0.91,0.91,0.51,0.68,-1.66,-1.66,-1.66
361.87,-2.48,-0.84,-2.55,-0.91,0.91,0.51,0.70,-1.57,-1.64,-1.64
365.49,-2.45,-0.84,-2.52,-0.91,0.91,0.50,0.72,-1.54,-1.62,-1.61
369.14,-2.45,-0.85,-2.51,-0.92,0.92,0.50,0.74,-1.53,-1.59,-1.59
372.83,-2.45,-0.88,-2.50,-0.93,0.93,0.50,0.77,-1.52,-1.57,-1.57
376.56,-2.45,-0.90,-2.48,-0.93,0.93,0.49,0.79,-1.52,-1.55,-1.55
380.33,-2.45,-0.93,-2.47,-0.94,0.94,0.49,0.81,-1.51,-1.53,-1.52
384.13,-2.45,-0.95,-2.45,-0.94,0.94,0.49,0.83,-1.51,-1.51,-1.50
387.97,-2.45,-0.96,-2.43,-0.94,0.94,0.49,0.86,-1.51,-1.49,-1.49
391.85,-2.45,-0.97,-2.42,-0.94,0.94,0.48,0.88,-1.51,-1.48,-1.48
395.77,-2.45,-0.98,-2.40,-0.93,0.93,0.48,0.90,-1.51,-1.47,-1.47
399.73,-2.45,-0.99,-2.39,-0.93,0.93,0.48,0.93,-1.51,-1.46,-1.46
403.72,-2.45,-1.00,-2.38,-0.93,0.93,0.48,0.95,-1.52,-1.45,-1.45
407.76,-2.45,-1.01,-2.36,-0.92,0.92,0.47,0.97,-1.53,-1.44,-1.44
411.84,-2.32,-0.89,-2.34,-0.90,0.90,0.47,1.00,-1.42,-1.44,-1.43
415.96,-2.24,-0.81,-2.32,-0.89,0.89,0.47,1.02,-1.35,-1.43,-1.42
420.12,-2.23,-0.80,-2.31,-0.88,0.88,0.47,1.04,-1.35,-1.43,-1.43
424.32,-2.23,-0.80,-2.29,-0.87,0.87,0.47,1.06,-1.36,-1.43,-1.43
428.56,-2.23,-0.80,-2.27,-0.85,0.85,0.47,1.08,-1.38,-1.42,-1.43
432.85,-2.23,-0.80,-2.25,-0.83,0.83,0.47,1.10,-1.40,-1.42,-1.43
437.18,-2.23,-0.81,-2.23,-0.82,0.82,0.47,1.12,-1.41,-1.42,-1.42
441.55,-2.23,-0.82,-2.21,-0.80,0.80,0.46,1.14,-1.43,-1.41,-1.41
445.96,-2.23,-0.82,-2.19,-0.78,0.78,0.46,1.16,-1.45,-1.40,-1.41
