frequency,raw,error,smoothed,error_smoothed,equalization,parametric_eq,equalized_raw,equalized_smoothed,target
20,-1.37,-3.85,-1.34,-3.82,3.82,-0.57,2.45,2.47,2.47
21,-0.58,-3.05,-0.61,-3.09,3.09,-0.65,2.50,2.47,2.47
22,0.06,-2.41,0.06,-2.41,2.41,-0.73,2.46,2.47,2.47
23,0.70,-1.77,0.69,-1.77,1.77,-0.82,2.47,2.47,2.47
24,1.31,-1.16,1.27,-1.19,1.19,-0.92,2.50,2.47,2.46
25,1.83,-0.63,1.80,-0.67,0.67,-1.02,2.49,2.46,2.46
26,2.28,-0.18,2.27,-0.19,0.19,-1.12,2.46,2.46,2.46
27,2.69,0.23,2.70,0.24,-0.24,-1.21,2.44,2.46,2.46
28,3.09,0.64,3.08,0.63,-0.63,-1.30,2.46,2.45,2.45
29,3.38,0.93,3.42,0.97,-0.97,-1.38,2.41,2.45,2.45
30,3.74,1.30,3.72,1.27,-1.27,-1.44,2.46,2.44,2.44
31,3.95,1.51,3.98,1.54,-1.54,-1.48,2.40,2.44,2.44
32,4.23,1.80,4.21,1.78,-1.78,-1.51,2.45,2.43,2.43
33,4.45,2.02,4.41,1.98,-1.98,-1.53,2.46,2.42,2.42
34,4.55,2.13,4.58,2.16,-2.16,-1.55,2.39,2.42,2.42
35,4.72,2.31,4.72,2.31,-2.31,-1.55,2.41,2.41,2.41
36,4.85,2.45,4.84,2.43,-2.43,-1.55,2.41,2.40,2.40
37,4.95,2.55,4.93,2.54,-2.54,-1.56,2.41,2.39,2.39
38,5.00,2.61,5.00,2.62,-2.62,-1.56,2.38,2.38,2.38
39,5.05,2.67,5.06,2.69,-2.69,-1.57,2.36,2.37,2.37
40,5.08,2.71,5.10,2.74,-2.74,-1.59,2.34,2.36,2.36
41,5.15,2.80,5.13,2.78,-2.78,-1.61,2.37,2.35,2.35
42,5.15,2.81,5.15,2.81,-2.81,-1.64,2.34,2.34,2.34
43,5.15,2.82,5.16,2.83,-2.83,-1.67,2.32,2.33,2.33
44,5.15,2.83,5.16,2.84,-2.84,-1.71,2.30,2.31,2.31
45,5.15,2.85,5.15,2.85,-2.85,-1.76,2.30,2.30,2.30
46,5.15,2.86,5.13,2.85,-2.85,-1.81,2.30,2.28,2.28
47,5.15,2.88,5.11,2.85,-2.85,-1.87,2.30,2.27,2.27
48,5.05,2.80,5.09,2.84,-2.84,-1.93,2.21,2.25,2.25
49,5.05,2.82,5.06,2.82,-2.82,-1.99,2.22,2.23,2.23
50,5.05,2.83,5.02,2.81,-2.81,-2.06,2.24,2.21,2.21
51,4.96,2.76,4.99,2.79,-2.79,-2.13,2.16,2.19,2.19
52,4.95,2.78,4.95,2.78,-2.78,-2.20,2.17,2.17,2.17
53,4.95,2.80,4.91,2.76,-2.76,-2.27,2.18,2.15,2.15
54,4.85,2.72,4.87,2.75,-2.75,-2.34,2.10,2.13,2.13
55,4.85,2.74,4.83,2.73,-2.73,-2.40,2.12,2.10,2.10
56,4.77,2.69,4.79,2.71,-2.71,-2.46,2.05,2.08,2.08
57,4.75,2.69,4.75,2.70,-2.70,-2.52,2.05,2.05,2.05
58,4.75,2.72,4.71,2.68,-2.68,-2.57,2.07,2.03,2.03
59,4.69,2.69,4.67,2.67,-2.67,-2.62,2.02,2.00,2.00
60,4.61,2.63,4.62,2.65,-2.65,-2.66,1.96,1.97,1.97
61,4.54,2.59,4.58,2.64,-2.64,-2.69,1.90,1.94,1.94
62,4.55,2.63,4.54,2.62,-2.62,-2.71,1.92,1.91,1.91
63,4.49,2.60,4.49,2.61,-2.61,-2.73,1.88,1.88,1.88
64,4.45,2.59,4.45,2.59,-2.59,-2.74,1.85,1.85,1.85
65,4.44,2.62,4.40,2.58,-2.58,-2.75,1.86,1.82,1.82
66,4.35,2.56,4.35,2.56,-2.56,-2.75,1.78,1.79,1.79
67,4.30,2.54,4.30,2.54,-2.54,-2.75,1.75,1.75,1.75
68,4.25,2.53,4.24,2.52,-2.52,-2.74,1.72,1.72,1.72
69,4.15,2.46,4.19,2.50,-2.50,-2.73,1.65,1.68,1.68
70,4.15,2.50,4.13,2.48,-2.48,-2.72,1.67,1.65,1.65
71,4.09,2.48,4.06,2.45,-2.45,-2.70,1.63,1.61,1.61
72,3.94,2.36,4.00,2.43,-2.43,-2.69,1.51,1.57,1.57
73,3.95,2.41,3.94,2.40,-2.40,-2.68,1.55,1.54,1.54
74,3.95,2.45,3.87,2.37,-2.37,-2.66,1.58,1.50,1.50
75,3.77,2.31,3.80,2.34,-2.34,-2.65,1.43,1.46,1.46
76,3.74,2.32,3.73,2.31,-2.31,-2.64,1.43,1.42,1.42
77,3.64,2.26,3.66,2.28,-2.28,-2.63,1.36,1.38,1.38
78,3.54,2.20,3.58,2.24,-2.24,-2.62,1.29,1.34,1.34
79,3.54,2.24,3.51,2.21,-2.21,-2.62,1.33,1.30,1.30
80,3.45,2.19,3.43,2.17,-2.17,-2.62,1.28,1.26,1.26
81,3.38,2.16,3.35,2.14,-2.14,-2.62,1.24,1.22,1.22
82,3.31,2.13,3.28,2.10,-2.10,-2.62,1.21,1.18,1.18
83,3.24,2.10,3.20,2.07,-2.07,-2.62,1.17,1.14,1.14
84,3.07,1.97,3.14,2.04,-2.04,-2.63,1.02,1.09,1.09
85,3.02,1.96,3.08,2.03,-2.03,-2.64,0.99,1.05,1.05
86,3.06,2.05,3.03,2.02,-2.02,-2.65,1.04,1.01,1.01
87,3.01,2.04,2.99,2.02,-2.02,-2.67,0.99,0.97,0.97
88,2.94,2.01,2.96,2.03,-2.03,-2.69,0.90,0.93,0.93
89,2.94,2.05,2.94,2.05,-2.05,-2.71,0.88,0.89,0.89
90,2.94,2.09,2.93,2.09,-2.09,-2.73,0.85,0.84,0.84
91,2.95,2.14,2.93,2.12,-2.12,-2.76,0.82,0.80,0.80
92,2.95,2.19,2.93,2.17,-2.17,-2.79,0.78,0.76,0.76
93,2.95,2.23,2.95,2.22,-2.22,-2.82,0.72,0.72,0.72
94,2.95,2.27,2.96,2.28,-2.28,-2.85,0.66,0.68,0.68
95,2.95,2.31,2.99,2.35,-2.35,-2.88,0.60,0.64,0.64
96,2.98,2.38,3.02,2.42,-2.42,-2.92,0.55,0.60,0.60
97,3.14,2.58,3.06,2.50,-2.50,-2.95,0.64,0.56,0.56
98,3.13,2.61,3.10,2.58,-2.58,-2.99,0.54,0.52,0.52
99,3.12,2.64,3.14,2.67,-2.67,-3.03,0.45,0.48,0.48
100,3.18,2.74,3.18,2.75,-2.75,-3.07,0.43,0.43,0.44
101,3.19,2.79,3.22,2.83,-2.83,-3.11,0.36,0.39,0.40
102,3.27,2.90,3.26,2.91,-2.91,-3.15,0.36,0.35,0.36
104,3.35,3.06,3.28,2.98,-2.98,-3.24,0.37,0.30,0.29
105,3.32,3.07,3.31,3.05,-3.05,-3.28,0.27,0.26,0.25
106,3.30,3.08,3.33,3.11,-3.11,-3.32,0.19,0.22,0.22
107,3.35,3.17,3.34,3.16,-3.16,-3.36,0.19,0.18,0.18
108,3.35,3.20,3.35,3.20,-3.20,-3.40,0.15,0.15,0.15
109,3.33,3.21,3.35,3.24,-3.24,-3.44,0.09,0.11,0.11
110,3.31,3.22,3.35,3.27,-3.27,-3.48,0.03,0.08,0.08
111,3.39,3.34,3.35,3.30,-3.30,-3.51,0.09,0.05,0.05
112,3.37,3.35,3.33,3.31,-3.31,-3.55,0.06,0.02,0.02
113,3.27,3.27,3.30,3.32,-3.32,-3.58,-0.05,-0.01,-0.01
114,3.26,3.29,3.26,3.31,-3.31,-3.61,-0.05,-0.04,-0.03
115,3.27,3.33,3.21,3.28,-3.28,-3.64,-0.01,-0.07,-0.06
117,3.15,3.26,3.13,3.24,-3.24,-3.69,-0.09,-0.10,-0.12
118,3.06,3.20,3.05,3.18,-3.18,-3.71,-0.12,-0.13,-0.14
119,2.98,3.14,2.95,3.11,-3.11,-3.73,-0.13,-0.16,-0.16
120,2.88,3.06,2.84,3.03,-3.03,-3.75,-0.15,-0.19,-0.19
121,2.78,2.98,2.73,2.95,-2.95,-3.76,-0.18,-0.22,-0.21
123,2.57,2.82,2.64,2.88,-2.88,-3.78,-0.31,-0.24,-0.25
124,2.50,2.77,2.55,2.82,-2.82,-3.79,-0.32,-0.27,-0.27
125,2.46,2.75,2.49,2.78,-2.78,-3.79,-0.32,-0.29,-0.29
126,2.42,2.72,2.44,2.76,-2.76,-3.79,-0.34,-0.32,-0.31
128,2.42,2.77,2.43,2.77,-2.77,-3.78,-0.35,-0.34,-0.35
129,2.43,2.79,2.44,2.80,-2.80,-3.77,-0.37,-0.36,-0.36
130,2.47,2.85,2.47,2.85,-2.85,-3.76,-0.39,-0.38,-0.38
131,2.54,2.93,2.52,2.93,-2.93,-3.75,-0.39,-0.40,-0.39
133,2.59,3.02,2.59,3.02,-3.02,-3.71,-0.43,-0.42,-0.43
134,2.66,3.10,2.67,3.11,-3.11,-3.70,-0.46,-0.45,-0.44
135,2.75,3.21,2.76,3.22,-3.22,-3.68,-0.47,-0.47,-0.46
137,2.90,3.39,2.84,3.33,-3.33,-3.63,-0.43,-0.49,-0.49
138,2.96,3.46,2.94,3.44,-3.44,-3.61,-0.49,-0.51,-0.51
140,3.06,3.59,3.03,3.56,-3.56,-3.56,-0.50,-0.53,-0.54
141,3.10,3.65,3.12,3.67,-3.67,-3.53,-0.58,-0.55,-0.55
142,3.20,3.76,3.22,3.79,-3.79,-3.50,-0.59,-0.57,-0.56
144,3.37,3.96,3.32,3.92,-3.92,-3.45,-0.55,-0.59,-0.59
145,3.40,4.00,3.43,4.04,-4.04,-3.42,-0.65,-0.61,-0.61
147,3.50,4.13,3.55,4.18,-4.18,-3.36,-0.68,-0.63,-0.64
148,3.60,4.25,3.67,4.32,-4.32,-3.34,-0.72,-0.65,-0.65
150,3.79,4.46,3.78,4.46,-4.46,-3.28,-0.67,-0.67,-0.68
151,3.87,4.56,3.89,4.58,-4.58,-3.25,-0.72,-0.69,-0.69
153,4.02,4.73,3.98,4.69,-4.69,-3.20,-0.68,-0.71,-0.72
154,4.07,4.79,4.05,4.78,-4.78,-3.17,-0.71,-0.73,-0.73
156,4.11,4.86,4.07,4.82,-4.82,-3.12,-0.72,-0.75,-0.75
157,4.12,4.88,4.06,4.83,-4.83,-3.10,-0.71,-0.77,-0.76
159,4.02,4.80,3.99,4.78,-4.78,-3.05,-0.76,-0.79,-0.79
160,4.00,4.80,3.88,4.69,-4.69,-3.03,-0.69,-0.80,-0.80
162,3.78,4.60,3.73,4.55,-4.55,-2.99,-0.77,-0.82,-0.82
164,3.59,4.43,3.55,4.38,-4.38,-2.95,-0.80,-0.84,-0.84
165,3.45,4.30,3.35,4.20,-4.20,-2.93,-0.76,-0.85,-0.85
167,3.13,3.99,3.16,4.03,-4.03,-2.90,-0.90,-0.87,-0.87
169,2.85,3.73,2.99,3.87,-3.87,-2.87,-1.03,-0.88,-0.88
170,2.78,3.67,2.86,3.75,-3.75,-2.86,-0.98,-0.89,-0.89
172,2.58,3.48,2.78,3.68,-3.68,-2.83,-1.10,-0.90,-0.90
174,2.66,3.57,2.73,3.65,-3.65,-2.81,-0.99,-0.91,-0.92
175,2.67,3.59,2.73,3.65,-3.65,-2.80,-0.99,-0.92,-0.92
177,2.85,3.77,2.76,3.69,-3.69,-2.78,-0.84,-0.93,-0.93
179,2.92,3.85,2.80,3.74,-3.74,-2.77,-0.82,-0.94,-0.94
181,2.92,3.86,2.85,3.79,-3.79,-2.76,-0.87,-0.94,-0.94
183,2.93,3.88,2.89,3.83,-3.83,-2.75,-0.90,-0.95,-0.95
184,2.94,3.88,2.91,3.86,-3.86,-2.75,-0.92,-0.95,-0.95
186,2.93,3.88,2.91,3.86,-3.86,-2.74,-0.93,-0.95,-0.95
188,2.86,3.81,2.90,3.85,-3.85,-2.74,-0.99,-0.96,-0.95
190,2.88,3.83,2.87,3.83,-3.83,-2.74,-0.95,-0.96,-0.96
192,2.83,3.79,2.83,3.79,-3.79,-2.74,-0.97,-0.96,-0.96
194,2.79,3.75,2.80,3.76,-3.76,-2.74,-0.97,-0.96,-0.96
196,2.72,3.68,2.75,3.72,-3.72,-2.75,-1.00,-0.96,-0.96
198,2.74,3.70,2.72,3.68,-3.68,-2.76,-0.94,-0.96,-0.96
200,2.68,3.64,2.68,3.64,-3.64,-2.77,-0.96,-0.96,-0.96
202,2.65,3.61,2.64,3.60,-3.60,-2.78,-0.96,-0.96,-0.96
204,2.56,3.52,2.60,3.57,-3.57,-2.79,-1.01,-0.97,-0.96
206,2.56,3.52,2.57,3.53,-3.53,-2.80,-0.97,-0.97,-0.97
208,2.56,3.52,2.53,3.49,-3.49,-2.81,-0.94,-0.97,-0.97
210,2.53,3.49,2.49,3.45,-3.45,-2.82,-0.93,-0.97,-0.97
212,2.45,3.41,2.44,3.41,-3.41,-2.83,-0.96,-0.97,-0.97
214,2.39,3.35,2.40,3.37,-3.37,-2.84,-0.98,-0.97,-0.97
216,2.35,3.31,2.36,3.32,-3.32,-2.86,-0.98,-0.97,-0.97
218,2.26,3.22,2.31,3.28,-3.28,-2.87,-1.02,-0.97,-0.97
221,2.24,3.21,2.26,3.23,-3.23,-2.88,-0.99,-0.97,-0.97
223,2.24,3.20,2.21,3.17,-3.17,-2.89,-0.94,-0.97,-0.97
225,2.24,3.20,2.15,3.12,-3.12,-2.90,-0.88,-0.96,-0.96
227,2.14,3.10,2.09,3.06,-3.06,-2.90,-0.92,-0.96,-0.96
229,1.99,2.95,2.03,2.99,-2.99,-2.91,-1.01,-0.96,-0.96
232,1.94,2.89,1.97,2.93,-2.93,-2.91,-0.99,-0.96,-0.96
234,1.94,2.89,1.92,2.87,-2.87,-2.91,-0.93,-0.95,-0.95
236,1.83,2.77,1.86,2.81,-2.81,-2.91,-0.98,-0.95,-0.95
239,1.78,2.72,1.81,2.75,-2.75,-2.90,-0.98,-0.94,-0.94
241,1.80,2.73,1.77,2.70,-2.70,-2.89,-0.91,-0.94,-0.94
244,1.74,2.67,1.73,2.66,-2.66,-2.88,-0.92,-0.93,-0.93
246,1.65,2.57,1.69,2.61,-2.61,-2.86,-0.96,-0.92,-0.92
248,1.66,2.57,1.65,2.57,-2.57,-2.85,-0.91,-0.92,-0.92
251,1.64,2.55,1.61,2.52,-2.52,-2.82,-0.88,-0.91,-0.91
253,1.59,2.49,1.57,2.47,-2.47,-2.80,-0.88,-0.90,-0.90
256,1.53,2.42,1.52,2.42,-2.42,-2.76,-0.89,-0.89,-0.89
259,1.48,2.36,1.47,2.36,-2.36,-2.72,-0.88,-0.89,-0.89
261,1.42,2.30,1.42,2.29,-2.29,-2.69,-0.88,-0.88,-0.88
264,1.35,2.22,1.36,2.23,-2.23,-2.64,-0.88,-0.87,-0.87
266,1.32,2.18,1.29,2.16,-2.16,-2.61,-0.84,-0.86,-0.86
269,1.22,2.07,1.23,2.09,-2.09,-2.55,-0.87,-0.86,-0.86
272,1.16,2.01,1.17,2.02,-2.02,-2.50,-0.86,-0.85,-0.85
274,1.11,1.95,1.11,1.95,-1.95,-2.46,-0.84,-0.84,-0.84
277,1.03,1.86,1.04,1.88,-1.88,-2.40,-0.85,-0.84,-0.84
280,0.97,1.80,0.98,1.81,-1.81,-2.33,-0.84,-0.83,-0.83
283,0.91,1.73,0.92,1.74,-1.74,-2.27,-0.84,-0.82,-0.82
286,0.85,1.66,0.85,1.67,-1.67,-2.20,-0.82,-0.82,-0.82
288,0.82,1.63,0.78,1.59,-1.59,-2.16,-0.78,-0.81,-0.81
291,0.78,1.58,0.71,1.51,-1.51,-2.09,-0.73,-0.80,-0.80
294,0.64,1.44,0.63,1.43,-1.43,-2.02,-0.79,-0.80,-0.80
297,0.57,1.36,0.55,1.34,-1.34,-1.95,-0.77,-0.79,-0.79
300,0.43,1.21,0.47,1.25,-1.25,-1.88,-0.83,-0.79,-0.79
303,0.31,1.09,0.39,1.17,-1.17,-1.81,-0.87,-0.78,-0.78
306,0.29,1.06,0.32,1.10,-1.10,-1.74,-0.81,-0.78,-0.78
309,0.30,1.07,0.25,1.02,-1.02,-1.68,-0.73,-0.77,-0.77
312,0.22,0.98,0.19,0.96,-0.96,-1.61,-0.74,-0.77,-0.77
316,0.11,0.87,0.14,0.90,-0.90,-1.52,-0.79,-0.76,-0.76
319,0.11,0.86,0.08,0.84,-0.84,-1.45,-0.73,-0.76,-0.76
322,0.04,0.79,0.03,0.78,-0.78,-1.39,-0.74,-0.75,-0.75
325,-0.00,0.74,-0.02,0.72,-0.72,-1.32,-0.72,-0.75,-0.75
328,-0.09,0.65,-0.08,0.66,-0.66,-1.26,-0.76,-0.74,-0.74
332,-0.16,0.57,-0.13,0.60,-0.60,-1.18,-0.77,-0.74,-0.74
335,-0.20,0.53,-0.19,0.54,-0.54,-1.12,-0.74,-0.73,-0.73
338,-0.20,0.53,-0.25,0.48,-0.48,-1.06,-0.68,-0.73,-0.73
342,-0.30,0.42,-0.31,0.42,-0.42,-0.98,-0.72,-0.72,-0.72
345,-0.36,0.36,-0.37,0.35,-0.35,-0.92,-0.72,-0.72,-0.72
349,-0.40,0.32,-0.43,0.29,-0.29,-0.84,-0.70,-0.72,-0.72
352,-0.49,0.22,-0.48,0.23,-0.23,-0.79,-0.73,-0.72,-0.72
356,-0.60,0.11,-0.54,0.18,-0.18,-0.71,-0.78,-0.71,-0.71
359,-0.60,0.11,-0.59,0.12,-0.12,-0.66,-0.73,-0.71,-0.71
363,-0.61,0.10,-0.64,0.07,-0.07,-0.59,-0.68,-0.71,-0.71
366,-0.68,0.03,-0.69,0.02,-0.02,-0.54,-0.70,-0.71,-0.71
370,-0.73,-0.03,-0.74,-0.03,0.03,-0.47,-0.70,-0.71,-0.71
374,-0.77,-0.07,-0.79,-0.08,0.08,-0.40,-0.69,-0.71,-0.71
377,-0.84,-0.14,-0.84,-0.13,0.13,-0.35,-0.71,-0.70,-0.70
381,-0.88,-0.18,-0.89,-0.19,0.19,-0.29,-0.70,-0.70,-0.70
385,-0.95,-0.26,-0.94,-0.24,0.24,-0.23,-0.71,-0.70,-0.70
389,-1.02,-0.33,-1.00,-0.30,0.30,-0.17,-0.72,-0.69,-0.69
393,-1.04,-0.36,-1.06,-0.37,0.37,-0.10,-0.67,-0.69,-0.69
397,-1.06,-0.38,-1.12,-0.44,0.44,-0.05,-0.63,-0.68,-0.68
401,-1.21,-0.54,-1.18,-0.51,0.51,0.01,-0.70,-0.67,-0.67
405,-1.25,-0.59,-1.25,-0.59,0.59,0.07,-0.66,-0.66,-0.66
409,-1.25,-0.61,-1.32,-0.67,0.67,0.12,-0.58,-0.64,-0.65
413,-1.40,-0.77,-1.38,-0.76,0.76,0.18,-0.65,-0.63,-0.63
417,-1.45,-0.84,-1.45,-0.84,0.84,0.23,-0.62,-0.61,-0.61
421,-1.49,-0.91,-1.50,-0.91,0.91,0.28,-0.58,-0.59,-0.59
425,-1.55,-0.99,-1.54,-0.98,0.98,0.33,-0.57,-0.56,-0.56
430,-1.62,-1.09,-1.57,-1.04,1.04,0.40,-0.58,-0.53,-0.53
434,-1.62,-1.12,-1.59,-1.08,1.08,0.44,-0.54,-0.50,-0.50
438,-1.59,-1.12,-1.59,-1.12,1.12,0.49,-0.47,-0.47,-0.47
443,-1.55,-1.12,-1.58,-1.14,1.14,0.54,-0.41,-0.43,-0.43
447,-1.51,-1.12,-1.55,-1.16,1.16,0.59,-0.35,-0.39,-0.39
451,-1.50,-1.15,-1.52,-1.17,1.17,0.63,-0.34,-0.35,-0.35
456,-1.50,-1.19,-1.48,-1.17,1.17,0.68,-0.33,-0.31,-0.31
460,-1.44,-1.17,-1.44,-1.16,1.16,0.72,-0.28,-0.27,-0.27
465,-1.44,-1.21,-1.38,-1.15,1.15,0.76,-0.29,-0.23,-0.23
470,-1.31,-1.12,-1.33,-1.14,1.14,0.81,-0.17,-0.19,-0.19
474,-1.26,-1.11,-1.27,-1.12,1.12,0.84,-0.14,-0.15,-0.15
479,-1.21,-1.10,-1.22,-1.10,1.10,0.88,-0.11,-0.12,-0.12
484,-1.16,-1.08,-1.17,-1.09,1.09,0.91,-0.08,-0.08,-0.08
489,-1.12,-1.07,-1.12,-1.07,1.07,0.95,-0.05,-0.05,-0.05
494,-1.08,-1.06,-1.09,-1.06,1.06,0.98,-0.02,-0.02,-0.02
499,-1.05,-1.05,-1.06,-1.06,1.06,1.01,0.01,-0.00,0.00
504,-1.03,-1.05,-1.05,-1.07,1.07,1.04,0.04,0.02,0.02
509,-1.01,-1.05,-1.05,-1.08,1.08,1.06,0.07,0.03,0.03
514,-1.04,-1.09,-1.05,-1.10,1.10,1.09,0.05,0.04,0.04
519,-1.10,-1.15,-1.07,-1.11,1.11,1.11,0.01,0.05,0.05
524,-1.10,-1.16,-1.08,-1.13,1.13,1.13,0.03,0.05,0.05
529,-1.11,-1.16,-1.10,-1.15,1.15,1.15,0.04,0.05,0.05
535,-1.13,-1.18,-1.12,-1.17,1.17,1.17,0.03,0.05,0.05
540,-1.16,-1.20,-1.15,-1.18,1.18,1.18,0.02,0.04,0.04
545,-1.20,-1.23,-1.18,-1.21,1.21,1.20,0.00,0.03,0.03
551,-1.15,-1.17,-1.21,-1.23,1.23,1.22,0.08,0.02,0.02
556,-1.20,-1.21,-1.26,-1.27,1.27,1.23,0.06,0.01,0.01
562,-1.25,-1.25,-1.31,-1.30,1.30,1.24,0.05,-0.00,-0.00
568,-1.35,-1.34,-1.36,-1.35,1.35,1.26,-0.01,-0.01,-0.01
573,-1.44,-1.42,-1.41,-1.39,1.39,1.27,-0.06,-0.02,-0.02
579,-1.48,-1.45,-1.45,-1.42,1.42,1.28,-0.06,-0.03,-0.03
585,-1.50,-1.47,-1.48,-1.45,1.45,1.29,-0.06,-0.03,-0.03
591,-1.52,-1.49,-1.49,-1.46,1.46,1.30,-0.06,-0.03,-0.03
596,-1.52,-1.49,-1.49,-1.46,1.46,1.31,-0.07,-0.03,-0.03
602,-1.51,-1.49,-1.46,-1.44,1.44,1.33,-0.07,-0.02,-0.02
608,-1.41,-1.40,-1.43,-1.42,1.42,1.34,0.01,-0.01,-0.01
615,-1.33,-1.34,-1.38,-1.39,1.39,1.35,0.06,0.01,0.01
621,-1.27,-1.30,-1.33,-1.36,1.36,1.37,0.08,0.03,0.02
627,-1.24,-1.29,-1.28,-1.32,1.32,1.38,0.08,0.05,0.05
633,-1.21,-1.29,-1.22,-1.29,1.29,1.40,0.08,0.07,0.07
639,-1.18,-1.28,-1.15,-1.25,1.25,1.41,0.07,0.10,0.10
646,-1.14,-1.27,-1.08,-1.21,1.21,1.43,0.07,0.13,0.13
652,-1.05,-1.22,-1.00,-1.17,1.17,1.45,0.12,0.16,0.16
659,-0.85,-1.05,-0.92,-1.12,1.12,1.47,0.26,0.20,0.20
665,-0.80,-1.03,-0.83,-1.06,1.06,1.49,0.26,0.23,0.23
672,-0.75,-1.02,-0.73,-1.00,1.00,1.51,0.24,0.27,0.27
679,-0.64,-0.94,-0.63,-0.93,0.93,1.54,0.29,0.30,0.30
686,-0.55,-0.89,-0.53,-0.86,0.86,1.56,0.31,0.33,0.33
692,-0.39,-0.76,-0.42,-0.79,0.79,1.58,0.40,0.36,0.37
699,-0.30,-0.70,-0.32,-0.72,0.72,1.61,0.42,0.39,0.40
706,-0.24,-0.67,-0.23,-0.65,0.65,1.64,0.41,0.42,0.42
713,-0.14,-0.59,-0.13,-0.58,0.58,1.67,0.44,0.45,0.45
721,0.01,-0.47,-0.04,-0.52,0.52,1.70,0.53,0.47,0.48
728,0.03,-0.47,0.04,-0.46,0.46,1.73,0.48,0.50,0.50
735,0.10,-0.42,0.12,-0.40,0.40,1.77,0.50,0.52,0.52
742,0.22,-0.32,0.19,-0.34,0.34,1.80,0.56,0.53,0.53
750,0.24,-0.31,0.26,-0.29,0.29,1.84,0.53,0.55,0.55
757,0.30,-0.27,0.33,-0.24,0.24,1.87,0.54,0.56,0.56
765,0.45,-0.13,0.39,-0.19,0.19,1.92,0.63,0.58,0.58
773,0.47,-0.12,0.45,-0.14,0.14,1.96,0.60,0.59,0.59
780,0.44,-0.16,0.51,-0.08,0.08,1.99,0.52,0.60,0.60
788,0.61,-0.00,0.57,-0.03,0.03,2.04,0.64,0.61,0.61
796,0.66,0.04,0.63,0.02,-0.02,2.08,0.64,0.62,0.62
804,0.61,-0.02,0.69,0.07,-0.07,2.12,0.54,0.62,0.62
812,0.76,0.13,0.75,0.12,-0.12,2.16,0.64,0.63,0.63
820,0.90,0.26,0.80,0.16,-0.16,2.21,0.73,0.64,0.64
828,0.84,0.19,0.85,0.21,-0.21,2.25,0.63,0.65,0.64
837,0.84,0.19,0.90,0.25,-0.25,2.30,0.59,0.65,0.65
845,0.95,0.29,0.95,0.29,-0.29,2.34,0.66,0.66,0.66
853,0.94,0.27,0.98,0.32,-0.32,2.38,0.62,0.67,0.67
862,1.04,0.36,1.01,0.34,-0.34,2.42,0.70,0.67,0.67
871,1.05,0.37,1.03,0.35,-0.35,2.46,0.70,0.68,0.68
879,1.04,0.35,1.03,0.34,-0.34,2.49,0.70,0.69,0.69
888,1.04,0.34,1.01,0.32,-0.32,2.53,0.72,0.70,0.70
897,1.03,0.32,0.98,0.27,-0.27,2.57,0.75,0.70,0.70
906,0.94,0.22,0.93,0.21,-0.21,2.60,0.72,0.71,0.71
915,0.81,0.08,0.86,0.14,-0.14,2.62,0.67,0.72,0.72
924,0.81,0.07,0.78,0.05,-0.05,2.65,0.76,0.73,0.73
933,0.71,-0.04,0.70,-0.05,0.05,2.67,0.75,0.74,0.74
943,0.61,-0.15,0.60,-0.15,0.15,2.69,0.76,0.75,0.75
952,0.47,-0.30,0.51,-0.26,0.26,2.70,0.73,0.77,0.77
962,0.37,-0.41,0.41,-0.37,0.37,2.71,0.74,0.78,0.78
971,0.32,-0.48,0.31,-0.49,0.49,2.72,0.81,0.79,0.79
981,0.23,-0.58,0.21,-0.60,0.60,2.72,0.83,0.81,0.81
991,0.12,-0.71,0.11,-0.72,0.72,2.71,0.84,0.83,0.83
1001,-0.01,-0.86,0.01,-0.84,0.84,2.70,0.83,0.85,0.85
1011,-0.13,-1.00,-0.10,-0.96,0.96,2.69,0.83,0.87,0.87
1021,-0.21,-1.10,-0.20,-1.09,1.09,2.67,0.88,0.89,0.89
1031,-0.33,-1.25,-0.32,-1.24,1.24,2.64,0.90,0.91,0.91
1041,-0.43,-1.37,-0.45,-1.39,1.39,2.62,0.96,0.94,0.94
1052,-0.60,-1.57,-0.60,-1.56,1.56,2.58,0.96,0.97,0.97
1062,-0.69,-1.69,-0.76,-1.76,1.76,2.54,1.07,0.99,0.99
1073,-0.93,-1.96,-0.95,-1.98,1.98,2.50,1.04,1.02,1.02
1084,-1.18,-2.24,-1.16,-2.22,2.22,2.45,1.04,1.06,1.06
1094,-1.37,-2.46,-1.40,-2.49,2.49,2.41,1.11,1.09,1.09
1105,-1.57,-2.69,-1.65,-2.77,2.77,2.35,1.20,1.12,1.12
1116,-1.90,-3.06,-1.92,-3.07,3.07,2.30,1.17,1.16,1.16
1128,-2.18,-3.37,-2.18,-3.37,3.37,2.23,1.19,1.19,1.19
1139,-2.44,-3.67,-2.45,-3.67,3.67,2.17,1.23,1.22,1.22
1150,-2.73,-3.99,-2.69,-3.95,3.95,2.11,1.22,1.26,1.26
1162,-3.00,-4.29,-2.92,-4.21,4.21,2.04,1.21,1.29,1.29
1173,-3.14,-4.47,-3.11,-4.44,4.44,1.98,1.29,1.32,1.32
1185,-3.29,-4.65,-3.28,-4.63,4.63,1.91,1.34,1.35,1.35
1197,-3.42,-4.80,-3.41,-4.79,4.79,1.83,1.36,1.38,1.38
1209,-3.50,-4.91,-3.50,-4.91,4.91,1.76,1.41,1.41,1.41
1221,-3.58,-5.02,-3.57,-5.01,5.01,1.69,1.42,1.43,1.43
1233,-3.64,-5.10,-3.62,-5.07,5.07,1.62,1.43,1.45,1.45
1246,-3.64,-5.12,-3.65,-5.12,5.12,1.54,1.48,1.47,1.47
1258,-3.64,-5.13,-3.67,-5.15,5.15,1.47,1.51,1.49,1.49
1271,-3.66,-5.16,-3.68,-5.18,5.18,1.39,1.51,1.50,1.50
1283,-3.65,-5.16,-3.69,-5.20,5.20,1.32,1.54,1.51,1.51
1296,-3.70,-5.22,-3.70,-5.22,5.22,1.24,1.51,1.52,1.52
1309,-3.69,-5.21,-3.72,-5.24,5.24,1.17,1.54,1.52,1.52
1322,-3.68,-5.20,-3.73,-5.25,5.25,1.10,1.57,1.52,1.52
1335,-3.71,-5.23,-3.75,-5.27,5.27,1.02,1.56,1.52,1.52
1349,-3.74,-5.26,-3.76,-5.28,5.28,0.95,1.53,1.51,1.51
1362,-3.80,-5.31,-3.76,-5.27,5.27,0.88,1.47,1.51,1.51
1376,-3.78,-5.28,-3.74,-5.24,5.24,0.80,1.46,1.50,1.50
1390,-3.74,-5.24,-3.70,-5.19,5.19,0.73,1.45,1.49,1.49
1404,-3.69,-5.18,-3.63,-5.12,5.12,0.65,1.43,1.48,1.48
1418,-3.55,-5.03,-3.55,-5.02,5.02,0.58,1.47,1.48,1.48
1432,-3.40,-4.87,-3.43,-4.90,4.90,0.51,1.50,1.47,1.47
1446,-3.28,-4.74,-3.30,-4.76,4.76,0.44,1.48,1.46,1.46
1461,-3.17,-4.63,-3.16,-4.61,4.61,0.37,1.44,1.45,1.45
1475,-2.94,-4.39,-2.99,-4.44,4.44,0.30,1.50,1.45,1.45
1490,-2.78,-4.23,-2.82,-4.27,4.27,0.23,1.49,1.45,1.45
1505,-2.67,-4.12,-2.64,-4.09,4.09,0.16,1.42,1.45,1.45
1520,-2.47,-3.93,-2.45,-3.90,3.90,0.09,1.43,1.46,1.46
1535,-2.25,-3.72,-2.24,-3.71,3.71,0.03,1.46,1.47,1.47
1550,-2.03,-3.51,-2.03,-3.51,3.51,-0.04,1.48,1.48,1.48
1566,-1.77,-3.27,-1.80,-3.30,3.30,-0.11,1.53,1.50,1.50
1582,-1.55,-3.08,-1.56,-3.09,3.09,-0.17,1.54,1.53,1.52
1597,-1.32,-2.88,-1.31,-2.87,2.87,-0.24,1.54,1.55,1.55
1613,-1.02,-2.61,-1.05,-2.64,2.64,-0.30,1.61,1.59,1.59
1629,-0.80,-2.43,-0.77,-2.40,2.40,-0.36,1.59,1.63,1.63
1646,-0.51,-2.19,-0.48,-2.15,2.15,-0.43,1.64,1.68,1.67
1662,-0.20,-1.93,-0.17,-1.90,1.90,-0.49,1.70,1.73,1.73
1679,0.14,-1.65,0.14,-1.64,1.64,-0.55,1.78,1.78,1.78
1696,0.46,-1.39,0.46,-1.39,1.39,-0.60,1.85,1.84,1.84
1713,0.77,-1.14,0.77,-1.14,1.14,-0.66,1.91,1.91,1.91
1730,1.14,-0.85,1.08,-0.90,0.90,-0.71,2.04,1.98,1.98
1747,1.47,-0.59,1.39,-0.67,0.67,-0.77,2.14,2.06,2.06
1764,1.71,-0.43,1.69,-0.45,0.45,-0.81,2.16,2.14,2.14
1782,1.95,-0.28,1.98,-0.25,0.25,-0.86,2.20,2.22,2.22
1800,2.24,-0.08,2.26,-0.05,0.05,-0.91,2.29,2.31,2.31
1818,2.52,0.11,2.54,0.14,-0.14,-0.95,2.38,2.40,2.40
1836,2.83,0.33,2.82,0.33,-0.33,-0.99,2.50,2.50,2.50
1854,3.10,0.50,3.10,0.51,-0.51,-1.02,2.59,2.59,2.60
1873,3.37,0.67,3.39,0.69,-0.69,-1.06,2.67,2.69,2.69
