frequency,raw,error,smoothed,error_smoothed,equalization,parametric_eq,fixed_band_eq,equalized_raw,equalized_smoothed,target
20.00,8.74,2.79,8.74,2.79,-2.79,-3.18,-1.51,5.95,5.95,5.95
20.20,8.76,2.82,8.76,2.82,-2.82,-3.19,-1.55,5.94,5.94,5.94
20.40,8.78,2.85,8.78,2.85,-2.85,-3.19,-1.59,5.93,5.93,5.93
20.61,8.80,2.88,8.79,2.88,-2.88,-3.20,-1.64,5.92,5.92,5.92
20.81,8.81,2.91,8.81,2.91,-2.91,-3.21,-1.69,5.90,5.90,5.90
21.02,8.83,2.94,8.83,2.94,-2.94,-3.21,-1.73,5.89,5.89,5.89
21.23,8.85,2.97,8.85,2.96,-2.96,-3.22,-1.78,5.88,5.88,5.88
21.44,8.87,2.98,8.87,2.99,-2.99,-3.23,-1.84,5.88,5.88,5.89
21.66,8.89,3.02,8.89,3.02,-3.02,-3.23,-1.89,5.87,5.87,5.87
21.87,8.91,3.04,8.91,3.04,-3.04,-3.24,-1.94,5.86,5.86,5.87
22.09,8.93,3.08,8.93,3.07,-3.07,-3.25,-2.00,5.86,5.86,5.85
22.31,8.94,3.09,8.94,3.10,-3.09,-3.25,-2.05,5.84,5.85,5.85
22.54,8.96,3.12,8.95,3.12,-3.12,-3.26,-2.11,5.84,5.84,5.84
22.76,8.97,3.13,8.97,3.14,-3.14,-3.27,-2.17,5.83,5.83,5.84
22.99,8.99,3.16,8.99,3.16,-3.16,-3.28,-2.23,5.83,5.83,5.83
23.22,9.01,3.19,9.00,3.18,-3.18,-3.28,-2.30,5.82,5.82,5.81
23.45,9.02,3.19,9.02,3.21,-3.20,-3.29,-2.36,5.82,5.82,5.82
23.69,9.04,3.22,9.03,3.22,-3.22,-3.30,-2.42,5.82,5.81,5.81
23.92,9.05,3.25,9.05,3.24,-3.24,-3.31,-2.49,5.81,5.81,5.80
24.16,9.07,3.26,9.07,3.26,-3.26,-3.32,-2.56,5.81,5.81,5.81
24.40,9.09,3.28,9.09,3.28,-3.28,-3.33,-2.63,5.81,5.81,5.81
24.65,9.11,3.30,9.11,3.29,-3.30,-3.33,-2.70,5.81,5.81,5.81
24.89,9.12,3.31,9.12,3.31,-3.32,-3.34,-2.77,5.80,5.81,5.81
25.14,9.14,3.34,9.14,3.33,-3.33,-3.35,-2.84,5.81,5.80,5.80
25.39,9.15,3.35,9.15,3.35,-3.35,-3.36,-2.91,5.80,5.80,5.80
25.65,9.17,3.37,9.17,3.37,-3.36,-3.37,-2.98,5.80,5.80,5.80
25.91,9.18,3.38,9.18,3.38,-3.38,-3.38,-3.06,5.80,5.80,5.80
26.16,9.20,3.39,9.19,3.39,-3.39,-3.39,-3.13,5.80,5.80,5.81
26.43,9.21,3.40,9.21,3.40,-3.41,-3.40,-3.20,5.80,5.80,5.80
26.69,9.22,3.41,9.22,3.42,-3.42,-3.41,-3.27,5.80,5.80,5.80
26.96,9.24,3.43,9.23,3.43,-3.43,-3.42,-3.35,5.80,5.80,5.80
27.23,9.25,3.45,9.25,3.45,-3.45,-3.43,-3.42,5.80,5.81,5.80
27.50,9.27,3.47,9.27,3.46,-3.46,-3.44,-3.48,5.81,5.81,5.80
27.77,9.28,3.47,9.28,3.47,-3.47,-3.45,-3.55,5.81,5.81,5.81
28.05,9.29,3.48,9.29,3.48,-3.48,-3.46,-3.62,5.81,5.81,5.81
28.33,9.30,3.48,9.30,3.48,-3.49,-3.47,-3.68,5.81,5.81,5.82
28.62,9.31,3.49,9.31,3.49,-3.49,-3.48,-3.74,5.81,5.82,5.82
28.90,9.33,3.50,9.32,3.50,-3.50,-3.49,-3.80,5.82,5.82,5.82
29.19,9.34,3.51,9.33,3.51,-3.51,-3.51,-3.85,5.83,5.82,5.82
29.48,9.34,3.52,9.34,3.52,-3.52,-3.52,-3.90,5.82,5.82,5.82
29.78,9.35,3.53,9.35,3.53,-3.53,-3.53,-3.95,5.82,5.82,5.82
30.08,9.36,3.54,9.36,3.54,-3.54,-3.54,-3.99,5.82,5.81,5.82
30.38,9.37,3.56,9.37,3.56,-3.55,-3.55,-4.03,5.82,5.81,5.81
30.68,9.37,3.56,9.37,3.57,-3.56,-3.57,-4.06,5.81,5.81,5.80
30.99,9.38,3.57,9.38,3.57,-3.57,-3.58,-4.09,5.81,5.80,5.80
31.30,9.38,3.58,9.38,3.58,-3.58,-3.59,-4.12,5.80,5.80,5.80
31.61,9.39,3.59,9.38,3.59,-3.59,-3.60,-4.14,5.80,5.79,5.80
31.93,9.39,3.61,9.39,3.60,-3.60,-3.62,-4.16,5.79,5.78,5.78
32.24,9.39,3.60,9.39,3.61,-3.61,-3.63,-4.17,5.78,5.78,5.78
32.57,9.40,3.62,9.40,3.62,-3.62,-3.64,-4.18,5.77,5.77,5.77
32.89,9.41,3.64,9.40,3.63,-3.63,-3.66,-4.18,5.77,5.77,5.77
33.22,9.41,3.64,9.41,3.64,-3.64,-3.67,-4.18,5.76,5.77,5.77
33.55,9.42,3.65,9.42,3.65,-3.65,-3.69,-4.18,5.76,5.76,5.77
33.89,9.42,3.66,9.42,3.66,-3.66,-3.70,-4.18,5.76,5.76,5.75
34.23,9.42,3.68,9.42,3.68,-3.67,-3.72,-4.17,5.75,5.75,5.74
34.57,9.42,3.68,9.42,3.68,-3.68,-3.73,-4.16,5.74,5.74,5.74
34.92,9.42,3.69,9.42,3.69,-3.68,-3.74,-4.15,5.73,5.73,5.72
35.27,9.42,3.68,9.42,3.69,-3.69,-3.76,-4.13,5.73,5.73,5.74
35.62,9.42,3.70,9.42,3.69,-3.70,-3.78,-4.12,5.72,5.72,5.72
35.97,9.42,3.70,9.42,3.70,-3.71,-3.79,-4.10,5.71,5.71,5.72
36.33,9.42,3.72,9.41,3.72,-3.72,-3.81,-4.08,5.70,5.70,5.70
36.70,9.41,3.73,9.41,3.73,-3.73,-3.82,-4.07,5.68,5.69,5.68
37.06,9.41,3.74,9.41,3.74,-3.74,-3.84,-4.05,5.67,5.67,5.66
37.43,9.41,3.76,9.40,3.75,-3.75,-3.86,-4.03,5.65,5.65,5.65
37.81,9.40,3.76,9.40,3.77,-3.77,-3.87,-4.02,5.63,5.63,5.64
38.19,9.40,3.78,9.40,3.78,-3.78,-3.89,-4.00,5.61,5.61,5.61
38.57,9.40,3.80,9.40,3.80,-3.80,-3.91,-3.99,5.60,5.60,5.60
38.95,9.40,3.81,9.40,3.82,-3.82,-3.92,-3.98,5.58,5.58,5.58
39.34,9.40,3.84,9.40,3.84,-3.84,-3.94,-3.96,5.56,5.56,5.56
39.74,9.40,3.86,9.40,3.86,-3.86,-3.96,-3.96,5.54,5.54,5.53
40.14,9.40,3.88,9.40,3.88,-3.88,-3.98,-3.95,5.52,5.52,5.52
40.54,9.40,3.89,9.40,3.90,-3.90,-4.00,-3.95,5.50,5.50,5.50
40.94,9.40,3.92,9.40,3.92,-3.92,-4.01,-3.94,5.48,5.48,5.48
41.35,9.40,3.93,9.40,3.94,-3.94,-4.03,-3.94,5.46,5.46,5.46
41.76,9.40,3.96,9.40,3.96,-3.95,-4.05,-3.95,5.44,5.44,5.44
42.18,9.40,3.97,9.40,3.97,-3.97,-4.07,-3.95,5.42,5.42,5.43
42.60,9.40,3.99,9.40,3.99,-3.99,-4.09,-3.96,5.41,5.41,5.40
43.03,9.40,4.01,9.40,4.01,-4.01,-4.11,-3.97,5.39,5.39,5.39
43.46,9.40,4.04,9.40,4.03,-4.03,-4.13,-3.99,5.37,5.37,5.36
43.90,9.40,4.05,9.40,4.06,-4.05,-4.15,-4.01,5.34,5.34,5.34
44.33,9.40,4.08,9.40,4.08,-4.08,-4.17,-4.03,5.32,5.32,5.32
44.78,9.40,4.10,9.40,4.10,-4.10,-4.19,-4.05,5.30,5.30,5.30
45.23,9.40,4.12,9.40,4.12,-4.13,-4.21,-4.08,5.27,5.27,5.28
45.68,9.40,4.15,9.40,4.15,-4.15,-4.23,-4.11,5.25,5.25,5.24
46.13,9.40,4.18,9.40,4.18,-4.18,-4.25,-4.14,5.22,5.22,5.21
46.60,9.40,4.21,9.40,4.21,-4.21,-4.27,-4.18,5.19,5.19,5.19
47.06,9.40,4.24,9.40,4.24,-4.24,-4.30,-4.21,5.15,5.15,5.16
47.53,9.40,4.27,9.40,4.28,-4.28,-4.32,-4.26,5.12,5.12,5.13
48.01,9.40,4.32,9.40,4.31,-4.32,-4.34,-4.30,5.08,5.08,5.08
48.49,9.40,4.35,9.40,4.35,-4.35,-4.36,-4.35,5.05,5.05,5.05
48.97,9.40,4.39,9.40,4.39,-4.39,-4.38,-4.40,5.01,5.01,5.01
49.46,9.40,4.42,9.40,4.43,-4.43,-4.41,-4.45,4.97,4.97,4.98
49.96,9.40,4.47,9.40,4.46,-4.46,-4.43,-4.50,4.94,4.94,4.92
50.46,9.40,4.50,9.40,4.50,-4.50,-4.45,-4.56,4.90,4.90,4.90
50.96,9.40,4.53,9.40,4.53,-4.53,-4.47,-4.61,4.87,4.87,4.87
51.47,9.40,4.56,9.40,4.56,-4.56,-4.50,-4.67,4.84,4.84,4.84
51.99,9.40,4.60,9.40,4.60,-4.59,-4.52,-4.73,4.80,4.80,4.79
52.51,9.40,4.63,9.40,4.63,-4.63,-4.54,-4.79,4.77,4.77,4.77
53.03,9.40,4.65,9.40,4.66,-4.66,-4.57,-4.85,4.74,4.74,4.75
53.56,9.40,4.69,9.40,4.69,-4.69,-4.59,-4.92,4.71,4.71,4.71
54.10,9.40,4.73,9.40,4.72,-4.72,-4.62,-4.98,4.67,4.67,4.67
54.64,9.40,4.76,9.40,4.76,-4.76,-4.64,-5.04,4.64,4.64,4.64
55.18,9.40,4.79,9.40,4.79,-4.79,-4.66,-5.10,4.61,4.61,4.61
55.74,9.40,4.83,9.40,4.82,-4.82,-4.69,-5.16,4.58,4.58,4.57
56.29,9.40,4.85,9.40,4.85,-4.85,-4.71,-5.22,4.55,4.55,4.55
56.86,9.40,4.87,9.40,4.88,-4.88,-4.74,-5.27,4.52,4.52,4.52
57.42,9.40,4.91,9.40,4.91,-4.91,-4.76,-5.32,4.49,4.49,4.49
58.00,9.40,4.94,9.40,4.94,-4.94,-4.79,-5.37,4.46,4.46,4.46
58.58,9.41,4.97,9.40,4.97,-4.97,-4.81,-5.42,4.44,4.44,4.44
59.16,9.41,4.99,9.41,5.00,-5.00,-4.84,-5.46,4.40,4.41,4.42
59.76,9.42,5.03,9.42,5.03,-5.04,-4.86,-5.50,4.38,4.37,4.39
60.35,9.42,5.07,9.42,5.07,-5.08,-4.89,-5.54,4.34,4.34,4.34
60.96,9.42,5.12,9.42,5.12,-5.12,-4.91,-5.57,4.30,4.30,4.30
61.57,9.42,5.17,9.42,5.16,-5.16,-4.94,-5.60,4.26,4.26,4.25
62.18,9.42,5.21,9.41,5.21,-5.20,-4.96,-5.62,4.22,4.21,4.21
62.80,9.40,5.24,9.40,5.24,-5.23,-4.99,-5.64,4.16,4.17,4.16
63.43,9.39,5.27,9.39,5.27,-5.27,-5.01,-5.65,4.12,4.12,4.12
64.07,9.38,5.30,9.38,5.30,-5.30,-5.04,-5.66,4.08,4.08,4.08
64.71,9.37,5.32,9.36,5.32,-5.32,-5.07,-5.66,4.05,4.04,4.04
65.35,9.35,5.34,9.35,5.34,-5.34,-5.09,-5.66,4.01,4.01,4.01
66.01,9.33,5.36,9.33,5.36,-5.36,-5.12,-5.65,3.97,3.97,3.97
66.67,9.31,5.37,9.31,5.37,-5.37,-5.14,-5.64,3.93,3.93,3.94
67.33,9.29,5.40,9.29,5.39,-5.39,-5.17,-5.63,3.90,3.90,3.89
68.01,9.26,5.40,9.26,5.40,-5.40,-5.19,-5.62,3.86,3.86,3.86
68.69,9.24,5.42,9.23,5.41,-5.42,-5.22,-5.60,3.82,3.82,3.82
69.37,9.21,5.42,9.21,5.43,-5.43,-5.24,-5.58,3.78,3.78,3.79
70.07,9.19,5.44,9.19,5.45,-5.45,-5.27,-5.56,3.74,3.74,3.74
70.77,9.17,5.47,9.17,5.46,-5.47,-5.29,-5.53,3.70,3.70,3.70
71.48,9.15,5.48,9.14,5.48,-5.48,-5.32,-5.51,3.66,3.66,3.66
72.19,9.12,5.50,9.12,5.50,-5.50,-5.34,-5.49,3.62,3.62,3.62
72.91,9.10,5.53,9.10,5.53,-5.52,-5.37,-5.46,3.58,3.58,3.57
73.64,9.09,5.55,9.08,5.55,-5.54,-5.39,-5.44,3.54,3.54,3.54
74.38,9.07,5.57,9.07,5.57,-5.57,-5.42,-5.42,3.50,3.50,3.50
75.12,9.06,5.59,9.06,5.59,-5.59,-5.44,-5.39,3.47,3.47,3.47
75.87,9.05,5.61,9.05,5.61,-5.62,-5.47,-5.37,3.43,3.43,3.44
76.63,9.05,5.65,9.05,5.64,-5.65,-5.49,-5.35,3.39,3.39,3.40
77.40,9.05,5.67,9.05,5.68,-5.69,-5.52,-5.34,3.36,3.36,3.38
78.17,9.06,5.72,9.06,5.72,-5.72,-5.54,-5.32,3.33,3.34,3.33
78.95,9.08,5.76,9.07,5.76,-5.76,-5.57,-5.31,3.32,3.32,3.32
79.74,9.09,5.80,9.09,5.80,-5.79,-5.59,-5.30,3.29,3.30,3.29
80.54,9.10,5.84,9.10,5.84,-5.83,-5.62,-5.30,3.27,3.27,3.26
81.35,9.10,5.87,9.10,5.87,-5.86,-5.64,-5.29,3.24,3.24,3.23
82.16,9.09,5.88,9.09,5.88,-5.88,-5.66,-5.30,3.20,3.20,3.21
82.98,9.08,5.91,9.08,5.90,-5.91,-5.69,-5.30,3.17,3.17,3.17
83.81,9.06,5.91,9.06,5.92,-5.92,-5.71,-5.31,3.13,3.14,3.14
84.65,9.05,5.94,9.05,5.94,-5.94,-5.74,-5.32,3.11,3.11,3.11
85.50,9.03,5.95,9.02,5.95,-5.94,-5.76,-5.34,3.08,3.08,3.08
86.35,9.00,5.95,9.00,5.96,-5.95,-5.78,-5.35,3.05,3.05,3.05
87.22,8.97,5.95,8.97,5.96,-5.96,-5.81,-5.38,3.01,3.01,3.01
88.09,8.95,5.96,8.94,5.96,-5.96,-5.83,-5.41,2.99,2.98,2.98
88.97,8.91,5.96,8.91,5.96,-5.96,-5.85,-5.44,2.94,2.95,2.95
89.86,8.88,5.96,8.88,5.97,-5.97,-5.87,-5.47,2.91,2.92,2.92
90.76,8.86,5.97,8.85,5.97,-5.97,-5.90,-5.51,2.89,2.89,2.88
91.66,8.83,5.99,8.83,5.98,-5.97,-5.92,-5.56,2.86,2.85,2.84
92.58,8.80,5.98,8.80,5.98,-5.98,-5.94,-5.61,2.82,2.82,2.82
93.51,8.77,5.99,8.77,5.99,-6.00,-5.96,-5.66,2.77,2.77,2.78
94.44,8.75,6.00,8.75,6.01,-6.02,-5.99,-5.71,2.73,2.73,2.75
95.39,8.74,6.04,8.73,6.03,-6.05,-6.01,-5.77,2.69,2.69,2.70
96.34,8.73,6.06,8.73,6.07,-6.08,-6.03,-5.83,2.65,2.65,2.66
97.30,8.73,6.10,8.73,6.11,-6.12,-6.05,-5.90,2.61,2.62,2.63
98.28,8.75,6.17,8.74,6.16,-6.16,-6.07,-5.97,2.59,2.59,2.58
99.26,8.76,6.21,8.76,6.21,-6.20,-6.10,-6.04,2.56,2.56,2.54
100.25,8.77,6.26,8.76,6.25,-6.24,-6.12,-6.12,2.53,2.52,2.51
101.25,8.76,6.28,8.76,6.28,-6.27,-6.14,-6.20,2.48,2.48,2.48
102.27,8.75,6.30,8.75,6.30,-6.30,-6.16,-6.28,2.45,2.45,2.45
103.29,8.74,6.32,8.74,6.32,-6.32,-6.18,-6.36,2.42,2.42,2.41
104.32,8.73,6.34,8.72,6.34,-6.33,-6.20,-6.44,2.39,2.39,2.39
105.37,8.70,6.34,8.70,6.34,-6.34,-6.22,-6.52,2.36,2.36,2.36
106.42,8.67,6.34,8.67,6.34,-6.34,-6.24,-6.61,2.33,2.33,2.33
107.48,8.64,6.35,8.63,6.34,-6.34,-6.27,-6.69,2.30,2.30,2.29
108.56,8.60,6.33,8.60,6.33,-6.33,-6.29,-6.78,2.27,2.27,2.26
109.64,8.56,6.32,8.56,6.33,-6.33,-6.31,-6.86,2.23,2.23,2.24
110.74,8.53,6.33,8.52,6.32,-6.33,-6.33,-6.94,2.20,2.19,2.20
111.85,8.49,6.33,8.49,6.32,-6.34,-6.35,-7.02,2.15,2.15,2.16
112.97,8.46,6.32,8.46,6.33,-6.35,-6.37,-7.09,2.11,2.12,2.13
114.10,8.45,6.35,8.45,6.35,-6.36,-6.39,-7.16,2.08,2.08,2.10
115.24,8.44,6.39,8.44,6.38,-6.38,-6.41,-7.23,2.05,2.05,2.05
116.39,8.43,6.41,8.43,6.41,-6.41,-6.43,-7.29,2.02,2.02,2.02
117.55,8.42,6.44,8.42,6.44,-6.43,-6.45,-7.35,1.99,1.99,1.98
118.73,8.41,6.46,8.41,6.46,-6.45,-6.47,-7.40,1.96,1.96,1.95
119.92,8.39,6.47,8.39,6.47,-6.46,-6.49,-7.44,1.92,1.93,1.92
121.12,8.38,6.48,8.38,6.48,-6.48,-6.51,-7.48,1.90,1.90,1.90
122.33,8.36,6.49,8.35,6.49,-6.48,-6.52,-7.50,1.88,1.87,1.86
123.55,8.33,6.49,8.32,6.49,-6.48,-6.54,-7.53,1.84,1.84,1.84
124.79,8.29,6.48,8.29,6.48,-6.48,-6.56,-7.54,1.80,1.81,1.81
126.03,8.25,6.47,8.26,6.48,-6.48,-6.58,-7.54,1.77,1.77,1.78
127.29,8.23,6.48,8.22,6.48,-6.48,-6.60,-7.54,1.75,1.74,1.74
128.57,8.20,6.49,8.19,6.48,-6.48,-6.62,-7.53,1.71,1.71,1.70
129.85,8.15,6.47,8.16,6.49,-6.49,-6.63,-7.50,1.66,1.67,1.67
131.15,8.13,6.49,8.13,6.49,-6.50,-6.65,-7.48,1.63,1.63,1.64
132.46,8.12,6.51,8.11,6.51,-6.52,-6.67,-7.44,1.60,1.59,1.61
133.79,8.10,6.53,8.10,6.53,-6.54,-6.68,-7.41,1.56,1.57,1.57
135.12,8.10,6.55,8.10,6.55,-6.56,-6.70,-7.36,1.54,1.54,1.54
136.48,8.10,6.58,8.10,6.58,-6.58,-6.72,-7.31,1.51,1.51,1.52
137.84,8.10,6.62,8.10,6.61,-6.61,-6.73,-7.25,1.49,1.49,1.48
139.22,8.09,6.64,8.09,6.64,-6.62,-6.75,-7.19,1.46,1.46,1.45
140.61,8.08,6.65,8.07,6.65,-6.64,-6.76,-7.13,1.44,1.44,1.42
142.02,8.05,6.66,8.05,6.66,-6.65,-6.77,-7.06,1.40,1.40,1.39
143.44,8.03,6.66,8.02,6.65,-6.65,-6.79,-7.00,1.38,1.37,1.37
144.87,7.99,6.64,7.99,6.64,-6.65,-6.80,-6.93,1.34,1.34,1.35
146.32,7.96,6.64,7.96,6.64,-6.64,-6.81,-6.86,1.31,1.31,1.32
147.78,7.93,6.63,7.93,6.63,-6.64,-6.82,-6.79,1.29,1.29,1.30
149.26,7.90,6.63,7.90,6.63,-6.63,-6.83,-6.72,1.27,1.27,1.27
150.75,7.87,6.62,7.87,6.62,-6.62,-6.84,-6.65,1.25,1.25,1.24
152.26,7.85,6.62,7.85,6.62,-6.62,-6.85,-6.59,1.23,1.23,1.23
153.78,7.82,6.62,7.82,6.61,-6.61,-6.86,-6.52,1.21,1.20,1.20
155.32,7.79,6.61,7.79,6.61,-6.61,-6.87,-6.46,1.18,1.18,1.18
156.88,7.75,6.60,7.75,6.60,-6.61,-6.88,-6.40,1.14,1.15,1.15
158.44,7.73,6.61,7.72,6.60,-6.60,-6.88,-6.35,1.12,1.12,1.12
160.03,7.69,6.59,7.69,6.60,-6.60,-6.89,-6.29,1.09,1.09,1.10
161.63,7.67,6.60,7.67,6.60,-6.60,-6.89,-6.25,1.06,1.06,1.06
163.24,7.65,6.61,7.64,6.61,-6.61,-6.90,-6.20,1.04,1.03,1.03
164.88,7.61,6.60,7.62,6.61,-6.61,-6.90,-6.16,1.00,1.00,1.00
166.53,7.59,6.62,7.59,6.62,-6.62,-6.90,-6.12,0.97,0.97,0.97
168.19,7.57,6.62,7.56,6.62,-6.62,-6.90,-6.09,0.95,0.94,0.95
169.87,7.54,6.63,7.54,6.63,-6.63,-6.90,-6.06,0.91,0.92,0.91
171.57,7.52,6.65,7.51,6.64,-6.63,-6.90,-6.03,0.89,0.88,0.87
173.29,7.49,6.64,7.48,6.64,-6.63,-6.90,-6.01,0.85,0.84,0.85
175.02,7.44,6.63,7.44,6.63,-6.64,-6.90,-6.00,0.80,0.81,0.81
176.77,7.41,6.63,7.41,6.64,-6.64,-6.89,-5.98,0.76,0.77,0.78
178.54,7.39,6.65,7.39,6.65,-6.65,-6.89,-5.98,0.74,0.73,0.74
180.32,7.37,6.67,7.36,6.66,-6.66,-6.88,-5.98,0.71,0.71,0.70
182.13,7.34,6.66,7.34,6.66,-6.67,-6.87,-5.98,0.67,0.67,0.68
183.95,7.31,6.66,7.31,6.67,-6.67,-6.86,-5.98,0.64,0.64,0.65
185.79,7.29,6.68,7.29,6.68,-6.68,-6.85,-6.00,0.61,0.61,0.60
187.65,7.27,6.69,7.26,6.69,-6.68,-6.84,-6.01,0.59,0.58,0.57
189.52,7.24,6.69,7.24,6.69,-6.68,-6.83,-6.03,0.55,0.55,0.54
191.42,7.20,6.68,7.20,6.68,-6.68,-6.82,-6.05,0.52,0.52,0.51
193.33,7.16,6.67,7.16,6.68,-6.68,-6.80,-6.08,0.48,0.48,0.49
195.27,7.12,6.67,7.12,6.67,-6.67,-6.79,-6.11,0.45,0.45,0.45
197.22,7.08,6.67,7.08,6.66,-6.66,-6.77,-6.15,0.41,0.41,0.41
199.19,7.04,6.64,7.04,6.65,-6.66,-6.75,-6.18,0.38,0.38,0.39
201.18,7.01,6.65,7.01,6.64,-6.65,-6.73,-6.22,0.36,0.36,0.36
203.19,6.98,6.64,6.98,6.64,-6.64,-6.71,-6.26,0.33,0.34,0.34
205.23,6.96,6.63,6.96,6.64,-6.64,-6.69,-6.31,0.32,0.32,0.33
207.28,6.94,6.64,6.93,6.63,-6.63,-6.67,-6.36,0.31,0.31,0.30
209.35,6.91,6.63,6.91,6.63,-6.62,-6.64,-6.41,0.29,0.29,0.28
211.44,6.88,6.62,6.88,6.62,-6.61,-6.62,-6.45,0.27,0.27,0.25
213.56,6.84,6.60,6.84,6.60,-6.60,-6.59,-6.50,0.24,0.24,0.24
215.69,6.80,6.58,6.79,6.58,-6.58,-6.56,-6.55,0.21,0.21,0.22
217.85,6.75,6.55,6.75,6.56,-6.57,-6.54,-6.60,0.18,0.18,0.20
220.03,6.72,6.54,6.72,6.55,-6.56,-6.51,-6.65,0.16,0.16,0.17
222.23,6.70,6.55,6.70,6.54,-6.55,-6.48,-6.70,0.15,0.15,0.15
224.45,6.68,6.54,6.67,6.53,-6.53,-6.45,-6.74,0.15,0.14,0.14
226.70,6.65,6.53,6.65,6.52,-6.51,-6.41,-6.78,0.14,0.14,0.12
228.96,6.62,6.50,6.62,6.51,-6.49,-6.38,-6.82,0.13,0.13,0.12
231.25,6.59,6.49,6.58,6.48,-6.47,-6.35,-6.85,0.12,0.11,0.10
233.57,6.54,6.45,6.53,6.44,-6.44,-6.31,-6.88,0.10,0.10,0.09
235.90,6.48,6.40,6.49,6.41,-6.41,-6.27,-6.90,0.07,0.08,0.08
238.26,6.44,6.38,6.44,6.36,-6.38,-6.24,-6.92,0.06,0.06,0.06
240.64,6.40,6.32,6.40,6.33,-6.34,-6.20,-6.92,0.06,0.05,0.07
243.05,6.36,6.29,6.36,6.30,-6.31,-6.16,-6.93,0.05,0.05,0.07
245.48,6.34,6.28,6.33,6.27,-6.27,-6.12,-6.92,0.06,0.06,0.06
247.93,6.30,6.25,6.30,6.25,-6.24,-6.08,-6.91,0.06,0.06,0.05
250.41,6.28,6.21,6.27,6.21,-6.20,-6.04,-6.88,0.07,0.07,0.06
252.92,6.24,6.17,6.24,6.18,-6.17,-6.00,-6.86,0.07,0.07,0.07
255.45,6.20,6.14,6.20,6.14,-6.13,-5.95,-6.82,0.07,0.07,0.06
258.00,6.16,6.10,6.15,6.09,-6.09,-5.91,-6.78,0.07,0.06,0.06
260.58,6.11,6.04,6.11,6.05,-6.05,-5.87,-6.72,0.06,0.06,0.07
263.19,6.07,6.00,6.07,6.00,-6.01,-5.82,-6.67,0.06,0.06,0.07
265.82,6.03,5.96,6.03,5.96,-5.97,-5.78,-6.60,0.06,0.06,0.06
268.48,6.00,5.93,6.00,5.93,-5.93,-5.73,-6.53,0.07,0.07,0.07
271.16,5.97,5.90,5.96,5.89,-5.89,-5.68,-6.45,0.08,0.07,0.07
273.87,5.91,5.84,5.92,5.85,-5.84,-5.64,-6.37,0.07,0.08,0.07
276.61,5.88,5.81,5.87,5.80,-5.79,-5.59,-6.28,0.08,0.07,0.07
279.38,5.82,5.76,5.82,5.76,-5.74,-5.54,-6.19,0.07,0.08,0.06
282.17,5.77,5.71,5.77,5.70,-5.69,-5.49,-6.10,0.07,0.08,0.06
284.99,5.73,5.65,5.72,5.64,-5.65,-5.44,-6.00,0.08,0.07,0.08
287.84,5.66,5.57,5.66,5.58,-5.60,-5.39,-5.90,0.06,0.07,0.08
290.72,5.62,5.54,5.62,5.53,-5.55,-5.34,-5.80,0.06,0.07,0.08
293.63,5.59,5.49,5.59,5.50,-5.51,-5.29,-5.70,0.07,0.08,0.10
296.57,5.58,5.48,5.58,5.47,-5.48,-5.24,-5.59,0.10,0.10,0.10
299.53,5.57,5.46,5.56,5.45,-5.45,-5.19,-5.49,0.12,0.12,0.11
302.53,5.55,5.42,5.55,5.43,-5.42,-5.14,-5.39,0.13,0.13,0.12
305.55,5.53,5.41,5.52,5.40,-5.39,-5.09,-5.29,0.13,0.13,0.12
308.61,5.50,5.36,5.50,5.37,-5.37,-5.04,-5.19,0.13,0.13,0.14
311.69,5.48,5.33,5.48,5.34,-5.34,-4.98,-5.09,0.14,0.14,0.14
314.81,5.47,5.32,5.46,5.31,-5.31,-4.93,-4.99,0.16,0.15,0.15
317.96,5.45,5.29,5.44,5.28,-5.28,-4.88,-4.89,0.17,0.16,0.16
321.14,5.42,5.24,5.42,5.25,-5.25,-4.83,-4.80,0.17,0.17,0.18
324.35,5.39,5.21,5.39,5.21,-5.22,-4.77,-4.71,0.17,0.18,0.17
327.59,5.37,5.17,5.37,5.18,-5.18,-4.72,-4.62,0.19,0.19,0.20
330.87,5.35,5.15,5.34,5.15,-5.14,-4.67,-4.53,0.21,0.20,0.20
334.18,5.32,5.11,5.32,5.11,-5.10,-4.61,-4.45,0.22,0.22,0.21
337.52,5.28,5.06,5.28,5.06,-5.05,-4.56,-4.37,0.22,0.22,0.21
340.90,5.24,5.01,5.23,5.01,-5.01,-4.51,-4.29,0.23,0.23,0.23
344.30,5.19,4.95,5.19,4.96,-4.96,-4.45,-4.22,0.23,0.23,0.24
347.75,5.15,4.90,5.15,4.90,-4.92,-4.40,-4.15,0.23,0.23,0.25
351.23,5.12,4.87,5.11,4.86,-4.87,-4.35,-4.08,0.25,0.25,0.24
354.74,5.08,4.81,5.08,4.82,-4.82,-4.29,-4.02,0.26,0.26,0.27
358.28,5.05,4.78,5.05,4.77,-4.77,-4.24,-3.95,0.27,0.27,0.27
361.87,5.01,4.73,5.01,4.73,-4.72,-4.18,-3.89,0.28,0.28,0.28
365.49,4.97,4.68,4.97,4.68,-4.67,-4.13,-3.84,0.30,0.30,0.29
369.14,4.93,4.62,4.93,4.62,-4.62,-4.08,-3.79,0.31,0.31,0.31
372.83,4.88,4.56,4.88,4.57,-4.56,-4.02,-3.74,0.32,0.32,0.31
376.56,4.82,4.51,4.82,4.50,-4.50,-3.97,-3.69,0.32,0.32,0.31
380.33,4.76,4.44,4.76,4.43,-4.43,-3.92,-3.64,0.33,0.33,0.32
384.13,4.70,4.36,4.70,4.36,-4.37,-3.86,-3.60,0.33,0.33,0.34
387.97,4.64,4.29,4.64,4.29,-4.30,-3.81,-3.56,0.33,0.33,0.35
391.85,4.58,4.22,4.58,4.23,-4.24,-3.76,-3.53,0.34,0.35,0.36
395.77,4.54,4.17,4.54,4.17,-4.17,-3.70,-3.49,0.37,0.37,0.37
399.73,4.50,4.12,4.50,4.12,-4.11,-3.65,-3.46,0.39,0.39,0.37
403.72,4.46,4.05,4.45,4.06,-4.04,-3.60,-3.43,0.41,0.41,0.40
407.76,4.40,4.00,4.40,3.99,-3.98,-3.55,-3.40,0.41,0.41,0.40
411.84,4.34,3.93,4.34,3.92,-3.92,-3.49,-3.37,0.41,0.41,0.41
415.96,4.28,3.85,4.28,3.85,-3.87,-3.44,-3.35,0.41,0.41,0.43
420.12,4.22,3.79,4.23,3.80,-3.81,-3.39,-3.32,0.41,0.42,0.43
424.32,4.19,3.75,4.19,3.74,-3.75,-3.34,-3.30,0.44,0.44,0.44
428.56,4.16,3.70,4.15,3.70,-3.69,-3.28,-3.28,0.47,0.46,0.46
432.85,4.11,3.64,4.10,3.64,-3.64,-3.23,-3.25,0.47,0.47,0.47
437.18,4.05,3.58,4.05,3.58,-3.58,-3.18,-3.23,0.46,0.47,0.47
441.55,4.00,3.52,4.00,3.53,-3.53,-3.13,-3.21,0.47,0.47,0.48
445.96,3.96,3.47,3.96,3.47,-3.48,-3.08,-3.19,0.48,0.48,0.48
450.42,3.92,3.42,3.91,3.42,-3.42,-3.03,-3.17,0.50,0.50,0.49
454.93,3.87,3.36,3.87,3.36,-3.36,-2.97,-3.15,0.51,0.51,0.50
459.48,3.82,3.31,3.82,3.30,-3.30,-2.92,-3.12,0.52,0.53,0.51
464.07,3.77,3.24,3.77,3.24,-3.23,-2.87,-3.10,0.53,0.53,0.53
468.71,3.72,3.18,3.71,3.17,-3.17,-2.82,-3.07,0.54,0.54,0.54
473.40,3.65,3.10,3.65,3.10,-3.11,-2.77,-3.04,0.53,0.54,0.55
478.13,3.60,3.04,3.60,3.04,-3.05,-2.72,-3.02,0.55,0.55,0.56
482.91,3.56,2.99,3.56,2.99,-2.99,-2.67,-2.99,0.57,0.57,0.57
487.74,3.52,2.94,3.51,2.94,-2.93,-2.62,-2.95,0.59,0.59,0.58
492.62,3.47,2.88,3.47,2.88,-2.87,-2.57,-2.92,0.60,0.60,0.59
497.55,3.42,2.82,3.41,2.82,-2.81,-2.52,-2.88,0.61,0.61,0.60
502.52,3.36,2.75,3.36,2.75,-2.75,-2.47,-2.84,0.61,0.61,0.61
507.55,3.30,2.67,3.31,2.68,-2.69,-2.42,-2.80,0.61,0.62,0.63
512.62,3.26,2.62,3.26,2.62,-2.63,-2.37,-2.75,0.63,0.63,0.64
517.75,3.22,2.56,3.21,2.56,-2.56,-2.32,-2.71,0.66,0.65,0.66
522.93,3.17,2.50,3.17,2.50,-2.50,-2.27,-2.66,0.67,0.67,0.67
528.16,3.12,2.44,3.12,2.44,-2.43,-2.22,-2.61,0.68,0.68,0.68
533.44,3.07,2.38,3.06,2.37,-2.37,-2.17,-2.55,0.70,0.69,0.69
538.77,3.00,2.30,3.00,2.31,-2.31,-2.12,-2.50,0.69,0.69,0.69
544.16,2.95,2.23,2.95,2.24,-2.25,-2.07,-2.44,0.70,0.71,0.71
