frequency,raw
20,1.92
21,2.13
22,2.33
23,2.52
24,2.70
25,2.87
26,3.04
27,3.19
28,3.34
29,3.47
30,3.60
31,3.72
32,3.82
33,3.92
34,4.02
35,4.10
36,4.17
37,4.23
38,4.30
39,4.37
40,4.44
41,4.50
42,4.56
43,4.62
44,4.67
45,4.71
46,4.75
47,4.78
48,4.80
49,4.82
50,4.84
51,4.87
52,4.91
53,4.94
54,4.96
55,4.98
56,5.01
57,5.04
58,5.07
59,5.11
60,5.14
61,5.16
62,5.19
63,5.20
64,5.21
65,5.21
66,5.21
67,5.20
68,5.19
69,5.19
70,5.19
71,5.20
72,5.21
73,5.21
74,5.20
75,5.18
76,5.15
77,5.12
78,5.10
79,5.08
80,5.06
81,5.05
82,5.05
83,5.05
84,5.05
85,5.06
86,5.07
87,5.09
88,5.11
89,5.14
90,5.17
91,5.20
92,5.22
93,5.23
94,5.23
95,5.21
96,5.19
97,5.16
98,5.14
99,5.11
100,5.07
101,5.04
102,5.01
104,4.97
105,4.94
106,4.91
107,4.88
108,4.86
109,4.85
110,4.84
111,4.84
112,4.85
113,4.86
114,4.86
115,4.86
117,4.85
118,4.85
119,4.85
120,4.85
121,4.87
123,4.89
124,4.91
125,4.94
126,4.99
128,5.03
129,5.06
130,5.09
131,5.10
133,5.11
134,5.11
135,5.10
137,5.09
138,5.06
140,5.03
141,4.99
142,4.95
144,4.92
145,4.89
147,4.87
148,4.85
150,4.84
151,4.84
153,4.85
154,4.87
156,4.88
157,4.88
159,4.88
160,4.88
162,4.86
164,4.84
165,4.81
167,4.78
169,4.75
170,4.72
172,4.68
174,4.65
175,4.62
177,4.60
179,4.58
181,4.57
183,4.55
184,4.53
186,4.51
188,4.49
190,4.47
192,4.45
194,4.42
196,4.38
198,4.35
200,4.32
202,4.29
204,4.27
206,4.25
208,4.23
210,4.21
212,4.19
214,4.18
216,4.17
218,4.15
221,4.12
223,4.09
225,4.07
227,4.04
229,4.01
232,3.97
234,3.92
236,3.88
239,3.84
241,3.80
244,3.76
246,3.73
248,3.71
251,3.68
253,3.66
256,3.63
259,3.60
261,3.56
264,3.52
266,3.49
269,3.46
272,3.43
274,3.41
277,3.39
280,3.36
283,3.34
286,3.31
288,3.27
291,3.23
294,3.20
297,3.16
300,3.13
303,3.11
306,3.08
309,3.05
312,3.02
316,2.99
319,2.96
322,2.95
325,2.94
328,2.92
332,2.91
335,2.89
338,2.88
342,2.86
345,2.84
349,2.80
352,2.77
356,2.74
359,2.71
363,2.69
366,2.66
370,2.63
374,2.60
377,2.57
381,2.53
385,2.51
389,2.49
393,2.47
397,2.45
401,2.42
405,2.38
409,2.33
413,2.28
417,2.23
421,2.19
425,2.15
430,2.12
434,2.10
438,2.07
443,2.04
447,1.99
451,1.94
456,1.90
460,1.85
465,1.82
470,1.79
474,1.77
479,1.74
484,1.70
489,1.65
494,1.60
499,1.55
504,1.51
509,1.48
514,1.46
519,1.43
524,1.40
529,1.36
535,1.31
540,1.26
545,1.21
551,1.17
556,1.14
562,1.11
568,1.09
573,1.07
579,1.04
585,1.01
591,0.97
596,0.93
602,0.90
608,0.87
615,0.84
621,0.82
627,0.80
633,0.77
639,0.75
646,0.72
652,0.68
659,0.65
665,0.61
672,0.58
679,0.55
686,0.52
692,0.49
699,0.46
706,0.43
713,0.40
721,0.37
728,0.36
735,0.34
742,0.33
750,0.32
757,0.30
765,0.29
773,0.28
780,0.25
788,0.22
796,0.19
804,0.15
812,0.12
820,0.08
828,0.05
837,0.03
845,0.01
853,-0.01
862,-0.02
871,-0.02
879,-0.02
888,-0.01
897,-0.00
906,0.00
915,-0.00
924,0.00
933,0.00
943,0.00
952,0.00
962,0.00
971,0.00
981,0.00
991,0.00
1001,0.00
1011,0.00
1021,0.00
1031,0.00
1041,0.00
1052,0.00
1062,-0.00
1073,0.00
1084,0.00
1094,-0.00
1105,0.00
1116,-0.00
1128,0.00
1139,0.00
1150,0.00
1162,0.00
1173,0.00
1185,0.00
1197,0.00
1209,-0.00
1221,-0.01
1233,-0.02
1246,-0.02
1258,-0.02
1271,-0.00
1283,0.02
1296,0.04
1309,0.07
1322,0.11
1335,0.14
1349,0.16
1362,0.19
1376,0.22
1390,0.25
1404,0.29
1418,0.34
1432,0.38
1446,0.42
1461,0.44
1475,0.46
1490,0.48
1505,0.51
1520,0.55
1535,0.59
1550,0.64
1566,0.69
1582,0.74
1597,0.78
1613,0.81
1629,0.83
1646,0.85
1662,0.87
1679,0.91
1696,0.95
1713,0.99
1730,1.04
1747,1.07
1764,1.11
1782,1.13
1800,1.16
1818,1.19
1836,1.21
1854,1.23
1873,1.25
1892,1.27
1911,1.29
1930,1.30
1949,1.30
1969,1.31
1988,1.34
2008,1.38
2028,1.44
2048,1.51
2069,1.61
2090,1.71
2111,1.83
2132,1.96
2153,2.10
2175,2.25
2196,2.39
2218,2.55
2240,2.70
2263,2.84
2285,2.98
2308,3.13
2331,3.28
2355,3.41
2378,3.56
2402,3.71
2426,3.85
2450,3.98
2475,4.13
2500,4.28
2525,4.42
2550,4.54
2575,4.66
2601,4.78
2627,4.89
2653,4.99
2680,5.09
2707,5.18
2734,5.25
2761,5.31
2789,5.38
2817,5.43
2845,5.46
2873,5.48
2902,5.50
2931,5.50
2960,5.49
2990,5.47
3020,5.43
3050,5.38
3080,5.31
3111,5.22
3142,5.12
3174,5.02
3206,4.90
3238,4.78
3270,4.65
3303,4.51
3336,4.36
3369,4.22
3403,4.08
3437,3.94
3471,3.79
3506,3.66
3541,3.52
3576,3.40
3612,3.30
3648,3.21
3685,3.14
3721,3.09
3759,3.05
3796,3.03
3834,3.03
3873,3.05
3911,3.08
3950,3.13
3990,3.19
4030,3.27
4070,3.37
4111,3.48
4152,3.59
4193,3.71
4235,3.83
4278,3.96
4321,4.09
4364,4.23
4407,4.38
4451,4.53
4496,4.67
4541,4.80
4586,4.94
4632,5.07
4679,5.20
4725,5.33
4773,5.48
4820,5.61
4868,5.74
4917,5.88
4966,6.04
5016,6.18
5066,6.32
5117,6.48
5168,6.65
5220,6.82
5272,6.98
5325,7.13
5378,7.27
5432,7.39
5486,7.52
5541,7.62
5596,7.69
5652,7.75
5709,7.80
5766,7.83
5823,7.83
5882,7.79
5940,7.74
6000,7.67
6060,7.58
6120,7.47
6182,7.33
6244,7.17
6306,6.97
6369,6.75
6433,6.50
6497,6.22
6562,5.90
6628,5.55
6694,5.16
6761,4.73
6828,4.27
6897,3.78
6966,3.25
7035,2.69
7106,2.11
7177,1.52
7249,0.92
7321,0.33
7394,-0.25
7468,-0.82
7543,-1.36
7618,-1.89
7694,-2.38
7771,-2.84
7849,-3.27
7928,-3.68
8007,-4.08
8087,-4.44
8168,-4.78
8250,-5.09
8332,-5.39
8415,-5.66
8499,-5.91
8584,-6.12
8670,-6.31
8757,-6.47
8845,-6.60
8933,-6.71
9022,-6.80
9113,-6.86
9204,-6.89
9296,-6.91
9389,-6.90
9483,-6.88
9577,-6.83
9673,-6.76
9770,-6.64
9868,-6.48
9966,-6.29
10066,-6.06
10167,-5.78
10268,-5.45
10371,-5.08
10475,-4.66
10579,-4.23
10685,-3.79
10792,-3.37
10900,-2.97
11009,-2.58
11119,-2.23
11230,-1.92
11343,-1.65
11456,-1.42
11571,-1.24
11686,-1.11
11803,-1.02
11921,-0.96
12040,-0.92
12161,-0.91
12282,-0.92
12405,-0.95
12529,-1.00
12655,-1.06
12781,-1.17
12909,-1.33
13038,-1.55
13168,-1.81
13300,-2.11
13433,-2.46
13567,-2.86
13703,-3.29
13840,-3.76
13978,-4.25
14118,-4.76
14259,-5.27
14402,-5.77
14546,-6.26
14692,-6.75
14838,-7.25
14987,-7.78
15137,-8.32
15288,-8.88
15441,-9.50
15595,-10.21
15751,-11.00
15909,-11.90
16068,-12.91
16229,-14.02
16391,-15.26
16555,-16.59
16720,-18.01
16888,-19.48
17056,-20.98
17227,-22.50
17399,-24.01
17573,-25.49
17749,-26.96
17926,-28.38
18106,-29.73
18287,-30.89
18470,-31.98
18654,-33.00
18841,-33.95
19029,-34.83
19220,-35.65
19412,-36.39
19606,-37.07
19802,-37.67
20000,-38.21
