frequency,raw,error,smoothed,error_smoothed,equalization,parametric_eq,equalized_raw,equalized_smoothed,target
20,-16.12,-17.06,-15.98,-16.92,6.00,2.65,-10.12,-9.98,0.94
21,-15.64,-16.58,-15.51,-16.45,6.00,3.05,-9.64,-9.51,0.94
22,-15.05,-15.99,-15.05,-15.99,6.00,3.49,-9.05,-9.05,0.94
23,-14.43,-15.37,-14.61,-15.55,6.00,3.96,-8.43,-8.61,0.94
24,-14.01,-14.95,-14.18,-15.12,6.00,4.47,-8.01,-8.18,0.94
25,-13.52,-14.46,-13.76,-14.70,6.00,4.99,-7.52,-7.76,0.94
26,-13.16,-14.10,-13.36,-14.30,6.00,5.52,-7.16,-7.36,0.94
27,-12.75,-13.69,-12.97,-13.91,6.00,6.02,-6.75,-6.97,0.94
28,-12.72,-13.66,-12.60,-13.54,6.00,6.48,-6.72,-6.60,0.94
29,-12.41,-13.35,-12.24,-13.18,6.00,6.85,-6.41,-6.24,0.94
30,-12.07,-13.01,-11.89,-12.83,6.00,7.13,-6.07,-5.89,0.94
31,-11.74,-12.68,-11.56,-12.50,6.00,7.29,-5.74,-5.56,0.94
32,-11.30,-12.24,-11.23,-12.17,6.00,7.34,-5.30,-5.23,0.94
33,-10.95,-11.89,-10.92,-11.86,6.00,7.29,-4.95,-4.92,0.94
34,-10.62,-11.56,-10.62,-11.56,6.00,7.16,-4.62,-4.62,0.94
35,-10.13,-11.07,-10.32,-11.26,6.00,6.99,-4.13,-4.32,0.94
36,-9.97,-10.91,-10.05,-10.99,6.00,6.79,-3.97,-4.05,0.94
37,-9.66,-10.60,-9.78,-10.72,6.00,6.58,-3.66,-3.78,0.94
38,-9.47,-10.41,-9.53,-10.47,6.00,6.38,-3.47,-3.53,0.94
39,-9.15,-10.09,-9.29,-10.23,6.00,6.19,-3.15,-3.29,0.94
40,-9.11,-10.05,-9.06,-10.00,6.00,6.03,-3.11,-3.06,0.94
41,-8.83,-9.77,-8.84,-9.78,6.00,5.89,-2.83,-2.84,0.94
42,-8.72,-9.66,-8.62,-9.56,6.00,5.78,-2.72,-2.62,0.94
43,-8.50,-9.44,-8.41,-9.35,6.00,5.69,-2.50,-2.41,0.94
44,-8.21,-9.15,-8.21,-9.15,6.00,5.63,-2.21,-2.21,0.94
45,-8.10,-9.04,-8.00,-8.94,6.00,5.60,-2.10,-2.00,0.94
46,-7.85,-8.79,-7.79,-8.73,6.00,5.58,-1.85,-1.79,0.94
47,-7.61,-8.55,-7.58,-8.52,6.00,5.59,-1.61,-1.58,0.94
48,-7.37,-8.31,-7.37,-8.31,6.00,5.61,-1.37,-1.37,0.94
49,-7.14,-8.08,-7.16,-8.10,6.00,5.65,-1.14,-1.16,0.94
50,-6.91,-7.85,-6.95,-7.89,6.00,5.70,-0.91,-0.95,0.94
51,-6.82,-7.76,-6.75,-7.69,6.00,5.76,-0.82,-0.75,0.94
52,-6.47,-7.41,-6.55,-7.49,6.00,5.83,-0.47,-0.55,0.94
53,-6.25,-7.19,-6.35,-7.29,6.00,5.89,-0.25,-0.35,0.94
54,-6.18,-7.12,-6.16,-7.10,6.00,5.96,-0.18,-0.16,0.94
55,-5.91,-6.85,-5.98,-6.92,6.00,6.03,0.09,0.02,0.94
56,-5.79,-6.73,-5.81,-6.75,6.00,6.08,0.21,0.19,0.94
57,-5.59,-6.53,-5.64,-6.58,6.00,6.13,0.41,0.36,0.94
58,-5.56,-6.50,-5.48,-6.42,6.00,6.16,0.44,0.52,0.94
59,-5.37,-6.31,-5.32,-6.26,5.98,6.17,0.60,0.66,0.94
60,-5.18,-6.12,-5.17,-6.11,5.93,6.17,0.75,0.76,0.94
61,-4.99,-5.93,-5.02,-5.96,5.85,6.14,0.86,0.84,0.94
62,-4.93,-5.87,-4.87,-5.81,5.76,6.10,0.83,0.89,0.94
63,-4.64,-5.58,-4.72,-5.66,5.65,6.04,1.01,0.92,0.94
64,-4.61,-5.55,-4.58,-5.52,5.52,5.95,0.91,0.94,0.94
65,-4.44,-5.38,-4.44,-5.37,5.37,5.85,0.93,0.94,0.94
66,-4.29,-5.23,-4.29,-5.23,5.23,5.73,0.94,0.94,0.94
67,-4.23,-5.17,-4.16,-5.10,5.10,5.60,0.86,0.94,0.94
68,-3.96,-4.90,-4.02,-4.96,4.96,5.45,1.00,0.94,0.94
69,-3.92,-4.86,-3.89,-4.83,4.83,5.30,0.91,0.94,0.94
70,-3.76,-4.70,-3.76,-4.70,4.70,5.14,0.94,0.94,0.94
71,-3.60,-4.54,-3.64,-4.58,4.58,4.97,0.97,0.94,0.94
72,-3.44,-4.38,-3.52,-4.46,4.46,4.80,1.01,0.94,0.94
73,-3.31,-4.25,-3.40,-4.34,4.34,4.62,1.03,0.94,0.94
74,-3.31,-4.25,-3.29,-4.23,4.23,4.45,0.91,0.94,0.94
75,-3.30,-4.24,-3.18,-4.12,4.12,4.27,0.82,0.94,0.94
76,-3.00,-3.94,-3.07,-4.01,4.01,4.10,1.01,0.94,0.94
77,-2.99,-3.93,-2.97,-3.90,3.90,3.92,0.91,0.94,0.94
78,-2.86,-3.80,-2.86,-3.80,3.80,3.76,0.94,0.94,0.94
79,-2.72,-3.66,-2.75,-3.69,3.69,3.59,0.97,0.94,0.94
80,-2.66,-3.60,-2.65,-3.59,3.59,3.42,0.93,0.94,0.94
81,-2.60,-3.54,-2.54,-3.48,3.48,3.26,0.88,0.94,0.94
82,-2.46,-3.40,-2.43,-3.37,3.37,3.11,0.91,0.94,0.94
83,-2.32,-3.26,-2.32,-3.26,3.26,2.96,0.94,0.94,0.94
84,-2.19,-3.13,-2.21,-3.15,3.15,2.81,0.96,0.94,0.94
85,-2.06,-3.00,-2.10,-3.03,3.03,2.66,0.97,0.94,0.94
86,-2.01,-2.95,-1.98,-2.92,2.92,2.52,0.91,0.94,0.94
87,-1.89,-2.83,-1.86,-2.80,2.80,2.39,0.91,0.94,0.94
88,-1.69,-2.63,-1.75,-2.69,2.69,2.25,1.00,0.94,0.94
89,-1.69,-2.63,-1.63,-2.57,2.57,2.12,0.88,0.94,0.94
90,-1.45,-2.39,-1.52,-2.46,2.46,2.00,1.01,0.94,0.94
91,-1.37,-2.31,-1.41,-2.35,2.35,1.87,0.97,0.94,0.94
92,-1.32,-2.26,-1.29,-2.23,2.23,1.75,0.91,0.94,0.94
93,-1.20,-2.14,-1.18,-2.12,2.12,1.64,0.92,0.94,0.94
94,-1.08,-2.02,-1.07,-2.01,2.01,1.52,0.93,0.94,0.94
95,-0.96,-1.90,-0.96,-1.90,1.90,1.41,0.94,0.94,0.94
96,-0.84,-1.78,-0.85,-1.79,1.79,1.31,0.95,0.94,0.94
97,-0.73,-1.67,-0.74,-1.68,1.68,1.20,0.95,0.94,0.94
98,-0.61,-1.55,-0.63,-1.57,1.57,1.10,0.96,0.94,0.94
99,-0.50,-1.44,-0.52,-1.46,1.46,1.00,0.96,0.94,0.94
100,-0.39,-1.33,-0.42,-1.36,1.36,0.90,0.96,0.94,0.94
101,-0.39,-1.33,-0.31,-1.25,1.25,0.81,0.86,0.94,0.94
102,-0.25,-1.19,-0.20,-1.14,1.14,0.72,0.89,0.94,0.94
104,-0.07,-1.01,-0.10,-1.04,1.04,0.54,0.96,0.94,0.94
105,0.01,-0.93,0.01,-0.93,0.93,0.46,0.94,0.94,0.94
106,0.11,-0.83,0.11,-0.83,0.83,0.38,0.94,0.94,0.94
107,0.22,-0.72,0.21,-0.73,0.73,0.30,0.95,0.94,0.94
108,0.32,-0.62,0.30,-0.64,0.64,0.22,0.95,0.94,0.94
109,0.43,-0.51,0.40,-0.54,0.54,0.15,0.97,0.94,0.94
110,0.53,-0.41,0.49,-0.45,0.45,0.08,0.98,0.94,0.94
111,0.58,-0.36,0.57,-0.36,0.36,0.01,0.94,0.94,0.94
112,0.58,-0.36,0.66,-0.28,0.28,-0.05,0.86,0.94,0.94
113,0.77,-0.17,0.74,-0.20,0.20,-0.11,0.97,0.94,0.94
114,0.90,-0.04,0.82,-0.12,0.12,-0.17,1.02,0.94,0.94
115,0.90,-0.04,0.89,-0.05,0.05,-0.23,0.95,0.94,0.94
117,0.90,-0.04,0.97,0.03,-0.03,-0.33,0.87,0.94,0.94
118,1.00,0.06,1.04,0.10,-0.10,-0.38,0.90,0.94,0.94
119,1.10,0.16,1.11,0.17,-0.17,-0.42,0.93,0.94,0.94
120,1.19,0.25,1.18,0.24,-0.24,-0.47,0.95,0.94,0.94
121,1.23,0.29,1.25,0.31,-0.31,-0.50,0.92,0.94,0.94
123,1.31,0.37,1.31,0.38,-0.38,-0.57,0.93,0.94,0.94
124,1.40,0.46,1.38,0.44,-0.44,-0.60,0.96,0.94,0.94
125,1.49,0.55,1.44,0.50,-0.50,-0.63,0.98,0.94,0.94
126,1.55,0.61,1.50,0.56,-0.56,-0.66,0.98,0.94,0.94
128,1.55,0.61,1.56,0.62,-0.62,-0.70,0.93,0.94,0.94
129,1.55,0.61,1.62,0.68,-0.68,-0.72,0.87,0.94,0.94
130,1.61,0.67,1.67,0.73,-0.73,-0.73,0.88,0.94,0.94
131,1.69,0.75,1.71,0.77,-0.77,-0.75,0.92,0.94,0.94
133,1.87,0.93,1.76,0.82,-0.82,-0.77,1.05,0.94,0.94
134,1.88,0.94,1.80,0.86,-0.86,-0.77,1.02,0.94,0.94
135,1.88,0.94,1.84,0.90,-0.90,-0.78,0.98,0.94,0.94
137,1.88,0.94,1.87,0.93,-0.93,-0.79,0.95,0.94,0.94
138,1.88,0.94,1.91,0.97,-0.97,-0.79,0.91,0.94,0.94
140,1.88,0.94,1.94,1.00,-1.00,-0.79,0.88,0.94,0.94
141,1.88,0.94,1.98,1.04,-1.04,-0.79,0.84,0.94,0.94
142,1.96,1.02,2.01,1.07,-1.07,-0.79,0.89,0.94,0.94
144,2.04,1.10,2.04,1.10,-1.10,-0.78,0.93,0.94,0.94
145,2.04,1.10,2.08,1.14,-1.14,-0.77,0.90,0.94,0.94
147,2.18,1.24,2.11,1.17,-1.17,-0.76,1.01,0.94,0.94
148,2.20,1.26,2.14,1.20,-1.20,-0.76,1.00,0.94,0.94
150,2.20,1.26,2.16,1.22,-1.22,-0.74,0.98,0.94,0.94
151,2.20,1.26,2.18,1.24,-1.24,-0.74,0.95,0.94,0.94
153,2.20,1.26,2.20,1.26,-1.26,-0.72,0.94,0.94,0.94
154,2.20,1.26,2.21,1.27,-1.27,-0.71,0.92,0.94,0.94
156,2.20,1.26,2.22,1.28,-1.28,-0.70,0.92,0.94,0.94
157,2.20,1.26,2.22,1.28,-1.28,-0.69,0.92,0.94,0.94
159,2.20,1.26,2.21,1.27,-1.27,-0.67,0.92,0.94,0.94
160,2.20,1.26,2.20,1.26,-1.26,-0.67,0.94,0.94,0.94
162,2.20,1.26,2.18,1.24,-1.24,-0.65,0.95,0.94,0.94
164,2.20,1.26,2.16,1.22,-1.22,-0.64,0.98,0.94,0.94
165,2.20,1.26,2.13,1.19,-1.19,-0.63,1.01,0.94,0.94
167,2.20,1.26,2.10,1.16,-1.16,-0.62,1.04,0.94,0.94
169,2.10,1.16,2.06,1.12,-1.12,-0.60,0.97,0.94,0.94
170,2.04,1.10,2.03,1.09,-1.09,-0.60,0.95,0.94,0.94
172,1.90,0.96,1.99,1.05,-1.05,-0.59,0.84,0.94,0.94
174,1.88,0.94,1.96,1.02,-1.02,-0.57,0.85,0.94,0.94
175,1.88,0.94,1.94,1.00,-1.00,-0.57,0.88,0.94,0.94
177,1.88,0.94,1.91,0.97,-0.97,-0.56,0.91,0.94,0.94
179,1.88,0.94,1.90,0.96,-0.96,-0.55,0.92,0.94,0.94
181,1.88,0.94,1.88,0.94,-0.94,-0.54,0.93,0.94,0.94
183,1.88,0.94,1.88,0.94,-0.94,-0.54,0.94,0.94,0.94
184,1.88,0.94,1.88,0.94,-0.94,-0.53,0.94,0.94,0.94
186,1.88,0.94,1.88,0.94,-0.94,-0.53,0.94,0.94,0.94
188,1.88,0.94,1.88,0.94,-0.94,-0.52,0.94,0.94,0.94
190,1.88,0.94,1.88,0.94,-0.94,-0.52,0.94,0.94,0.94
192,1.88,0.94,1.88,0.94,-0.94,-0.52,0.94,0.94,0.94
194,1.88,0.94,1.88,0.94,-0.94,-0.51,0.94,0.94,0.94
196,1.88,0.94,1.87,0.93,-0.93,-0.51,0.95,0.94,0.94
198,1.88,0.94,1.85,0.91,-0.91,-0.51,0.96,0.94,0.94
200,1.88,0.94,1.83,0.89,-0.89,-0.51,0.98,0.94,0.94
202,1.88,0.94,1.81,0.87,-0.87,-0.50,1.01,0.94,0.94
204,1.88,0.94,1.78,0.84,-0.84,-0.50,1.04,0.94,0.94
206,1.81,0.87,1.75,0.81,-0.81,-0.50,1.00,0.94,0.94
208,1.70,0.76,1.72,0.78,-0.78,-0.50,0.92,0.94,0.94
210,1.60,0.66,1.68,0.74,-0.74,-0.50,0.85,0.94,0.94
212,1.55,0.61,1.65,0.71,-0.71,-0.50,0.83,0.94,0.94
214,1.55,0.61,1.63,0.69,-0.69,-0.50,0.86,0.94,0.94
216,1.55,0.61,1.60,0.66,-0.66,-0.50,0.89,0.94,0.94
218,1.55,0.61,1.58,0.64,-0.64,-0.50,0.91,0.94,0.94
221,1.55,0.61,1.56,0.62,-0.62,-0.50,0.93,0.94,0.94
223,1.55,0.61,1.54,0.60,-0.60,-0.49,0.95,0.94,0.94
225,1.55,0.61,1.52,0.58,-0.58,-0.49,0.97,0.94,0.94
227,1.55,0.61,1.50,0.56,-0.56,-0.49,0.99,0.94,0.94
229,1.55,0.61,1.48,0.54,-0.54,-0.49,1.01,0.94,0.94
232,1.55,0.61,1.45,0.51,-0.51,-0.48,1.04,0.94,0.94
234,1.51,0.57,1.43,0.49,-0.49,-0.48,1.02,0.94,0.94
236,1.41,0.47,1.40,0.46,-0.46,-0.48,0.95,0.94,0.94
239,1.27,0.33,1.37,0.43,-0.43,-0.47,0.84,0.94,0.94
241,1.23,0.29,1.33,0.39,-0.39,-0.46,0.83,0.94,0.94
244,1.23,0.29,1.30,0.36,-0.36,-0.45,0.87,0.94,0.94
246,1.23,0.29,1.27,0.33,-0.33,-0.45,0.90,0.94,0.94
248,1.23,0.29,1.23,0.29,-0.29,-0.44,0.93,0.94,0.94
251,1.23,0.29,1.20,0.26,-0.26,-0.43,0.97,0.94,0.94
253,1.23,0.29,1.17,0.23,-0.23,-0.42,1.00,0.94,0.94
256,1.23,0.29,1.13,0.19,-0.19,-0.40,1.04,0.94,0.94
259,1.17,0.23,1.10,0.16,-0.16,-0.38,1.01,0.94,0.94
261,1.09,0.15,1.06,0.12,-0.12,-0.37,0.96,0.94,0.94
264,0.96,0.02,1.03,0.09,-0.09,-0.35,0.87,0.94,0.94
266,0.90,-0.04,0.99,0.05,-0.05,-0.34,0.84,0.94,0.94
269,0.90,-0.04,0.96,0.02,-0.02,-0.32,0.88,0.94,0.94
272,0.90,-0.04,0.92,-0.02,0.02,-0.30,0.92,0.94,0.94
274,0.90,-0.04,0.88,-0.06,0.06,-0.29,0.95,0.94,0.94
277,0.90,-0.04,0.85,-0.09,0.09,-0.26,0.99,0.94,0.94
280,0.90,-0.04,0.81,-0.13,0.13,-0.24,1.03,0.94,0.94
283,0.82,-0.12,0.78,-0.16,0.16,-0.22,0.98,0.94,0.94
286,0.74,-0.20,0.74,-0.19,0.19,-0.19,0.93,0.94,0.94
288,0.74,-0.20,0.71,-0.22,0.22,-0.18,0.96,0.94,0.94
291,0.67,-0.27,0.69,-0.25,0.25,-0.15,0.92,0.94,0.94
294,0.58,-0.36,0.66,-0.28,0.28,-0.12,0.85,0.94,0.94
297,0.58,-0.36,0.64,-0.30,0.30,-0.10,0.88,0.94,0.94
300,0.58,-0.36,0.62,-0.32,0.32,-0.07,0.89,0.94,0.94
303,0.58,-0.36,0.61,-0.33,0.33,-0.05,0.91,0.94,0.94
306,0.58,-0.36,0.59,-0.35,0.35,-0.02,0.93,0.94,0.94
309,0.58,-0.36,0.57,-0.37,0.37,0.01,0.95,0.94,0.94
312,0.58,-0.36,0.55,-0.39,0.39,0.03,0.97,0.94,0.94
316,0.58,-0.36,0.53,-0.41,0.41,0.07,0.99,0.94,0.94
319,0.58,-0.36,0.51,-0.43,0.43,0.10,1.01,0.94,0.94
322,0.58,-0.36,0.48,-0.46,0.46,0.12,1.04,0.94,0.94
325,0.56,-0.38,0.45,-0.49,0.49,0.15,1.05,0.94,0.94
328,0.45,-0.49,0.42,-0.52,0.52,0.18,0.97,0.94,0.94
332,0.32,-0.62,0.39,-0.55,0.55,0.21,0.87,0.94,0.94
335,0.26,-0.68,0.36,-0.58,0.58,0.24,0.84,0.94,0.94
338,0.26,-0.68,0.33,-0.61,0.61,0.27,0.87,0.94,0.94
342,0.26,-0.68,0.30,-0.64,0.64,0.30,0.89,0.94,0.94
345,0.26,-0.68,0.28,-0.66,0.66,0.33,0.92,0.94,0.94
349,0.26,-0.68,0.27,-0.67,0.67,0.37,0.93,0.94,0.94
352,0.26,-0.68,0.25,-0.69,0.69,0.39,0.94,0.94,0.94
356,0.26,-0.68,0.25,-0.69,0.69,0.43,0.95,0.94,0.94
359,0.26,-0.68,0.24,-0.70,0.70,0.46,0.95,0.94,0.94
363,0.26,-0.68,0.24,-0.70,0.70,0.49,0.95,0.94,0.94
366,0.26,-0.68,0.24,-0.69,0.69,0.52,0.95,0.94,0.94
370,0.26,-0.68,0.25,-0.69,0.69,0.56,0.95,0.94,0.94
374,0.26,-0.68,0.25,-0.69,0.69,0.59,0.95,0.94,0.94
377,0.26,-0.68,0.25,-0.69,0.69,0.62,0.94,0.94,0.94
381,0.26,-0.68,0.26,-0.68,0.68,0.66,0.94,0.94,0.94
385,0.26,-0.68,0.26,-0.68,0.68,0.69,0.94,0.94,0.94
389,0.26,-0.68,0.26,-0.68,0.68,0.73,0.94,0.94,0.94
393,0.26,-0.68,0.26,-0.68,0.68,0.76,0.94,0.94,0.94
397,0.26,-0.68,0.26,-0.68,0.68,0.80,0.94,0.94,0.94
401,0.26,-0.68,0.26,-0.68,0.68,0.83,0.94,0.94,0.94
405,0.26,-0.68,0.26,-0.68,0.68,0.86,0.94,0.94,0.94
409,0.26,-0.68,0.26,-0.68,0.68,0.90,0.94,0.94,0.94
413,0.26,-0.68,0.26,-0.68,0.68,0.93,0.94,0.94,0.94
417,0.26,-0.68,0.26,-0.68,0.68,0.96,0.94,0.94,0.94
421,0.26,-0.68,0.26,-0.68,0.68,1.00,0.94,0.94,0.94
425,0.26,-0.68,0.26,-0.68,0.68,1.03,0.93,0.94,0.94
430,0.26,-0.68,0.27,-0.67,0.67,1.06,0.93,0.94,0.94
434,0.26,-0.68,0.27,-0.67,0.67,1.09,0.93,0.94,0.94
438,0.26,-0.68,0.27,-0.67,0.67,1.12,0.93,0.94,0.94
443,0.26,-0.68,0.27,-0.67,0.67,1.15,0.93,0.94,0.94
447,0.26,-0.68,0.27,-0.67,0.67,1.18,0.93,0.94,0.94
451,0.26,-0.68,0.27,-0.67,0.67,1.20,0.93,0.94,0.94
456,0.26,-0.68,0.26,-0.68,0.68,1.23,0.94,0.94,0.94
460,0.26,-0.68,0.24,-0.70,0.70,1.25,0.95,0.94,0.94
465,0.26,-0.68,0.23,-0.71,0.71,1.28,0.97,0.94,0.94
470,0.26,-0.68,0.20,-0.74,0.74,1.30,0.99,0.94,0.94
474,0.26,-0.68,0.18,-0.76,0.76,1.32,1.02,0.94,0.94
479,0.23,-0.71,0.15,-0.79,0.79,1.34,1.02,0.94,0.94
484,0.11,-0.83,0.12,-0.82,0.82,1.35,0.93,0.94,0.94
489,-0.00,-0.94,0.08,-0.86,0.86,1.37,0.86,0.94,0.94
494,-0.07,-1.01,0.04,-0.90,0.90,1.38,0.82,0.94,0.94
499,-0.07,-1.01,0.01,-0.93,0.93,1.39,0.86,0.94,0.94
504,-0.07,-1.01,-0.03,-0.97,0.97,1.39,0.90,0.94,0.94
509,-0.07,-1.01,-0.08,-1.02,1.02,1.40,0.94,0.94,0.94
514,-0.07,-1.01,-0.12,-1.06,1.06,1.40,0.99,0.94,0.94
519,-0.07,-1.01,-0.16,-1.10,1.10,1.40,1.03,0.94,0.94
524,-0.13,-1.07,-0.21,-1.15,1.15,1.40,1.02,0.94,0.94
529,-0.24,-1.18,-0.26,-1.20,1.20,1.39,0.96,0.94,0.94
535,-0.37,-1.31,-0.31,-1.25,1.25,1.39,0.88,0.94,0.94
540,-0.39,-1.33,-0.37,-1.31,1.31,1.38,0.91,0.94,0.94
545,-0.39,-1.33,-0.42,-1.36,1.36,1.37,0.97,0.94,0.94
551,-0.39,-1.33,-0.47,-1.41,1.41,1.36,1.02,0.94,0.94
556,-0.48,-1.42,-0.52,-1.46,1.46,1.35,0.98,0.94,0.94
562,-0.60,-1.54,-0.57,-1.51,1.51,1.34,0.91,0.94,0.94
568,-0.72,-1.66,-0.61,-1.55,1.55,1.33,0.83,0.94,0.94
573,-0.72,-1.66,-0.65,-1.59,1.59,1.31,0.87,0.94,0.94
579,-0.72,-1.66,-0.68,-1.62,1.62,1.30,0.90,0.94,0.94
585,-0.72,-1.66,-0.70,-1.64,1.64,1.28,0.92,0.94,0.94
591,-0.72,-1.66,-0.72,-1.66,1.66,1.27,0.94,0.94,0.94
596,-0.72,-1.66,-0.73,-1.67,1.67,1.25,0.95,0.94,0.94
602,-0.72,-1.66,-0.74,-1.68,1.68,1.24,0.96,0.94,0.94
608,-0.72,-1.66,-0.74,-1.68,1.68,1.22,0.96,0.94,0.94
615,-0.72,-1.66,-0.75,-1.69,1.69,1.20,0.96,0.94,0.94
621,-0.72,-1.66,-0.75,-1.69,1.69,1.19,0.96,0.94,0.94
627,-0.72,-1.66,-0.75,-1.68,1.68,1.17,0.96,0.94,0.94
633,-0.72,-1.66,-0.74,-1.68,1.68,1.16,0.96,0.94,0.94
639,-0.72,-1.66,-0.74,-1.68,1.68,1.14,0.96,0.94,0.94
646,-0.72,-1.66,-0.73,-1.67,1.67,1.13,0.95,0.94,0.94
652,-0.72,-1.66,-0.72,-1.66,1.66,1.12,0.94,0.94,0.94
659,-0.72,-1.66,-0.71,-1.65,1.65,1.10,0.93,0.94,0.94
665,-0.72,-1.66,-0.70,-1.64,1.64,1.09,0.91,0.94,0.94
672,-0.72,-1.66,-0.68,-1.62,1.62,1.08,0.89,0.94,0.94
679,-0.72,-1.66,-0.65,-1.59,1.59,1.07,0.87,0.94,0.94
686,-0.69,-1.63,-0.63,-1.57,1.57,1.06,0.87,0.94,0.94
692,-0.59,-1.53,-0.60,-1.54,1.54,1.05,0.94,0.94,0.94
699,-0.56,-1.50,-0.57,-1.51,1.51,1.04,0.94,0.94,0.94
706,-0.53,-1.47,-0.54,-1.48,1.48,1.03,0.94,0.94,0.94
713,-0.42,-1.36,-0.51,-1.45,1.45,1.03,1.03,0.94,0.94
721,-0.39,-1.33,-0.48,-1.42,1.42,1.02,1.03,0.94,0.94
728,-0.39,-1.33,-0.45,-1.39,1.39,1.02,1.00,0.94,0.94
735,-0.39,-1.33,-0.43,-1.37,1.37,1.01,0.97,0.94,0.94
742,-0.39,-1.33,-0.40,-1.34,1.34,1.01,0.95,0.94,0.94
750,-0.39,-1.33,-0.38,-1.32,1.32,1.01,0.92,0.94,0.94
757,-0.39,-1.33,-0.35,-1.29,1.29,1.01,0.90,0.94,0.94
765,-0.39,-1.33,-0.32,-1.26,1.26,1.00,0.87,0.94,0.94
773,-0.39,-1.33,-0.29,-1.23,1.23,1.00,0.84,0.94,0.94
780,-0.38,-1.32,-0.26,-1.20,1.20,1.00,0.82,0.94,0.94
788,-0.26,-1.20,-0.23,-1.17,1.17,1.00,0.91,0.94,0.94
796,-0.15,-1.09,-0.20,-1.14,1.14,1.01,0.99,0.94,0.94
804,-0.07,-1.01,-0.17,-1.11,1.11,1.01,1.04,0.94,0.94
812,-0.07,-1.01,-0.14,-1.08,1.08,1.01,1.01,0.94,0.94
820,-0.07,-1.01,-0.12,-1.06,1.06,1.01,0.99,0.94,0.94
828,-0.07,-1.01,-0.10,-1.04,1.04,1.02,0.96,0.94,0.94
837,-0.07,-1.01,-0.08,-1.02,1.02,1.02,0.95,0.94,0.94
845,-0.07,-1.01,-0.07,-1.01,1.01,1.02,0.94,0.94,0.94
853,-0.07,-1.01,-0.06,-1.00,1.00,1.02,0.93,0.94,0.94
862,-0.07,-1.01,-0.06,-1.00,1.00,1.03,0.93,0.94,0.94
871,-0.07,-1.01,-0.06,-1.00,1.00,1.03,0.93,0.94,0.94
879,-0.07,-1.01,-0.06,-1.00,1.00,1.03,0.93,0.94,0.94
888,-0.07,-1.01,-0.07,-1.01,1.01,1.03,0.94,0.94,0.94
897,-0.07,-1.01,-0.07,-1.01,1.01,1.04,0.94,0.94,0.94
906,-0.07,-1.01,-0.08,-1.02,1.02,1.04,0.95,0.94,0.94
915,-0.07,-1.01,-0.08,-1.02,1.02,1.04,0.95,0.94,0.94
924,-0.07,-1.01,-0.09,-1.03,1.03,1.03,0.95,0.94,0.94
933,-0.07,-1.01,-0.09,-1.03,1.03,1.03,0.95,0.94,0.94
943,-0.07,-1.01,-0.08,-1.02,1.02,1.03,0.95,0.94,0.94
952,-0.07,-1.01,-0.07,-1.01,1.01,1.02,0.94,0.94,0.94
962,-0.07,-1.01,-0.06,-1.00,1.00,1.02,0.93,0.94,0.94
971,-0.07,-1.01,-0.04,-0.98,0.98,1.01,0.91,0.94,0.94
981,-0.07,-1.01,-0.01,-0.95,0.95,1.00,0.88,0.94,0.94
991,-0.07,-1.01,0.02,-0.92,0.92,0.99,0.85,0.94,0.94
1001,0.01,-0.93,0.05,-0.89,0.89,0.98,0.89,0.94,0.94
1011,0.12,-0.82,0.09,-0.84,0.84,0.96,0.96,0.94,0.94
1021,0.23,-0.71,0.14,-0.80,0.80,0.95,1.03,0.94,0.94
1031,0.26,-0.68,0.19,-0.75,0.75,0.93,1.01,0.94,0.94
1041,0.26,-0.68,0.24,-0.70,0.70,0.91,0.96,0.94,0.94
1052,0.26,-0.68,0.29,-0.65,0.65,0.89,0.91,0.94,0.94
1062,0.26,-0.68,0.34,-0.60,0.60,0.87,0.86,0.94,0.94
1073,0.31,-0.63,0.38,-0.56,0.56,0.85,0.87,0.94,0.94
1084,0.42,-0.52,0.43,-0.51,0.51,0.82,0.93,0.94,0.94
1094,0.52,-0.42,0.46,-0.47,0.47,0.80,0.99,0.94,0.94
1105,0.58,-0.36,0.50,-0.44,0.44,0.77,1.02,0.94,0.94
1116,0.58,-0.36,0.53,-0.41,0.41,0.74,0.99,0.94,0.94
1128,0.58,-0.36,0.55,-0.39,0.39,0.71,0.97,0.94,0.94
1139,0.58,-0.36,0.56,-0.38,0.38,0.68,0.95,0.94,0.94
1150,0.58,-0.36,0.57,-0.37,0.37,0.65,0.95,0.94,0.94
1162,0.58,-0.36,0.58,-0.36,0.36,0.62,0.94,0.94,0.94
1173,0.58,-0.36,0.58,-0.36,0.36,0.59,0.94,0.94,0.94
1185,0.58,-0.36,0.58,-0.36,0.36,0.56,0.94,0.94,0.94
1197,0.58,-0.36,0.58,-0.36,0.36,0.52,0.94,0.94,0.94
1209,0.58,-0.36,0.58,-0.36,0.36,0.49,0.94,0.94,0.94
1221,0.58,-0.36,0.58,-0.36,0.36,0.45,0.94,0.94,0.94
1233,0.58,-0.36,0.59,-0.35,0.35,0.42,0.93,0.94,0.94
1246,0.58,-0.36,0.60,-0.34,0.34,0.38,0.92,0.94,0.94
1258,0.58,-0.36,0.61,-0.33,0.33,0.35,0.90,0.94,0.94
1271,0.58,-0.36,0.64,-0.30,0.30,0.31,0.88,0.94,0.94
1283,0.58,-0.36,0.66,-0.28,0.28,0.28,0.85,0.94,0.94
1296,0.65,-0.29,0.70,-0.24,0.24,0.24,0.89,0.94,0.94
1309,0.77,-0.17,0.73,-0.21,0.21,0.20,0.97,0.94,0.94
1322,0.88,-0.06,0.78,-0.16,0.16,0.17,1.04,0.94,0.94
1335,0.90,-0.04,0.82,-0.12,0.12,0.13,1.02,0.94,0.94
1349,0.90,-0.04,0.87,-0.07,0.07,0.09,0.97,0.94,0.94
1362,0.90,-0.04,0.92,-0.02,0.02,0.05,0.92,0.94,0.94
1376,0.90,-0.04,0.97,0.03,-0.03,0.02,0.87,0.94,0.94
1390,0.96,0.02,1.02,0.08,-0.08,-0.02,0.88,0.94,0.94
1404,1.07,0.13,1.07,0.13,-0.13,-0.06,0.94,0.94,0.94
1418,1.18,0.24,1.12,0.18,-0.18,-0.10,0.99,0.94,0.94
1432,1.23,0.29,1.18,0.24,-0.24,-0.14,0.99,0.94,0.94
1446,1.23,0.29,1.23,0.29,-0.29,-0.17,0.94,0.94,0.94
1461,1.23,0.29,1.28,0.34,-0.34,-0.21,0.89,0.94,0.94
1475,1.23,0.29,1.33,0.39,-0.39,-0.25,0.84,0.94,0.94
1490,1.28,0.34,1.37,0.43,-0.43,-0.29,0.84,0.94,0.94
1505,1.51,0.57,1.42,0.48,-0.48,-0.33,1.03,0.94,0.94
1520,1.55,0.61,1.45,0.51,-0.51,-0.36,1.03,0.94,0.94
1535,1.55,0.61,1.49,0.55,-0.55,-0.40,1.00,0.94,0.94
1550,1.55,0.61,1.51,0.57,-0.57,-0.44,0.98,0.94,0.94
1566,1.55,0.61,1.53,0.59,-0.59,-0.48,0.96,0.94,0.94
1582,1.55,0.61,1.55,0.61,-0.61,-0.52,0.94,0.94,0.94
1597,1.55,0.61,1.56,0.62,-0.62,-0.55,0.93,0.94,0.94
1613,1.55,0.61,1.56,0.62,-0.62,-0.59,0.93,0.94,0.94
1629,1.55,0.61,1.56,0.62,-0.62,-0.63,0.92,0.94,0.94
1646,1.55,0.61,1.56,0.62,-0.62,-0.66,0.92,0.94,0.94
1662,1.55,0.61,1.56,0.62,-0.62,-0.70,0.93,0.94,0.94
1679,1.55,0.61,1.56,0.62,-0.62,-0.74,0.93,0.94,0.94
1696,1.55,0.61,1.56,0.62,-0.62,-0.77,0.93,0.94,0.94
1713,1.55,0.61,1.55,0.61,-0.61,-0.80,0.93,0.94,0.94
1730,1.55,0.61,1.55,0.61,-0.61,-0.83,0.94,0.94,0.94
1747,1.55,0.61,1.55,0.61,-0.61,-0.87,0.94,0.94,0.94
1764,1.55,0.61,1.55,0.61,-0.61,-0.89,0.94,0.94,0.94
1782,1.55,0.61,1.54,0.61,-0.61,-0.92,0.94,0.94,0.94
1800,1.55,0.61,1.54,0.60,-0.60,-0.95,0.95,0.94,0.94
1818,1.55,0.61,1.54,0.60,-0.60,-0.97,0.95,0.94,0.94
1836,1.55,0.61,1.54,0.60,-0.60,-0.99,0.95,0.94,0.94
1854,1.55,0.61,1.53,0.59,-0.59,-1.01,0.95,0.94,0.94
1873,1.55,0.61,1.53,0.59,-0.59,-1.03,0.95,0.94,0.94
1892,1.55,0.61,1.53,0.59,-0.59,-1.04,0.95,0.94,0.94
1911,1.55,0.61,1.54,0.60,-0.60,-1.05,0.95,0.94,0.94
1930,1.55,0.61,1.54,0.60,-0.60,-1.06,0.95,0.94,0.94
1949,1.55,0.61,1.55,0.61,-0.61,-1.07,0.94,0.94,0.94
1969,1.55,0.61,1.57,0.63,-0.63,-1.07,0.92,0.94,0.94
