frequency,raw,error,smoothed,error_smoothed,equalization,parametric_eq,equalized_raw,equalized_smoothed,target
20,-16.12,-17.06,-15.95,-16.81,6.00,2.67,-10.12,-9.95,0.94
21,-15.64,-16.58,-15.48,-16.35,6.00,3.06,-9.64,-9.48,0.94
22,-15.05,-15.99,-15.03,-15.90,6.00,3.50,-9.05,-9.03,0.94
23,-14.43,-15.37,-14.60,-15.47,6.00,3.97,-8.43,-8.60,0.94
24,-14.01,-14.95,-14.17,-15.05,6.00,4.48,-8.01,-8.17,0.94
25,-13.52,-14.46,-13.76,-14.64,6.00,5.00,-7.52,-7.76,0.94
26,-13.16,-14.10,-13.36,-14.24,6.00,5.52,-7.16,-7.36,0.94
27,-12.75,-13.69,-12.97,-13.85,6.00,6.02,-6.75,-6.97,0.94
28,-12.72,-13.66,-12.59,-13.48,6.00,6.47,-6.72,-6.59,0.94
29,-12.41,-13.35,-12.23,-13.12,6.00,6.85,-6.41,-6.23,0.94
30,-12.07,-13.01,-11.87,-12.77,6.00,7.13,-6.07,-5.87,0.94
31,-11.74,-12.68,-11.55,-12.44,6.00,7.29,-5.74,-5.55,0.94
32,-11.30,-12.24,-11.23,-12.12,6.00,7.33,-5.30,-5.23,0.94
33,-10.95,-11.89,-10.93,-11.82,6.00,7.28,-4.95,-4.93,0.94
34,-10.62,-11.56,-10.63,-11.52,6.00,7.16,-4.62,-4.63,0.94
35,-10.13,-11.07,-10.34,-11.23,6.00,6.98,-4.13,-4.34,0.94
36,-9.97,-10.91,-10.05,-10.95,6.00,6.78,-3.97,-4.05,0.94
37,-9.66,-10.60,-9.78,-10.69,6.00,6.57,-3.66,-3.78,0.94
38,-9.47,-10.41,-9.51,-10.43,6.00,6.37,-3.47,-3.51,0.94
39,-9.15,-10.09,-9.26,-10.20,6.00,6.19,-3.15,-3.26,0.94
40,-9.11,-10.05,-9.04,-9.97,6.00,6.03,-3.11,-3.04,0.94
41,-8.83,-9.77,-8.82,-9.75,6.00,5.89,-2.83,-2.82,0.94
42,-8.72,-9.66,-8.62,-9.54,6.00,5.78,-2.72,-2.62,0.94
43,-8.50,-9.44,-8.43,-9.33,6.00,5.70,-2.50,-2.43,0.94
44,-8.21,-9.15,-8.22,-9.13,6.00,5.64,-2.21,-2.22,0.94
45,-8.10,-9.04,-8.03,-8.93,6.00,5.61,-2.10,-2.03,0.94
46,-7.85,-8.79,-7.81,-8.72,6.00,5.60,-1.85,-1.81,0.94
47,-7.61,-8.55,-7.60,-8.51,6.00,5.61,-1.61,-1.60,0.94
48,-7.37,-8.31,-7.38,-8.30,6.00,5.63,-1.37,-1.38,0.94
49,-7.14,-8.08,-7.16,-8.09,6.00,5.67,-1.14,-1.16,0.94
50,-6.91,-7.85,-6.94,-7.88,6.00,5.73,-0.91,-0.94,0.94
51,-6.82,-7.76,-6.74,-7.68,6.00,5.79,-0.82,-0.74,0.94
52,-6.47,-7.41,-6.53,-7.48,6.00,5.86,-0.47,-0.53,0.94
53,-6.25,-7.19,-6.35,-7.28,6.00,5.93,-0.25,-0.35,0.94
54,-6.18,-7.12,-6.16,-7.09,6.00,6.00,-0.18,-0.16,0.94
55,-5.91,-6.85,-5.97,-6.91,6.00,6.06,0.09,0.03,0.94
56,-5.79,-6.73,-5.80,-6.74,6.00,6.12,0.21,0.20,0.94
57,-5.59,-6.53,-5.63,-6.57,6.00,6.16,0.41,0.37,0.94
58,-5.56,-6.50,-5.48,-6.41,6.00,6.19,0.44,0.52,0.94
59,-5.37,-6.31,-5.32,-6.25,5.98,6.21,0.60,0.66,0.94
60,-5.18,-6.12,-5.17,-6.10,5.93,6.20,0.74,0.76,0.94
61,-4.99,-5.93,-5.02,-5.95,5.85,6.18,0.86,0.83,0.94
62,-4.93,-5.87,-4.88,-5.80,5.76,6.13,0.82,0.87,0.94
63,-4.64,-5.58,-4.74,-5.66,5.64,6.06,1.00,0.90,0.94
64,-4.61,-5.55,-4.58,-5.51,5.51,5.98,0.90,0.93,0.94
65,-4.44,-5.38,-4.43,-5.37,5.37,5.87,0.93,0.93,0.94
66,-4.29,-5.23,-4.29,-5.23,5.23,5.75,0.93,0.93,0.94
67,-4.23,-5.17,-4.15,-5.09,5.09,5.62,0.85,0.93,0.94
68,-3.96,-4.90,-4.01,-4.95,4.95,5.47,0.99,0.94,0.94
69,-3.92,-4.86,-3.88,-4.82,4.82,5.31,0.90,0.93,0.94
70,-3.76,-4.70,-3.76,-4.69,4.69,5.15,0.93,0.93,0.94
71,-3.60,-4.54,-3.63,-4.57,4.57,4.98,0.96,0.93,0.94
72,-3.44,-4.38,-3.51,-4.45,4.45,4.81,1.00,0.94,0.94
73,-3.31,-4.25,-3.40,-4.33,4.33,4.63,1.02,0.93,0.94
74,-3.31,-4.25,-3.28,-4.22,4.22,4.45,0.91,0.94,0.94
75,-3.30,-4.24,-3.18,-4.11,4.11,4.28,0.81,0.93,0.94
76,-3.00,-3.94,-3.07,-4.00,4.00,4.10,1.00,0.94,0.94
77,-2.99,-3.93,-2.96,-3.90,3.90,3.93,0.91,0.94,0.94
78,-2.86,-3.80,-2.87,-3.80,3.80,3.76,0.93,0.93,0.94
79,-2.72,-3.66,-2.75,-3.69,3.69,3.59,0.97,0.94,0.94
80,-2.66,-3.60,-2.66,-3.59,3.59,3.42,0.92,0.93,0.94
81,-2.60,-3.54,-2.55,-3.48,3.48,3.26,0.88,0.93,0.94
82,-2.46,-3.40,-2.44,-3.37,3.37,3.11,0.91,0.93,0.94
83,-2.32,-3.26,-2.32,-3.26,3.26,2.95,0.93,0.93,0.94
84,-2.19,-3.13,-2.20,-3.14,3.14,2.80,0.95,0.94,0.94
85,-2.06,-3.00,-2.09,-3.03,3.03,2.66,0.97,0.94,0.94
86,-2.01,-2.95,-1.98,-2.92,2.92,2.52,0.90,0.93,0.94
87,-1.89,-2.83,-1.87,-2.80,2.80,2.38,0.91,0.94,0.94
88,-1.69,-2.63,-1.75,-2.69,2.69,2.25,0.99,0.93,0.94
89,-1.69,-2.63,-1.64,-2.57,2.57,2.12,0.88,0.93,0.94
90,-1.45,-2.39,-1.52,-2.45,2.45,1.99,1.00,0.94,0.94
91,-1.37,-2.31,-1.40,-2.34,2.34,1.87,0.97,0.94,0.94
92,-1.32,-2.26,-1.29,-2.23,2.23,1.75,0.91,0.94,0.94
93,-1.20,-2.14,-1.18,-2.12,2.12,1.63,0.91,0.94,0.94
94,-1.08,-2.02,-1.07,-2.00,2.00,1.52,0.92,0.94,0.94
95,-0.96,-1.90,-0.96,-1.89,1.89,1.41,0.93,0.94,0.94
96,-0.84,-1.78,-0.85,-1.79,1.79,1.30,0.94,0.94,0.94
97,-0.73,-1.67,-0.74,-1.68,1.68,1.19,0.95,0.93,0.94
98,-0.61,-1.55,-0.64,-1.57,1.57,1.09,0.96,0.93,0.94
99,-0.50,-1.44,-0.53,-1.46,1.46,0.99,0.96,0.93,0.94
100,-0.39,-1.33,-0.42,-1.35,1.35,0.89,0.96,0.93,0.94
101,-0.39,-1.33,-0.31,-1.24,1.24,0.80,0.85,0.94,0.94
102,-0.25,-1.19,-0.20,-1.14,1.14,0.71,0.88,0.94,0.94
104,-0.07,-1.01,-0.10,-1.03,1.03,0.53,0.96,0.93,0.94
105,0.01,-0.93,0.00,-0.93,0.93,0.45,0.93,0.93,0.94
106,0.11,-0.83,0.11,-0.83,0.83,0.37,0.93,0.94,0.94
107,0.22,-0.72,0.21,-0.73,0.73,0.29,0.95,0.94,0.94
108,0.32,-0.62,0.31,-0.63,0.63,0.21,0.95,0.94,0.94
109,0.43,-0.51,0.40,-0.54,0.54,0.14,0.96,0.93,0.94
110,0.53,-0.41,0.49,-0.45,0.45,0.07,0.97,0.94,0.94
111,0.58,-0.36,0.58,-0.36,0.36,0.00,0.94,0.94,0.94
112,0.58,-0.36,0.66,-0.28,0.28,-0.06,0.86,0.94,0.94
113,0.77,-0.17,0.74,-0.20,0.20,-0.13,0.96,0.93,0.94
114,0.90,-0.04,0.81,-0.12,0.12,-0.18,1.02,0.93,0.94
115,0.90,-0.04,0.89,-0.04,0.04,-0.24,0.94,0.93,0.94
117,0.90,-0.04,0.97,0.03,-0.03,-0.34,0.87,0.94,0.94
118,1.00,0.06,1.04,0.10,-0.10,-0.39,0.89,0.94,0.94
119,1.10,0.16,1.11,0.18,-0.18,-0.44,0.92,0.93,0.94
120,1.19,0.25,1.17,0.25,-0.25,-0.48,0.94,0.92,0.94
121,1.23,0.29,1.24,0.31,-0.31,-0.52,0.91,0.92,0.94
123,1.31,0.37,1.31,0.38,-0.38,-0.59,0.93,0.93,0.94
124,1.40,0.46,1.38,0.45,-0.45,-0.62,0.95,0.93,0.94
125,1.49,0.55,1.44,0.51,-0.51,-0.65,0.97,0.92,0.94
126,1.55,0.61,1.51,0.58,-0.58,-0.67,0.97,0.93,0.94
128,1.55,0.61,1.57,0.63,-0.63,-0.71,0.91,0.94,0.94
129,1.55,0.61,1.63,0.69,-0.69,-0.73,0.86,0.94,0.94
130,1.61,0.67,1.68,0.74,-0.74,-0.75,0.87,0.94,0.94
131,1.69,0.75,1.72,0.79,-0.79,-0.76,0.90,0.93,0.94
133,1.87,0.93,1.75,0.83,-0.83,-0.78,1.04,0.92,0.94
134,1.88,0.94,1.79,0.87,-0.87,-0.79,1.01,0.92,0.94
135,1.88,0.94,1.83,0.91,-0.91,-0.80,0.97,0.92,0.94
137,1.88,0.94,1.86,0.95,-0.95,-0.80,0.93,0.91,0.94
138,1.88,0.94,1.90,0.99,-0.99,-0.81,0.89,0.91,0.94
140,1.88,0.94,1.94,1.02,-1.02,-0.81,0.86,0.92,0.94
141,1.88,0.94,1.98,1.06,-1.06,-0.80,0.82,0.93,0.94
142,1.96,1.02,2.02,1.09,-1.09,-0.80,0.87,0.93,0.94
144,2.04,1.10,2.05,1.12,-1.12,-0.79,0.91,0.92,0.94
145,2.04,1.10,2.07,1.15,-1.15,-0.79,0.88,0.92,0.94
147,2.18,1.24,2.09,1.18,-1.18,-0.78,1.00,0.91,0.94
148,2.20,1.26,2.12,1.21,-1.21,-0.77,0.99,0.92,0.94
150,2.20,1.26,2.15,1.23,-1.23,-0.76,0.97,0.92,0.94
151,2.20,1.26,2.18,1.26,-1.26,-0.75,0.94,0.92,0.94
153,2.20,1.26,2.20,1.28,-1.28,-0.74,0.92,0.93,0.94
154,2.20,1.26,2.22,1.29,-1.29,-0.73,0.91,0.93,0.94
156,2.20,1.26,2.24,1.30,-1.30,-0.71,0.90,0.94,0.94
157,2.20,1.26,2.24,1.30,-1.30,-0.70,0.90,0.94,0.94
159,2.20,1.26,2.23,1.29,-1.29,-0.69,0.91,0.94,0.94
160,2.20,1.26,2.21,1.28,-1.28,-0.68,0.92,0.93,0.94
162,2.20,1.26,2.18,1.26,-1.26,-0.67,0.94,0.92,0.94
164,2.20,1.26,2.16,1.23,-1.23,-0.65,0.96,0.92,0.94
165,2.20,1.26,2.13,1.21,-1.21,-0.64,0.99,0.92,0.94
167,2.20,1.26,2.10,1.18,-1.18,-0.63,1.02,0.92,0.94
169,2.10,1.16,2.06,1.14,-1.14,-0.62,0.96,0.92,0.94
170,2.04,1.10,2.03,1.11,-1.11,-0.61,0.93,0.92,0.94
172,1.90,0.96,2.00,1.07,-1.07,-0.60,0.83,0.92,0.94
174,1.88,0.94,1.96,1.04,-1.04,-0.59,0.84,0.92,0.94
175,1.88,0.94,1.93,1.01,-1.01,-0.58,0.87,0.92,0.94
177,1.88,0.94,1.91,0.99,-0.99,-0.57,0.89,0.92,0.94
179,1.88,0.94,1.88,0.97,-0.97,-0.57,0.91,0.92,0.94
181,1.88,0.94,1.87,0.95,-0.95,-0.56,0.93,0.92,0.94
183,1.88,0.94,1.86,0.94,-0.94,-0.55,0.93,0.92,0.94
184,1.88,0.94,1.86,0.94,-0.94,-0.55,0.94,0.91,0.94
186,1.88,0.94,1.87,0.94,-0.94,-0.54,0.93,0.92,0.94
188,1.88,0.94,1.88,0.95,-0.95,-0.54,0.93,0.93,0.94
190,1.88,0.94,1.90,0.95,-0.95,-0.53,0.93,0.94,0.94
192,1.88,0.94,1.90,0.95,-0.95,-0.53,0.93,0.95,0.94
194,1.88,0.94,1.90,0.95,-0.95,-0.53,0.93,0.95,0.94
196,1.88,0.94,1.88,0.94,-0.94,-0.52,0.94,0.94,0.94
198,1.88,0.94,1.86,0.93,-0.93,-0.52,0.95,0.94,0.94
200,1.88,0.94,1.84,0.91,-0.91,-0.52,0.97,0.93,0.94
202,1.88,0.94,1.81,0.88,-0.88,-0.52,0.99,0.93,0.94
204,1.88,0.94,1.78,0.86,-0.86,-0.52,1.02,0.92,0.94
206,1.81,0.87,1.74,0.83,-0.83,-0.52,0.98,0.92,0.94
208,1.70,0.76,1.71,0.79,-0.79,-0.52,0.90,0.92,0.94
210,1.60,0.66,1.67,0.76,-0.76,-0.52,0.84,0.91,0.94
212,1.55,0.61,1.64,0.74,-0.74,-0.51,0.81,0.91,0.94
214,1.55,0.61,1.62,0.71,-0.71,-0.51,0.84,0.91,0.94
216,1.55,0.61,1.60,0.68,-0.68,-0.51,0.86,0.92,0.94
218,1.55,0.61,1.58,0.66,-0.66,-0.51,0.89,0.92,0.94
221,1.55,0.61,1.56,0.64,-0.64,-0.51,0.91,0.92,0.94
223,1.55,0.61,1.54,0.62,-0.62,-0.51,0.93,0.92,0.94
225,1.55,0.61,1.51,0.60,-0.60,-0.51,0.95,0.92,0.94
227,1.55,0.61,1.50,0.58,-0.58,-0.51,0.97,0.92,0.94
229,1.55,0.61,1.48,0.56,-0.56,-0.50,0.99,0.92,0.94
232,1.55,0.61,1.45,0.53,-0.53,-0.50,1.02,0.92,0.94
234,1.51,0.57,1.43,0.51,-0.51,-0.50,1.00,0.92,0.94
236,1.41,0.47,1.40,0.48,-0.48,-0.49,0.93,0.92,0.94
239,1.27,0.33,1.37,0.45,-0.45,-0.48,0.82,0.92,0.94
241,1.23,0.29,1.35,0.42,-0.42,-0.48,0.81,0.93,0.94
244,1.23,0.29,1.31,0.39,-0.39,-0.47,0.84,0.92,0.94
246,1.23,0.29,1.27,0.35,-0.35,-0.46,0.88,0.92,0.94
248,1.23,0.29,1.23,0.32,-0.32,-0.45,0.91,0.91,0.94
251,1.23,0.29,1.19,0.28,-0.28,-0.44,0.95,0.91,0.94
253,1.23,0.29,1.15,0.24,-0.24,-0.43,0.98,0.90,0.94
256,1.23,0.29,1.12,0.21,-0.21,-0.42,1.02,0.91,0.94
259,1.17,0.23,1.09,0.18,-0.18,-0.40,0.99,0.91,0.94
261,1.09,0.15,1.07,0.15,-0.15,-0.39,0.94,0.92,0.94
264,0.96,0.02,1.04,0.11,-0.11,-0.37,0.85,0.93,0.94
266,0.90,-0.04,1.01,0.08,-0.08,-0.36,0.82,0.94,0.94
269,0.90,-0.04,0.97,0.04,-0.04,-0.34,0.86,0.93,0.94
272,0.90,-0.04,0.93,0.00,-0.00,-0.31,0.90,0.93,0.94
274,0.90,-0.04,0.89,-0.04,0.04,-0.30,0.94,0.92,0.94
277,0.90,-0.04,0.84,-0.08,0.08,-0.28,0.98,0.92,0.94
280,0.90,-0.04,0.80,-0.11,0.11,-0.25,1.01,0.92,0.94
283,0.82,-0.12,0.77,-0.15,0.15,-0.23,0.97,0.91,0.94
286,0.74,-0.20,0.74,-0.18,0.18,-0.20,0.92,0.92,0.94
288,0.74,-0.20,0.71,-0.21,0.21,-0.19,0.95,0.92,0.94
291,0.67,-0.27,0.69,-0.24,0.24,-0.16,0.91,0.93,0.94
294,0.58,-0.36,0.66,-0.26,0.26,-0.14,0.84,0.92,0.94
297,0.58,-0.36,0.64,-0.28,0.28,-0.11,0.86,0.92,0.94
300,0.58,-0.36,0.62,-0.30,0.30,-0.08,0.88,0.92,0.94
303,0.58,-0.36,0.61,-0.32,0.32,-0.06,0.89,0.92,0.94
306,0.58,-0.36,0.59,-0.33,0.33,-0.03,0.91,0.93,0.94
309,0.58,-0.36,0.57,-0.35,0.35,-0.00,0.93,0.93,0.94
312,0.58,-0.36,0.56,-0.37,0.37,0.02,0.95,0.93,0.94
316,0.58,-0.36,0.54,-0.39,0.39,0.06,0.97,0.93,0.94
319,0.58,-0.36,0.51,-0.41,0.41,0.09,0.99,0.93,0.94
322,0.58,-0.36,0.49,-0.44,0.44,0.11,1.02,0.93,0.94
325,0.56,-0.38,0.46,-0.47,0.47,0.14,1.03,0.93,0.94
328,0.45,-0.49,0.43,-0.50,0.50,0.17,0.95,0.93,0.94
332,0.32,-0.62,0.39,-0.53,0.53,0.21,0.85,0.92,0.94
335,0.26,-0.68,0.36,-0.56,0.56,0.23,0.82,0.92,0.94
338,0.26,-0.68,0.33,-0.59,0.59,0.26,0.85,0.92,0.94
342,0.26,-0.68,0.30,-0.62,0.62,0.30,0.88,0.92,0.94
345,0.26,-0.68,0.27,-0.64,0.64,0.32,0.90,0.92,0.94
349,0.26,-0.68,0.25,-0.66,0.66,0.36,0.92,0.92,0.94
352,0.26,-0.68,0.24,-0.68,0.68,0.39,0.94,0.92,0.94
356,0.26,-0.68,0.23,-0.69,0.69,0.42,0.94,0.92,0.94
359,0.26,-0.68,0.24,-0.69,0.69,0.45,0.95,0.93,0.94
363,0.26,-0.68,0.25,-0.69,0.69,0.49,0.95,0.94,0.94
366,0.26,-0.68,0.25,-0.69,0.69,0.51,0.95,0.95,0.94
370,0.26,-0.68,0.26,-0.69,0.69,0.55,0.95,0.95,0.94
374,0.26,-0.68,0.26,-0.69,0.69,0.59,0.95,0.95,0.94
377,0.26,-0.68,0.26,-0.69,0.69,0.61,0.94,0.94,0.94
381,0.26,-0.68,0.26,-0.68,0.68,0.65,0.94,0.94,0.94
385,0.26,-0.68,0.26,-0.68,0.68,0.68,0.94,0.94,0.94
389,0.26,-0.68,0.26,-0.68,0.68,0.72,0.94,0.94,0.94
393,0.26,-0.68,0.26,-0.68,0.68,0.76,0.94,0.94,0.94
397,0.26,-0.68,0.26,-0.68,0.68,0.79,0.94,0.94,0.94
401,0.26,-0.68,0.26,-0.68,0.68,0.82,0.94,0.94,0.94
405,0.26,-0.68,0.26,-0.68,0.68,0.86,0.94,0.94,0.94
409,0.26,-0.68,0.26,-0.68,0.68,0.89,0.94,0.94,0.94
413,0.26,-0.68,0.26,-0.68,0.68,0.93,0.94,0.94,0.94
417,0.26,-0.68,0.26,-0.68,0.68,0.96,0.94,0.94,0.94
421,0.26,-0.68,0.26,-0.68,0.68,0.99,0.94,0.94,0.94
425,0.26,-0.68,0.26,-0.68,0.68,1.02,0.93,0.93,0.94
430,0.26,-0.68,0.26,-0.67,0.67,1.06,0.93,0.93,0.94
434,0.26,-0.68,0.26,-0.67,0.67,1.09,0.93,0.93,0.94
438,0.26,-0.68,0.27,-0.66,0.66,1.12,0.92,0.93,0.94
443,0.26,-0.68,0.28,-0.66,0.66,1.15,0.92,0.94,0.94
447,0.26,-0.68,0.28,-0.66,0.66,1.18,0.92,0.94,0.94
451,0.26,-0.68,0.28,-0.67,0.67,1.20,0.92,0.94,0.94
456,0.26,-0.68,0.27,-0.67,0.67,1.23,0.93,0.94,0.94
460,0.26,-0.68,0.25,-0.68,0.68,1.25,0.94,0.93,0.94
465,0.26,-0.68,0.23,-0.70,0.70,1.27,0.96,0.93,0.94
470,0.26,-0.68,0.20,-0.72,0.72,1.30,0.98,0.92,0.94
474,0.26,-0.68,0.17,-0.75,0.75,1.31,1.01,0.92,0.94
479,0.23,-0.71,0.14,-0.78,0.78,1.33,1.00,0.92,0.94
484,0.11,-0.83,0.12,-0.81,0.81,1.35,0.91,0.93,0.94
489,-0.00,-0.94,0.09,-0.84,0.84,1.36,0.84,0.93,0.94
494,-0.07,-1.01,0.05,-0.88,0.88,1.37,0.81,0.93,0.94
499,-0.07,-1.01,0.00,-0.92,0.92,1.38,0.85,0.92,0.94
504,-0.07,-1.01,-0.04,-0.96,0.96,1.39,0.89,0.92,0.94
509,-0.07,-1.01,-0.08,-1.00,1.00,1.39,0.93,0.92,0.94
514,-0.07,-1.01,-0.12,-1.05,1.05,1.39,0.98,0.93,0.94
519,-0.07,-1.01,-0.16,-1.10,1.10,1.39,1.02,0.93,0.94
524,-0.13,-1.07,-0.21,-1.14,1.14,1.39,1.01,0.93,0.94
529,-0.24,-1.18,-0.26,-1.19,1.19,1.39,0.95,0.94,0.94
535,-0.37,-1.31,-0.30,-1.25,1.25,1.38,0.88,0.94,0.94
540,-0.39,-1.33,-0.35,-1.30,1.30,1.38,0.91,0.95,0.94
545,-0.39,-1.33,-0.41,-1.35,1.35,1.37,0.96,0.94,0.94
551,-0.39,-1.33,-0.47,-1.41,1.41,1.36,1.01,0.94,0.94
556,-0.48,-1.42,-0.53,-1.46,1.46,1.35,0.97,0.93,0.94
562,-0.60,-1.54,-0.58,-1.50,1.50,1.34,0.90,0.92,0.94
568,-0.72,-1.66,-0.63,-1.55,1.55,1.32,0.82,0.92,0.94
573,-0.72,-1.66,-0.66,-1.58,1.58,1.31,0.86,0.92,0.94
579,-0.72,-1.66,-0.69,-1.61,1.61,1.29,0.89,0.92,0.94
585,-0.72,-1.66,-0.71,-1.63,1.63,1.28,0.91,0.93,0.94
591,-0.72,-1.66,-0.72,-1.65,1.65,1.26,0.93,0.93,0.94
596,-0.72,-1.66,-0.74,-1.66,1.66,1.25,0.94,0.93,0.94
602,-0.72,-1.66,-0.74,-1.67,1.67,1.23,0.95,0.93,0.94
608,-0.72,-1.66,-0.75,-1.68,1.68,1.22,0.96,0.93,0.94
615,-0.72,-1.66,-0.74,-1.68,1.68,1.20,0.96,0.94,0.94
621,-0.72,-1.66,-0.73,-1.68,1.68,1.18,0.96,0.95,0.94
627,-0.72,-1.66,-0.73,-1.68,1.68,1.17,0.96,0.95,0.94
633,-0.72,-1.66,-0.73,-1.68,1.68,1.15,0.96,0.94,0.94
639,-0.72,-1.66,-0.74,-1.67,1.67,1.14,0.95,0.94,0.94
646,-0.72,-1.66,-0.74,-1.67,1.67,1.12,0.95,0.93,0.94
652,-0.72,-1.66,-0.73,-1.66,1.66,1.11,0.94,0.92,0.94
659,-0.72,-1.66,-0.72,-1.64,1.64,1.10,0.92,0.92,0.94
665,-0.72,-1.66,-0.71,-1.63,1.63,1.09,0.91,0.92,0.94
672,-0.72,-1.66,-0.68,-1.61,1.61,1.07,0.88,0.92,0.94
679,-0.72,-1.66,-0.66,-1.58,1.58,1.06,0.86,0.93,0.94
686,-0.69,-1.63,-0.63,-1.56,1.56,1.05,0.86,0.93,0.94
692,-0.59,-1.53,-0.59,-1.53,1.53,1.04,0.93,0.93,0.94
699,-0.56,-1.50,-0.56,-1.50,1.50,1.04,0.93,0.94,0.94
706,-0.53,-1.47,-0.53,-1.47,1.47,1.03,0.93,0.94,0.94
713,-0.42,-1.36,-0.50,-1.44,1.44,1.02,1.01,0.94,0.94
721,-0.39,-1.33,-0.48,-1.41,1.41,1.01,1.01,0.93,0.94
728,-0.39,-1.33,-0.46,-1.38,1.38,1.01,0.99,0.92,0.94
735,-0.39,-1.33,-0.43,-1.35,1.35,1.01,0.96,0.92,0.94
742,-0.39,-1.33,-0.40,-1.33,1.33,1.00,0.94,0.92,0.94
750,-0.39,-1.33,-0.38,-1.30,1.30,1.00,0.91,0.93,0.94
757,-0.39,-1.33,-0.35,-1.27,1.27,1.00,0.88,0.92,0.94
765,-0.39,-1.33,-0.32,-1.24,1.24,1.00,0.85,0.92,0.94
773,-0.39,-1.33,-0.30,-1.22,1.22,1.00,0.82,0.92,0.94
780,-0.38,-1.32,-0.27,-1.19,1.19,1.00,0.81,0.92,0.94
788,-0.26,-1.20,-0.24,-1.16,1.16,1.00,0.90,0.92,0.94
796,-0.15,-1.09,-0.21,-1.13,1.13,1.00,0.98,0.92,0.94
804,-0.07,-1.01,-0.18,-1.10,1.10,1.00,1.03,0.93,0.94
812,-0.07,-1.01,-0.14,-1.07,1.07,1.00,1.00,0.93,0.94
820,-0.07,-1.01,-0.12,-1.05,1.05,1.01,0.98,0.94,0.94
828,-0.07,-1.01,-0.09,-1.03,1.03,1.01,0.96,0.94,0.94
837,-0.07,-1.01,-0.07,-1.01,1.01,1.01,0.94,0.94,0.94
845,-0.07,-1.01,-0.06,-1.00,1.00,1.01,0.93,0.95,0.94
853,-0.07,-1.01,-0.05,-1.00,1.00,1.02,0.92,0.95,0.94
862,-0.07,-1.01,-0.05,-0.99,0.99,1.02,0.92,0.94,0.94
871,-0.07,-1.01,-0.06,-1.00,1.00,1.02,0.92,0.94,0.94
879,-0.07,-1.01,-0.07,-1.00,1.00,1.02,0.93,0.93,0.94
888,-0.07,-1.01,-0.07,-1.01,1.01,1.03,0.94,0.94,0.94
897,-0.07,-1.01,-0.07,-1.01,1.01,1.03,0.94,0.94,0.94
906,-0.07,-1.01,-0.08,-1.02,1.02,1.03,0.94,0.94,0.94
915,-0.07,-1.01,-0.08,-1.02,1.02,1.03,0.95,0.94,0.94
924,-0.07,-1.01,-0.09,-1.02,1.02,1.02,0.95,0.93,0.94
933,-0.07,-1.01,-0.10,-1.02,1.02,1.02,0.95,0.92,0.94
943,-0.07,-1.01,-0.09,-1.01,1.01,1.02,0.94,0.92,0.94
952,-0.07,-1.01,-0.07,-1.00,1.00,1.01,0.93,0.93,0.94
962,-0.07,-1.01,-0.05,-0.99,0.99,1.01,0.91,0.93,0.94
971,-0.07,-1.01,-0.03,-0.97,0.97,1.00,0.89,0.93,0.94
981,-0.07,-1.01,-0.01,-0.94,0.94,0.99,0.87,0.93,0.94
991,-0.07,-1.01,0.01,-0.91,0.91,0.98,0.84,0.92,0.94
1001,0.01,-0.93,0.04,-0.88,0.88,0.97,0.88,0.92,0.94
1011,0.12,-0.82,0.08,-0.84,0.84,0.95,0.95,0.92,0.94
1021,0.23,-0.71,0.13,-0.79,0.79,0.94,1.02,0.92,0.94
1031,0.26,-0.68,0.18,-0.75,0.75,0.92,1.00,0.93,0.94
1041,0.26,-0.68,0.23,-0.70,0.70,0.90,0.95,0.93,0.94
1052,0.26,-0.68,0.29,-0.65,0.65,0.88,0.91,0.94,0.94
1062,0.26,-0.68,0.34,-0.60,0.60,0.86,0.86,0.94,0.94
1073,0.31,-0.63,0.39,-0.55,0.55,0.84,0.86,0.95,0.94
1084,0.42,-0.52,0.44,-0.51,0.51,0.81,0.93,0.95,0.94
1094,0.52,-0.42,0.47,-0.47,0.47,0.79,0.99,0.95,0.94
1105,0.58,-0.36,0.50,-0.44,0.44,0.76,1.02,0.94,0.94
1116,0.58,-0.36,0.52,-0.41,0.41,0.74,0.99,0.93,0.94
1128,0.58,-0.36,0.54,-0.39,0.39,0.71,0.97,0.94,0.94
1139,0.58,-0.36,0.57,-0.38,0.38,0.68,0.96,0.94,0.94
1150,0.58,-0.36,0.58,-0.37,0.37,0.65,0.95,0.95,0.94
1162,0.58,-0.36,0.60,-0.36,0.36,0.61,0.94,0.96,0.94
1173,0.58,-0.36,0.60,-0.36,0.36,0.58,0.94,0.95,0.94
1185,0.58,-0.36,0.58,-0.36,0.36,0.55,0.93,0.94,0.94
1197,0.58,-0.36,0.57,-0.36,0.36,0.52,0.93,0.92,0.94
1209,0.58,-0.36,0.56,-0.36,0.36,0.48,0.93,0.91,0.94
1221,0.58,-0.36,0.56,-0.35,0.35,0.45,0.93,0.91,0.94
1233,0.58,-0.36,0.58,-0.34,0.34,0.41,0.92,0.92,0.94
1246,0.58,-0.36,0.59,-0.33,0.33,0.38,0.91,0.93,0.94
1258,0.58,-0.36,0.62,-0.31,0.31,0.34,0.89,0.93,0.94
1271,0.58,-0.36,0.64,-0.29,0.29,0.31,0.87,0.93,0.94
1283,0.58,-0.36,0.66,-0.26,0.26,0.27,0.84,0.92,0.94
1296,0.65,-0.29,0.69,-0.23,0.23,0.24,0.88,0.92,0.94
1309,0.77,-0.17,0.73,-0.19,0.19,0.20,0.96,0.92,0.94
1322,0.88,-0.06,0.77,-0.15,0.15,0.16,1.03,0.93,0.94
1335,0.90,-0.04,0.83,-0.11,0.11,0.13,1.01,0.94,0.94
1349,0.90,-0.04,0.88,-0.06,0.06,0.09,0.96,0.94,0.94
1362,0.90,-0.04,0.92,-0.02,0.02,0.05,0.92,0.94,0.94
1376,0.90,-0.04,0.96,0.03,-0.03,0.02,0.87,0.93,0.94
1390,0.96,0.02,1.02,0.08,-0.08,-0.02,0.88,0.94,0.94
1404,1.07,0.13,1.07,0.13,-0.13,-0.06,0.94,0.94,0.94
1418,1.18,0.24,1.12,0.19,-0.19,-0.10,0.99,0.94,0.94
1432,1.23,0.29,1.17,0.24,-0.24,-0.13,0.99,0.93,0.94
1446,1.23,0.29,1.22,0.29,-0.29,-0.17,0.94,0.93,0.94
1461,1.23,0.29,1.27,0.34,-0.34,-0.21,0.89,0.93,0.94
1475,1.23,0.29,1.33,0.39,-0.39,-0.25,0.84,0.94,0.94
1490,1.28,0.34,1.38,0.43,-0.43,-0.28,0.85,0.95,0.94
1505,1.51,0.57,1.43,0.48,-0.48,-0.32,1.03,0.95,0.94
1520,1.55,0.61,1.46,0.51,-0.51,-0.36,1.04,0.95,0.94
1535,1.55,0.61,1.49,0.54,-0.54,-0.40,1.00,0.95,0.94
1550,1.55,0.61,1.51,0.57,-0.57,-0.43,0.98,0.94,0.94
1566,1.55,0.61,1.53,0.59,-0.59,-0.47,0.96,0.94,0.94
1582,1.55,0.61,1.55,0.61,-0.61,-0.51,0.94,0.94,0.94
1597,1.55,0.61,1.56,0.62,-0.62,-0.55,0.93,0.95,0.94
1613,1.55,0.61,1.57,0.62,-0.62,-0.58,0.93,0.95,0.94
1629,1.55,0.61,1.57,0.62,-0.62,-0.62,0.92,0.95,0.94
1646,1.55,0.61,1.56,0.62,-0.62,-0.66,0.92,0.94,0.94
1662,1.55,0.61,1.55,0.62,-0.62,-0.69,0.93,0.93,0.94
1679,1.55,0.61,1.55,0.62,-0.62,-0.73,0.93,0.93,0.94
1696,1.55,0.61,1.55,0.62,-0.62,-0.76,0.93,0.93,0.94
1713,1.55,0.61,1.55,0.62,-0.62,-0.79,0.93,0.93,0.94
1730,1.55,0.61,1.55,0.62,-0.62,-0.83,0.93,0.93,0.94
1747,1.55,0.61,1.55,0.62,-0.62,-0.86,0.93,0.93,0.94
1764,1.55,0.61,1.55,0.62,-0.62,-0.88,0.93,0.93,0.94
1782,1.55,0.61,1.55,0.62,-0.62,-0.91,0.92,0.92,0.94
1800,1.55,0.61,1.55,0.63,-0.63,-0.94,0.92,0.92,0.94
1818,1.55,0.61,1.55,0.63,-0.63,-0.96,0.92,0.92,0.94
1836,1.55,0.61,1.55,0.63,-0.63,-0.98,0.92,0.92,0.94
1854,1.55,0.61,1.55,0.63,-0.63,-1.00,0.91,0.91,0.94
1873,1.55,0.61,1.54,0.64,-0.64,-1.02,0.91,0.90,0.94
1892,1.55,0.61,1.53,0.64,-0.64,-1.03,0.91,0.89,0.94
1911,1.55,0.61,1.52,0.65,-0.65,-1.04,0.90,0.88,0.94
1930,1.55,0.61,1.53,0.66,-0.66,-1.05,0.89,0.87,0.94
1949,1.55,0.61,1.54,0.67,-0.67,-1.06,0.88,0.87,0.94
1969,1.55,0.61,1.56,0.68,-0.68,-1.06,0.87,0.88,0.94
