frequency,raw,error,smoothed,error_smoothed,equalization,parametric_eq,fixed_band_eq,equalized_raw,equalized_smoothed,target
20.00,0.45,-0.03,0.45,-0.03,0.03,-1.73,-0.71,0.47,0.48,0.48
20.20,0.50,-0.02,0.49,-0.02,0.02,-1.73,-0.73,0.52,0.51,0.51
20.40,0.54,-0.01,0.54,-0.01,0.01,-1.74,-0.75,0.55,0.55,0.54
20.61,0.59,0.01,0.59,0.01,-0.01,-1.74,-0.77,0.58,0.58,0.57
20.81,0.64,0.02,0.64,0.02,-0.02,-1.75,-0.79,0.61,0.61,0.61
21.02,0.69,0.03,0.69,0.04,-0.05,-1.75,-0.82,0.64,0.64,0.65
21.23,0.74,0.07,0.74,0.07,-0.07,-1.76,-0.84,0.66,0.66,0.66
21.44,0.79,0.10,0.79,0.11,-0.11,-1.76,-0.86,0.68,0.69,0.68
21.66,0.85,0.14,0.84,0.14,-0.14,-1.77,-0.89,0.70,0.70,0.70
21.87,0.90,0.19,0.90,0.18,-0.19,-1.78,-0.91,0.71,0.71,0.71
22.09,0.95,0.22,0.95,0.22,-0.23,-1.78,-0.94,0.72,0.72,0.73
22.31,1.01,0.28,1.01,0.27,-0.28,-1.79,-0.96,0.73,0.73,0.73
22.54,1.07,0.32,1.07,0.33,-0.32,-1.79,-0.99,0.74,0.74,0.74
22.76,1.13,0.38,1.13,0.38,-0.37,-1.80,-1.02,0.76,0.76,0.75
22.99,1.19,0.44,1.18,0.43,-0.41,-1.80,-1.04,0.78,0.77,0.75
23.22,1.23,0.47,1.23,0.47,-0.45,-1.81,-1.07,0.77,0.77,0.76
23.45,1.27,0.50,1.27,0.50,-0.50,-1.82,-1.10,0.77,0.77,0.77
23.69,1.31,0.53,1.31,0.53,-0.54,-1.82,-1.13,0.77,0.77,0.78
23.92,1.36,0.57,1.36,0.57,-0.58,-1.83,-1.16,0.78,0.78,0.79
24.16,1.41,0.61,1.41,0.61,-0.62,-1.84,-1.19,0.79,0.78,0.80
24.40,1.46,0.65,1.46,0.66,-0.66,-1.85,-1.23,0.80,0.80,0.81
24.65,1.51,0.71,1.51,0.71,-0.70,-1.85,-1.26,0.81,0.81,0.80
24.89,1.57,0.77,1.56,0.76,-0.74,-1.86,-1.29,0.83,0.82,0.80
25.14,1.60,0.80,1.60,0.80,-0.78,-1.87,-1.32,0.82,0.82,0.80
25.39,1.63,0.83,1.62,0.83,-0.82,-1.88,-1.36,0.81,0.80,0.80
25.65,1.65,0.85,1.64,0.85,-0.87,-1.88,-1.39,0.78,0.77,0.80
25.91,1.67,0.88,1.68,0.89,-0.92,-1.89,-1.42,0.74,0.76,0.79
26.16,1.73,0.93,1.73,0.94,-0.97,-1.90,-1.46,0.76,0.76,0.80
26.43,1.81,1.01,1.81,1.02,-1.02,-1.91,-1.49,0.78,0.79,0.79
26.69,1.90,1.10,1.89,1.10,-1.07,-1.92,-1.52,0.82,0.82,0.79
26.96,1.98,1.18,1.96,1.16,-1.12,-1.93,-1.56,0.85,0.84,0.79
27.23,2.00,1.20,2.00,1.21,-1.17,-1.94,-1.59,0.82,0.83,0.79
27.50,2.02,1.23,2.02,1.23,-1.23,-1.94,-1.62,0.79,0.79,0.79
27.77,2.04,1.26,2.04,1.25,-1.27,-1.95,-1.65,0.76,0.76,0.78
28.05,2.06,1.28,2.07,1.29,-1.32,-1.96,-1.69,0.73,0.75,0.78
28.33,2.13,1.36,2.12,1.35,-1.37,-1.97,-1.72,0.75,0.75,0.77
28.62,2.19,1.41,2.19,1.41,-1.43,-1.99,-1.75,0.76,0.76,0.78
28.90,2.26,1.48,2.26,1.48,-1.48,-2.00,-1.77,0.78,0.78,0.78
29.19,2.32,1.55,2.32,1.54,-1.53,-2.01,-1.80,0.79,0.79,0.77
29.48,2.38,1.60,2.38,1.61,-1.58,-2.02,-1.83,0.79,0.80,0.78
29.78,2.44,1.66,2.43,1.66,-1.63,-2.03,-1.85,0.81,0.80,0.78
30.08,2.48,1.70,2.47,1.70,-1.68,-2.04,-1.87,0.80,0.79,0.77
30.38,2.49,1.72,2.49,1.72,-1.72,-2.05,-1.90,0.76,0.76,0.76
30.68,2.50,1.74,2.50,1.74,-1.77,-2.07,-1.92,0.73,0.73,0.76
30.99,2.51,1.76,2.52,1.77,-1.81,-2.08,-1.93,0.70,0.72,0.75
31.30,2.58,1.83,2.58,1.83,-1.84,-2.09,-1.95,0.73,0.73,0.75
31.61,2.64,1.89,2.64,1.90,-1.88,-2.11,-1.97,0.76,0.76,0.75
31.93,2.71,1.97,2.69,1.96,-1.92,-2.12,-1.98,0.79,0.78,0.74
32.24,2.73,2.00,2.72,1.99,-1.96,-2.13,-1.99,0.76,0.75,0.73
32.57,2.73,2.00,2.73,2.00,-2.01,-2.15,-2.00,0.72,0.72,0.72
32.89,2.73,2.01,2.74,2.02,-2.05,-2.16,-2.01,0.67,0.69,0.72
33.22,2.78,2.06,2.79,2.07,-2.09,-2.18,-2.02,0.68,0.70,0.72
33.55,2.86,2.14,2.85,2.13,-2.13,-2.20,-2.03,0.73,0.72,0.72
33.89,2.93,2.21,2.92,2.20,-2.17,-2.21,-2.03,0.76,0.75,0.72
34.23,2.96,2.24,2.95,2.23,-2.21,-2.23,-2.04,0.75,0.74,0.72
34.57,2.96,2.25,2.96,2.25,-2.26,-2.25,-2.04,0.70,0.70,0.70
34.92,2.96,2.25,2.98,2.27,-2.31,-2.26,-2.05,0.65,0.67,0.70
35.27,3.02,2.32,3.03,2.33,-2.36,-2.28,-2.05,0.66,0.67,0.70
35.62,3.10,2.41,3.09,2.40,-2.39,-2.30,-2.05,0.70,0.70,0.69
35.97,3.17,2.48,3.15,2.46,-2.43,-2.32,-2.05,0.74,0.72,0.69
36.33,3.18,2.49,3.18,2.50,-2.46,-2.34,-2.06,0.72,0.72,0.68
36.70,3.19,2.51,3.19,2.51,-2.49,-2.36,-2.06,0.69,0.70,0.68
37.06,3.19,2.52,3.19,2.52,-2.53,-2.38,-2.06,0.65,0.66,0.67
37.43,3.21,2.54,3.20,2.54,-2.57,-2.41,-2.07,0.63,0.63,0.67
37.81,3.23,2.56,3.23,2.57,-2.61,-2.43,-2.07,0.62,0.62,0.66
38.19,3.27,2.62,3.28,2.62,-2.64,-2.45,-2.08,0.62,0.64,0.65
38.57,3.34,2.69,3.34,2.69,-2.67,-2.48,-2.08,0.66,0.67,0.65
38.95,3.41,2.76,3.39,2.75,-2.70,-2.50,-2.09,0.71,0.69,0.65
39.34,3.42,2.78,3.42,2.78,-2.73,-2.53,-2.10,0.68,0.68,0.63
39.74,3.42,2.80,3.42,2.80,-2.77,-2.55,-2.11,0.65,0.65,0.62
40.14,3.42,2.79,3.41,2.79,-2.81,-2.58,-2.12,0.61,0.60,0.63
40.54,3.42,2.79,3.41,2.79,-2.84,-2.61,-2.13,0.57,0.57,0.62
40.94,3.42,2.80,3.44,2.83,-2.88,-2.63,-2.14,0.54,0.57,0.62
41.35,3.50,2.89,3.50,2.90,-2.91,-2.66,-2.15,0.59,0.59,0.61
41.76,3.59,3.00,3.57,2.98,-2.95,-2.69,-2.17,0.64,0.63,0.59
42.18,3.64,3.06,3.62,3.05,-2.99,-2.73,-2.19,0.65,0.63,0.58
42.60,3.64,3.08,3.64,3.08,-3.05,-2.76,-2.21,0.59,0.60,0.56
43.03,3.64,3.10,3.63,3.10,-3.11,-2.79,-2.23,0.53,0.52,0.54
43.46,3.64,3.12,3.63,3.12,-3.18,-2.82,-2.25,0.46,0.45,0.52
43.90,3.64,3.17,3.66,3.19,-3.24,-2.86,-2.27,0.39,0.42,0.47
44.33,3.72,3.27,3.73,3.28,-3.30,-2.90,-2.30,0.41,0.42,0.45
44.78,3.82,3.40,3.80,3.38,-3.36,-2.93,-2.32,0.46,0.44,0.41
45.23,3.87,3.48,3.85,3.47,-3.41,-2.97,-2.35,0.45,0.44,0.39
45.68,3.87,3.51,3.87,3.51,-3.47,-3.01,-2.38,0.40,0.41,0.36
46.13,3.87,3.52,3.87,3.52,-3.51,-3.05,-2.42,0.36,0.36,0.35
46.60,3.87,3.53,3.87,3.53,-3.54,-3.09,-2.45,0.33,0.33,0.34
47.06,3.87,3.54,3.87,3.54,-3.55,-3.13,-2.48,0.31,0.31,0.33
47.53,3.87,3.55,3.87,3.55,-3.55,-3.17,-2.52,0.31,0.31,0.32
48.01,3.87,3.55,3.87,3.55,-3.55,-3.22,-2.56,0.32,0.32,0.32
48.49,3.87,3.55,3.87,3.55,-3.55,-3.26,-2.60,0.32,0.32,0.32
48.97,3.87,3.56,3.87,3.56,-3.56,-3.31,-2.64,0.31,0.31,0.31
49.46,3.87,3.57,3.87,3.56,-3.58,-3.35,-2.68,0.29,0.29,0.30
49.96,3.87,3.56,3.87,3.56,-3.60,-3.40,-2.73,0.27,0.27,0.30
50.46,3.89,3.57,3.89,3.57,-3.61,-3.45,-2.77,0.28,0.28,0.32
50.96,3.92,3.59,3.95,3.63,-3.62,-3.49,-2.82,0.30,0.33,0.33
51.47,4.01,3.69,4.01,3.69,-3.63,-3.54,-2.87,0.38,0.38,0.32
51.99,4.10,3.78,4.02,3.71,-3.64,-3.59,-2.91,0.46,0.38,0.31
52.51,3.98,3.68,3.99,3.68,-3.65,-3.63,-2.96,0.33,0.34,0.30
53.03,3.87,3.58,3.92,3.64,-3.66,-3.68,-3.01,0.21,0.26,0.28
53.56,3.87,3.61,3.86,3.61,-3.68,-3.73,-3.06,0.19,0.18,0.26
54.10,3.87,3.65,3.86,3.64,-3.70,-3.77,-3.11,0.17,0.16,0.22
54.64,3.87,3.69,3.87,3.69,-3.71,-3.82,-3.16,0.15,0.15,0.18
55.18,3.87,3.73,3.87,3.74,-3.73,-3.86,-3.21,0.14,0.14,0.13
55.74,3.87,3.78,3.88,3.79,-3.75,-3.90,-3.26,0.12,0.13,0.08
56.29,3.87,3.83,3.88,3.84,-3.77,-3.94,-3.30,0.10,0.10,0.04
56.86,3.87,3.88,3.83,3.84,-3.80,-3.97,-3.35,0.07,0.03,-0.01
57.42,3.77,3.84,3.76,3.82,-3.82,-4.01,-3.39,-0.05,-0.06,-0.07
58.00,3.64,3.76,3.69,3.81,-3.84,-4.04,-3.44,-0.20,-0.15,-0.12
58.58,3.64,3.81,3.63,3.81,-3.86,-4.06,-3.48,-0.22,-0.22,-0.18
59.16,3.64,3.86,3.63,3.85,-3.89,-4.09,-3.52,-0.25,-0.26,-0.22
59.76,3.64,3.91,3.64,3.91,-3.92,-4.11,-3.56,-0.28,-0.28,-0.27
60.35,3.64,3.97,3.64,3.97,-3.96,-4.12,-3.60,-0.32,-0.32,-0.34
60.96,3.64,4.02,3.64,4.03,-4.01,-4.13,-3.63,-0.37,-0.37,-0.38
61.57,3.64,4.08,3.64,4.08,-4.07,-4.14,-3.66,-0.43,-0.43,-0.45
62.18,3.64,4.14,3.64,4.13,-4.13,-4.14,-3.69,-0.50,-0.50,-0.50
62.80,3.64,4.18,3.64,4.18,-4.19,-4.13,-3.72,-0.56,-0.56,-0.54
63.43,3.64,4.22,3.64,4.22,-4.24,-4.12,-3.75,-0.60,-0.60,-0.58
64.07,3.64,4.26,3.64,4.26,-4.27,-4.10,-3.77,-0.64,-0.64,-0.62
64.71,3.64,4.30,3.65,4.31,-4.29,-4.08,-3.79,-0.66,-0.64,-0.66
65.35,3.64,4.33,3.64,4.33,-4.30,-4.05,-3.81,-0.66,-0.66,-0.70
66.01,3.64,4.36,3.59,4.32,-4.29,-4.01,-3.83,-0.65,-0.70,-0.72
66.67,3.49,4.24,3.51,4.26,-4.26,-3.96,-3.85,-0.77,-0.75,-0.75
67.33,3.39,4.16,3.41,4.19,-4.21,-3.90,-3.86,-0.82,-0.80,-0.77
68.01,3.32,4.11,3.30,4.10,-4.13,-3.83,-3.88,-0.81,-0.83,-0.79
68.69,3.21,4.02,3.21,4.03,-4.02,-3.75,-3.89,-0.82,-0.81,-0.81
69.37,3.08,3.91,3.09,3.92,-3.89,-3.66,-3.90,-0.81,-0.80,-0.84
70.07,2.94,3.80,2.92,3.77,-3.73,-3.55,-3.92,-0.80,-0.82,-0.86
70.77,2.71,3.57,2.71,3.57,-3.56,-3.43,-3.93,-0.85,-0.85,-0.86
71.48,2.46,3.34,2.46,3.35,-3.35,-3.28,-3.94,-0.89,-0.88,-0.88
72.19,2.20,3.09,2.20,3.10,-3.11,-3.13,-3.95,-0.91,-0.90,-0.90
72.91,1.94,2.86,1.94,2.86,-2.84,-2.94,-3.97,-0.90,-0.90,-0.92
73.64,1.68,2.61,1.67,2.61,-2.55,-2.74,-3.98,-0.88,-0.88,-0.94
74.38,1.38,2.33,1.36,2.32,-2.27,-2.52,-3.99,-0.89,-0.90,-0.95
75.12,1.05,2.02,1.03,2.00,-1.98,-2.29,-4.01,-0.93,-0.95,-0.98
75.87,0.68,1.67,0.70,1.69,-1.71,-2.06,-4.03,-1.03,-1.01,-0.99
76.63,0.40,1.41,0.43,1.44,-1.47,-1.83,-4.05,-1.07,-1.04,-1.01
77.40,0.23,1.25,0.22,1.25,-1.28,-1.66,-4.07,-1.06,-1.06,-1.02
78.17,0.13,1.16,0.10,1.13,-1.16,-1.51,-4.10,-1.04,-1.06,-1.04
78.95,0.01,1.04,0.03,1.06,-1.12,-1.47,-4.12,-1.11,-1.09,-1.04
79.74,-0.00,1.03,-0.01,1.03,-1.15,-1.48,-4.15,-1.15,-1.16,-1.04
80.54,-0.00,1.04,-0.02,1.02,-1.25,-1.60,-4.18,-1.26,-1.28,-1.05
81.35,0.05,1.09,0.06,1.11,-1.42,-1.77,-4.22,-1.37,-1.35,-1.05
82.16,0.20,1.24,0.25,1.28,-1.63,-2.00,-4.26,-1.43,-1.38,-1.04
82.98,0.55,1.57,0.52,1.55,-1.88,-2.26,-4.30,-1.33,-1.35,-1.02
83.81,0.89,1.90,0.86,1.87,-2.14,-2.53,-4.34,-1.25,-1.29,-1.01
84.65,1.20,2.20,1.22,2.21,-2.43,-2.79,-4.39,-1.23,-1.21,-1.00
85.50,1.55,2.52,1.55,2.53,-2.71,-3.04,-4.44,-1.16,-1.16,-0.98
86.35,1.91,2.87,1.90,2.86,-2.97,-3.27,-4.49,-1.06,-1.07,-0.96
87.22,2.23,3.17,2.24,3.19,-3.23,-3.48,-4.55,-1.01,-0.99,-0.95
88.09,2.58,3.51,2.55,3.48,-3.49,-3.68,-4.61,-0.91,-0.94,-0.93
88.97,2.84,3.73,2.84,3.75,-3.75,-3.85,-4.67,-0.91,-0.90,-0.90
89.86,3.10,3.98,3.11,3.99,-4.00,-4.01,-4.74,-0.90,-0.89,-0.88
90.76,3.37,4.25,3.35,4.22,-4.25,-4.16,-4.81,-0.88,-0.90,-0.88
91.66,3.60,4.45,3.61,4.47,-4.48,-4.30,-4.89,-0.88,-0.87,-0.85
92.58,3.84,4.70,3.87,4.72,-4.70,-4.42,-4.97,-0.87,-0.84,-0.86
93.51,4.13,4.97,4.09,4.93,-4.91,-4.54,-5.05,-0.78,-0.82,-0.84
94.44,4.31,5.14,4.29,5.13,-5.10,-4.65,-5.13,-0.79,-0.81,-0.84
95.39,4.43,5.26,4.45,5.29,-5.28,-4.75,-5.22,-0.85,-0.82,-0.83
96.34,4.59,5.44,4.57,5.42,-5.43,-4.85,-5.31,-0.85,-0.86,-0.85
97.30,4.70,5.55,4.71,5.56,-5.57,-4.95,-5.41,-0.87,-0.86,-0.85
98.28,4.83,5.69,4.84,5.70,-5.70,-5.04,-5.50,-0.87,-0.86,-0.86
99.26,4.98,5.85,4.93,5.80,-5.81,-5.14,-5.60,-0.83,-0.87,-0.87
100.25,5.02,5.90,5.04,5.92,-5.91,-5.22,-5.70,-0.90,-0.87,-0.88
101.25,5.09,5.99,5.12,6.02,-6.01,-5.31,-5.81,-0.93,-0.89,-0.90
102.27,5.24,6.15,5.18,6.10,-6.12,-5.40,-5.91,-0.88,-0.94,-0.92
103.29,5.24,6.18,5.25,6.19,-6.22,-5.48,-6.02,-0.98,-0.96,-0.95
104.32,5.29,6.25,5.33,6.29,-6.31,-5.57,-6.12,-1.03,-0.99,-0.97
105.37,5.41,6.40,5.39,6.38,-6.41,-5.65,-6.23,-1.00,-1.02,-0.99
106.42,5.47,6.50,5.45,6.48,-6.49,-5.73,-6.33,-1.03,-1.05,-1.03
107.48,5.47,6.55,5.48,6.56,-6.56,-5.81,-6.44,-1.09,-1.08,-1.08
108.56,5.47,6.61,5.49,6.63,-6.61,-5.89,-6.54,-1.14,-1.11,-1.14
109.64,5.47,6.66,5.46,6.65,-6.62,-5.98,-6.65,-1.15,-1.16,-1.19
110.74,5.46,6.70,5.42,6.66,-6.60,-6.06,-6.74,-1.14,-1.18,-1.24
111.85,5.27,6.56,5.32,6.62,-6.55,-6.14,-6.84,-1.28,-1.23,-1.29
112.97,5.22,6.58,5.16,6.51,-6.48,-6.22,-6.93,-1.26,-1.32,-1.36
114.10,4.97,6.38,4.97,6.38,-6.39,-6.29,-7.01,-1.42,-1.42,-1.41
115.24,4.75,6.21,4.80,6.27,-6.28,-6.37,-7.09,-1.53,-1.48,-1.47
116.39,4.63,6.15,4.62,6.14,-6.18,-6.45,-7.17,-1.55,-1.56,-1.52
117.55,4.54,6.11,4.50,6.07,-6.09,-6.53,-7.23,-1.56,-1.60,-1.57
118.73,4.38,6.00,4.41,6.02,-6.03,-6.60,-7.28,-1.66,-1.63,-1.62
119.92,4.33,5.97,4.33,5.99,-6.01,-6.67,-7.33,-1.69,-1.68,-1.65
121.12,4.33,6.01,4.31,5.99,-6.04,-6.75,-7.37,-1.71,-1.73,-1.68
122.33,4.33,6.04,4.35,6.05,-6.10,-6.82,-7.39,-1.77,-1.75,-1.71
123.55,4.43,6.14,4.43,6.15,-6.18,-6.88,-7.41,-1.75,-1.75,-1.71
124.79,4.55,6.29,4.55,6.29,-6.29,-6.95,-7.41,-1.74,-1.74,-1.74
126.03,4.71,6.46,4.70,6.45,-6.41,-7.01,-7.41,-1.70,-1.71,-1.75
127.29,4.83,6.60,4.83,6.61,-6.55,-7.07,-7.39,-1.72,-1.71,-1.77
128.57,4.96,6.75,4.93,6.72,-6.69,-7.13,-7.37,-1.73,-1.76,-1.79
129.85,5.01,6.81,5.00,6.81,-6.83,-7.18,-7.32,-1.83,-1.83,-1.81
131.15,5.06,6.88,5.09,6.92,-6.96,-7.23,-7.28,-1.91,-1.87,-1.82
132.46,5.19,7.03,5.21,7.05,-7.08,-7.28,-7.22,-1.89,-1.86,-1.84
133.79,5.38,7.23,5.34,7.20,-7.18,-7.32,-7.16,-1.80,-1.83,-1.85
135.12,5.47,7.35,5.44,7.32,-7.26,-7.36,-7.08,-1.79,-1.82,-1.89
136.48,5.47,7.36,5.48,7.38,-7.33,-7.39,-7.00,-1.86,-1.85,-1.90
137.84,5.47,7.38,5.48,7.40,-7.39,-7.41,-6.91,-1.92,-1.91,-1.92
139.22,5.47,7.42,5.47,7.42,-7.43,-7.44,-6.82,-1.96,-1.96,-1.96
140.61,5.47,7.45,5.47,7.45,-7.46,-7.45,-6.72,-1.99,-1.99,-1.99
142.02,5.47,7.46,5.47,7.47,-7.49,-7.47,-6.62,-2.02,-2.02,-1.99
143.44,5.47,7.49,5.47,7.49,-7.51,-7.47,-6.52,-2.04,-2.04,-2.02
144.87,5.47,7.52,5.47,7.52,-7.54,-7.47,-6.41,-2.08,-2.08,-2.05
146.32,5.47,7.55,5.47,7.55,-7.59,-7.46,-6.30,-2.12,-2.12,-2.09
147.78,5.47,7.58,5.47,7.59,-7.64,-7.45,-6.19,-2.17,-2.17,-2.11
149.26,5.47,7.64,5.48,7.65,-7.68,-7.43,-6.08,-2.21,-2.20,-2.17
150.75,5.47,7.70,5.46,7.69,-7.69,-7.41,-5.97,-2.23,-2.23,-2.23
152.26,5.45,7.74,5.42,7.71,-7.68,-7.38,-5.86,-2.23,-2.26,-2.29
153.78,5.31,7.66,5.35,7.70,-7.62,-7.34,-5.74,-2.31,-2.28,-2.35
155.32,5.20,7.63,5.19,7.62,-7.52,-7.30,-5.64,-2.33,-2.33,-2.43
156.88,5.00,7.50,4.95,7.45,-7.37,-7.26,-5.53,-2.37,-2.42,-2.50
158.44,4.62,7.18,4.63,7.20,-7.15,-7.20,-5.42,-2.53,-2.52,-2.56
160.03,4.23,6.85,4.22,6.84,-6.89,-7.15,-5.32,-2.66,-2.67,-2.62
161.63,3.78,6.45,3.77,6.44,-6.62,-7.08,-5.22,-2.85,-2.85,-2.67
163.24,3.35,6.06,3.34,6.05,-6.39,-7.02,-5.12,-3.04,-3.05,-2.71
164.88,3.02,5.76,3.02,5.77,-6.22,-6.94,-5.03,-3.20,-3.19,-2.74
166.53,2.83,5.60,2.90,5.67,-6.12,-6.87,-4.93,-3.30,-3.22,-2.77
168.19,2.97,5.76,2.97,5.76,-6.11,-6.79,-4.85,-3.14,-3.13,-2.79
169.87,3.23,6.03,3.19,5.99,-6.16,-6.71,-4.76,-2.93,-2.97,-2.80
171.57,3.49,6.28,3.49,6.29,-6.25,-6.62,-4.68,-2.76,-2.76,-2.80
173.29,3.75,6.53,3.76,6.54,-6.39,-6.54,-4.60,-2.64,-2.62,-2.78
175.02,4.01,6.77,3.96,6.73,-6.54,-6.45,-4.52,-2.53,-2.58,-2.76
176.77,4.09,6.84,4.08,6.83,-6.69,-6.35,-4.45,-2.61,-2.62,-2.76
178.54,4.10,6.84,4.12,6.85,-6.82,-6.26,-4.38,-2.72,-2.70,-2.74
180.32,4.10,6.82,4.10,6.83,-6.88,-6.16,-4.31,-2.78,-2.77,-2.73
182.13,4.10,6.81,4.11,6.83,-6.86,-6.06,-4.25,-2.76,-2.75,-2.71
183.95,4.10,6.80,4.11,6.82,-6.80,-5.96,-4.19,-2.70,-2.69,-2.70
185.79,4.10,6.81,4.04,6.75,-6.71,-5.86,-4.14,-2.61,-2.67,-2.71
187.65,3.94,6.66,3.92,6.64,-6.60,-5.76,-4.08,-2.67,-2.69,-2.72
189.52,3.70,6.43,3.76,6.49,-6.49,-5.66,-4.04,-2.79,-2.73,-2.73
191.42,3.59,6.34,3.58,6.33,-6.36,-5.55,-3.99,-2.78,-2.78,-2.75
193.33,3.47,6.23,3.45,6.20,-6.23,-5.45,-3.95,-2.77,-2.79,-2.76
195.27,3.31,6.07,3.32,6.09,-6.10,-5.34,-3.90,-2.80,-2.78,-2.76
197.22,3.21,5.98,3.18,5.96,-5.99,-5.24,-3.87,-2.78,-2.80,-2.77
199.19,3.05,5.85,3.07,5.86,-5.89,-5.14,-3.83,-2.84,-2.82,-2.80
201.18,2.96,5.76,2.97,5.78,-5.80,-5.03,-3.80,-2.85,-2.83,-2.80
203.19,2.92,5.73,2.87,5.69,-5.73,-4.93,-3.76,-2.81,-2.86,-2.81
205.23,2.79,5.62,2.82,5.64,-5.65,-4.82,-3.74,-2.87,-2.84,-2.83
207.28,2.73,5.56,2.77,5.61,-5.57,-4.72,-3.71,-2.85,-2.81,-2.83
209.35,2.73,5.58,2.67,5.53,-5.49,-4.62,-3.68,-2.76,-2.81,-2.85
211.44,2.61,5.48,2.57,5.44,-5.39,-4.52,-3.66,-2.78,-2.81,-2.87
213.56,2.36,5.23,2.42,5.29,-5.27,-4.41,-3.63,-2.92,-2.85,-2.87
215.69,2.28,5.15,2.25,5.12,-5.14,-4.31,-3.61,-2.86,-2.89,-2.87
217.85,2.07,4.95,2.10,4.98,-4.99,-4.21,-3.59,-2.92,-2.89,-2.89
220.03,1.96,4.85,1.93,4.83,-4.82,-4.11,-3.57,-2.86,-2.88,-2.89
222.23,1.77,4.68,1.74,4.64,-4.64,-4.01,-3.55,-2.87,-2.90,-2.91
224.45,1.51,4.42,1.56,4.47,-4.46,-3.91,-3.53,-2.95,-2.90,-2.91
226.70,1.38,4.28,1.36,4.27,-4.29,-3.81,-3.51,-2.91,-2.93,-2.91
228.96,1.21,4.12,1.18,4.09,-4.12,-3.71,-3.49,-2.91,-2.93,-2.91
231.25,0.98,3.89,1.02,3.93,-3.95,-3.61,-3.47,-2.97,-2.93,-2.91
233.57,0.88,3.79,0.85,3.76,-3.79,-3.51,-3.45,-2.91,-2.94,-2.91
235.90,0.69,3.61,0.71,3.62,-3.62,-3.41,-3.42,-2.94,-2.92,-2.92
238.26,0.57,3.48,0.59,3.50,-3.47,-3.31,-3.40,-2.90,-2.88,-2.92
240.64,0.47,3.38,0.42,3.33,-3.31,-3.21,-3.37,-2.84,-2.89,-2.91
243.05,0.29,3.19,0.28,3.18,-3.16,-3.12,-3.35,-2.87,-2.88,-2.90
245.48,0.06,2.95,0.11,3.00,-3.01,-3.02,-3.32,-2.95,-2.90,-2.89
247.93,-0.00,2.87,-0.04,2.84,-2.87,-2.92,-3.29,-2.87,-2.91,-2.88
250.41,-0.19,2.69,-0.18,2.69,-2.73,-2.82,-3.26,-2.92,-2.91,-2.88
252.92,-0.28,2.58,-0.29,2.57,-2.59,-2.72,-3.22,-2.87,-2.88,-2.87
255.45,-0.43,2.41,-0.40,2.45,-2.46,-2.61,-3.19,-2.89,-2.86,-2.84
258.00,-0.46,2.37,-0.49,2.35,-2.33,-2.51,-3.15,-2.79,-2.81,-2.84
260.58,-0.60,2.23,-0.60,2.23,-2.20,-2.41,-3.11,-2.80,-2.80,-2.83
263.19,-0.69,2.12,-0.72,2.10,-2.07,-2.30,-3.07,-2.76,-2.79,-2.81
265.82,-0.89,1.92,-0.86,1.95,-1.94,-2.20,-3.03,-2.83,-2.79,-2.81
268.48,-0.97,1.81,-0.98,1.80,-1.80,-2.09,-2.99,-2.77,-2.78,-2.78
271.16,-1.10,1.66,-1.12,1.65,-1.66,-1.98,-2.94,-2.76,-2.78,-2.76
273.87,-1.22,1.53,-1.21,1.53,-1.53,-1.88,-2.90,-2.75,-2.74,-2.75
276.61,-1.35,1.36,-1.32,1.39,-1.40,-1.77,-2.85,-2.75,-2.73,-2.71
279.38,-1.37,1.32,-1.43,1.26,-1.29,-1.66,-2.80,-2.66,-2.72,-2.69
282.17,-1.54,1.12,-1.52,1.15,-1.18,-1.55,-2.75,-2.72,-2.69,-2.67
284.99,-1.60,1.04,-1.57,1.07,-1.07,-1.44,-2.70,-2.68,-2.64,-2.64
287.84,-1.60,1.01,-1.61,1.00,-0.98,-1.33,-2.65,-2.58,-2.59,-2.61
290.72,-1.60,0.97,-1.65,0.93,-0.90,-1.23,-2.60,-2.50,-2.54,-2.58
293.63,-1.71,0.84,-1.71,0.84,-0.82,-1.13,-2.55,-2.53,-2.53,-2.55
296.57,-1.81,0.71,-1.78,0.74,-0.75,-1.03,-2.50,-2.57,-2.54,-2.52
299.53,-1.83,0.66,-1.83,0.66,-0.70,-0.94,-2.45,-2.53,-2.53,-2.49
302.53,-1.83,0.64,-1.84,0.63,-0.65,-0.85,-2.40,-2.48,-2.49,-2.48
305.55,-1.83,0.61,-1.83,0.61,-0.61,-0.77,-2.36,-2.44,-2.44,-2.44
308.61,-1.83,0.59,-1.83,0.59,-0.58,-0.70,-2.31,-2.41,-2.41,-2.42
311.69,-1.83,0.57,-1.83,0.56,-0.56,-0.64,-2.26,-2.39,-2.39,-2.40
314.81,-1.83,0.54,-1.83,0.55,-0.54,-0.59,-2.21,-2.37,-2.37,-2.37
317.96,-1.83,0.54,-1.83,0.54,-0.53,-0.55,-2.17,-2.36,-2.36,-2.38
321.14,-1.83,0.55,-1.83,0.54,-0.53,-0.52,-2.12,-2.36,-2.36,-2.38
324.35,-1.83,0.54,-1.83,0.54,-0.53,-0.51,-2.08,-2.36,-2.36,-2.37
327.59,-1.83,0.53,-1.84,0.52,-0.55,-0.50,-2.04,-2.38,-2.39,-2.36
330.87,-1.83,0.52,-1.83,0.52,-0.57,-0.50,-1.99,-2.40,-2.40,-2.35
334.18,-1.83,0.51,-1.79,0.56,-0.59,-0.51,-1.95,-2.42,-2.38,-2.34
337.52,-1.70,0.63,-1.72,0.61,-0.61,-0.52,-1.91,-2.31,-2.32,-2.34
340.90,-1.62,0.68,-1.65,0.67,-0.62,-0.55,-1.88,-2.24,-2.27,-2.31
344.30,-1.60,0.70,-1.60,0.70,-0.63,-0.57,-1.84,-2.23,-2.23,-2.30
347.75,-1.60,0.68,-1.60,0.68,-0.64,-0.60,-1.80,-2.24,-2.24,-2.28
351.23,-1.60,0.65,-1.60,0.65,-0.65,-0.63,-1.77,-2.26,-2.25,-2.25
354.74,-1.60,0.63,-1.62,0.61,-0.67,-0.67,-1.73,-2.27,-2.28,-2.23
358.28,-1.60,0.60,-1.60,0.61,-0.67,-0.70,-1.70,-2.28,-2.27,-2.20
361.87,-1.60,0.58,-1.54,0.64,-0.68,-0.74,-1.67,-2.28,-2.22,-2.18
365.49,-1.43,0.72,-1.47,0.69,-0.67,-0.77,-1.64,-2.11,-2.15,-2.16
369.14,-1.38,0.75,-1.40,0.73,-0.67,-0.80,-1.61,-2.06,-2.08,-2.14
372.83,-1.37,0.74,-1.36,0.75,-0.68,-0.84,-1.59,-2.05,-2.04,-2.11
376.56,-1.37,0.72,-1.37,0.72,-0.69,-0.87,-1.56,-2.06,-2.05,-2.09
380.33,-1.37,0.69,-1.37,0.69,-0.70,-0.90,-1.54,-2.08,-2.08,-2.06
384.13,-1.37,0.67,-1.39,0.66,-0.72,-0.92,-1.51,-2.09,-2.11,-2.04
387.97,-1.37,0.66,-1.37,0.66,-0.73,-0.95,-1.49,-2.10,-2.09,-2.03
391.85,-1.36,0.66,-1.31,0.71,-0.74,-0.98,-1.47,-2.10,-2.04,-2.02
395.77,-1.20,0.81,-1.24,0.78,-0.75,-1.00,-1.45,-1.95,-1.98,-2.01
399.73,-1.14,0.86,-1.17,0.83,-0.77,-1.02,-1.43,-1.92,-1.94,-2.00
403.72,-1.14,0.85,-1.13,0.86,-0.81,-1.04,-1.41,-1.95,-1.94,-1.99
407.76,-1.14,0.84,-1.15,0.83,-0.85,-1.06,-1.39,-1.99,-2.00,-1.98
411.84,-1.14,0.83,-1.14,0.84,-0.89,-1.08,-1.38,-2.03,-2.03,-1.98
415.96,-1.14,0.82,-1.08,0.89,-0.92,-1.10,-1.36,-2.07,-2.00,-1.97
420.12,-0.96,1.00,-1.01,0.96,-0.96,-1.11,-1.35,-1.93,-1.97,-1.97
424.32,-0.91,1.05,-0.95,1.02,-1.01,-1.13,-1.33,-1.92,-1.95,-1.97
428.56,-0.91,1.06,-0.90,1.07,-1.05,-1.15,-1.32,-1.96,-1.95,-1.97
432.85,-0.91,1.06,-0.87,1.09,-1.09,-1.16,-1.31,-2.01,-1.97,-1.97
437.18,-0.81,1.15,-0.81,1.15,-1.14,-1.17,-1.30,-1.96,-1.96,-1.96
441.55,-0.72,1.23,-0.75,1.21,-1.19,-1.19,-1.29,-1.91,-1.93,-1.95
445.96,-0.69,1.26,-0.70,1.24,-1.22,-1.20,-1.28,-1.92,-1.93,-1.95
450.42,-0.69,1.25,-0.70,1.24,-1.26,-1.21,-1.27,-1.95,-1.95,-1.94
454.93,-0.69,1.24,-0.67,1.26,-1.29,-1.23,-1.26,-1.98,-1.96,-1.93
459.48,-0.64,1.28,-0.61,1.31,-1.32,-1.24,-1.25,-1.97,-1.93,-1.92
464.07,-0.49,1.41,-0.53,1.37,-1.36,-1.25,-1.24,-1.85,-1.89,-1.90
468.71,-0.46,1.42,-0.49,1.39,-1.39,-1.27,-1.23,-1.85,-1.88,-1.88
473.40,-0.46,1.41,-0.45,1.42,-1.42,-1.28,-1.22,-1.88,-1.86,-1.87
478.13,-0.46,1.38,-0.40,1.45,-1.45,-1.29,-1.21,-1.91,-1.85,-1.84
