frequency,raw,error,smoothed,error_smoothed,equalization,parametric_eq,equalized_raw,equalized_smoothed,target
20,-11.88,-13.62,-12.53,-14.27,6.00,1.30,-5.88,-6.53,1.74
21,-11.61,-13.35,-11.11,-12.85,6.00,1.53,-5.61,-5.11,1.74
22,-10.24,-11.98,-9.76,-11.50,6.00,1.78,-4.24,-3.76,1.74
23,-8.72,-10.45,-8.48,-10.22,6.00,2.04,-2.72,-2.48,1.74
24,-7.27,-9.00,-7.26,-9.00,6.00,2.33,-1.27,-1.26,1.74
25,-6.02,-7.75,-6.11,-7.85,5.84,2.61,-0.17,-0.27,1.73
26,-4.96,-6.68,-5.04,-6.77,5.52,2.88,0.56,0.48,1.73
27,-3.96,-5.68,-4.03,-5.76,5.05,3.12,1.10,1.02,1.73
28,-3.06,-4.78,-3.11,-4.83,4.49,3.30,1.44,1.39,1.72
29,-2.24,-3.95,-2.26,-3.98,3.88,3.41,1.64,1.62,1.72
30,-1.47,-3.18,-1.50,-3.21,3.21,3.42,1.75,1.71,1.71
31,-0.82,-2.52,-0.81,-2.52,2.52,3.33,1.70,1.71,1.71
32,-0.20,-1.90,-0.18,-1.89,1.89,3.14,1.69,1.70,1.70
33,0.35,-1.34,0.39,-1.31,1.31,2.87,1.66,1.70,1.70
34,0.87,-0.81,0.91,-0.77,0.77,2.52,1.65,1.69,1.69
35,1.39,-0.29,1.41,-0.27,0.27,2.11,1.67,1.68,1.68
36,1.85,0.18,1.87,0.20,-0.20,1.67,1.66,1.67,1.67
37,2.30,0.64,2.31,0.65,-0.65,1.21,1.66,1.66,1.66
38,2.71,1.06,2.73,1.08,-1.08,0.73,1.63,1.65,1.65
39,3.15,1.51,3.14,1.49,-1.49,0.25,1.66,1.64,1.64
40,3.53,1.90,3.52,1.89,-1.89,-0.23,1.65,1.63,1.63
41,3.88,2.26,3.89,2.27,-2.27,-0.71,1.62,1.62,1.62
42,4.21,2.60,4.24,2.63,-2.63,-1.18,1.58,1.61,1.61
43,4.56,2.97,4.58,2.98,-2.98,-1.65,1.58,1.60,1.60
44,4.91,3.33,4.90,3.32,-3.32,-2.12,1.60,1.58,1.58
45,5.22,3.66,5.21,3.64,-3.64,-2.58,1.58,1.57,1.57
46,5.49,3.94,5.51,3.96,-3.96,-3.04,1.54,1.55,1.55
47,5.80,4.27,5.80,4.26,-4.26,-3.49,1.55,1.54,1.54
48,6.04,4.52,6.07,4.55,-4.55,-3.95,1.50,1.52,1.52
49,6.32,4.82,6.33,4.83,-4.83,-4.39,1.50,1.50,1.50
50,6.62,5.14,6.58,5.10,-5.10,-4.84,1.53,1.48,1.48
51,6.80,5.34,6.82,5.36,-5.36,-5.27,1.45,1.46,1.46
52,7.07,5.63,7.05,5.61,-5.61,-5.70,1.47,1.44,1.44
53,7.24,5.82,7.27,5.85,-5.85,-6.11,1.40,1.42,1.42
54,7.47,6.08,7.48,6.08,-6.08,-6.52,1.40,1.40,1.40
55,7.66,6.29,7.68,6.30,-6.30,-6.90,1.36,1.38,1.38
56,7.88,6.53,7.87,6.52,-6.52,-7.27,1.37,1.35,1.35
57,8.04,6.72,8.06,6.73,-6.73,-7.61,1.32,1.33,1.33
58,8.24,6.95,8.23,6.94,-6.94,-7.92,1.31,1.30,1.30
59,8.39,7.12,8.41,7.14,-7.14,-8.21,1.26,1.27,1.27
60,8.58,7.34,8.57,7.33,-7.33,-8.46,1.25,1.24,1.24
61,8.73,7.52,8.74,7.52,-7.52,-8.68,1.21,1.22,1.22
62,8.87,7.69,8.89,7.71,-7.71,-8.87,1.17,1.19,1.19
63,9.04,7.89,9.04,7.89,-7.89,-9.03,1.16,1.16,1.16
64,9.18,8.06,9.18,8.06,-8.06,-9.15,1.12,1.12,1.12
65,9.32,8.23,9.32,8.23,-8.23,-9.25,1.10,1.09,1.09
66,9.45,8.40,9.45,8.39,-8.39,-9.32,1.06,1.06,1.06
67,9.58,8.56,9.57,8.55,-8.55,-9.38,1.04,1.02,1.02
68,9.67,8.69,9.69,8.70,-8.70,-9.41,0.98,0.99,0.99
69,9.81,8.86,9.80,8.84,-8.84,-9.43,0.97,0.95,0.95
70,9.90,8.99,9.90,8.98,-8.98,-9.44,0.92,0.92,0.92
71,9.97,9.09,10.00,9.12,-9.12,-9.45,0.86,0.88,0.88
72,10.12,9.28,10.09,9.25,-9.25,-9.45,0.88,0.84,0.84
73,10.15,9.35,10.18,9.38,-9.38,-9.45,0.78,0.81,0.81
74,10.26,9.50,10.27,9.50,-9.50,-9.44,0.76,0.77,0.77
75,10.35,9.63,10.36,9.63,-9.63,-9.45,0.72,0.73,0.73
76,10.44,9.75,10.45,9.76,-9.76,-9.45,0.69,0.69,0.69
77,10.54,9.89,10.53,9.88,-9.88,-9.46,0.66,0.65,0.65
78,10.61,10.00,10.62,10.01,-10.01,-9.48,0.61,0.61,0.61
79,10.72,10.15,10.70,10.13,-10.13,-9.50,0.60,0.57,0.57
80,10.76,10.24,10.78,10.25,-10.25,-9.53,0.52,0.53,0.53
81,10.86,10.38,10.85,10.37,-10.37,-9.57,0.50,0.49,0.49
82,10.89,10.45,10.93,10.48,-10.48,-9.61,0.41,0.45,0.45
83,11.01,10.61,11.00,10.60,-10.60,-9.66,0.42,0.41,0.41
84,11.06,10.70,11.07,10.71,-10.71,-9.73,0.36,0.36,0.36
85,11.16,10.84,11.14,10.82,-10.82,-9.80,0.35,0.32,0.32
86,11.19,10.91,11.21,10.93,-10.93,-9.87,0.27,0.28,0.28
87,11.26,11.03,11.27,11.03,-11.03,-9.96,0.23,0.24,0.24
88,11.33,11.14,11.34,11.14,-11.14,-10.05,0.20,0.20,0.20
89,11.39,11.24,11.39,11.24,-11.24,-10.16,0.16,0.16,0.16
90,11.46,11.35,11.45,11.34,-11.34,-10.27,0.13,0.12,0.12
91,11.48,11.41,11.50,11.43,-11.43,-10.38,0.06,0.07,0.07
92,11.56,11.53,11.55,11.52,-11.52,-10.51,0.05,0.03,0.03
93,11.60,11.61,11.59,11.60,-11.60,-10.64,0.00,-0.01,-0.01
94,11.63,11.68,11.63,11.68,-11.68,-10.78,-0.05,-0.05,-0.05
95,11.67,11.76,11.67,11.76,-11.76,-10.93,-0.08,-0.09,-0.09
96,11.68,11.81,11.70,11.83,-11.83,-11.08,-0.15,-0.13,-0.13
97,11.75,11.92,11.74,11.90,-11.90,-11.24,-0.15,-0.17,-0.17
98,11.76,11.97,11.77,11.98,-11.98,-11.40,-0.21,-0.21,-0.21
99,11.80,12.05,11.81,12.05,-12.05,-11.57,-0.25,-0.25,-0.25
100,11.81,12.10,11.84,12.13,-12.13,-11.75,-0.32,-0.29,-0.29
101,11.87,12.20,11.88,12.21,-12.21,-11.93,-0.34,-0.33,-0.32
102,11.88,12.25,11.92,12.30,-12.30,-12.11,-0.41,-0.38,-0.36
104,11.99,12.43,11.96,12.38,-12.38,-12.49,-0.38,-0.42,-0.44
105,12.01,12.49,11.99,12.45,-12.45,-12.68,-0.44,-0.46,-0.47
106,12.03,12.54,12.03,12.53,-12.53,-12.88,-0.49,-0.50,-0.51
107,12.05,12.60,12.06,12.60,-12.60,-13.07,-0.54,-0.54,-0.54
108,12.07,12.65,12.08,12.66,-12.66,-13.27,-0.59,-0.58,-0.58
109,12.10,12.72,12.11,12.72,-12.72,-13.46,-0.62,-0.61,-0.61
110,12.13,12.78,12.13,12.78,-12.78,-13.65,-0.64,-0.65,-0.65
111,12.14,12.83,12.15,12.84,-12.84,-13.84,-0.69,-0.68,-0.68
112,12.17,12.89,12.18,12.89,-12.89,-14.02,-0.72,-0.72,-0.71
113,12.19,12.94,12.20,12.95,-12.95,-14.20,-0.76,-0.75,-0.75
114,12.21,12.99,12.23,13.01,-13.01,-14.37,-0.80,-0.78,-0.78
115,12.25,13.06,12.25,13.07,-13.07,-14.53,-0.82,-0.82,-0.81
117,12.27,13.14,12.28,13.13,-13.13,-14.83,-0.85,-0.85,-0.87
118,12.31,13.21,12.30,13.19,-13.19,-14.96,-0.87,-0.89,-0.90
119,12.33,13.26,12.32,13.24,-13.24,-15.07,-0.91,-0.93,-0.93
120,12.33,13.29,12.34,13.30,-13.30,-15.17,-0.96,-0.96,-0.96
121,12.32,13.31,12.35,13.35,-13.35,-15.26,-1.02,-0.99,-0.98
123,12.38,13.42,12.37,13.40,-13.40,-15.39,-1.01,-1.03,-1.04
124,12.38,13.45,12.38,13.44,-13.44,-15.42,-1.06,-1.06,-1.06
125,12.37,13.46,12.40,13.49,-13.49,-15.45,-1.11,-1.09,-1.09
126,12.40,13.52,12.41,13.53,-13.53,-15.45,-1.13,-1.12,-1.11
128,12.43,13.60,12.42,13.57,-13.57,-15.42,-1.14,-1.15,-1.16
129,12.43,13.62,12.43,13.61,-13.61,-15.38,-1.18,-1.18,-1.19
130,12.44,13.65,12.44,13.65,-13.65,-15.33,-1.20,-1.21,-1.21
131,12.43,13.67,12.44,13.68,-13.68,-15.26,-1.25,-1.24,-1.23
133,12.45,13.73,12.45,13.72,-13.72,-15.10,-1.26,-1.27,-1.27
134,12.44,13.74,12.45,13.75,-13.75,-15.01,-1.30,-1.30,-1.30
135,12.44,13.76,12.45,13.78,-13.78,-14.91,-1.33,-1.32,-1.32
137,12.45,13.81,12.46,13.81,-13.81,-14.70,-1.35,-1.35,-1.36
138,12.45,13.83,12.46,13.84,-13.84,-14.58,-1.38,-1.38,-1.38
140,12.45,13.87,12.46,13.86,-13.86,-14.34,-1.41,-1.40,-1.41
141,12.47,13.91,12.46,13.89,-13.89,-14.22,-1.41,-1.43,-1.43
142,12.46,13.91,12.46,13.91,-13.91,-14.10,-1.45,-1.45,-1.45
144,12.46,13.95,12.46,13.93,-13.93,-13.86,-1.47,-1.48,-1.48
145,12.42,13.92,12.45,13.95,-13.95,-13.74,-1.53,-1.50,-1.50
147,12.43,13.96,12.45,13.97,-13.97,-13.50,-1.54,-1.53,-1.53
148,12.44,13.99,12.44,13.99,-13.99,-13.39,-1.55,-1.55,-1.55
150,12.46,14.04,12.44,14.01,-14.01,-13.17,-1.54,-1.57,-1.57
151,12.42,14.01,12.43,14.02,-14.02,-13.06,-1.60,-1.59,-1.59
153,12.40,14.02,12.42,14.03,-14.03,-12.85,-1.63,-1.61,-1.62
154,12.38,14.01,12.41,14.04,-14.04,-12.76,-1.65,-1.63,-1.63
156,12.40,14.06,12.39,14.04,-14.04,-12.57,-1.64,-1.65,-1.65
157,12.39,14.06,12.37,14.04,-14.04,-12.48,-1.65,-1.67,-1.67
159,12.37,14.07,12.35,14.04,-14.04,-12.32,-1.67,-1.69,-1.69
160,12.33,14.04,12.33,14.03,-14.03,-12.24,-1.70,-1.71,-1.70
162,12.29,14.02,12.30,14.03,-14.03,-12.10,-1.73,-1.72,-1.72
164,12.25,14.00,12.28,14.02,-14.02,-11.96,-1.76,-1.74,-1.75
165,12.22,13.98,12.25,14.01,-14.01,-11.90,-1.79,-1.76,-1.76
167,12.22,14.00,12.23,14.00,-14.00,-11.79,-1.78,-1.77,-1.78
169,12.21,14.01,12.21,14.00,-14.00,-11.69,-1.78,-1.79,-1.79
170,12.18,13.99,12.18,13.99,-13.99,-11.65,-1.81,-1.81,-1.80
172,12.15,13.98,12.16,13.98,-13.98,-11.57,-1.83,-1.82,-1.82
174,12.14,13.98,12.13,13.97,-13.97,-11.50,-1.82,-1.83,-1.84
175,12.11,13.96,12.10,13.95,-13.95,-11.47,-1.83,-1.85,-1.85
177,12.07,13.94,12.06,13.93,-13.93,-11.42,-1.85,-1.86,-1.86
179,12.04,13.92,12.02,13.90,-13.90,-11.38,-1.85,-1.87,-1.88
181,11.98,13.87,11.98,13.87,-13.87,-11.35,-1.88,-1.89,-1.89
183,11.90,13.81,11.93,13.83,-13.83,-11.33,-1.93,-1.90,-1.90
184,11.85,13.76,11.89,13.80,-13.80,-11.32,-1.94,-1.91,-1.91
186,11.80,13.73,11.84,13.76,-13.76,-11.31,-1.96,-1.92,-1.92
188,11.78,13.72,11.79,13.72,-13.72,-11.31,-1.94,-1.93,-1.93
190,11.75,13.70,11.74,13.68,-13.68,-11.32,-1.93,-1.95,-1.95
192,11.73,13.69,11.68,13.64,-13.64,-11.34,-1.90,-1.96,-1.96
194,11.62,13.59,11.62,13.59,-13.59,-11.37,-1.96,-1.97,-1.97
196,11.53,13.51,11.56,13.53,-13.53,-11.40,-2.00,-1.98,-1.98
198,11.50,13.49,11.49,13.47,-13.47,-11.44,-1.97,-1.99,-1.99
200,11.42,13.42,11.41,13.41,-13.41,-11.48,-1.98,-2.00,-2.00
202,11.29,13.30,11.34,13.34,-13.34,-11.53,-2.05,-2.01,-2.01
204,11.26,13.28,11.26,13.27,-13.27,-11.58,-2.01,-2.01,-2.01
206,11.17,13.20,11.18,13.20,-13.20,-11.64,-2.03,-2.02,-2.02
208,11.07,13.10,11.10,13.13,-13.13,-11.70,-2.06,-2.03,-2.03
210,11.03,13.07,11.03,13.06,-13.06,-11.76,-2.03,-2.04,-2.04
212,10.95,13.00,10.95,12.99,-12.99,-11.83,-2.04,-2.04,-2.04
214,10.88,12.94,10.87,12.92,-12.92,-11.89,-2.03,-2.05,-2.05
216,10.79,12.85,10.78,12.84,-12.84,-11.96,-2.05,-2.06,-2.06
218,10.71,12.78,10.69,12.76,-12.76,-12.02,-2.04,-2.06,-2.06
221,10.55,12.63,10.60,12.67,-12.67,-12.12,-2.12,-2.07,-2.07
223,10.51,12.59,10.51,12.59,-12.59,-12.18,-2.07,-2.08,-2.08
225,10.39,12.48,10.41,12.49,-12.49,-12.23,-2.10,-2.08,-2.08
227,10.31,12.40,10.31,12.39,-12.39,-12.28,-2.08,-2.09,-2.09
229,10.23,12.33,10.20,12.29,-12.29,-12.33,-2.06,-2.10,-2.09
232,10.04,12.15,10.09,12.19,-12.19,-12.38,-2.14,-2.10,-2.10
234,9.99,12.10,9.97,12.08,-12.08,-12.41,-2.08,-2.11,-2.11
236,9.87,11.99,9.86,11.97,-11.97,-12.42,-2.09,-2.11,-2.11
239,9.70,11.82,9.73,11.85,-11.85,-12.43,-2.15,-2.12,-2.12
241,9.61,11.74,9.61,11.73,-11.73,-12.43,-2.12,-2.12,-2.12
244,9.47,11.60,9.48,11.61,-11.61,-12.40,-2.13,-2.13,-2.13
246,9.35,11.48,9.35,11.48,-11.48,-12.37,-2.13,-2.13,-2.13
248,9.23,11.37,9.22,11.35,-11.35,-12.33,-2.12,-2.13,-2.13
251,9.04,11.18,9.08,11.22,-11.22,-12.24,-2.18,-2.14,-2.14
253,8.96,11.11,8.95,11.09,-11.09,-12.17,-2.12,-2.14,-2.14
256,8.81,10.96,8.80,10.95,-10.95,-12.05,-2.13,-2.15,-2.15
259,8.63,10.79,8.66,10.81,-10.81,-11.90,-2.17,-2.15,-2.15
261,8.52,10.68,8.51,10.66,-10.66,-11.79,-2.13,-2.15,-2.15
264,8.34,10.50,8.35,10.51,-10.51,-11.62,-2.16,-2.16,-2.16
266,8.20,10.36,8.19,10.35,-10.35,-11.49,-2.14,-2.16,-2.16
269,8.02,10.19,8.02,10.19,-10.19,-11.29,-2.16,-2.16,-2.16
272,7.81,9.98,7.85,10.02,-10.02,-11.08,-2.20,-2.17,-2.17
274,7.70,9.87,7.68,9.85,-9.85,-10.93,-2.14,-2.17,-2.17
277,7.52,9.70,7.50,9.67,-9.67,-10.70,-2.15,-2.17,-2.17
280,7.30,9.48,7.32,9.49,-9.49,-10.47,-2.19,-2.18,-2.18
283,7.10,9.28,7.13,9.31,-9.31,-10.24,-2.21,-2.18,-2.18
286,6.90,9.09,6.95,9.13,-9.13,-10.00,-2.22,-2.18,-2.18
288,6.78,8.97,6.75,8.94,-8.94,-9.84,-2.15,-2.18,-2.18
291,6.58,8.77,6.56,8.75,-8.75,-9.60,-2.16,-2.19,-2.18
294,6.36,8.55,6.36,8.55,-8.55,-9.36,-2.18,-2.19,-2.19
297,6.15,8.34,6.16,8.35,-8.35,-9.12,-2.19,-2.19,-2.19
300,5.95,8.15,5.95,8.14,-8.14,-8.88,-2.19,-2.19,-2.19
303,5.73,7.93,5.74,7.93,-7.93,-8.65,-2.20,-2.19,-2.19
306,5.54,7.74,5.53,7.72,-7.72,-8.43,-2.18,-2.20,-2.20
309,5.29,7.49,5.31,7.51,-7.51,-8.20,-2.21,-2.20,-2.20
312,5.09,7.29,5.09,7.29,-7.29,-7.98,-2.19,-2.20,-2.20
316,4.84,7.05,4.87,7.07,-7.07,-7.70,-2.23,-2.20,-2.20
319,4.63,6.84,4.65,6.85,-6.85,-7.49,-2.22,-2.20,-2.20
322,4.43,6.64,4.43,6.63,-6.63,-7.28,-2.19,-2.20,-2.20
325,4.21,6.42,4.20,6.41,-6.41,-7.09,-2.19,-2.21,-2.21
328,4.01,6.22,3.98,6.19,-6.19,-6.89,-2.17,-2.21,-2.21
332,3.72,5.93,3.75,5.96,-5.96,-6.64,-2.24,-2.21,-2.21
335,3.52,5.74,3.53,5.74,-5.74,-6.46,-2.21,-2.21,-2.21
338,3.31,5.53,3.31,5.52,-5.52,-6.28,-2.20,-2.21,-2.21
342,3.05,5.27,3.08,5.30,-5.30,-6.05,-2.24,-2.21,-2.21
345,2.87,5.09,2.86,5.07,-5.07,-5.88,-2.20,-2.21,-2.21
349,2.60,4.82,2.64,4.85,-4.85,-5.66,-2.25,-2.22,-2.22
352,2.43,4.65,2.42,4.63,-4.63,-5.50,-2.20,-2.22,-2.22
356,2.20,4.42,2.20,4.41,-4.41,-5.30,-2.21,-2.22,-2.22
359,2.01,4.23,1.97,4.19,-4.19,-5.15,-2.18,-2.22,-2.22
363,1.75,3.98,1.75,3.97,-3.97,-4.95,-2.22,-2.22,-2.22
366,1.56,3.79,1.53,3.76,-3.76,-4.81,-2.19,-2.22,-2.22
370,1.28,3.51,1.32,3.54,-3.54,-4.63,-2.26,-2.22,-2.22
374,1.07,3.30,1.11,3.34,-3.34,-4.45,-2.26,-2.22,-2.22
377,0.89,3.12,0.91,3.14,-3.14,-4.32,-2.24,-2.23,-2.23
381,0.72,2.95,0.72,2.95,-2.95,-4.16,-2.22,-2.23,-2.23
385,0.54,2.77,0.54,2.77,-2.77,-3.99,-2.22,-2.23,-2.23
389,0.38,2.61,0.37,2.60,-2.60,-3.84,-2.21,-2.23,-2.23
393,0.24,2.48,0.21,2.44,-2.44,-3.69,-2.19,-2.23,-2.23
397,0.05,2.29,0.06,2.29,-2.29,-3.54,-2.24,-2.23,-2.23
401,-0.12,2.12,-0.08,2.16,-2.16,-3.39,-2.27,-2.23,-2.23
405,-0.22,2.02,-0.20,2.03,-2.03,-3.26,-2.25,-2.24,-2.24
409,-0.32,1.92,-0.31,1.92,-1.92,-3.12,-2.24,-2.24,-2.24
413,-0.44,1.80,-0.41,1.82,-1.82,-2.99,-2.26,-2.24,-2.24
417,-0.52,1.72,-0.50,1.74,-1.74,-2.87,-2.25,-2.24,-2.24
421,-0.56,1.68,-0.58,1.66,-1.66,-2.74,-2.21,-2.24,-2.24
425,-0.63,1.61,-0.65,1.59,-1.59,-2.63,-2.21,-2.24,-2.24
430,-0.71,1.53,-0.71,1.52,-1.52,-2.48,-2.23,-2.24,-2.24
434,-0.76,1.48,-0.77,1.47,-1.47,-2.37,-2.22,-2.23,-2.23
438,-0.81,1.43,-0.82,1.42,-1.42,-2.27,-2.22,-2.23,-2.23
443,-0.84,1.39,-0.86,1.37,-1.37,-2.14,-2.21,-2.23,-2.23
447,-0.87,1.36,-0.88,1.34,-1.34,-2.05,-2.21,-2.23,-2.23
451,-0.91,1.32,-0.89,1.33,-1.33,-1.95,-2.24,-2.22,-2.22
456,-0.92,1.30,-0.88,1.34,-1.34,-1.84,-2.25,-2.22,-2.22
460,-0.92,1.30,-0.85,1.36,-1.36,-1.75,-2.28,-2.21,-2.21
465,-0.85,1.36,-0.79,1.41,-1.41,-1.65,-2.26,-2.20,-2.20
470,-0.71,1.49,-0.72,1.48,-1.48,-1.56,-2.18,-2.20,-2.20
474,-0.64,1.55,-0.63,1.56,-1.56,-1.48,-2.19,-2.19,-2.19
479,-0.56,1.62,-0.53,1.65,-1.65,-1.40,-2.20,-2.18,-2.18
484,-0.43,1.74,-0.43,1.73,-1.73,-1.32,-2.16,-2.17,-2.17
489,-0.34,1.82,-0.35,1.81,-1.81,-1.24,-2.14,-2.15,-2.15
494,-0.25,1.90,-0.28,1.86,-1.86,-1.17,-2.10,-2.14,-2.14
499,-0.17,1.96,-0.24,1.89,-1.89,-1.10,-2.05,-2.13,-2.13
504,-0.17,1.95,-0.22,1.89,-1.89,-1.04,-2.05,-2.11,-2.11
509,-0.23,1.87,-0.24,1.86,-1.86,-0.98,-2.08,-2.09,-2.09
514,-0.26,1.82,-0.28,1.80,-1.80,-0.93,-2.05,-2.08,-2.08
519,-0.32,1.74,-0.33,1.72,-1.72,-0.88,-2.04,-2.06,-2.06
524,-0.43,1.61,-0.40,1.64,-1.64,-0.83,-2.06,-2.04,-2.04
529,-0.52,1.50,-0.48,1.54,-1.54,-0.79,-2.06,-2.02,-2.02
535,-0.59,1.41,-0.55,1.45,-1.45,-0.75,-2.04,-2.00,-2.00
540,-0.63,1.35,-0.61,1.37,-1.37,-0.71,-1.99,-1.97,-1.97
545,-0.66,1.30,-0.65,1.30,-1.30,-0.68,-1.95,-1.95,-1.95
551,-0.71,1.22,-0.69,1.24,-1.24,-0.64,-1.95,-1.93,-1.93
556,-0.71,1.20,-0.70,1.20,-1.20,-0.62,-1.90,-1.90,-1.90
562,-0.68,1.20,-0.71,1.17,-1.17,-0.59,-1.85,-1.88,-1.88
568,-0.73,1.13,-0.70,1.15,-1.15,-0.56,-1.88,-1.85,-1.85
573,-0.70,1.13,-0.68,1.15,-1.15,-0.54,-1.84,-1.82,-1.82
579,-0.66,1.14,-0.65,1.15,-1.15,-0.52,-1.80,-1.79,-1.79
585,-0.62,1.15,-0.61,1.15,-1.15,-0.50,-1.77,-1.77,-1.77
591,-0.56,1.18,-0.57,1.16,-1.16,-0.48,-1.72,-1.74,-1.74
596,-0.52,1.19,-0.54,1.17,-1.17,-0.46,-1.69,-1.71,-1.71
602,-0.49,1.19,-0.50,1.18,-1.18,-0.45,-1.66,-1.68,-1.68
608,-0.46,1.19,-0.46,1.18,-1.18,-0.43,-1.64,-1.64,-1.64
615,-0.43,1.19,-0.43,1.19,-1.19,-0.41,-1.61,-1.61,-1.61
621,-0.40,1.19,-0.40,1.18,-1.18,-0.40,-1.58,-1.58,-1.58
627,-0.37,1.18,-0.37,1.18,-1.18,-0.39,-1.55,-1.55,-1.55
633,-0.35,1.17,-0.33,1.18,-1.18,-0.38,-1.52,-1.51,-1.51
639,-0.31,1.17,-0.30,1.18,-1.18,-0.36,-1.48,-1.48,-1.48
646,-0.28,1.17,-0.27,1.18,-1.18,-0.35,-1.45,-1.45,-1.45
652,-0.24,1.18,-0.23,1.18,-1.18,-0.34,-1.41,-1.41,-1.41
659,-0.21,1.17,-0.20,1.18,-1.18,-0.32,-1.38,-1.37,-1.37
665,-0.17,1.17,-0.16,1.18,-1.18,-0.31,-1.34,-1.34,-1.34
672,-0.13,1.18,-0.12,1.18,-1.18,-0.30,-1.31,-1.30,-1.30
679,-0.09,1.18,-0.08,1.18,-1.18,-0.28,-1.27,-1.27,-1.27
686,-0.06,1.17,-0.05,1.18,-1.18,-0.27,-1.23,-1.23,-1.23
692,-0.02,1.18,-0.02,1.17,-1.17,-0.26,-1.18,-1.19,-1.19
699,0.02,1.18,0.00,1.16,-1.16,-0.24,-1.13,-1.15,-1.15
706,0.04,1.16,0.02,1.14,-1.14,-0.23,-1.09,-1.12,-1.12
713,0.03,1.11,0.03,1.11,-1.11,-0.22,-1.08,-1.08,-1.08
721,0.00,1.04,0.04,1.08,-1.08,-0.20,-1.07,-1.04,-1.04
728,0.02,1.03,0.04,1.04,-1.04,-0.18,-1.02,-1.00,-1.00
735,0.02,0.99,0.03,1.00,-1.00,-0.17,-0.97,-0.96,-0.96
742,0.01,0.94,0.02,0.95,-0.95,-0.15,-0.93,-0.93,-0.93
750,0.01,0.90,-0.00,0.89,-0.89,-0.14,-0.87,-0.89,-0.89
757,-0.01,0.85,-0.03,0.82,-0.82,-0.12,-0.83,-0.85,-0.85
765,-0.08,0.74,-0.07,0.75,-0.75,-0.11,-0.82,-0.81,-0.81
773,-0.09,0.69,-0.11,0.67,-0.67,-0.09,-0.75,-0.78,-0.78
780,-0.20,0.55,-0.17,0.57,-0.57,-0.07,-0.77,-0.74,-0.74
788,-0.28,0.43,-0.24,0.47,-0.47,-0.06,-0.74,-0.71,-0.71
796,-0.32,0.35,-0.32,0.35,-0.35,-0.04,-0.66,-0.67,-0.67
804,-0.40,0.24,-0.42,0.22,-0.22,-0.03,-0.61,-0.64,-0.64
812,-0.50,0.11,-0.53,0.07,-0.07,-0.01,-0.56,-0.60,-0.60
820,-0.62,-0.05,-0.66,-0.09,0.09,0.00,-0.53,-0.57,-0.57
828,-0.74,-0.20,-0.79,-0.26,0.26,0.02,-0.48,-0.54,-0.54
837,-0.91,-0.40,-0.93,-0.42,0.42,0.03,-0.48,-0.50,-0.50
845,-1.05,-0.57,-1.06,-0.58,0.58,0.04,-0.46,-0.47,-0.47
853,-1.19,-0.74,-1.17,-0.73,0.73,0.05,-0.46,-0.44,-0.44
862,-1.32,-0.90,-1.25,-0.84,0.84,0.06,-0.47,-0.41,-0.41
871,-1.38,-0.99,-1.30,-0.92,0.92,0.07,-0.46,-0.38,-0.38
879,-1.41,-1.05,-1.31,-0.96,0.96,0.07,-0.45,-0.35,-0.35
888,-1.37,-1.04,-1.28,-0.96,0.96,0.08,-0.41,-0.32,-0.32
897,-1.21,-0.91,-1.21,-0.92,0.92,0.08,-0.29,-0.30,-0.30
906,-1.10,-0.83,-1.12,-0.85,0.85,0.08,-0.24,-0.27,-0.27
915,-0.96,-0.71,-1.01,-0.77,0.77,0.07,-0.19,-0.24,-0.24
924,-0.83,-0.61,-0.89,-0.67,0.67,0.07,-0.15,-0.21,-0.21
933,-0.76,-0.57,-0.76,-0.58,0.58,0.06,-0.18,-0.19,-0.19
943,-0.62,-0.46,-0.64,-0.48,0.48,0.04,-0.13,-0.16,-0.16
952,-0.51,-0.37,-0.53,-0.40,0.40,0.02,-0.11,-0.13,-0.13
962,-0.40,-0.29,-0.42,-0.31,0.31,0.00,-0.08,-0.11,-0.11
971,-0.33,-0.24,-0.31,-0.23,0.23,-0.02,-0.09,-0.08,-0.08
981,-0.25,-0.19,-0.21,-0.15,0.15,-0.05,-0.09,-0.05,-0.05
991,-0.14,-0.11,-0.10,-0.07,0.07,-0.09,-0.06,-0.03,-0.03
1001,0.01,0.01,0.01,0.01,-0.01,-0.13,0.00,0.00,0.00
1011,0.15,0.13,0.13,0.10,-0.10,-0.17,0.05,0.03,0.03
1021,0.24,0.19,0.25,0.19,-0.19,-0.22,0.05,0.05,0.05
1031,0.40,0.32,0.37,0.29,-0.29,-0.27,0.12,0.08,0.08
1041,0.51,0.41,0.50,0.39,-0.39,-0.32,0.13,0.11,0.11
1052,0.62,0.49,0.63,0.49,-0.49,-0.39,0.13,0.14,0.14
1062,0.72,0.56,0.77,0.60,-0.60,-0.45,0.13,0.17,0.17
1073,0.89,0.70,0.91,0.72,-0.72,-0.52,0.18,0.19,0.19
1084,1.02,0.80,1.06,0.84,-0.84,-0.59,0.19,0.22,0.22
1094,1.22,0.97,1.22,0.97,-0.97,-0.66,0.26,0.25,0.25
1105,1.40,1.12,1.39,1.10,-1.10,-0.74,0.30,0.28,0.28
1116,1.52,1.21,1.56,1.24,-1.24,-0.83,0.28,0.31,0.31
1128,1.72,1.38,1.72,1.38,-1.38,-0.92,0.35,0.34,0.34
1139,1.86,1.49,1.88,1.50,-1.50,-1.01,0.36,0.37,0.37
1150,1.98,1.58,2.02,1.62,-1.62,-1.10,0.37,0.40,0.40
1162,2.16,1.73,2.14,1.70,-1.70,-1.20,0.46,0.44,0.44
1173,2.32,1.86,2.23,1.77,-1.77,-1.30,0.56,0.47,0.47
1185,2.37,1.88,2.30,1.80,-1.80,-1.40,0.58,0.50,0.50
1197,2.39,1.86,2.34,1.80,-1.80,-1.51,0.59,0.53,0.53
1209,2.39,1.83,2.35,1.79,-1.79,-1.62,0.61,0.56,0.56
1221,2.38,1.79,2.36,1.76,-1.76,-1.73,0.63,0.60,0.60
1233,2.35,1.72,2.36,1.73,-1.73,-1.84,0.62,0.63,0.63
1246,2.34,1.68,2.39,1.72,-1.72,-1.96,0.62,0.66,0.66
1258,2.34,1.65,2.44,1.74,-1.74,-2.08,0.61,0.70,0.70
1271,2.46,1.73,2.53,1.80,-1.80,-2.20,0.67,0.73,0.73
1283,2.57,1.81,2.67,1.90,-1.90,-2.32,0.67,0.77,0.77
1296,2.78,1.98,2.85,2.05,-2.05,-2.45,0.74,0.80,0.80
1309,3.04,2.21,3.08,2.24,-2.24,-2.58,0.81,0.84,0.84
1322,3.32,2.45,3.33,2.46,-2.46,-2.71,0.87,0.87,0.87
1335,3.63,2.73,3.61,2.70,-2.70,-2.84,0.94,0.91,0.91
1349,3.93,2.99,3.88,2.94,-2.94,-2.98,1.00,0.95,0.95
1362,4.20,3.22,4.16,3.17,-3.17,-3.11,1.03,0.98,0.98
1376,4.46,3.44,4.41,3.39,-3.39,-3.25,1.07,1.02,1.02
1390,4.70,3.65,4.65,3.59,-3.59,-3.40,1.12,1.06,1.06
1404,4.87,3.78,4.86,3.76,-3.76,-3.55,1.11,1.10,1.10
1418,5.01,3.88,5.05,3.91,-3.91,-3.69,1.10,1.13,1.13
1432,5.20,4.03,5.22,4.04,-4.04,-3.84,1.16,1.17,1.17
1446,5.35,4.14,5.37,4.16,-4.16,-3.99,1.20,1.21,1.21
1461,5.51,4.26,5.50,4.25,-4.25,-4.15,1.26,1.25,1.25
1475,5.62,4.33,5.63,4.34,-4.34,-4.30,1.29,1.29,1.29
1490,5.74,4.41,5.75,4.42,-4.42,-4.47,1.33,1.33,1.33
1505,5.86,4.49,5.86,4.48,-4.48,-4.63,1.38,1.37,1.37
1520,5.96,4.55,5.96,4.54,-4.54,-4.80,1.42,1.41,1.41
1535,6.05,4.60,6.05,4.60,-4.60,-4.96,1.46,1.46,1.46
1550,6.15,4.66,6.15,4.65,-4.65,-5.13,1.51,1.50,1.50
1566,6.27,4.73,6.24,4.70,-4.70,-5.31,1.57,1.54,1.54
1582,6.37,4.79,6.34,4.76,-4.76,-5.48,1.62,1.58,1.58
