frequency,raw,error,smoothed,error_smoothed,equalization,parametric_eq,equalized_raw,equalized_smoothed,target
20,-12.25,-20.64,-12.84,-21.18,6.00,2.87,-6.25,-6.84,8.40
21,-12.02,-20.41,-11.48,-19.82,6.00,3.30,-6.02,-5.48,8.39
22,-10.68,-19.06,-10.18,-18.52,6.00,3.77,-4.68,-4.18,8.39
23,-9.15,-17.53,-8.94,-17.28,6.00,4.28,-3.15,-2.94,8.38
24,-7.73,-16.10,-7.76,-16.10,6.00,4.82,-1.73,-1.76,8.38
25,-6.45,-14.82,-6.65,-14.97,6.00,5.37,-0.45,-0.65,8.37
26,-5.34,-13.70,-5.59,-13.91,6.00,5.93,0.66,0.41,8.36
27,-4.35,-12.70,-4.59,-12.91,6.00,6.46,1.65,1.41,8.36
28,-3.45,-11.80,-3.65,-11.97,6.00,6.92,2.55,2.35,8.35
29,-2.64,-10.98,-2.78,-11.09,6.00,7.28,3.36,3.22,8.34
30,-1.87,-10.20,-1.96,-10.26,6.00,7.51,4.13,4.04,8.33
31,-1.18,-9.50,-1.18,-9.53,6.00,7.59,4.82,4.82,8.33
32,-0.58,-8.89,-0.54,-8.86,6.00,7.51,5.42,5.46,8.32
33,-0.02,-8.32,0.04,-8.25,6.00,7.29,5.98,6.04,8.31
34,0.51,-7.78,0.57,-7.69,6.00,6.96,6.51,6.57,8.30
35,1.01,-7.27,1.06,-7.18,6.00,6.57,7.01,7.06,8.29
36,1.49,-6.78,1.53,-6.71,5.93,6.14,7.42,7.46,8.28
37,1.94,-6.32,1.98,-6.26,5.78,5.69,7.72,7.76,8.26
38,2.37,-5.88,2.39,-5.83,5.56,5.24,7.94,7.96,8.25
39,2.78,-5.46,2.79,-5.42,5.30,4.81,8.08,8.09,8.24
40,3.16,-5.06,3.17,-5.03,4.99,4.39,8.15,8.16,8.22
41,3.53,-4.68,3.54,-4.65,4.65,3.99,8.19,8.19,8.21
42,3.89,-4.30,3.89,-4.29,4.29,3.61,8.19,8.18,8.20
43,4.22,-3.96,4.23,-3.94,3.94,3.25,8.17,8.17,8.18
44,4.54,-3.62,4.55,-3.61,3.61,2.92,8.15,8.16,8.16
45,4.85,-3.29,4.86,-3.28,3.28,2.60,8.13,8.14,8.15
46,5.15,-2.97,5.16,-2.96,2.96,2.30,8.12,8.12,8.13
47,5.43,-2.68,5.45,-2.66,2.66,2.01,8.09,8.11,8.11
48,5.71,-2.38,5.72,-2.37,2.37,1.74,8.08,8.09,8.09
49,5.98,-2.09,5.99,-2.08,2.08,1.49,8.07,8.07,8.07
50,6.24,-1.81,6.24,-1.81,1.81,1.25,8.05,8.05,8.05
51,6.48,-1.54,6.48,-1.54,1.54,1.01,8.03,8.03,8.03
52,6.72,-1.28,6.71,-1.29,1.29,0.79,8.01,8.00,8.01
53,6.94,-1.04,6.93,-1.04,1.04,0.58,7.99,7.98,7.98
54,7.15,-0.81,7.15,-0.81,0.81,0.38,7.96,7.95,7.96
55,7.35,-0.58,7.35,-0.58,0.58,0.19,7.93,7.93,7.93
56,7.54,-0.37,7.55,-0.36,0.36,0.01,7.90,7.90,7.91
57,7.73,-0.15,7.74,-0.14,0.14,-0.16,7.87,7.88,7.88
58,7.90,0.05,7.92,0.07,-0.07,-0.32,7.84,7.85,7.86
59,8.07,0.24,8.09,0.27,-0.27,-0.48,7.81,7.82,7.83
60,8.24,0.44,8.26,0.46,-0.46,-0.62,7.78,7.80,7.80
61,8.40,0.63,8.42,0.65,-0.65,-0.76,7.76,7.77,7.77
62,8.56,0.82,8.57,0.83,-0.83,-0.89,7.74,7.74,7.74
63,8.71,1.00,8.71,1.00,-1.00,-1.01,7.72,7.71,7.71
64,8.87,1.19,8.84,1.16,-1.16,-1.13,7.71,7.68,7.68
65,9.00,1.35,8.97,1.32,-1.32,-1.24,7.68,7.65,7.65
66,9.11,1.49,9.09,1.47,-1.47,-1.35,7.64,7.61,7.62
67,9.21,1.62,9.20,1.62,-1.62,-1.45,7.59,7.58,7.59
68,9.31,1.76,9.31,1.76,-1.76,-1.55,7.55,7.55,7.56
69,9.39,1.87,9.41,1.90,-1.90,-1.65,7.50,7.52,7.52
70,9.49,2.00,9.51,2.03,-2.03,-1.74,7.47,7.49,7.49
71,9.58,2.13,9.61,2.16,-2.16,-1.83,7.43,7.45,7.46
72,9.67,2.25,9.70,2.28,-2.28,-1.92,7.39,7.42,7.42
73,9.77,2.38,9.79,2.40,-2.40,-2.01,7.37,7.38,7.39
74,9.88,2.53,9.87,2.53,-2.53,-2.10,7.36,7.35,7.35
75,9.97,2.65,9.96,2.65,-2.65,-2.20,7.32,7.31,7.32
76,10.06,2.78,10.05,2.77,-2.77,-2.29,7.29,7.28,7.28
77,10.13,2.88,10.14,2.89,-2.89,-2.38,7.24,7.25,7.25
78,10.21,3.00,10.22,3.01,-3.01,-2.48,7.20,7.21,7.21
79,10.29,3.12,10.30,3.12,-3.12,-2.57,7.17,7.18,7.18
80,10.38,3.24,10.38,3.24,-3.24,-2.67,7.14,7.14,7.14
81,10.46,3.36,10.46,3.35,-3.35,-2.77,7.11,7.11,7.10
82,10.53,3.46,10.53,3.46,-3.46,-2.87,7.07,7.07,7.07
83,10.60,3.57,10.60,3.57,-3.57,-2.98,7.04,7.03,7.03
84,10.67,3.68,10.67,3.67,-3.67,-3.08,7.00,6.99,7.00
85,10.73,3.77,10.73,3.77,-3.77,-3.19,6.96,6.96,6.96
86,10.79,3.87,10.79,3.87,-3.87,-3.30,6.92,6.92,6.92
87,10.85,3.97,10.86,3.97,-3.97,-3.42,6.88,6.89,6.89
88,10.90,4.05,10.91,4.06,-4.06,-3.53,6.84,6.85,6.85
89,10.97,4.16,10.97,4.16,-4.16,-3.65,6.82,6.81,6.81
90,11.02,4.24,11.02,4.25,-4.25,-3.77,6.78,6.78,6.78
91,11.07,4.33,11.08,4.34,-4.34,-3.90,6.74,6.74,6.74
92,11.13,4.43,11.13,4.42,-4.42,-4.02,6.71,6.71,6.71
93,11.17,4.50,11.18,4.50,-4.50,-4.15,6.67,6.67,6.67
94,11.22,4.59,11.22,4.59,-4.59,-4.28,6.64,6.64,6.64
95,11.26,4.66,11.27,4.67,-4.67,-4.41,6.60,6.60,6.60
96,11.31,4.75,11.31,4.74,-4.74,-4.54,6.57,6.57,6.57
97,11.36,4.83,11.35,4.82,-4.82,-4.67,6.54,6.53,6.53
98,11.40,4.90,11.38,4.89,-4.89,-4.81,6.51,6.49,6.50
99,11.43,4.97,11.42,4.97,-4.97,-4.94,6.47,6.45,6.46
100,11.46,5.03,11.45,5.04,-5.04,-5.08,6.43,6.42,6.43
101,11.48,5.09,11.49,5.11,-5.11,-5.21,6.38,6.38,6.40
102,11.49,5.13,11.52,5.18,-5.18,-5.35,6.32,6.35,6.36
104,11.54,5.24,11.56,5.24,-5.24,-5.62,6.30,6.31,6.30
105,11.57,5.30,11.59,5.31,-5.31,-5.75,6.26,6.28,6.27
106,11.60,5.37,11.62,5.38,-5.38,-5.88,6.23,6.24,6.24
107,11.64,5.44,11.65,5.44,-5.44,-6.01,6.20,6.21,6.21
108,11.68,5.51,11.68,5.50,-5.50,-6.14,6.18,6.18,6.18
109,11.72,5.58,11.71,5.56,-5.56,-6.26,6.16,6.14,6.15
110,11.75,5.64,11.73,5.62,-5.62,-6.38,6.13,6.11,6.12
111,11.77,5.69,11.76,5.68,-5.68,-6.50,6.10,6.08,6.09
112,11.79,5.74,11.78,5.73,-5.73,-6.61,6.06,6.05,6.06
113,11.81,5.78,11.80,5.79,-5.79,-6.71,6.03,6.02,6.03
114,11.82,5.82,11.83,5.84,-5.84,-6.81,5.98,5.98,6.00
115,11.84,5.87,11.85,5.90,-5.90,-6.91,5.95,5.95,5.97
117,11.86,5.94,11.87,5.95,-5.95,-7.07,5.91,5.92,5.92
118,11.87,5.98,11.90,6.00,-6.00,-7.15,5.87,5.89,5.89
119,11.89,6.03,11.92,6.05,-6.05,-7.21,5.84,5.86,5.87
120,11.91,6.07,11.94,6.10,-6.10,-7.27,5.81,5.83,5.84
121,11.94,6.13,11.96,6.15,-6.15,-7.32,5.79,5.80,5.82
123,11.99,6.22,11.97,6.20,-6.20,-7.40,5.79,5.77,5.77
124,12.02,6.28,11.99,6.25,-6.25,-7.42,5.77,5.74,5.74
125,12.04,6.32,12.00,6.30,-6.30,-7.44,5.75,5.71,5.72
126,12.05,6.35,12.02,6.34,-6.34,-7.45,5.71,5.68,5.70
128,12.04,6.39,12.03,6.38,-6.38,-7.45,5.66,5.65,5.65
129,12.03,6.40,12.05,6.42,-6.42,-7.44,5.61,5.63,5.63
130,12.02,6.41,12.06,6.45,-6.45,-7.42,5.57,5.60,5.61
131,12.03,6.44,12.07,6.49,-6.49,-7.40,5.54,5.58,5.59
133,12.04,6.49,12.07,6.52,-6.52,-7.33,5.52,5.55,5.55
134,12.06,6.53,12.07,6.55,-6.55,-7.29,5.51,5.52,5.53
135,12.08,6.57,12.07,6.58,-6.58,-7.25,5.50,5.49,5.51
137,12.10,6.63,12.07,6.61,-6.61,-7.15,5.49,5.46,5.47
138,12.11,6.66,12.07,6.64,-6.64,-7.10,5.48,5.44,5.45
140,12.09,6.67,12.08,6.66,-6.66,-6.98,5.43,5.41,5.42
141,12.08,6.68,12.08,6.69,-6.69,-6.92,5.39,5.39,5.40
142,12.07,6.69,12.09,6.71,-6.71,-6.85,5.36,5.37,5.38
144,12.06,6.71,12.09,6.74,-6.74,-6.73,5.33,5.35,5.35
145,12.05,6.72,12.09,6.76,-6.76,-6.66,5.30,5.33,5.34
147,12.06,6.76,12.08,6.77,-6.77,-6.53,5.29,5.31,5.31
148,12.07,6.78,12.07,6.79,-6.79,-6.46,5.28,5.28,5.29
150,12.08,6.82,12.06,6.80,-6.80,-6.33,5.28,5.25,5.26
151,12.08,6.84,12.05,6.82,-6.82,-6.27,5.27,5.23,5.25
153,12.07,6.85,12.04,6.83,-6.83,-6.14,5.25,5.21,5.22
154,12.04,6.84,12.03,6.84,-6.84,-6.08,5.21,5.19,5.21
156,12.00,6.82,12.02,6.84,-6.84,-5.96,5.16,5.18,5.18
157,11.99,6.82,12.01,6.85,-6.85,-5.90,5.14,5.16,5.17
159,11.95,6.81,11.99,6.85,-6.85,-5.79,5.10,5.14,5.14
160,11.95,6.82,11.98,6.86,-6.86,-5.74,5.10,5.12,5.13
162,11.94,6.83,11.96,6.86,-6.86,-5.64,5.09,5.10,5.11
164,11.94,6.86,11.94,6.85,-6.85,-5.54,5.09,5.09,5.09
165,11.93,6.86,11.92,6.85,-6.85,-5.49,5.08,5.07,5.08
167,11.92,6.87,11.89,6.84,-6.84,-5.41,5.08,5.05,5.06
169,11.88,6.85,11.86,6.83,-6.83,-5.33,5.05,5.03,5.04
170,11.86,6.84,11.84,6.82,-6.82,-5.29,5.04,5.02,5.03
172,11.81,6.80,11.81,6.81,-6.81,-5.22,5.01,5.00,5.01
174,11.76,6.77,11.77,6.79,-6.79,-5.16,4.97,4.99,4.99
175,11.75,6.77,11.74,6.77,-6.77,-5.13,4.98,4.97,4.98
177,11.69,6.73,11.71,6.75,-6.75,-5.07,4.94,4.96,4.97
179,11.64,6.69,11.67,6.73,-6.73,-5.03,4.92,4.94,4.95
181,11.59,6.66,11.63,6.70,-6.70,-4.98,4.89,4.93,4.93
183,11.55,6.63,11.59,6.67,-6.67,-4.94,4.88,4.91,4.92
184,11.53,6.62,11.54,6.64,-6.64,-4.93,4.89,4.90,4.91
186,11.51,6.62,11.50,6.61,-6.61,-4.90,4.90,4.89,4.90
188,11.48,6.60,11.45,6.57,-6.57,-4.87,4.91,4.88,4.88
190,11.43,6.56,11.40,6.53,-6.53,-4.85,4.90,4.86,4.87
192,11.37,6.51,11.34,6.49,-6.49,-4.83,4.88,4.85,4.86
194,11.30,6.46,11.28,6.44,-6.44,-4.82,4.86,4.84,4.85
196,11.22,6.39,11.22,6.39,-6.39,-4.81,4.83,4.83,4.83
198,11.14,6.32,11.15,6.34,-6.34,-4.80,4.81,4.82,4.82
200,11.07,6.26,11.09,6.28,-6.28,-4.79,4.79,4.81,4.81
202,10.99,6.19,11.02,6.22,-6.22,-4.79,4.77,4.80,4.80
204,10.92,6.13,10.95,6.16,-6.16,-4.79,4.76,4.78,4.79
206,10.86,6.08,10.87,6.10,-6.10,-4.79,4.76,4.77,4.78
208,10.78,6.01,10.80,6.04,-6.04,-4.79,4.74,4.76,4.77
210,10.72,5.96,10.73,5.97,-5.97,-4.79,4.75,4.76,4.76
212,10.65,5.90,10.66,5.91,-5.91,-4.79,4.75,4.75,4.76
214,10.59,5.85,10.58,5.84,-5.84,-4.80,4.75,4.74,4.75
216,10.52,5.78,10.50,5.77,-5.77,-4.80,4.75,4.73,4.74
218,10.45,5.72,10.42,5.69,-5.69,-4.80,4.76,4.73,4.73
221,10.34,5.62,10.34,5.61,-5.61,-4.80,4.73,4.72,4.72
223,10.24,5.53,10.25,5.53,-5.53,-4.79,4.71,4.71,4.71
225,10.15,5.45,10.15,5.44,-5.44,-4.79,4.71,4.70,4.71
227,10.05,5.35,10.05,5.35,-5.35,-4.78,4.70,4.70,4.70
229,9.95,5.26,9.94,5.26,-5.26,-4.77,4.70,4.69,4.69
232,9.80,5.12,9.84,5.16,-5.16,-4.74,4.65,4.68,4.68
234,9.71,5.03,9.73,5.05,-5.05,-4.72,4.66,4.68,4.68
236,9.62,4.95,9.61,4.95,-4.95,-4.70,4.68,4.67,4.67
239,9.48,4.82,9.50,4.83,-4.83,-4.66,4.65,4.66,4.66
241,9.38,4.72,9.37,4.72,-4.72,-4.62,4.66,4.65,4.66
244,9.23,4.58,9.25,4.60,-4.60,-4.56,4.63,4.65,4.65
246,9.12,4.48,9.12,4.48,-4.48,-4.52,4.64,4.65,4.65
248,9.02,4.38,8.99,4.35,-4.35,-4.47,4.67,4.64,4.64
251,8.85,4.22,8.86,4.22,-4.22,-4.38,4.63,4.63,4.63
253,8.74,4.11,8.72,4.09,-4.09,-4.32,4.65,4.63,4.63
256,8.57,3.95,8.58,3.95,-3.95,-4.22,4.62,4.63,4.62
259,8.39,3.77,8.43,3.81,-3.81,-4.11,4.59,4.62,4.62
261,8.28,3.67,8.27,3.66,-3.66,-4.03,4.62,4.61,4.61
264,8.09,3.48,8.11,3.51,-3.51,-3.91,4.59,4.61,4.61
266,7.97,3.37,7.95,3.35,-3.35,-3.83,4.62,4.60,4.61
269,7.79,3.19,7.79,3.19,-3.19,-3.69,4.61,4.60,4.60
272,7.59,3.00,7.61,3.02,-3.02,-3.55,4.57,4.59,4.59
274,7.47,2.88,7.44,2.85,-2.85,-3.45,4.62,4.59,4.59
277,7.27,2.69,7.26,2.68,-2.68,-3.30,4.59,4.58,4.59
280,7.07,2.49,7.08,2.50,-2.50,-3.15,4.57,4.58,4.58
283,6.87,2.29,6.90,2.32,-2.32,-2.99,4.55,4.58,4.58
286,6.67,2.10,6.71,2.13,-2.13,-2.83,4.54,4.58,4.57
288,6.53,1.96,6.52,1.95,-1.95,-2.72,4.59,4.57,4.57
291,6.33,1.77,6.32,1.75,-1.75,-2.56,4.58,4.57,4.57
294,6.12,1.56,6.11,1.55,-1.55,-2.39,4.57,4.56,4.56
297,5.91,1.35,5.91,1.35,-1.35,-2.22,4.56,4.56,4.56
300,5.70,1.15,5.70,1.15,-1.15,-2.05,4.56,4.56,4.56
303,5.49,0.94,5.49,0.94,-0.94,-1.89,4.56,4.55,4.55
306,5.28,0.73,5.27,0.73,-0.73,-1.72,4.56,4.55,4.55
309,5.07,0.53,5.06,0.51,-0.51,-1.55,4.56,4.55,4.55
312,4.85,0.31,4.84,0.29,-0.29,-1.38,4.56,4.54,4.54
316,4.57,0.03,4.61,0.07,-0.07,-1.16,4.50,4.54,4.54
319,4.36,-0.18,4.39,-0.15,0.15,-0.99,4.51,4.54,4.54
322,4.15,-0.38,4.16,-0.37,0.37,-0.83,4.53,4.53,4.54
325,3.94,-0.59,3.93,-0.60,0.60,-0.67,4.54,4.53,4.53
328,3.73,-0.80,3.71,-0.82,0.82,-0.50,4.56,4.53,4.53
332,3.46,-1.06,3.48,-1.05,1.05,-0.29,4.51,4.52,4.53
335,3.26,-1.26,3.25,-1.27,1.27,-0.12,4.54,4.52,4.53
338,3.05,-1.47,3.02,-1.50,1.50,0.04,4.55,4.52,4.52
342,2.78,-1.74,2.80,-1.72,1.72,0.25,4.50,4.51,4.52
345,2.59,-1.93,2.58,-1.94,1.94,0.41,4.53,4.51,4.52
349,2.33,-2.18,2.36,-2.15,2.15,0.62,4.49,4.51,4.52
352,2.13,-2.38,2.14,-2.37,2.37,0.77,4.50,4.51,4.51
356,1.89,-2.62,1.93,-2.58,2.58,0.98,4.47,4.51,4.51
359,1.72,-2.79,1.72,-2.79,2.79,1.13,4.51,4.51,4.51
363,1.49,-3.02,1.51,-2.99,2.99,1.34,4.48,4.50,4.51
366,1.33,-3.17,1.32,-3.19,3.19,1.49,4.52,4.51,4.51
370,1.12,-3.38,1.12,-3.39,3.39,1.69,4.51,4.50,4.50
374,0.92,-3.58,0.92,-3.58,3.58,1.89,4.50,4.50,4.50
377,0.77,-3.73,0.74,-3.76,3.76,2.04,4.54,4.50,4.50
381,0.57,-3.93,0.55,-3.94,3.94,2.24,4.52,4.49,4.50
385,0.39,-4.10,0.37,-4.12,4.12,2.43,4.51,4.49,4.50
389,0.21,-4.28,0.20,-4.29,4.29,2.63,4.50,4.49,4.50
393,0.03,-4.46,0.04,-4.44,4.44,2.82,4.48,4.48,4.49
397,-0.13,-4.62,-0.11,-4.59,4.59,3.01,4.47,4.48,4.49
401,-0.28,-4.77,-0.25,-4.73,4.73,3.20,4.45,4.48,4.49
405,-0.42,-4.91,-0.38,-4.86,4.86,3.39,4.45,4.48,4.49
409,-0.54,-5.03,-0.50,-4.98,4.98,3.57,4.45,4.48,4.49
413,-0.63,-5.11,-0.61,-5.09,5.09,3.75,4.47,4.48,4.49
417,-0.72,-5.20,-0.71,-5.19,5.19,3.93,4.47,4.48,4.48
421,-0.79,-5.27,-0.80,-5.28,5.28,4.11,4.49,4.47,4.48
425,-0.84,-5.32,-0.88,-5.35,5.35,4.28,4.51,4.47,4.48
430,-0.90,-5.38,-0.95,-5.41,5.41,4.49,4.51,4.46,4.48
434,-0.96,-5.43,-1.00,-5.46,5.46,4.65,4.50,4.46,4.48
438,-1.01,-5.48,-1.03,-5.49,5.49,4.81,4.48,4.46,4.48
443,-1.06,-5.53,-1.05,-5.50,5.50,5.00,4.45,4.45,4.48
447,-1.10,-5.58,-1.05,-5.50,5.50,5.15,4.41,4.45,4.48
451,-1.12,-5.60,-1.04,-5.49,5.49,5.29,4.37,4.45,4.48
456,-1.09,-5.57,-1.01,-5.46,5.46,5.46,4.37,4.45,4.49
460,-1.04,-5.53,-0.96,-5.41,5.41,5.58,4.38,4.46,4.49
465,-0.94,-5.44,-0.89,-5.36,5.36,5.73,4.42,4.47,4.50
470,-0.84,-5.34,-0.82,-5.30,5.30,5.87,4.46,4.48,4.51
474,-0.75,-5.26,-0.74,-5.23,5.23,5.97,4.48,4.50,4.52
479,-0.64,-5.17,-0.65,-5.17,5.17,6.08,4.53,4.52,4.53
484,-0.54,-5.08,-0.57,-5.11,5.11,6.18,4.57,4.54,4.54
489,-0.46,-5.01,-0.50,-5.06,5.06,6.27,4.61,4.56,4.55
494,-0.38,-4.94,-0.45,-5.03,5.03,6.35,4.65,4.58,4.57
499,-0.33,-4.91,-0.42,-5.01,5.01,6.42,4.69,4.60,4.58
504,-0.32,-4.91,-0.40,-5.01,5.01,6.47,4.70,4.61,4.60
509,-0.34,-4.95,-0.41,-5.03,5.03,6.51,4.69,4.62,4.61
514,-0.39,-5.02,-0.44,-5.06,5.06,6.54,4.68,4.63,4.63
519,-0.46,-5.10,-0.48,-5.11,5.11,6.56,4.65,4.64,4.65
524,-0.54,-5.20,-0.52,-5.17,5.17,6.57,4.63,4.65,4.66
529,-0.62,-5.30,-0.58,-5.24,5.24,6.58,4.62,4.66,4.68
535,-0.69,-5.39,-0.63,-5.31,5.31,6.57,4.62,4.68,4.70
540,-0.74,-5.46,-0.68,-5.38,5.38,6.55,4.64,4.70,4.72
545,-0.78,-5.52,-0.73,-5.44,5.44,6.53,4.67,4.72,4.74
551,-0.81,-5.58,-0.76,-5.50,5.50,6.50,4.69,4.74,4.77
556,-0.81,-5.60,-0.78,-5.55,5.55,6.47,4.74,4.77,4.79
562,-0.80,-5.62,-0.79,-5.59,5.59,6.43,4.79,4.80,4.82
568,-0.79,-5.63,-0.79,-5.62,5.62,6.38,4.83,4.83,4.85
573,-0.77,-5.64,-0.77,-5.63,5.63,6.34,4.87,4.86,4.88
579,-0.74,-5.64,-0.75,-5.65,5.65,6.29,4.91,4.90,4.91
585,-0.71,-5.64,-0.72,-5.65,5.65,6.24,4.94,4.93,4.94
591,-0.68,-5.64,-0.68,-5.65,5.65,6.18,4.97,4.97,4.96
596,-0.64,-5.63,-0.65,-5.64,5.64,6.14,5.01,5.00,5.00
602,-0.61,-5.63,-0.61,-5.63,5.63,6.09,5.03,5.03,5.03
608,-0.56,-5.61,-0.56,-5.62,5.62,6.04,5.07,5.06,5.06
615,-0.52,-5.61,-0.52,-5.61,5.61,5.98,5.09,5.09,5.09
621,-0.48,-5.60,-0.48,-5.60,5.60,5.93,5.12,5.12,5.12
627,-0.44,-5.59,-0.44,-5.59,5.59,5.89,5.15,5.15,5.15
633,-0.40,-5.58,-0.39,-5.57,5.57,5.85,5.18,5.18,5.18
639,-0.36,-5.57,-0.35,-5.56,5.56,5.81,5.21,5.21,5.21
646,-0.31,-5.55,-0.31,-5.55,5.55,5.77,5.25,5.25,5.25
652,-0.27,-5.55,-0.26,-5.55,5.55,5.74,5.28,5.28,5.28
659,-0.22,-5.53,-0.23,-5.54,5.54,5.71,5.33,5.32,5.31
665,-0.19,-5.54,-0.19,-5.54,5.54,5.68,5.35,5.35,5.35
672,-0.16,-5.54,-0.16,-5.54,5.54,5.66,5.38,5.39,5.38
679,-0.12,-5.54,-0.12,-5.54,5.54,5.64,5.43,5.42,5.42
686,-0.09,-5.55,-0.10,-5.55,5.55,5.63,5.46,5.46,5.46
692,-0.07,-5.56,-0.07,-5.56,5.56,5.62,5.49,5.49,5.50
699,-0.05,-5.58,-0.05,-5.58,5.58,5.61,5.53,5.53,5.53
706,-0.03,-5.60,-0.02,-5.59,5.59,5.61,5.57,5.57,5.57
713,-0.03,-5.64,-0.01,-5.61,5.61,5.62,5.59,5.61,5.61
721,-0.02,-5.67,0.00,-5.64,5.64,5.63,5.62,5.65,5.65
728,-0.01,-5.70,0.01,-5.67,5.67,5.64,5.67,5.68,5.69
735,-0.01,-5.73,0.01,-5.71,5.71,5.65,5.71,5.72,5.73
742,0.00,-5.76,0.00,-5.76,5.76,5.67,5.76,5.76,5.77
750,0.00,-5.80,-0.01,-5.82,5.82,5.70,5.82,5.80,5.81
757,-0.02,-5.86,-0.04,-5.89,5.86,5.73,5.85,5.82,5.84
765,-0.06,-5.94,-0.08,-5.97,5.91,5.76,5.85,5.83,5.88
773,-0.11,-6.03,-0.13,-6.06,5.95,5.80,5.84,5.82,5.92
780,-0.18,-6.13,-0.19,-6.17,5.97,5.84,5.79,5.78,5.96
788,-0.25,-6.24,-0.27,-6.29,5.99,5.88,5.74,5.72,5.99
796,-0.34,-6.36,-0.37,-6.42,6.00,5.93,5.66,5.63,6.03
804,-0.45,-6.51,-0.48,-6.56,6.00,5.98,5.55,5.52,6.06
812,-0.56,-6.65,-0.60,-6.70,6.00,6.03,5.44,5.40,6.09
820,-0.68,-6.80,-0.73,-6.85,6.00,6.09,5.32,5.27,6.12
828,-0.82,-6.97,-0.86,-6.99,6.00,6.14,5.18,5.14,6.16
837,-0.97,-7.15,-0.98,-7.13,6.00,6.20,5.03,5.02,6.19
845,-1.10,-7.32,-1.08,-7.26,6.00,6.26,4.90,4.92,6.22
853,-1.21,-7.46,-1.16,-7.36,6.00,6.31,4.79,4.84,6.25
862,-1.31,-7.59,-1.23,-7.45,6.00,6.37,4.69,4.77,6.28
871,-1.37,-7.68,-1.26,-7.52,6.00,6.43,4.63,4.74,6.31
879,-1.40,-7.73,-1.27,-7.56,6.00,6.48,4.60,4.73,6.34
888,-1.36,-7.72,-1.26,-7.58,6.00,6.53,4.64,4.74,6.37
897,-1.28,-7.67,-1.22,-7.57,6.00,6.58,4.72,4.78,6.39
906,-1.16,-7.58,-1.16,-7.54,6.00,6.62,4.84,4.84,6.42
915,-1.02,-7.46,-1.07,-7.49,6.00,6.66,4.98,4.93,6.45
924,-0.90,-7.37,-0.97,-7.42,6.00,6.69,5.10,5.03,6.47
933,-0.79,-7.29,-0.86,-7.35,6.00,6.72,5.21,5.14,6.50
943,-0.68,-7.20,-0.73,-7.26,6.00,6.74,5.32,5.27,6.53
952,-0.58,-7.13,-0.60,-7.17,6.00,6.75,5.42,5.40,6.55
962,-0.48,-7.05,-0.47,-7.07,6.00,6.75,5.52,5.53,6.58
971,-0.38,-6.98,-0.35,-6.97,6.00,6.74,5.62,5.65,6.60
981,-0.24,-6.87,-0.23,-6.88,6.00,6.72,5.76,5.77,6.63
991,-0.12,-6.77,-0.11,-6.78,6.00,6.70,5.88,5.89,6.66
1001,0.01,-6.67,0.00,-6.68,6.00,6.66,6.01,6.00,6.68
1011,0.15,-6.56,0.12,-6.58,6.00,6.61,6.15,6.12,6.71
1021,0.27,-6.46,0.24,-6.48,6.00,6.55,6.27,6.24,6.74
1031,0.39,-6.37,0.37,-6.38,6.00,6.48,6.39,6.37,6.76
1041,0.49,-6.30,0.50,-6.27,6.00,6.41,6.49,6.50,6.79
1052,0.62,-6.20,0.64,-6.16,5.98,6.31,6.60,6.62,6.82
1062,0.74,-6.10,0.79,-6.05,5.93,6.22,6.67,6.72,6.85
1073,0.89,-5.98,0.93,-5.93,5.85,6.11,6.75,6.79,6.88
1084,1.04,-5.86,1.09,-5.80,5.76,5.99,6.80,6.85,6.91
1094,1.20,-5.73,1.24,-5.68,5.67,5.88,6.87,6.91,6.93
1105,1.37,-5.59,1.40,-5.55,5.55,5.75,6.93,6.95,6.97
1116,1.54,-5.45,1.56,-5.44,5.44,5.62,6.98,6.99,7.00
1128,1.72,-5.30,1.71,-5.33,5.33,5.47,7.05,7.04,7.03
1139,1.87,-5.19,1.86,-5.23,5.23,5.33,7.10,7.09,7.06
1150,2.01,-5.08,1.98,-5.15,5.15,5.19,7.16,7.13,7.09
1162,2.14,-4.98,2.09,-5.08,5.08,5.03,7.22,7.17,7.12
1173,2.25,-4.90,2.17,-5.03,5.03,4.89,7.28,7.20,7.15
1185,2.34,-4.84,2.23,-4.98,4.98,4.73,7.33,7.21,7.19
1197,2.40,-4.82,2.28,-4.95,4.95,4.57,7.35,7.23,7.22
1209,2.43,-4.82,2.31,-4.92,4.92,4.41,7.35,7.23,7.25
1221,2.42,-4.86,2.35,-4.89,4.89,4.25,7.31,7.24,7.28
1233,2.40,-4.91,2.40,-4.86,4.86,4.10,7.26,7.26,7.31
1246,2.37,-4.97,2.46,-4.82,4.82,3.93,7.19,7.27,7.35
1258,2.38,-5.00,2.54,-4.76,4.76,3.78,7.14,7.30,7.38
1271,2.46,-4.95,2.65,-4.68,4.68,3.62,7.14,7.33,7.41
1283,2.58,-4.86,2.78,-4.58,4.58,3.47,7.16,7.36,7.45
1296,2.78,-4.70,2.95,-4.45,4.45,3.31,7.24,7.40,7.48
1309,3.05,-4.47,3.14,-4.30,4.30,3.15,7.36,7.44,7.52
1322,3.34,-4.21,3.35,-4.13,4.13,3.00,7.47,7.49,7.55
1335,3.64,-3.95,3.59,-3.94,3.94,2.85,7.59,7.54,7.59
1349,3.95,-3.67,3.85,-3.75,3.75,2.69,7.70,7.60,7.63
1362,4.20,-3.46,4.11,-3.55,3.55,2.55,7.75,7.66,7.66
1376,4.46,-3.24,4.37,-3.35,3.35,2.40,7.81,7.72,7.70
1390,4.68,-3.06,4.62,-3.15,3.15,2.25,7.83,7.77,7.74
1404,4.88,-2.90,4.85,-2.97,2.97,2.10,7.85,7.82,7.78
1418,5.08,-2.73,5.07,-2.80,2.80,1.96,7.88,7.86,7.82
1432,5.26,-2.59,5.25,-2.64,2.64,1.82,7.91,7.90,7.86
1446,5.42,-2.47,5.42,-2.51,2.51,1.68,7.93,7.93,7.90
1461,5.58,-2.35,5.56,-2.39,2.39,1.54,7.98,7.96,7.93
1475,5.71,-2.26,5.69,-2.30,2.30,1.40,8.01,7.99,7.97
1490,5.83,-2.18,5.81,-2.21,2.21,1.27,8.05,8.02,8.01
1505,5.93,-2.12,5.92,-2.14,2.14,1.13,8.08,8.06,8.05
1520,6.03,-2.06,6.01,-2.08,2.08,1.00,8.11,8.10,8.09
1535,6.11,-2.02,6.11,-2.02,2.02,0.87,8.13,8.13,8.13
1550,6.20,-1.97,6.20,-1.96,1.96,0.74,8.17,8.16,8.18
1566,6.29,-1.93,6.29,-1.90,1.90,0.60,8.19,8.19,8.22
1582,6.38,-1.88,6.39,-1.83,1.83,0.47,8.21,8.22,8.27
1597,6.48,-1.83,6.50,-1.75,1.75,0.35,8.24,8.26,8.31
1613,6.59,-1.76,6.63,-1.66,1.66,0.23,8.26,8.29,8.36
1629,6.71,-1.69,6.76,-1.56,1.56,0.11,8.28,8.33,8.40
1646,6.87,-1.57,6.92,-1.45,1.45,-0.02,8.32,8.37,8.45
1662,7.03,-1.46,7.09,-1.32,1.32,-0.14,8.36,8.41,8.49
1679,7.23,-1.31,7.28,-1.18,1.18,-0.26,8.42,8.46,8.54
1696,7.45,-1.13,7.48,-1.03,1.03,-0.37,8.49,8.52,8.59
1713,7.68,-0.95,7.70,-0.88,0.88,-0.48,8.56,8.57,8.63
1730,7.92,-0.76,7.92,-0.71,0.71,-0.59,8.64,8.63,8.68
1747,8.16,-0.57,8.14,-0.55,0.55,-0.70,8.71,8.69,8.73
1764,8.40,-0.38,8.37,-0.38,0.38,-0.80,8.79,8.75,8.78
1782,8.64,-0.19,8.60,-0.22,0.22,-0.90,8.86,8.82,8.83
1800,8.87,-0.01,8.82,-0.06,0.06,-1.00,8.93,8.88,8.88
1818,9.08,0.15,9.03,0.09,-0.09,-1.10,8.99,8.94,8.93
1836,9.27,0.28,9.24,0.24,-0.24,-1.18,9.03,9.00,8.99
1854,9.45,0.40,9.44,0.39,-0.39,-1.27,9.07,9.06,9.05
1873,9.64,0.53,9.64,0.52,-0.52,-1.35,9.12,9.12,9.11
1892,9.83,0.65,9.84,0.66,-0.66,-1.43,9.17,9.18,9.18
1911,10.01,0.76,10.03,0.79,-0.79,-1.50,9.22,9.24,9.25
1930,10.21,0.89,10.23,0.92,-0.92,-1.57,9.30,9.31,9.32
1949,10.40,1.01,10.43,1.04,-1.04,-1.63,9.36,9.38,9.40
1969,10.60,1.13,10.63,1.17,-1.17,-1.69,9.43,9.46,9.48
