frequency,raw,smoothed,error,error_smoothed,equalization,parametric_eq,fixed_band_eq,equalized_raw,equalized_smoothed,target
20.00,-3.81,-3.81,-7.18,-7.18,6.00,6.00,2.81,2.19,2.19,3.37
20.20,-3.79,-3.79,-7.14,-7.14,6.00,6.00,2.89,2.21,2.21,3.35
20.40,-3.77,-3.77,-7.10,-7.10,6.00,6.00,2.97,2.23,2.23,3.33
20.61,-3.75,-3.75,-7.07,-7.07,6.00,6.00,3.05,2.25,2.25,3.32
20.81,-3.73,-3.73,-7.03,-7.03,6.00,5.99,3.14,2.27,2.27,3.30
21.02,-3.71,-3.71,-7.00,-7.00,6.00,5.99,3.23,2.29,2.29,3.29
21.23,-3.69,-3.69,-6.96,-6.96,6.00,5.99,3.32,2.31,2.31,3.26
21.44,-3.67,-3.67,-6.93,-6.93,6.00,5.99,3.42,2.33,2.33,3.25
21.66,-3.64,-3.65,-6.89,-6.89,6.00,5.98,3.51,2.36,2.35,3.24
21.87,-3.62,-3.62,-6.85,-6.85,6.00,5.98,3.61,2.38,2.38,3.22
22.09,-3.59,-3.59,-6.81,-6.80,6.00,5.98,3.72,2.41,2.41,3.21
22.31,-3.55,-3.55,-6.75,-6.75,6.00,5.98,3.82,2.45,2.45,3.20
22.54,-3.51,-3.50,-6.71,-6.69,6.00,5.97,3.93,2.49,2.50,3.19
22.76,-3.46,-3.46,-6.64,-6.64,6.00,5.97,4.04,2.54,2.54,3.18
22.99,-3.42,-3.45,-6.59,-6.62,6.00,5.97,4.16,2.58,2.55,3.17
23.22,-3.46,-3.46,-6.62,-6.62,6.00,5.96,4.27,2.54,2.54,3.16
23.45,-3.50,-3.50,-6.66,-6.66,6.00,5.96,4.39,2.50,2.50,3.16
23.69,-3.54,-3.55,-6.69,-6.70,6.00,5.96,4.51,2.46,2.45,3.15
23.92,-3.58,-3.57,-6.73,-6.71,6.00,5.95,4.64,2.42,2.43,3.15
24.16,-3.56,-3.56,-6.71,-6.70,6.00,5.95,4.76,2.44,2.44,3.15
24.40,-3.51,-3.52,-6.66,-6.67,6.00,5.95,4.89,2.49,2.48,3.15
24.65,-3.47,-3.47,-6.62,-6.62,6.00,5.94,5.02,2.53,2.53,3.14
24.89,-3.42,-3.42,-6.57,-6.57,6.00,5.94,5.16,2.58,2.58,3.14
25.14,-3.37,-3.37,-6.51,-6.51,6.00,5.94,5.29,2.63,2.63,3.14
25.39,-3.30,-3.30,-6.44,-6.44,6.00,5.93,5.42,2.70,2.70,3.14
25.65,-3.24,-3.24,-6.38,-6.38,6.00,5.93,5.56,2.76,2.76,3.14
25.91,-3.18,-3.21,-6.33,-6.35,6.00,5.92,5.70,2.82,2.79,3.15
26.16,-3.21,-3.22,-6.36,-6.37,6.00,5.92,5.83,2.79,2.78,3.15
26.43,-3.28,-3.29,-6.43,-6.44,6.00,5.92,5.97,2.72,2.71,3.15
26.69,-3.36,-3.37,-6.51,-6.51,6.00,5.91,6.11,2.64,2.63,3.15
26.96,-3.44,-3.40,-6.59,-6.55,6.00,5.91,6.24,2.56,2.60,3.14
27.23,-3.39,-3.39,-6.54,-6.54,6.00,5.90,6.37,2.61,2.61,3.14
27.50,-3.32,-3.33,-6.47,-6.48,6.00,5.90,6.50,2.68,2.67,3.14
27.77,-3.26,-3.26,-6.40,-6.40,6.00,5.89,6.62,2.74,2.74,3.14
28.05,-3.20,-3.22,-6.34,-6.36,6.00,5.89,6.75,2.80,2.78,3.14
28.33,-3.20,-3.20,-6.33,-6.33,6.00,5.89,6.86,2.80,2.80,3.13
28.62,-3.20,-3.20,-6.33,-6.32,6.00,5.88,6.97,2.80,2.80,3.13
28.90,-3.20,-3.20,-6.33,-6.33,6.00,5.88,7.07,2.80,2.80,3.12
29.19,-3.20,-3.20,-6.33,-6.33,6.00,5.87,7.17,2.80,2.80,3.12
29.48,-3.20,-3.21,-6.32,-6.33,6.00,5.86,7.25,2.80,2.79,3.12
29.78,-3.20,-3.20,-6.32,-6.32,6.00,5.86,7.33,2.80,2.80,3.12
30.08,-3.19,-3.19,-6.31,-6.31,6.00,5.85,7.39,2.81,2.81,3.12
30.38,-3.16,-3.17,-6.28,-6.28,6.00,5.85,7.45,2.84,2.83,3.12
30.68,-3.13,-3.14,-6.24,-6.24,6.00,5.84,7.49,2.87,2.86,3.10
30.99,-3.10,-3.10,-6.21,-6.20,6.00,5.84,7.53,2.90,2.90,3.10
31.30,-3.07,-3.07,-6.16,-6.16,6.00,5.83,7.55,2.93,2.93,3.09
31.61,-3.04,-3.04,-6.13,-6.13,6.00,5.82,7.56,2.96,2.96,3.09
31.93,-3.01,-3.02,-6.10,-6.10,6.00,5.82,7.56,2.99,2.98,3.08
32.24,-3.00,-3.01,-6.08,-6.08,6.00,5.81,7.55,3.00,2.99,3.07
32.57,-3.00,-3.00,-6.07,-6.07,6.00,5.81,7.53,3.00,3.00,3.07
32.89,-3.00,-3.00,-6.07,-6.07,6.00,5.80,7.50,3.00,3.00,3.07
33.22,-3.00,-3.00,-6.07,-6.07,6.00,5.79,7.45,3.00,3.00,3.06
33.55,-3.00,-3.00,-6.07,-6.07,6.00,5.78,7.41,3.00,3.00,3.06
33.89,-3.00,-3.01,-6.07,-6.07,6.00,5.78,7.35,3.00,2.99,3.07
34.23,-3.02,-3.03,-6.09,-6.10,6.00,5.77,7.28,2.98,2.97,3.07
34.57,-3.05,-3.06,-6.12,-6.12,6.00,5.76,7.21,2.95,2.94,3.06
34.92,-3.08,-3.06,-6.15,-6.13,6.00,5.75,7.13,2.92,2.94,3.07
35.27,-3.04,-3.03,-6.11,-6.10,6.00,5.75,7.05,2.95,2.96,3.07
35.62,-2.97,-2.98,-6.05,-6.05,5.99,5.74,6.97,3.02,3.01,3.07
35.97,-2.90,-2.93,-5.97,-5.99,5.99,5.73,6.88,3.08,3.06,3.07
36.33,-2.90,-2.90,-5.97,-5.97,5.98,5.72,6.79,3.08,3.08,3.07
36.70,-2.90,-2.90,-5.96,-5.96,5.97,5.71,6.70,3.07,3.08,3.06
37.06,-2.90,-2.90,-5.96,-5.96,5.96,5.70,6.60,3.06,3.06,3.06
37.43,-2.90,-2.90,-5.95,-5.95,5.94,5.70,6.51,3.04,3.04,3.04
37.81,-2.90,-2.90,-5.94,-5.94,5.92,5.69,6.42,3.01,3.02,3.04
38.19,-2.89,-2.89,-5.92,-5.91,5.90,5.68,6.33,3.00,3.00,3.02
38.57,-2.87,-2.87,-5.88,-5.88,5.88,5.67,6.24,3.00,3.00,3.01
38.95,-2.85,-2.85,-5.85,-5.85,5.86,5.66,6.15,3.01,3.01,2.99
39.34,-2.83,-2.83,-5.81,-5.81,5.85,5.65,6.06,3.02,3.02,2.98
39.74,-2.81,-2.82,-5.79,-5.79,5.83,5.64,5.98,3.02,3.01,2.97
40.14,-2.82,-2.84,-5.78,-5.80,5.80,5.62,5.90,2.98,2.96,2.96
40.54,-2.86,-2.87,-5.81,-5.82,5.78,5.61,5.82,2.92,2.91,2.94
40.94,-2.91,-2.87,-5.85,-5.81,5.75,5.60,5.75,2.84,2.88,2.94
41.35,-2.84,-2.84,-5.77,-5.76,5.73,5.59,5.68,2.88,2.89,2.93
41.76,-2.75,-2.77,-5.67,-5.69,5.70,5.58,5.61,2.95,2.92,2.92
42.18,-2.70,-2.72,-5.61,-5.63,5.67,5.57,5.55,2.97,2.96,2.91
42.60,-2.70,-2.70,-5.62,-5.60,5.65,5.55,5.49,2.94,2.95,2.91
43.03,-2.70,-2.70,-5.61,-5.60,5.62,5.54,5.44,2.91,2.92,2.91
43.46,-2.70,-2.70,-5.60,-5.61,5.60,5.53,5.38,2.89,2.89,2.90
43.90,-2.70,-2.70,-5.60,-5.60,5.59,5.51,5.34,2.88,2.88,2.90
44.33,-2.70,-2.70,-5.60,-5.60,5.59,5.50,5.30,2.89,2.89,2.89
44.78,-2.70,-2.70,-5.59,-5.59,5.60,5.49,5.26,2.90,2.90,2.88
45.23,-2.70,-2.70,-5.59,-5.58,5.61,5.47,5.22,2.90,2.91,2.89
45.68,-2.70,-2.71,-5.58,-5.58,5.60,5.46,5.19,2.90,2.90,2.88
46.13,-2.71,-2.74,-5.58,-5.61,5.59,5.44,5.16,2.88,2.85,2.87
46.60,-2.76,-2.76,-5.62,-5.62,5.57,5.43,5.14,2.81,2.81,2.86
47.06,-2.79,-2.74,-5.64,-5.59,5.55,5.41,5.12,2.75,2.80,2.85
47.53,-2.69,-2.70,-5.53,-5.54,5.52,5.39,5.11,2.83,2.82,2.84
48.01,-2.60,-2.64,-5.43,-5.47,5.49,5.38,5.09,2.89,2.85,2.83
48.49,-2.60,-2.60,-5.41,-5.41,5.46,5.36,5.09,2.85,2.86,2.81
48.97,-2.60,-2.59,-5.40,-5.39,5.42,5.34,5.08,2.82,2.83,2.80
49.46,-2.60,-2.60,-5.39,-5.39,5.40,5.32,5.08,2.79,2.79,2.79
49.96,-2.60,-2.60,-5.37,-5.37,5.37,5.30,5.08,2.77,2.77,2.76
50.46,-2.60,-2.60,-5.36,-5.36,5.35,5.28,5.08,2.75,2.75,2.75
50.96,-2.60,-2.60,-5.34,-5.34,5.34,5.26,5.08,2.73,2.73,2.74
51.47,-2.60,-2.60,-5.33,-5.33,5.32,5.24,5.09,2.72,2.71,2.73
51.99,-2.60,-2.61,-5.32,-5.33,5.30,5.22,5.10,2.69,2.69,2.71
52.51,-2.60,-2.60,-5.30,-5.30,5.27,5.20,5.11,2.67,2.67,2.70
53.03,-2.59,-2.55,-5.28,-5.23,5.25,5.18,5.12,2.65,2.70,2.68
53.56,-2.49,-2.51,-5.16,-5.18,5.21,5.16,5.13,2.72,2.71,2.67
54.10,-2.42,-2.50,-5.08,-5.15,5.17,5.14,5.14,2.75,2.67,2.65
54.64,-2.53,-2.50,-5.17,-5.14,5.13,5.11,5.15,2.60,2.63,2.64
55.18,-2.56,-2.50,-5.18,-5.12,5.09,5.09,5.16,2.53,2.59,2.62
55.74,-2.45,-2.48,-5.06,-5.09,5.06,5.06,5.17,2.60,2.57,2.61
56.29,-2.40,-2.43,-4.99,-5.01,5.03,5.04,5.18,2.62,2.60,2.59
56.86,-2.40,-2.40,-4.97,-4.97,5.00,5.01,5.19,2.60,2.60,2.57
57.42,-2.40,-2.40,-4.95,-4.95,4.97,4.99,5.19,2.57,2.57,2.55
58.00,-2.40,-2.40,-4.94,-4.94,4.94,4.96,5.19,2.54,2.54,2.54
58.58,-2.40,-2.40,-4.92,-4.92,4.92,4.93,5.19,2.51,2.51,2.52
59.16,-2.40,-2.40,-4.90,-4.91,4.90,4.90,5.18,2.49,2.49,2.50
59.76,-2.40,-2.40,-4.88,-4.88,4.88,4.87,5.17,2.48,2.48,2.48
60.35,-2.40,-2.40,-4.86,-4.86,4.87,4.84,5.16,2.47,2.47,2.46
60.96,-2.40,-2.40,-4.84,-4.84,4.85,4.81,5.14,2.45,2.45,2.44
61.57,-2.40,-2.41,-4.82,-4.83,4.82,4.78,5.11,2.42,2.41,2.41
62.18,-2.41,-2.43,-4.80,-4.82,4.78,4.75,5.08,2.37,2.35,2.39
62.80,-2.46,-2.42,-4.82,-4.78,4.74,4.72,5.05,2.28,2.32,2.35
63.43,-2.40,-2.39,-4.73,-4.72,4.70,4.68,5.01,2.30,2.31,2.33
64.07,-2.30,-2.34,-4.61,-4.64,4.65,4.65,4.96,2.35,2.31,2.30
64.71,-2.30,-2.30,-4.57,-4.57,4.61,4.61,4.91,2.30,2.31,2.27
65.35,-2.30,-2.29,-4.54,-4.53,4.56,4.58,4.86,2.26,2.27,2.24
66.01,-2.30,-2.30,-4.50,-4.51,4.51,4.54,4.80,2.21,2.21,2.20
66.67,-2.30,-2.30,-4.48,-4.47,4.47,4.50,4.73,2.16,2.16,2.17
67.33,-2.30,-2.30,-4.44,-4.44,4.43,4.46,4.66,2.12,2.12,2.13
68.01,-2.30,-2.30,-4.41,-4.40,4.39,4.42,4.59,2.09,2.09,2.10
68.69,-2.30,-2.30,-4.36,-4.37,4.36,4.38,4.51,2.06,2.06,2.06
69.37,-2.30,-2.30,-4.33,-4.33,4.33,4.34,4.43,2.03,2.03,2.03
70.07,-2.30,-2.30,-4.29,-4.29,4.31,4.30,4.35,2.00,2.00,1.99
70.77,-2.30,-2.30,-4.26,-4.25,4.27,4.26,4.27,1.97,1.97,1.95
71.48,-2.30,-2.31,-4.22,-4.22,4.24,4.21,4.18,1.93,1.93,1.92
72.19,-2.31,-2.33,-4.19,-4.21,4.19,4.17,4.09,1.88,1.86,1.87
72.91,-2.35,-2.35,-4.19,-4.19,4.14,4.12,4.00,1.79,1.79,1.84
73.64,-2.36,-2.33,-4.16,-4.13,4.09,4.08,3.91,1.73,1.76,1.80
74.38,-2.30,-2.29,-4.07,-4.05,4.03,4.03,3.82,1.73,1.74,1.76
75.12,-2.20,-2.24,-3.92,-3.96,3.98,3.98,3.73,1.77,1.74,1.71
75.87,-2.20,-2.20,-3.88,-3.88,3.92,3.93,3.64,1.71,1.72,1.67
76.63,-2.20,-2.19,-3.84,-3.83,3.86,3.88,3.55,1.66,1.66,1.63
77.40,-2.20,-2.20,-3.80,-3.80,3.80,3.83,3.46,1.60,1.60,1.59
78.17,-2.20,-2.20,-3.75,-3.75,3.75,3.78,3.37,1.54,1.54,1.55
78.95,-2.20,-2.20,-3.71,-3.71,3.70,3.73,3.28,1.50,1.50,1.51
79.74,-2.20,-2.20,-3.67,-3.67,3.66,3.68,3.19,1.46,1.46,1.47
80.54,-2.20,-2.20,-3.62,-3.62,3.63,3.62,3.10,1.42,1.42,1.42
81.35,-2.20,-2.20,-3.58,-3.58,3.59,3.57,3.02,1.38,1.38,1.38
82.16,-2.20,-2.20,-3.53,-3.53,3.54,3.51,2.94,1.34,1.34,1.33
82.98,-2.20,-2.21,-3.49,-3.49,3.49,3.45,2.85,1.29,1.29,1.28
83.81,-2.20,-2.21,-3.44,-3.45,3.44,3.40,2.77,1.23,1.22,1.24
84.65,-2.22,-2.22,-3.41,-3.40,3.38,3.34,2.69,1.15,1.16,1.19
85.50,-2.21,-2.20,-3.34,-3.33,3.32,3.28,2.62,1.10,1.12,1.13
86.35,-2.16,-2.16,-3.24,-3.24,3.25,3.22,2.54,1.09,1.09,1.08
87.22,-2.10,-2.13,-3.14,-3.16,3.18,3.16,2.47,1.08,1.06,1.03
88.09,-2.10,-2.10,-3.08,-3.08,3.10,3.10,2.39,1.00,1.00,0.98
88.97,-2.10,-2.10,-3.03,-3.03,3.02,3.04,2.32,0.92,0.92,0.93
89.86,-2.09,-2.10,-2.96,-2.97,2.94,2.98,2.25,0.84,0.84,0.87
90.76,-2.09,-2.06,-2.91,-2.87,2.86,2.92,2.19,0.76,0.80,0.82
91.66,-2.00,-2.01,-2.76,-2.77,2.78,2.85,2.12,0.78,0.76,0.75
92.58,-1.95,-1.98,-2.65,-2.68,2.71,2.79,2.06,0.75,0.72,0.70
93.51,-1.97,-1.97,-2.61,-2.60,2.63,2.72,2.00,0.66,0.66,0.64
94.44,-1.99,-1.98,-2.57,-2.56,2.56,2.66,1.94,0.57,0.58,0.57
95.39,-1.99,-1.99,-2.50,-2.50,2.49,2.59,1.88,0.50,0.50,0.51
96.34,-1.99,-2.00,-2.44,-2.44,2.43,2.53,1.82,0.44,0.43,0.44
97.30,-2.00,-2.00,-2.37,-2.37,2.38,2.46,1.77,0.37,0.38,0.37
98.28,-2.01,-2.01,-2.32,-2.31,2.32,2.40,1.71,0.31,0.31,0.30
99.26,-2.02,-2.03,-2.25,-2.25,2.26,2.33,1.66,0.24,0.23,0.23
100.25,-2.04,-2.05,-2.20,-2.21,2.19,2.26,1.61,0.15,0.14,0.15
101.25,-2.07,-2.07,-2.15,-2.15,2.12,2.20,1.56,0.04,0.05,0.08
102.27,-2.09,-2.06,-2.09,-2.06,2.04,2.13,1.51,-0.05,-0.02,0.00
103.29,-2.03,-2.04,-1.96,-1.97,1.97,2.06,1.46,-0.07,-0.08,-0.08
104.32,-2.00,-2.03,-1.85,-1.87,1.90,2.00,1.42,-0.11,-0.13,-0.15
105.37,-2.03,-2.03,-1.80,-1.79,1.83,1.93,1.37,-0.21,-0.20,-0.23
106.42,-2.05,-2.05,-1.74,-1.74,1.76,1.86,1.33,-0.30,-0.29,-0.32
107.48,-2.08,-2.08,-1.69,-1.69,1.69,1.79,1.28,-0.39,-0.39,-0.39
108.56,-2.10,-2.10,-1.65,-1.64,1.64,1.73,1.24,-0.47,-0.47,-0.46
109.64,-2.12,-2.13,-1.59,-1.59,1.58,1.66,1.20,-0.54,-0.54,-0.53
110.74,-2.14,-2.14,-1.53,-1.54,1.53,1.59,1.16,-0.61,-0.61,-0.61
111.85,-2.16,-2.16,-1.49,-1.49,1.48,1.53,1.12,-0.68,-0.68,-0.68
112.97,-2.17,-2.17,-1.43,-1.43,1.42,1.46,1.08,-0.75,-0.75,-0.74
114.10,-2.17,-2.17,-1.37,-1.37,1.37,1.39,1.05,-0.81,-0.81,-0.81
115.24,-2.17,-2.18,-1.30,-1.30,1.30,1.33,1.01,-0.87,-0.87,-0.87
116.39,-2.17,-2.17,-1.24,-1.24,1.24,1.26,0.97,-0.93,-0.93,-0.94
117.55,-2.17,-2.17,-1.18,-1.18,1.18,1.20,0.94,-0.99,-0.99,-0.99
118.73,-2.16,-2.17,-1.11,-1.12,1.12,1.13,0.90,-1.05,-1.05,-1.05
119.92,-2.16,-2.16,-1.06,-1.05,1.05,1.07,0.87,-1.11,-1.11,-1.11
121.12,-2.15,-2.15,-0.99,-0.99,1.00,1.00,0.83,-1.16,-1.16,-1.16
122.33,-2.14,-2.14,-0.93,-0.93,0.94,0.94,0.80,-1.20,-1.20,-1.21
123.55,-2.13,-2.13,-0.87,-0.87,0.88,0.87,0.77,-1.25,-1.25,-1.26
124.79,-2.13,-2.13,-0.82,-0.82,0.83,0.81,0.73,-1.31,-1.30,-1.31
126.03,-2.12,-2.13,-0.76,-0.76,0.76,0.75,0.70,-1.36,-1.37,-1.37
127.29,-2.13,-2.14,-0.72,-0.73,0.70,0.69,0.67,-1.44,-1.45,-1.42
128.57,-2.13,-2.12,-0.67,-0.66,0.63,0.63,0.64,-1.51,-1.50,-1.46
129.85,-2.12,-2.09,-0.61,-0.57,0.56,0.57,0.60,-1.56,-1.53,-1.51
131.15,-2.00,-2.04,-0.44,-0.48,0.49,0.51,0.57,-1.51,-1.55,-1.56
132.46,-1.99,-2.00,-0.38,-0.39,0.42,0.45,0.54,-1.57,-1.58,-1.61
133.79,-1.99,-1.98,-0.34,-0.32,0.36,0.39,0.51,-1.64,-1.62,-1.65
135.12,-1.98,-1.99,-0.28,-0.29,0.29,0.34,0.48,-1.69,-1.69,-1.70
136.48,-1.98,-1.98,-0.24,-0.24,0.23,0.28,0.45,-1.75,-1.75,-1.75
137.84,-1.98,-1.98,-0.19,-0.19,0.18,0.22,0.42,-1.81,-1.81,-1.79
139.22,-1.98,-1.98,-0.14,-0.14,0.13,0.17,0.39,-1.86,-1.85,-1.84
140.61,-1.97,-1.98,-0.09,-0.09,0.08,0.12,0.35,-1.90,-1.90,-1.89
142.02,-1.97,-1.97,-0.03,-0.03,0.03,0.06,0.32,-1.94,-1.94,-1.94
143.44,-1.97,-1.97,0.02,0.02,-0.01,0.01,0.29,-1.99,-1.99,-1.99
144.87,-1.97,-1.97,0.07,0.07,-0.06,-0.04,0.26,-2.03,-2.02,-2.04
146.32,-1.97,-1.97,0.11,0.11,-0.09,-0.09,0.23,-2.07,-2.06,-2.08
147.78,-1.97,-1.99,0.16,0.14,-0.13,-0.14,0.20,-2.10,-2.11,-2.13
149.26,-2.01,-2.02,0.16,0.16,-0.16,-0.19,0.17,-2.17,-2.17,-2.18
150.75,-2.06,-2.05,0.16,0.18,-0.19,-0.23,0.14,-2.25,-2.23,-2.22
152.26,-2.07,-2.07,0.20,0.20,-0.22,-0.28,0.11,-2.29,-2.29,-2.27
153.78,-2.07,-2.08,0.23,0.23,-0.25,-0.32,0.07,-2.32,-2.33,-2.31
155.32,-2.07,-2.07,0.28,0.28,-0.28,-0.37,0.04,-2.35,-2.36,-2.35
156.88,-2.07,-2.07,0.32,0.32,-0.32,-0.41,0.01,-2.39,-2.39,-2.39
158.44,-2.07,-2.07,0.36,0.37,-0.36,-0.45,-0.02,-2.43,-2.43,-2.44
160.03,-2.07,-2.07,0.41,0.41,-0.40,-0.49,-0.05,-2.48,-2.48,-2.48
161.63,-2.07,-2.08,0.46,0.45,-0.45,-0.53,-0.09,-2.52,-2.52,-2.53
163.24,-2.08,-2.08,0.49,0.49,-0.49,-0.57,-0.12,-2.57,-2.57,-2.57
164.88,-2.08,-2.08,0.53,0.53,-0.53,-0.61,-0.15,-2.61,-2.61,-2.61
166.53,-2.08,-2.09,0.57,0.56,-0.56,-0.65,-0.19,-2.65,-2.65,-2.65
168.19,-2.09,-2.09,0.60,0.60,-0.60,-0.68,-0.22,-2.69,-2.69,-2.69
169.87,-2.10,-2.10,0.62,0.63,-0.63,-0.72,-0.25,-2.73,-2.73,-2.73
171.57,-2.10,-2.11,0.66,0.66,-0.66,-0.75,-0.29,-2.76,-2.76,-2.76
173.29,-2.11,-2.11,0.69,0.69,-0.68,-0.78,-0.32,-2.80,-2.80,-2.80
175.02,-2.11,-2.12,0.71,0.71,-0.71,-0.81,-0.36,-2.83,-2.83,-2.83
176.77,-2.12,-2.12,0.74,0.74,-0.74,-0.84,-0.39,-2.86,-2.86,-2.86
178.54,-2.12,-2.12,0.77,0.77,-0.77,-0.87,-0.43,-2.89,-2.89,-2.89
180.32,-2.12,-2.12,0.79,0.80,-0.80,-0.90,-0.47,-2.92,-2.92,-2.92
182.13,-2.11,-2.11,0.83,0.83,-0.83,-0.92,-0.50,-2.94,-2.94,-2.94
183.95,-2.10,-2.10,0.86,0.86,-0.86,-0.95,-0.54,-2.96,-2.96,-2.96
185.79,-2.09,-2.09,0.89,0.89,-0.89,-0.97,-0.58,-2.98,-2.98,-2.98
187.65,-2.07,-2.08,0.93,0.93,-0.92,-1.00,-0.62,-3.00,-3.00,-3.00
189.52,-2.06,-2.06,0.96,0.96,-0.96,-1.02,-0.66,-3.02,-3.02,-3.02
191.42,-2.05,-2.05,0.98,0.99,-0.99,-1.04,-0.69,-3.04,-3.04,-3.03
193.33,-2.03,-2.04,1.02,1.02,-1.02,-1.06,-0.73,-3.05,-3.06,-3.05
195.27,-2.02,-2.02,1.05,1.05,-1.05,-1.08,-0.77,-3.07,-3.07,-3.07
197.22,-2.00,-2.00,1.08,1.08,-1.08,-1.10,-0.81,-3.08,-3.08,-3.09
199.19,-1.99,-1.99,1.11,1.11,-1.11,-1.11,-0.85,-3.10,-3.10,-3.11
201.18,-1.98,-1.99,1.14,1.14,-1.13,-1.13,-0.89,-3.12,-3.12,-3.12
203.19,-1.98,-1.98,1.15,1.16,-1.16,-1.14,-0.93,-3.14,-3.14,-3.14
205.23,-1.98,-1.98,1.17,1.17,-1.18,-1.16,-0.97,-3.16,-3.16,-3.15
207.28,-1.98,-1.98,1.19,1.19,-1.19,-1.17,-1.01,-3.18,-3.18,-3.17
209.35,-1.98,-1.98,1.20,1.21,-1.20,-1.18,-1.04,-3.18,-3.18,-3.18
211.44,-1.98,-1.98,1.22,1.22,-1.20,-1.20,-1.08,-3.18,-3.18,-3.21
213.56,-1.98,-2.00,1.24,1.22,-1.20,-1.21,-1.12,-3.19,-3.20,-3.22
215.69,-2.03,-2.04,1.21,1.21,-1.20,-1.22,-1.16,-3.23,-3.24,-3.24
217.85,-2.09,-2.07,1.16,1.19,-1.20,-1.23,-1.19,-3.29,-3.27,-3.26
220.03,-2.10,-2.10,1.18,1.18,-1.20,-1.23,-1.22,-3.30,-3.30,-3.28
222.23,-2.10,-2.11,1.19,1.18,-1.20,-1.24,-1.26,-3.30,-3.31,-3.29
224.45,-2.10,-2.10,1.20,1.20,-1.20,-1.25,-1.29,-3.30,-3.30,-3.30
226.70,-2.10,-2.10,1.21,1.21,-1.21,-1.26,-1.32,-3.31,-3.31,-3.31
228.96,-2.09,-2.10,1.23,1.22,-1.22,-1.26,-1.34,-3.31,-3.32,-3.32
231.25,-2.09,-2.09,1.23,1.24,-1.24,-1.27,-1.37,-3.33,-3.33,-3.33
233.57,-2.08,-2.08,1.25,1.26,-1.25,-1.27,-1.39,-3.34,-3.33,-3.34
235.90,-2.06,-2.07,1.28,1.27,-1.27,-1.28,-1.41,-3.34,-3.34,-3.34
238.26,-2.05,-2.05,1.29,1.29,-1.30,-1.28,-1.43,-3.35,-3.35,-3.34
240.64,-2.03,-2.04,1.31,1.31,-1.32,-1.28,-1.45,-3.35,-3.35,-3.34
243.05,-2.02,-2.02,1.32,1.32,-1.34,-1.29,-1.46,-3.36,-3.36,-3.34
245.48,-2.00,-2.00,1.34,1.34,-1.35,-1.29,-1.47,-3.35,-3.35,-3.34
247.93,-1.97,-1.97,1.37,1.37,-1.36,-1.29,-1.48,-3.33,-3.33,-3.34
250.41,-1.95,-1.95,1.38,1.39,-1.35,-1.29,-1.48,-3.30,-3.30,-3.34
252.92,-1.93,-1.95,1.40,1.38,-1.34,-1.29,-1.49,-3.27,-3.29,-3.33
255.45,-1.99,-1.99,1.35,1.35,-1.33,-1.29,-1.49,-3.32,-3.32,-3.34
258.00,-2.03,-2.04,1.31,1.30,-1.31,-1.29,-1.48,-3.34,-3.35,-3.34
260.58,-2.10,-2.09,1.24,1.26,-1.29,-1.29,-1.48,-3.40,-3.38,-3.35
263.19,-2.11,-2.11,1.24,1.24,-1.28,-1.29,-1.47,-3.39,-3.39,-3.35
265.82,-2.11,-2.12,1.25,1.25,-1.26,-1.29,-1.46,-3.38,-3.38,-3.37
268.48,-2.11,-2.12,1.26,1.26,-1.26,-1.29,-1.44,-3.37,-3.38,-3.37
271.16,-2.12,-2.12,1.27,1.27,-1.26,-1.29,-1.43,-3.38,-3.38,-3.39
273.87,-2.12,-2.12,1.27,1.28,-1.27,-1.29,-1.41,-3.39,-3.39,-3.40
276.61,-2.12,-2.13,1.29,1.29,-1.28,-1.29,-1.39,-3.41,-3.41,-3.41
279.38,-2.12,-2.12,1.30,1.30,-1.30,-1.28,-1.37,-3.42,-3.42,-3.43
282.17,-2.12,-2.12,1.31,1.31,-1.32,-1.28,-1.34,-3.44,-3.44,-3.43
284.99,-2.11,-2.12,1.32,1.32,-1.32,-1.28,-1.32,-3.44,-3.44,-3.44
287.84,-2.11,-2.11,1.32,1.33,-1.33,-1.27,-1.29,-3.44,-3.44,-3.43
290.72,-2.09,-2.09,1.34,1.35,-1.33,-1.27,-1.26,-3.42,-3.42,-3.44
293.63,-2.08,-2.09,1.36,1.35,-1.32,-1.27,-1.24,-3.41,-3.41,-3.44
296.57,-2.07,-2.10,1.36,1.34,-1.32,-1.26,-1.21,-3.39,-3.42,-3.43
299.53,-2.14,-2.12,1.29,1.31,-1.32,-1.26,-1.18,-3.46,-3.44,-3.43
302.53,-2.15,-2.14,1.28,1.29,-1.31,-1.26,-1.15,-3.47,-3.46,-3.43
305.55,-2.14,-2.15,1.28,1.28,-1.31,-1.25,-1.12,-3.46,-3.46,-3.43
308.61,-2.13,-2.14,1.30,1.29,-1.31,-1.25,-1.09,-3.44,-3.45,-3.43
311.69,-2.12,-2.13,1.31,1.31,-1.31,-1.24,-1.06,-3.43,-3.43,-3.43
314.81,-2.12,-2.12,1.31,1.32,-1.31,-1.24,-1.03,-3.43,-3.42,-3.44
317.96,-2.11,-2.11,1.33,1.33,-1.30,-1.23,-1.00,-3.42,-3.41,-3.44
321.14,-2.11,-2.12,1.33,1.32,-1.30,-1.23,-0.97,-3.41,-3.42,-3.44
324.35,-2.12,-2.15,1.31,1.29,-1.28,-1.22,-0.94,-3.41,-3.43,-3.44
327.59,-2.20,-2.18,1.24,1.26,-1.26,-1.22,-0.91,-3.47,-3.44,-3.44
330.87,-2.22,-2.21,1.22,1.23,-1.24,-1.21,-0.88,-3.46,-3.45,-3.44
334.18,-2.22,-2.24,1.22,1.21,-1.21,-1.20,-0.85,-3.44,-3.45,-3.44
337.52,-2.25,-2.26,1.19,1.19,-1.19,-1.20,-0.82,-3.44,-3.45,-3.45
340.90,-2.30,-2.29,1.15,1.15,-1.16,-1.19,-0.79,-3.47,-3.46,-3.45
344.30,-2.32,-2.32,1.12,1.13,-1.14,-1.18,-0.76,-3.46,-3.46,-3.44
347.75,-2.32,-2.32,1.11,1.12,-1.12,-1.18,-0.74,-3.44,-3.44,-3.43
351.23,-2.32,-2.32,1.12,1.11,-1.10,-1.17,-0.71,-3.42,-3.42,-3.45
354.74,-2.32,-2.34,1.11,1.10,-1.08,-1.16,-0.68,-3.40,-3.41,-3.43
358.28,-2.36,-2.36,1.07,1.07,-1.06,-1.15,-0.66,-3.42,-3.42,-3.43
361.87,-2.40,-2.39,1.02,1.03,-1.04,-1.15,-0.63,-3.45,-3.43,-3.42
365.49,-2.40,-2.41,1.01,1.01,-1.03,-1.14,-0.61,-3.44,-3.44,-3.42
369.14,-2.40,-2.40,1.01,1.01,-1.03,-1.13,-0.59,-3.43,-3.43,-3.42
372.83,-2.39,-2.39,1.01,1.01,-1.02,-1.12,-0.56,-3.42,-3.42,-3.40
376.56,-2.38,-2.38,1.02,1.02,-1.02,-1.11,-0.54,-3.40,-3.40,-3.40
380.33,-2.37,-2.37,1.03,1.03,-1.01,-1.10,-0.52,-3.39,-3.39,-3.40
384.13,-2.37,-2.36,1.03,1.04,-1.01,-1.09,-0.50,-3.38,-3.37,-3.40
387.97,-2.36,-2.37,1.04,1.03,-1.01,-1.08,-0.48,-3.37,-3.38,-3.41
391.85,-2.37,-2.39,1.02,1.01,-1.00,-1.07,-0.46,-3.38,-3.40,-3.40
395.77,-2.44,-2.43,0.97,0.98,-1.00,-1.06,-0.44,-3.44,-3.43,-3.41
399.73,-2.46,-2.45,0.95,0.96,-0.99,-1.05,-0.42,-3.45,-3.44,-3.41
403.72,-2.46,-2.47,0.95,0.95,-0.98,-1.04,-0.40,-3.44,-3.45,-3.41
407.76,-2.46,-2.46,0.97,0.96,-0.95,-1.03,-0.39,-3.42,-3.42,-3.43
411.84,-2.47,-2.46,0.96,0.97,-0.93,-1.02,-0.37,-3.40,-3.39,-3.43
415.96,-2.47,-2.49,0.96,0.95,-0.90,-1.01,-0.35,-3.37,-3.39,-3.44
420.12,-2.52,-2.54,0.92,0.90,-0.88,-1.00,-0.34,-3.40,-3.42,-3.45
424.32,-2.62,-2.60,0.81,0.84,-0.85,-0.98,-0.32,-3.47,-3.45,-3.44
428.56,-2.65,-2.64,0.78,0.79,-0.83,-0.97,-0.31,-3.48,-3.47,-3.43
432.85,-2.64,-2.65,0.77,0.77,-0.81,-0.96,-0.30,-3.45,-3.46,-3.41
437.18,-2.61,-2.62,0.79,0.77,-0.79,-0.95,-0.28,-3.41,-3.41,-3.40
441.55,-2.58,-2.58,0.78,0.78,-0.78,-0.93,-0.27,-3.37,-3.36,-3.36
445.96,-2.53,-2.53,0.79,0.79,-0.78,-0.92,-0.26,-3.31,-3.31,-3.32
450.42,-2.48,-2.48,0.79,0.79,-0.78,-0.90,-0.25,-3.26,-3.26,-3.27
454.93,-2.42,-2.42,0.80,0.80,-0.78,-0.89,-0.24,-3.20,-3.20,-3.22
459.48,-2.36,-2.38,0.80,0.79,-0.77,-0.87,-0.23,-3.14,-3.15,-3.17
464.07,-2.33,-2.34,0.78,0.77,-0.77,-0.86,-0.23,-3.10,-3.11,-3.12
468.71,-2.33,-2.32,0.73,0.74,-0.76,-0.84,-0.22,-3.09,-3.07,-3.07
473.40,-2.29,-2.29,0.71,0.72,-0.75,-0.83,-0.21,-3.04,-3.03,-3.01
