frequency,raw,error,smoothed,error_smoothed,equalization,parametric_eq,equalized_raw,equalized_smoothed,target
20,-12.77,-10.42,-12.81,-10.46,6.00,5.65,-6.77,-6.81,-2.35
21,-12.10,-9.75,-12.07,-9.72,6.00,5.89,-6.10,-6.07,-2.35
22,-11.41,-9.05,-11.37,-9.01,6.00,6.05,-5.41,-5.37,-2.35
23,-10.70,-8.34,-10.70,-8.35,6.00,6.12,-4.70,-4.70,-2.35
24,-10.03,-7.68,-10.07,-7.71,6.00,6.08,-4.03,-4.07,-2.35
25,-9.42,-7.07,-9.47,-7.12,6.00,5.96,-3.42,-3.47,-2.35
26,-8.84,-6.49,-8.92,-6.56,5.89,5.76,-2.95,-3.03,-2.35
27,-8.31,-5.96,-8.39,-6.04,5.66,5.49,-2.64,-2.73,-2.35
28,-8.04,-5.68,-7.89,-5.53,5.33,5.17,-2.70,-2.55,-2.35
29,-7.57,-5.22,-7.40,-5.05,4.95,4.81,-2.61,-2.45,-2.35
30,-6.91,-4.56,-6.93,-4.58,4.55,4.43,-2.36,-2.38,-2.35
31,-6.51,-4.16,-6.48,-4.13,4.13,4.04,-2.38,-2.35,-2.35
32,-5.99,-3.64,-6.04,-3.69,3.69,3.65,-2.30,-2.35,-2.35
33,-5.56,-3.21,-5.62,-3.27,3.27,3.26,-2.29,-2.35,-2.35
34,-5.10,-2.75,-5.22,-2.87,2.87,2.87,-2.23,-2.35,-2.35
35,-4.95,-2.59,-4.84,-2.49,2.49,2.49,-2.46,-2.35,-2.35
36,-4.44,-2.09,-4.48,-2.13,2.13,2.12,-2.31,-2.35,-2.35
37,-4.18,-1.83,-4.14,-1.78,1.78,1.76,-2.40,-2.35,-2.35
38,-3.72,-1.37,-3.80,-1.45,1.45,1.41,-2.27,-2.35,-2.35
39,-3.54,-1.19,-3.48,-1.12,1.12,1.08,-2.42,-2.35,-2.35
40,-3.29,-0.94,-3.16,-0.81,0.81,0.75,-2.48,-2.35,-2.35
41,-2.86,-0.51,-2.85,-0.49,0.49,0.44,-2.37,-2.35,-2.35
42,-2.46,-0.10,-2.54,-0.19,0.19,0.14,-2.27,-2.35,-2.35
43,-2.17,0.18,-2.24,0.11,-0.11,-0.15,-2.28,-2.35,-2.35
44,-1.94,0.41,-1.96,0.39,-0.39,-0.43,-2.33,-2.35,-2.35
45,-1.70,0.65,-1.68,0.67,-0.67,-0.71,-2.37,-2.35,-2.35
46,-1.41,0.94,-1.42,0.93,-0.93,-0.97,-2.34,-2.35,-2.35
47,-1.24,1.11,-1.16,1.19,-1.19,-1.22,-2.43,-2.35,-2.35
48,-0.97,1.38,-0.92,1.43,-1.43,-1.46,-2.40,-2.35,-2.35
49,-0.65,1.70,-0.69,1.67,-1.67,-1.70,-2.32,-2.35,-2.35
50,-0.33,2.03,-0.46,1.89,-1.89,-1.93,-2.22,-2.35,-2.35
51,-0.28,2.07,-0.24,2.12,-2.12,-2.15,-2.40,-2.35,-2.35
52,0.00,2.35,-0.02,2.33,-2.33,-2.36,-2.33,-2.35,-2.35
53,0.13,2.48,0.19,2.55,-2.55,-2.56,-2.42,-2.35,-2.35
54,0.35,2.71,0.40,2.75,-2.75,-2.76,-2.40,-2.35,-2.35
55,0.58,2.93,0.60,2.96,-2.96,-2.95,-2.37,-2.35,-2.35
56,0.81,3.16,0.80,3.15,-3.15,-3.13,-2.34,-2.35,-2.35
57,1.04,3.39,0.99,3.34,-3.34,-3.30,-2.31,-2.35,-2.35
58,1.26,3.62,1.17,3.52,-3.52,-3.47,-2.26,-2.35,-2.35
59,1.26,3.62,1.34,3.69,-3.69,-3.63,-2.43,-2.35,-2.35
60,1.48,3.84,1.50,3.85,-3.85,-3.79,-2.37,-2.35,-2.35
61,1.72,4.07,1.65,4.00,-4.00,-3.94,-2.28,-2.35,-2.35
62,1.72,4.07,1.79,4.14,-4.14,-4.08,-2.42,-2.35,-2.35
63,1.95,4.30,1.92,4.27,-4.27,-4.22,-2.32,-2.35,-2.35
64,2.05,4.40,2.04,4.39,-4.39,-4.35,-2.35,-2.35,-2.35
65,2.18,4.53,2.16,4.51,-4.51,-4.47,-2.33,-2.35,-2.35
66,2.18,4.54,2.27,4.62,-4.62,-4.59,-2.44,-2.35,-2.35
67,2.41,4.76,2.38,4.73,-4.73,-4.70,-2.32,-2.35,-2.35
68,2.51,4.86,2.49,4.84,-4.84,-4.81,-2.33,-2.35,-2.35
69,2.63,4.98,2.59,4.95,-4.95,-4.91,-2.32,-2.35,-2.35
70,2.62,4.97,2.69,5.05,-5.05,-5.01,-2.43,-2.35,-2.35
71,2.83,5.19,2.79,5.14,-5.14,-5.10,-2.31,-2.35,-2.35
72,2.83,5.18,2.89,5.24,-5.24,-5.19,-2.41,-2.35,-2.35
73,3.03,5.38,2.97,5.33,-5.33,-5.27,-2.29,-2.35,-2.35
74,3.02,5.37,3.06,5.41,-5.41,-5.34,-2.39,-2.35,-2.35
75,3.18,5.53,3.13,5.49,-5.49,-5.41,-2.31,-2.35,-2.35
76,3.23,5.58,3.20,5.55,-5.55,-5.48,-2.33,-2.35,-2.35
77,3.22,5.58,3.26,5.62,-5.62,-5.54,-2.39,-2.35,-2.35
78,3.28,5.64,3.32,5.67,-5.67,-5.60,-2.39,-2.35,-2.35
79,3.44,5.79,3.37,5.72,-5.72,-5.65,-2.28,-2.35,-2.35
80,3.43,5.79,3.42,5.77,-5.77,-5.70,-2.34,-2.35,-2.35
81,3.42,5.77,3.46,5.81,-5.81,-5.74,-2.39,-2.35,-2.35
82,3.40,5.75,3.49,5.84,-5.84,-5.78,-2.44,-2.35,-2.35
83,3.48,5.84,3.51,5.86,-5.86,-5.82,-2.38,-2.35,-2.35
84,3.59,5.94,3.52,5.87,-5.87,-5.85,-2.29,-2.35,-2.35
85,3.56,5.92,3.51,5.87,-5.87,-5.88,-2.30,-2.35,-2.35
86,3.55,5.90,3.49,5.85,-5.85,-5.91,-2.30,-2.35,-2.35
87,3.53,5.89,3.46,5.81,-5.81,-5.93,-2.28,-2.35,-2.35
88,3.48,5.83,3.42,5.78,-5.78,-5.95,-2.30,-2.35,-2.35
89,3.29,5.64,3.38,5.74,-5.74,-5.97,-2.45,-2.35,-2.35
90,3.28,5.63,3.35,5.70,-5.70,-5.98,-2.42,-2.35,-2.35
91,3.27,5.63,3.33,5.68,-5.68,-6.00,-2.41,-2.35,-2.35
92,3.26,5.61,3.32,5.67,-5.67,-6.01,-2.41,-2.35,-2.35
93,3.25,5.60,3.32,5.67,-5.67,-6.01,-2.42,-2.35,-2.35
94,3.42,5.78,3.33,5.69,-5.69,-6.02,-2.27,-2.35,-2.35
95,3.44,5.80,3.35,5.71,-5.71,-6.02,-2.27,-2.35,-2.35
96,3.42,5.77,3.38,5.73,-5.73,-6.02,-2.31,-2.35,-2.35
97,3.40,5.75,3.41,5.76,-5.76,-6.02,-2.36,-2.35,-2.35
98,3.38,5.73,3.43,5.79,-5.79,-6.02,-2.41,-2.36,-2.36
99,3.36,5.71,3.46,5.81,-5.81,-6.02,-2.45,-2.36,-2.36
100,3.56,5.92,3.48,5.84,-5.84,-6.02,-2.27,-2.36,-2.36
101,3.55,5.91,3.51,5.86,-5.86,-6.01,-2.31,-2.36,-2.36
102,3.53,5.89,3.53,5.89,-5.89,-6.00,-2.35,-2.36,-2.36
104,3.51,5.87,3.55,5.91,-5.91,-5.99,-2.40,-2.36,-2.36
105,3.49,5.85,3.57,5.93,-5.93,-5.98,-2.44,-2.36,-2.36
106,3.62,5.98,3.59,5.95,-5.95,-5.97,-2.32,-2.36,-2.36
107,3.66,6.02,3.60,5.95,-5.95,-5.96,-2.29,-2.36,-2.36
108,3.63,5.99,3.60,5.96,-5.96,-5.94,-2.32,-2.35,-2.35
109,3.61,5.96,3.60,5.95,-5.95,-5.93,-2.34,-2.35,-2.35
110,3.58,5.93,3.59,5.94,-5.94,-5.92,-2.36,-2.35,-2.35
111,3.56,5.91,3.57,5.92,-5.92,-5.90,-2.36,-2.35,-2.35
112,3.54,5.89,3.56,5.90,-5.90,-5.89,-2.36,-2.35,-2.35
113,3.53,5.87,3.54,5.88,-5.88,-5.88,-2.35,-2.34,-2.34
114,3.52,5.86,3.53,5.87,-5.87,-5.86,-2.35,-2.34,-2.34
115,3.51,5.85,3.52,5.86,-5.86,-5.85,-2.34,-2.33,-2.33
117,3.51,5.84,3.52,5.85,-5.85,-5.82,-2.34,-2.33,-2.33
118,3.51,5.84,3.52,5.84,-5.84,-5.80,-2.33,-2.32,-2.32
119,3.51,5.83,3.52,5.84,-5.84,-5.79,-2.33,-2.32,-2.32
120,3.52,5.83,3.53,5.84,-5.84,-5.77,-2.32,-2.31,-2.31
121,3.53,5.83,3.53,5.84,-5.84,-5.76,-2.31,-2.30,-2.30
123,3.53,5.83,3.53,5.83,-5.83,-5.73,-2.29,-2.30,-2.30
124,3.54,5.83,3.52,5.81,-5.81,-5.71,-2.27,-2.29,-2.29
125,3.55,5.83,3.50,5.78,-5.78,-5.70,-2.23,-2.28,-2.28
126,3.55,5.83,3.47,5.75,-5.75,-5.68,-2.20,-2.28,-2.28
128,3.44,5.71,3.44,5.71,-5.71,-5.65,-2.26,-2.27,-2.27
129,3.33,5.59,3.41,5.67,-5.67,-5.64,-2.34,-2.26,-2.26
130,3.33,5.59,3.38,5.63,-5.63,-5.63,-2.30,-2.25,-2.25
131,3.33,5.58,3.36,5.60,-5.60,-5.61,-2.27,-2.24,-2.24
133,3.34,5.57,3.34,5.58,-5.58,-5.59,-2.24,-2.24,-2.24
134,3.33,5.56,3.33,5.56,-5.56,-5.57,-2.22,-2.23,-2.23
135,3.33,5.56,3.32,5.55,-5.55,-5.56,-2.21,-2.22,-2.22
137,3.33,5.55,3.32,5.54,-5.54,-5.53,-2.21,-2.22,-2.22
138,3.33,5.54,3.33,5.54,-5.54,-5.52,-2.20,-2.21,-2.21
140,3.33,5.54,3.33,5.54,-5.54,-5.50,-2.20,-2.21,-2.21
141,3.33,5.53,3.34,5.54,-5.54,-5.49,-2.21,-2.20,-2.20
142,3.33,5.53,3.34,5.54,-5.54,-5.48,-2.21,-2.20,-2.20
144,3.33,5.52,3.34,5.54,-5.54,-5.45,-2.21,-2.19,-2.19
145,3.33,5.52,3.34,5.53,-5.53,-5.44,-2.20,-2.19,-2.19
147,3.33,5.52,3.33,5.52,-5.52,-5.42,-2.19,-2.19,-2.19
148,3.33,5.52,3.32,5.50,-5.50,-5.41,-2.17,-2.18,-2.18
150,3.33,5.51,3.30,5.48,-5.48,-5.39,-2.15,-2.18,-2.18
151,3.33,5.51,3.27,5.45,-5.45,-5.39,-2.12,-2.18,-2.18
153,3.30,5.48,3.23,5.41,-5.41,-5.37,-2.11,-2.18,-2.18
154,3.13,5.31,3.19,5.37,-5.37,-5.36,-2.25,-2.18,-2.18
156,3.09,5.27,3.16,5.34,-5.34,-5.34,-2.25,-2.18,-2.18
157,3.09,5.27,3.13,5.31,-5.31,-5.33,-2.22,-2.18,-2.18
159,3.08,5.26,3.10,5.28,-5.28,-5.32,-2.20,-2.18,-2.18
160,3.08,5.26,3.08,5.26,-5.26,-5.31,-2.18,-2.18,-2.18
162,3.07,5.25,3.07,5.24,-5.24,-5.29,-2.17,-2.18,-2.18
164,3.06,5.24,3.05,5.22,-5.22,-5.27,-2.16,-2.18,-2.18
165,3.05,5.23,3.03,5.20,-5.20,-5.27,-2.15,-2.17,-2.17
167,3.04,5.22,3.00,5.17,-5.17,-5.25,-2.13,-2.17,-2.17
169,3.04,5.21,2.96,5.13,-5.13,-5.23,-2.10,-2.17,-2.17
170,2.97,5.14,2.92,5.09,-5.09,-5.22,-2.12,-2.17,-2.17
172,2.80,4.96,2.89,5.05,-5.05,-5.20,-2.25,-2.16,-2.16
174,2.80,4.95,2.85,5.01,-5.01,-5.19,-2.21,-2.16,-2.16
175,2.79,4.95,2.83,4.98,-4.98,-5.18,-2.19,-2.15,-2.15
177,2.79,4.94,2.81,4.96,-4.96,-5.16,-2.16,-2.15,-2.15
179,2.80,4.94,2.80,4.94,-4.94,-5.14,-2.15,-2.14,-2.14
181,2.80,4.93,2.80,4.94,-4.94,-5.12,-2.14,-2.13,-2.13
183,2.80,4.93,2.80,4.93,-4.93,-5.10,-2.13,-2.13,-2.13
184,2.81,4.93,2.80,4.92,-4.92,-5.08,-2.11,-2.12,-2.12
186,2.82,4.93,2.80,4.91,-4.91,-5.06,-2.09,-2.11,-2.11
188,2.83,4.93,2.79,4.89,-4.89,-5.04,-2.06,-2.10,-2.10
190,2.84,4.93,2.77,4.86,-4.86,-5.01,-2.02,-2.09,-2.09
192,2.77,4.86,2.74,4.82,-4.82,-4.98,-2.05,-2.08,-2.08
194,2.63,4.70,2.71,4.79,-4.79,-4.96,-2.16,-2.07,-2.07
196,2.63,4.70,2.69,4.75,-4.75,-4.93,-2.12,-2.07,-2.07
198,2.63,4.69,2.67,4.72,-4.72,-4.90,-2.09,-2.06,-2.06
200,2.63,4.68,2.65,4.70,-4.70,-4.86,-2.06,-2.05,-2.05
202,2.63,4.67,2.63,4.67,-4.67,-4.83,-2.04,-2.04,-2.04
204,2.63,4.66,2.61,4.64,-4.64,-4.80,-2.02,-2.03,-2.03
206,2.62,4.65,2.59,4.61,-4.61,-4.76,-1.99,-2.02,-2.02
208,2.62,4.64,2.56,4.58,-4.58,-4.73,-1.96,-2.02,-2.02
210,2.62,4.63,2.53,4.54,-4.54,-4.69,-1.92,-2.01,-2.01
212,2.44,4.44,2.50,4.50,-4.50,-4.65,-2.06,-2.00,-2.00
214,2.39,4.38,2.46,4.46,-4.46,-4.61,-2.07,-2.00,-2.00
216,2.38,4.37,2.43,4.42,-4.42,-4.57,-2.04,-1.99,-1.99
218,2.38,4.36,2.40,4.38,-4.38,-4.53,-2.00,-1.98,-1.98
221,2.37,4.35,2.36,4.34,-4.34,-4.47,-1.97,-1.98,-1.98
223,2.36,4.33,2.33,4.30,-4.30,-4.42,-1.94,-1.97,-1.97
225,2.35,4.32,2.30,4.26,-4.26,-4.38,-1.91,-1.96,-1.96
227,2.35,4.30,2.27,4.22,-4.22,-4.34,-1.87,-1.95,-1.95
229,2.19,4.13,2.23,4.17,-4.17,-4.29,-1.99,-1.95,-1.95
232,2.12,4.05,2.19,4.13,-4.13,-4.22,-2.01,-1.94,-1.94
234,2.12,4.04,2.15,4.08,-4.08,-4.18,-1.96,-1.93,-1.93
236,2.12,4.04,2.12,4.03,-4.03,-4.13,-1.91,-1.92,-1.92
239,2.12,4.03,2.08,3.99,-3.99,-4.06,-1.86,-1.91,-1.91
241,2.13,4.03,2.04,3.94,-3.94,-4.02,-1.81,-1.90,-1.90
244,1.91,3.80,2.01,3.90,-3.90,-3.95,-1.98,-1.89,-1.89
246,1.93,3.80,1.98,3.85,-3.85,-3.90,-1.92,-1.87,-1.87
248,1.95,3.81,1.94,3.81,-3.81,-3.85,-1.86,-1.86,-1.86
251,1.96,3.81,1.91,3.76,-3.76,-3.78,-1.80,-1.85,-1.85
253,1.93,3.77,1.86,3.70,-3.70,-3.74,-1.77,-1.84,-1.84
256,1.76,3.59,1.82,3.65,-3.65,-3.67,-1.89,-1.83,-1.83
259,1.76,3.58,1.77,3.59,-3.59,-3.60,-1.83,-1.82,-1.82
261,1.76,3.57,1.72,3.53,-3.53,-3.55,-1.76,-1.81,-1.81
264,1.73,3.53,1.67,3.47,-3.47,-3.49,-1.73,-1.80,-1.80
266,1.53,3.31,1.62,3.40,-3.40,-3.44,-1.88,-1.78,-1.78
269,1.51,3.29,1.57,3.34,-3.34,-3.38,-1.83,-1.77,-1.77
272,1.51,3.27,1.52,3.29,-3.29,-3.31,-1.78,-1.76,-1.76
274,1.50,3.26,1.48,3.23,-3.23,-3.27,-1.73,-1.75,-1.75
277,1.50,3.24,1.43,3.17,-3.17,-3.21,-1.68,-1.74,-1.74
280,1.50,3.23,1.39,3.12,-3.12,-3.15,-1.63,-1.74,-1.74
283,1.26,2.99,1.35,3.07,-3.07,-3.09,-1.81,-1.73,-1.73
286,1.26,2.98,1.31,3.03,-3.03,-3.03,-1.77,-1.72,-1.72
288,1.26,2.97,1.29,2.99,-2.99,-2.99,-1.74,-1.71,-1.71
291,1.25,2.95,1.26,2.97,-2.97,-2.93,-1.71,-1.70,-1.70
294,1.25,2.94,1.25,2.94,-2.94,-2.87,-1.70,-1.69,-1.69
297,1.24,2.92,1.24,2.93,-2.93,-2.82,-1.69,-1.68,-1.68
300,1.23,2.91,1.23,2.91,-2.91,-2.76,-1.68,-1.68,-1.68
303,1.22,2.89,1.22,2.89,-2.89,-2.71,-1.66,-1.67,-1.67
306,1.21,2.88,1.20,2.86,-2.86,-2.66,-1.65,-1.66,-1.66
309,1.21,2.86,1.17,2.83,-2.83,-2.61,-1.62,-1.65,-1.65
312,1.20,2.84,1.14,2.78,-2.78,-2.56,-1.59,-1.65,-1.65
316,1.19,2.83,1.09,2.73,-2.73,-2.50,-1.55,-1.64,-1.64
319,0.95,2.58,1.04,2.68,-2.68,-2.45,-1.73,-1.63,-1.63
322,0.93,2.56,1.00,2.62,-2.62,-2.41,-1.69,-1.63,-1.63
325,0.91,2.53,0.95,2.57,-2.57,-2.36,-1.66,-1.62,-1.62
328,0.89,2.51,0.91,2.52,-2.52,-2.32,-1.63,-1.61,-1.61
332,0.87,2.48,0.87,2.48,-2.48,-2.26,-1.61,-1.61,-1.61
335,0.84,2.44,0.83,2.44,-2.44,-2.22,-1.59,-1.60,-1.60
338,0.82,2.42,0.79,2.39,-2.39,-2.18,-1.57,-1.60,-1.60
342,0.80,2.39,0.75,2.34,-2.34,-2.13,-1.55,-1.59,-1.59
345,0.78,2.37,0.70,2.29,-2.29,-2.09,-1.51,-1.59,-1.59
349,0.68,2.27,0.65,2.24,-2.24,-2.04,-1.56,-1.58,-1.58
352,0.52,2.10,0.61,2.19,-2.19,-2.01,-1.67,-1.58,-1.58
356,0.51,2.09,0.56,2.14,-2.14,-1.96,-1.63,-1.58,-1.58
359,0.50,2.07,0.53,2.10,-2.10,-1.93,-1.61,-1.57,-1.57
363,0.48,2.06,0.50,2.07,-2.07,-1.89,-1.59,-1.57,-1.57
366,0.47,2.04,0.48,2.05,-2.05,-1.86,-1.58,-1.57,-1.57
370,0.46,2.03,0.46,2.03,-2.03,-1.81,-1.56,-1.57,-1.57
374,0.46,2.02,0.44,2.01,-2.01,-1.78,-1.55,-1.56,-1.56
377,0.45,2.01,0.42,1.98,-1.98,-1.75,-1.52,-1.56,-1.56
381,0.45,2.01,0.39,1.94,-1.94,-1.71,-1.49,-1.56,-1.56
385,0.45,2.00,0.35,1.90,-1.90,-1.67,-1.46,-1.55,-1.55
389,0.24,1.79,0.31,1.86,-1.86,-1.64,-1.62,-1.55,-1.55
393,0.21,1.75,0.27,1.81,-1.81,-1.60,-1.61,-1.54,-1.54
397,0.20,1.73,0.24,1.77,-1.77,-1.57,-1.57,-1.53,-1.53
401,0.18,1.71,0.21,1.73,-1.73,-1.54,-1.54,-1.52,-1.52
405,0.17,1.68,0.18,1.69,-1.69,-1.51,-1.51,-1.51,-1.51
409,0.16,1.66,0.15,1.65,-1.65,-1.48,-1.49,-1.50,-1.50
413,0.15,1.63,0.13,1.60,-1.60,-1.45,-1.45,-1.48,-1.48
417,0.14,1.60,0.10,1.56,-1.56,-1.42,-1.41,-1.46,-1.46
421,0.14,1.58,0.07,1.51,-1.51,-1.39,-1.37,-1.44,-1.44
425,0.11,1.52,0.05,1.46,-1.46,-1.37,-1.34,-1.41,-1.41
430,-0.08,1.30,0.03,1.41,-1.41,-1.34,-1.49,-1.38,-1.38
434,-0.06,1.29,0.02,1.36,-1.36,-1.31,-1.42,-1.35,-1.35
438,-0.04,1.28,0.01,1.33,-1.33,-1.29,-1.36,-1.31,-1.32
443,-0.00,1.28,0.02,1.30,-1.30,-1.26,-1.30,-1.28,-1.28
447,0.04,1.28,0.03,1.27,-1.27,-1.24,-1.23,-1.24,-1.24
451,0.08,1.28,0.05,1.25,-1.25,-1.21,-1.17,-1.20,-1.20
456,0.13,1.29,0.07,1.23,-1.23,-1.19,-1.10,-1.16,-1.16
460,0.18,1.29,0.09,1.21,-1.21,-1.17,-1.03,-1.12,-1.12
465,0.11,1.19,0.10,1.18,-1.18,-1.14,-1.07,-1.08,-1.08
470,0.05,1.08,0.12,1.16,-1.16,-1.12,-1.11,-1.04,-1.04
474,0.09,1.09,0.14,1.13,-1.13,-1.10,-1.04,-1.00,-1.00
479,0.14,1.09,0.15,1.11,-1.11,-1.08,-0.98,-0.96,-0.96
484,0.17,1.10,0.18,1.10,-1.10,-1.05,-0.93,-0.93,-0.92
489,0.20,1.10,0.20,1.09,-1.09,-1.03,-0.89,-0.89,-0.89
494,0.23,1.09,0.22,1.09,-1.09,-1.01,-0.86,-0.87,-0.87
499,0.24,1.08,0.24,1.09,-1.09,-0.99,-0.84,-0.84,-0.84
504,0.25,1.07,0.26,1.08,-1.08,-0.97,-0.83,-0.82,-0.82
509,0.25,1.06,0.26,1.07,-1.07,-0.96,-0.81,-0.81,-0.81
514,0.25,1.05,0.24,1.04,-1.04,-0.94,-0.79,-0.80,-0.80
519,0.24,1.03,0.21,1.00,-1.00,-0.92,-0.76,-0.79,-0.79
524,0.22,1.01,0.16,0.95,-0.95,-0.90,-0.73,-0.79,-0.79
529,0.19,0.98,0.10,0.89,-0.89,-0.89,-0.70,-0.79,-0.79
535,-0.01,0.79,0.02,0.82,-0.82,-0.87,-0.82,-0.79,-0.79
540,-0.13,0.67,-0.06,0.74,-0.74,-0.85,-0.87,-0.80,-0.80
545,-0.19,0.63,-0.15,0.66,-0.66,-0.84,-0.85,-0.81,-0.81
551,-0.25,0.57,-0.23,0.59,-0.59,-0.82,-0.84,-0.82,-0.82
556,-0.32,0.52,-0.31,0.52,-0.52,-0.81,-0.83,-0.83,-0.83
562,-0.38,0.46,-0.38,0.46,-0.46,-0.79,-0.84,-0.84,-0.84
568,-0.44,0.41,-0.45,0.41,-0.41,-0.78,-0.85,-0.85,-0.85
573,-0.50,0.37,-0.50,0.36,-0.36,-0.77,-0.86,-0.86,-0.86
579,-0.54,0.32,-0.54,0.32,-0.32,-0.75,-0.87,-0.87,-0.87
585,-0.58,0.29,-0.58,0.29,-0.29,-0.74,-0.87,-0.87,-0.87
591,-0.61,0.26,-0.61,0.26,-0.26,-0.72,-0.87,-0.87,-0.87
596,-0.63,0.23,-0.63,0.24,-0.24,-0.71,-0.87,-0.87,-0.87
602,-0.65,0.21,-0.64,0.21,-0.21,-0.70,-0.86,-0.86,-0.86
608,-0.65,0.20,-0.65,0.19,-0.19,-0.69,-0.85,-0.85,-0.85
615,-0.65,0.18,-0.65,0.18,-0.18,-0.67,-0.83,-0.83,-0.83
621,-0.65,0.17,-0.65,0.16,-0.16,-0.66,-0.81,-0.81,-0.81
627,-0.63,0.16,-0.64,0.15,-0.15,-0.65,-0.79,-0.79,-0.79
633,-0.62,0.15,-0.62,0.14,-0.14,-0.64,-0.76,-0.76,-0.76
639,-0.60,0.14,-0.60,0.14,-0.14,-0.63,-0.74,-0.74,-0.74
646,-0.57,0.13,-0.57,0.14,-0.14,-0.62,-0.71,-0.71,-0.71
652,-0.54,0.13,-0.53,0.14,-0.14,-0.61,-0.68,-0.67,-0.67
659,-0.51,0.13,-0.50,0.14,-0.14,-0.60,-0.65,-0.64,-0.64
665,-0.46,0.14,-0.46,0.15,-0.15,-0.59,-0.61,-0.61,-0.60
672,-0.42,0.15,-0.41,0.16,-0.16,-0.58,-0.57,-0.57,-0.57
679,-0.37,0.16,-0.37,0.16,-0.16,-0.57,-0.53,-0.54,-0.54
686,-0.33,0.17,-0.34,0.17,-0.17,-0.57,-0.50,-0.50,-0.50
692,-0.30,0.17,-0.31,0.16,-0.16,-0.56,-0.46,-0.47,-0.47
699,-0.28,0.16,-0.29,0.15,-0.15,-0.55,-0.43,-0.44,-0.44
706,-0.27,0.14,-0.28,0.13,-0.13,-0.54,-0.40,-0.41,-0.41
713,-0.27,0.11,-0.28,0.10,-0.10,-0.53,-0.37,-0.39,-0.39
721,-0.29,0.07,-0.30,0.06,-0.06,-0.53,-0.35,-0.36,-0.36
728,-0.32,0.02,-0.32,0.02,-0.02,-0.52,-0.34,-0.34,-0.34
735,-0.35,-0.03,-0.35,-0.03,0.03,-0.51,-0.32,-0.32,-0.32
742,-0.38,-0.08,-0.38,-0.08,0.08,-0.51,-0.30,-0.30,-0.30
750,-0.42,-0.13,-0.42,-0.13,0.13,-0.50,-0.29,-0.29,-0.29
757,-0.45,-0.18,-0.45,-0.18,0.18,-0.49,-0.27,-0.27,-0.27
765,-0.48,-0.22,-0.48,-0.22,0.22,-0.49,-0.26,-0.26,-0.26
773,-0.50,-0.26,-0.50,-0.26,0.26,-0.48,-0.25,-0.25,-0.25
780,-0.52,-0.28,-0.51,-0.28,0.28,-0.48,-0.24,-0.24,-0.24
788,-0.52,-0.30,-0.51,-0.28,0.28,-0.47,-0.24,-0.23,-0.23
796,-0.53,-0.31,-0.49,-0.27,0.27,-0.47,-0.25,-0.22,-0.22
804,-0.52,-0.31,-0.47,-0.25,0.25,-0.46,-0.27,-0.21,-0.21
812,-0.52,-0.32,-0.43,-0.22,0.22,-0.46,-0.30,-0.20,-0.20
820,-0.29,-0.09,-0.39,-0.19,0.19,-0.45,-0.10,-0.20,-0.20
828,-0.28,-0.09,-0.34,-0.15,0.15,-0.45,-0.13,-0.19,-0.19
837,-0.28,-0.09,-0.31,-0.12,0.12,-0.45,-0.15,-0.18,-0.18
845,-0.27,-0.09,-0.27,-0.10,0.10,-0.44,-0.17,-0.18,-0.18
853,-0.25,-0.08,-0.25,-0.08,0.08,-0.44,-0.17,-0.17,-0.17
862,-0.24,-0.08,-0.23,-0.07,0.07,-0.44,-0.17,-0.16,-0.16
871,-0.23,-0.08,-0.23,-0.07,0.07,-0.43,-0.16,-0.15,-0.15
879,-0.22,-0.08,-0.23,-0.08,0.08,-0.43,-0.15,-0.15,-0.15
888,-0.22,-0.08,-0.23,-0.09,0.09,-0.43,-0.13,-0.14,-0.14
897,-0.22,-0.09,-0.23,-0.10,0.10,-0.43,-0.12,-0.13,-0.13
906,-0.22,-0.10,-0.23,-0.11,0.11,-0.43,-0.11,-0.12,-0.12
915,-0.22,-0.11,-0.22,-0.11,0.11,-0.42,-0.11,-0.11,-0.11
924,-0.22,-0.12,-0.21,-0.10,0.10,-0.42,-0.12,-0.10,-0.10
933,-0.23,-0.13,-0.19,-0.09,0.09,-0.42,-0.13,-0.09,-0.09
943,-0.23,-0.15,-0.16,-0.08,0.08,-0.42,-0.15,-0.08,-0.08
952,-0.17,-0.10,-0.13,-0.06,0.06,-0.42,-0.11,-0.07,-0.07
962,-0.01,0.05,-0.10,-0.04,0.04,-0.42,0.04,-0.05,-0.05
971,-0.01,0.03,-0.07,-0.03,0.03,-0.42,0.02,-0.04,-0.04
981,-0.01,0.02,-0.04,-0.02,0.02,-0.42,0.01,-0.02,-0.02
991,-0.01,0.00,-0.02,-0.01,0.01,-0.42,0.00,-0.01,-0.01
1001,0.00,-0.01,0.01,-0.01,0.01,-0.42,0.01,0.01,0.01
1011,0.01,-0.02,0.03,-0.00,0.00,-0.43,0.01,0.03,0.03
1021,0.02,-0.03,0.06,0.00,-0.00,-0.43,0.02,0.06,0.05
1031,0.04,-0.04,0.09,0.01,-0.01,-0.43,0.03,0.08,0.08
1041,0.05,-0.05,0.13,0.03,-0.03,-0.43,0.03,0.10,0.10
1052,0.25,0.12,0.18,0.04,-0.04,-0.44,0.21,0.13,0.13
1062,0.30,0.14,0.22,0.06,-0.06,-0.44,0.24,0.16,0.16
1073,0.31,0.12,0.28,0.08,-0.08,-0.44,0.22,0.19,0.19
1084,0.32,0.10,0.33,0.11,-0.11,-0.45,0.21,0.22,0.22
1094,0.33,0.07,0.38,0.13,-0.13,-0.45,0.20,0.25,0.25
1105,0.34,0.06,0.43,0.14,-0.14,-0.46,0.20,0.29,0.29
1116,0.50,0.18,0.48,0.16,-0.16,-0.46,0.34,0.32,0.32
1128,0.61,0.25,0.53,0.18,-0.18,-0.47,0.43,0.36,0.36
1139,0.62,0.23,0.58,0.19,-0.19,-0.48,0.43,0.39,0.39
1150,0.64,0.22,0.63,0.21,-0.21,-0.48,0.43,0.42,0.42
1162,0.65,0.20,0.68,0.22,-0.22,-0.49,0.43,0.46,0.46
1173,0.66,0.17,0.73,0.24,-0.24,-0.50,0.42,0.49,0.49
1185,0.79,0.27,0.78,0.26,-0.26,-0.51,0.53,0.52,0.52
1197,0.89,0.34,0.83,0.28,-0.28,-0.52,0.61,0.55,0.55
1209,0.89,0.32,0.88,0.31,-0.31,-0.53,0.58,0.57,0.57
1221,0.90,0.30,0.94,0.34,-0.34,-0.54,0.55,0.60,0.60
1233,0.94,0.32,1.00,0.38,-0.38,-0.56,0.55,0.62,0.62
1246,1.14,0.50,1.06,0.43,-0.43,-0.57,0.71,0.64,0.64
1258,1.15,0.50,1.13,0.47,-0.47,-0.58,0.68,0.65,0.65
1271,1.16,0.50,1.19,0.52,-0.52,-0.60,0.64,0.67,0.67
1283,1.17,0.50,1.25,0.57,-0.57,-0.62,0.60,0.68,0.68
1296,1.39,0.71,1.31,0.63,-0.63,-0.63,0.76,0.68,0.68
1309,1.42,0.73,1.36,0.68,-0.68,-0.65,0.74,0.69,0.69
1322,1.43,0.75,1.42,0.73,-0.73,-0.67,0.70,0.69,0.69
1335,1.45,0.76,1.48,0.79,-0.79,-0.69,0.65,0.68,0.68
1349,1.46,0.78,1.54,0.86,-0.86,-0.72,0.60,0.68,0.68
1362,1.61,0.94,1.60,0.93,-0.93,-0.74,0.69,0.67,0.67
1376,1.70,1.03,1.67,1.00,-1.00,-0.77,0.70,0.67,0.67
1390,1.70,1.05,1.75,1.09,-1.09,-0.80,0.61,0.66,0.66
1404,1.93,1.28,1.84,1.19,-1.19,-0.83,0.74,0.65,0.65
1418,1.93,1.29,1.93,1.29,-1.29,-0.86,0.63,0.64,0.64
1432,1.93,1.29,2.04,1.41,-1.41,-0.89,0.52,0.63,0.63
1446,2.05,1.43,2.15,1.52,-1.52,-0.93,0.53,0.63,0.63
1461,2.32,1.70,2.26,1.64,-1.64,-0.97,0.69,0.62,0.62
1475,2.38,1.77,2.36,1.75,-1.75,-1.01,0.63,0.62,0.62
1490,2.61,1.99,2.47,1.85,-1.85,-1.05,0.76,0.62,0.61
1505,2.61,1.99,2.56,1.95,-1.95,-1.10,0.66,0.62,0.62
1520,2.61,1.98,2.66,2.04,-2.04,-1.16,0.57,0.62,0.62
1535,2.71,2.08,2.75,2.12,-2.12,-1.21,0.59,0.63,0.63
1550,2.84,2.19,2.84,2.19,-2.19,-1.27,0.64,0.65,0.65
1566,2.85,2.18,2.94,2.27,-2.27,-1.34,0.58,0.67,0.67
1582,3.08,2.39,3.03,2.34,-2.34,-1.41,0.74,0.69,0.69
1597,3.12,2.40,3.14,2.42,-2.42,-1.48,0.70,0.72,0.72
1613,3.36,2.61,3.25,2.50,-2.50,-1.56,0.87,0.76,0.75
1629,3.39,2.59,3.37,2.58,-2.58,-1.65,0.81,0.80,0.79
1646,3.40,2.56,3.50,2.66,-2.66,-1.75,0.74,0.84,0.84
1662,3.56,2.67,3.64,2.74,-2.74,-1.84,0.82,0.89,0.89
1679,3.84,2.89,3.78,2.83,-2.83,-1.96,1.01,0.95,0.95
1696,3.90,2.89,3.93,2.92,-2.92,-2.07,0.98,1.01,1.01
1713,4.14,3.06,4.08,3.01,-3.01,-2.20,1.14,1.08,1.08
1730,4.22,3.07,4.24,3.09,-3.09,-2.33,1.13,1.15,1.15
