frequency,raw,error,smoothed,error_smoothed,equalization,parametric_eq,equalized_raw,equalized_smoothed,target
20,-4.63,-5.04,-4.44,-4.85,4.85,-0.37,0.22,0.41,0.41
21,-3.60,-4.01,-3.68,-4.09,4.09,-0.42,0.49,0.41,0.41
22,-2.91,-3.32,-2.95,-3.36,3.36,-0.47,0.45,0.41,0.41
23,-2.13,-2.54,-2.27,-2.67,2.67,-0.52,0.55,0.41,0.41
24,-1.60,-2.01,-1.62,-2.03,2.03,-0.58,0.43,0.41,0.41
25,-0.98,-1.39,-1.01,-1.42,1.42,-0.65,0.44,0.41,0.41
26,-0.37,-0.78,-0.43,-0.84,0.84,-0.72,0.47,0.41,0.41
27,0.20,-0.21,0.10,-0.31,0.31,-0.79,0.51,0.41,0.41
28,0.62,0.21,0.59,0.18,-0.18,-0.87,0.44,0.41,0.41
29,1.02,0.61,1.05,0.64,-0.64,-0.95,0.38,0.41,0.41
30,1.53,1.12,1.47,1.07,-1.07,-1.04,0.47,0.41,0.41
31,1.77,1.36,1.86,1.45,-1.45,-1.13,0.32,0.41,0.41
32,2.18,1.77,2.22,1.81,-1.81,-1.23,0.37,0.41,0.41
33,2.48,2.07,2.55,2.14,-2.14,-1.33,0.34,0.41,0.41
34,2.82,2.41,2.86,2.45,-2.45,-1.43,0.37,0.41,0.41
35,3.14,2.73,3.13,2.73,-2.73,-1.55,0.42,0.41,0.41
36,3.45,3.04,3.39,2.98,-2.98,-1.67,0.47,0.41,0.41
37,3.61,3.20,3.62,3.21,-3.21,-1.79,0.40,0.41,0.41
38,3.80,3.39,3.83,3.42,-3.42,-1.92,0.38,0.41,0.41
39,4.04,3.63,4.01,3.61,-3.61,-2.06,0.44,0.41,0.41
40,4.12,3.71,4.18,3.77,-3.77,-2.21,0.35,0.41,0.41
41,4.44,4.03,4.32,3.92,-3.92,-2.37,0.53,0.41,0.41
42,4.45,4.04,4.45,4.04,-4.04,-2.53,0.41,0.41,0.41
43,4.50,4.09,4.56,4.15,-4.15,-2.71,0.36,0.41,0.41
44,4.76,4.35,4.65,4.24,-4.24,-2.89,0.52,0.41,0.41
45,4.77,4.36,4.72,4.31,-4.31,-3.07,0.46,0.41,0.41
46,4.77,4.36,4.79,4.38,-4.38,-3.27,0.40,0.41,0.41
47,4.77,4.36,4.84,4.43,-4.43,-3.47,0.34,0.41,0.41
48,4.77,4.36,4.88,4.48,-4.48,-3.67,0.30,0.41,0.41
49,4.93,4.52,4.92,4.52,-4.52,-3.88,0.42,0.41,0.41
50,4.93,4.52,4.96,4.55,-4.55,-4.09,0.38,0.41,0.41
51,4.96,4.55,4.99,4.59,-4.59,-4.30,0.38,0.41,0.41
52,5.10,4.69,5.03,4.62,-4.62,-4.50,0.48,0.41,0.41
53,5.10,4.69,5.06,4.65,-4.65,-4.71,0.45,0.41,0.41
54,5.10,4.69,5.10,4.69,-4.69,-4.90,0.41,0.41,0.41
55,5.10,4.69,5.13,4.72,-4.72,-5.08,0.38,0.41,0.41
56,5.10,4.69,5.17,4.76,-4.76,-5.25,0.34,0.41,0.41
57,5.10,4.69,5.21,4.80,-4.80,-5.41,0.30,0.41,0.41
58,5.12,4.71,5.24,4.84,-4.84,-5.54,0.29,0.41,0.41
59,5.31,4.90,5.28,4.87,-4.87,-5.65,0.44,0.41,0.41
60,5.42,5.01,5.31,4.90,-4.90,-5.75,0.52,0.41,0.41
61,5.42,5.01,5.34,4.94,-4.94,-5.81,0.49,0.41,0.41
62,5.42,5.01,5.37,4.96,-4.96,-5.86,0.46,0.41,0.41
63,5.42,5.01,5.39,4.99,-4.99,-5.88,0.44,0.41,0.41
64,5.42,5.01,5.41,5.00,-5.00,-5.88,0.42,0.41,0.41
65,5.42,5.01,5.43,5.02,-5.02,-5.86,0.40,0.41,0.41
66,5.42,5.01,5.44,5.03,-5.03,-5.82,0.39,0.41,0.41
67,5.42,5.01,5.45,5.04,-5.04,-5.77,0.39,0.41,0.41
68,5.42,5.01,5.45,5.04,-5.04,-5.70,0.38,0.41,0.41
69,5.42,5.01,5.45,5.04,-5.04,-5.63,0.38,0.41,0.41
70,5.42,5.01,5.45,5.04,-5.04,-5.54,0.38,0.41,0.41
71,5.42,5.01,5.44,5.03,-5.03,-5.45,0.39,0.41,0.41
72,5.42,5.01,5.43,5.02,-5.02,-5.36,0.40,0.41,0.41
73,5.42,5.01,5.42,5.01,-5.01,-5.26,0.41,0.41,0.41
74,5.42,5.01,5.40,4.99,-4.99,-5.16,0.43,0.41,0.41
75,5.42,5.01,5.38,4.97,-4.97,-5.06,0.45,0.41,0.41
76,5.42,5.01,5.36,4.95,-4.95,-4.97,0.48,0.41,0.41
77,5.42,5.01,5.33,4.92,-4.92,-4.88,0.50,0.41,0.41
78,5.30,4.89,5.30,4.89,-4.89,-4.79,0.41,0.41,0.41
79,5.26,4.85,5.27,4.86,-4.86,-4.70,0.40,0.41,0.41
80,5.17,4.76,5.24,4.83,-4.83,-4.62,0.34,0.41,0.41
81,5.10,4.69,5.20,4.80,-4.80,-4.54,0.31,0.41,0.41
82,5.10,4.69,5.17,4.76,-4.76,-4.47,0.34,0.41,0.41
83,5.10,4.69,5.14,4.73,-4.73,-4.41,0.37,0.41,0.41
84,5.10,4.69,5.11,4.70,-4.70,-4.35,0.40,0.41,0.41
85,5.10,4.69,5.08,4.67,-4.67,-4.29,0.44,0.41,0.41
86,5.10,4.69,5.04,4.64,-4.64,-4.24,0.47,0.41,0.41
87,5.10,4.69,5.01,4.60,-4.60,-4.19,0.50,0.41,0.41
88,5.07,4.66,4.98,4.57,-4.57,-4.15,0.50,0.41,0.41
89,4.94,4.53,4.95,4.54,-4.54,-4.11,0.40,0.41,0.41
90,4.93,4.52,4.92,4.51,-4.51,-4.08,0.42,0.41,0.41
91,4.85,4.44,4.90,4.49,-4.49,-4.05,0.37,0.41,0.41
92,4.77,4.36,4.87,4.46,-4.46,-4.03,0.31,0.41,0.41
93,4.77,4.36,4.84,4.43,-4.43,-4.01,0.34,0.41,0.41
94,4.77,4.36,4.82,4.41,-4.41,-3.99,0.37,0.41,0.41
95,4.77,4.36,4.79,4.38,-4.38,-3.98,0.39,0.41,0.41
96,4.77,4.36,4.77,4.36,-4.36,-3.97,0.42,0.41,0.41
97,4.77,4.36,4.74,4.33,-4.33,-3.96,0.44,0.41,0.41
98,4.77,4.36,4.72,4.31,-4.31,-3.96,0.47,0.41,0.41
99,4.77,4.36,4.69,4.28,-4.28,-3.96,0.49,0.41,0.41
100,4.76,4.35,4.66,4.25,-4.25,-3.96,0.51,0.41,0.41
101,4.65,4.24,4.63,4.23,-4.23,-3.96,0.43,0.41,0.41
102,4.61,4.20,4.61,4.20,-4.20,-3.97,0.42,0.41,0.41
104,4.48,4.07,4.58,4.17,-4.17,-3.98,0.31,0.41,0.41
105,4.45,4.04,4.55,4.14,-4.14,-3.99,0.31,0.41,0.41
106,4.45,4.04,4.52,4.11,-4.11,-4.00,0.34,0.41,0.41
107,4.45,4.04,4.49,4.08,-4.08,-4.01,0.37,0.41,0.41
108,4.45,4.04,4.46,4.05,-4.05,-4.02,0.40,0.41,0.41
109,4.45,4.04,4.43,4.02,-4.02,-4.03,0.43,0.41,0.41
110,4.45,4.04,4.40,3.99,-3.99,-4.03,0.46,0.41,0.41
111,4.45,4.04,4.37,3.96,-3.96,-4.04,0.49,0.41,0.41
112,4.45,4.04,4.34,3.93,-3.93,-4.05,0.52,0.41,0.41
113,4.35,3.94,4.31,3.90,-3.90,-4.06,0.45,0.41,0.41
114,4.25,3.84,4.28,3.87,-3.87,-4.06,0.38,0.41,0.41
115,4.16,3.75,4.25,3.84,-3.84,-4.06,0.32,0.41,0.41
117,4.12,3.71,4.21,3.81,-3.81,-4.06,0.32,0.41,0.41
118,4.12,3.71,4.18,3.77,-3.77,-4.06,0.35,0.41,0.41
119,4.12,3.71,4.15,3.74,-3.74,-4.05,0.38,0.41,0.41
120,4.12,3.71,4.12,3.71,-3.71,-4.05,0.41,0.41,0.41
121,4.12,3.71,4.09,3.68,-3.68,-4.04,0.44,0.41,0.41
123,4.12,3.71,4.06,3.65,-3.65,-4.01,0.47,0.41,0.41
124,4.12,3.71,4.03,3.62,-3.62,-3.99,0.50,0.41,0.41
125,4.02,3.61,4.00,3.59,-3.59,-3.97,0.43,0.41,0.41
126,3.96,3.55,3.97,3.56,-3.56,-3.95,0.40,0.41,0.41
128,3.92,3.51,3.94,3.53,-3.53,-3.90,0.39,0.41,0.41
129,3.83,3.42,3.90,3.50,-3.50,-3.87,0.34,0.41,0.41
130,3.80,3.39,3.87,3.46,-3.46,-3.84,0.34,0.41,0.41
131,3.80,3.39,3.84,3.43,-3.43,-3.81,0.37,0.41,0.41
133,3.80,3.39,3.80,3.39,-3.39,-3.73,0.41,0.41,0.41
134,3.80,3.39,3.77,3.36,-3.36,-3.69,0.44,0.41,0.41
135,3.80,3.39,3.73,3.32,-3.32,-3.66,0.48,0.41,0.41
137,3.80,3.39,3.69,3.28,-3.28,-3.57,0.52,0.41,0.41
138,3.72,3.31,3.66,3.25,-3.25,-3.53,0.47,0.41,0.41
140,3.56,3.15,3.62,3.21,-3.21,-3.44,0.35,0.41,0.41
141,3.48,3.07,3.58,3.18,-3.18,-3.39,0.31,0.41,0.41
142,3.47,3.06,3.55,3.14,-3.14,-3.35,0.33,0.41,0.41
144,3.47,3.06,3.51,3.11,-3.11,-3.25,0.37,0.41,0.41
145,3.47,3.06,3.48,3.07,-3.07,-3.21,0.40,0.41,0.41
147,3.47,3.06,3.45,3.04,-3.04,-3.11,0.44,0.41,0.41
148,3.47,3.06,3.41,3.00,-3.00,-3.06,0.47,0.41,0.41
150,3.43,3.02,3.38,2.97,-2.97,-2.97,0.46,0.41,0.41
151,3.35,2.94,3.34,2.93,-2.93,-2.92,0.42,0.41,0.41
153,3.31,2.90,3.31,2.90,-2.90,-2.83,0.41,0.41,0.41
154,3.29,2.88,3.27,2.86,-2.86,-2.78,0.43,0.41,0.41
156,3.15,2.74,3.23,2.83,-2.83,-2.69,0.33,0.41,0.41
157,3.15,2.74,3.20,2.79,-2.79,-2.65,0.36,0.41,0.41
159,3.15,2.74,3.16,2.75,-2.75,-2.57,0.40,0.41,0.41
160,3.15,2.74,3.12,2.71,-2.71,-2.52,0.44,0.41,0.41
162,3.15,2.74,3.08,2.67,-2.67,-2.44,0.49,0.41,0.41
164,3.07,2.66,3.03,2.62,-2.62,-2.36,0.45,0.41,0.41
165,3.00,2.59,2.99,2.58,-2.58,-2.32,0.42,0.41,0.41
167,2.86,2.45,2.95,2.54,-2.54,-2.25,0.32,0.41,0.41
169,2.83,2.42,2.90,2.49,-2.49,-2.18,0.34,0.41,0.41
170,2.83,2.42,2.86,2.45,-2.45,-2.14,0.38,0.41,0.41
172,2.83,2.42,2.81,2.40,-2.40,-2.07,0.43,0.41,0.41
174,2.83,2.42,2.77,2.36,-2.36,-2.01,0.47,0.41,0.41
175,2.82,2.41,2.72,2.31,-2.31,-1.97,0.51,0.41,0.41
177,2.69,2.28,2.68,2.27,-2.27,-1.91,0.42,0.41,0.41
179,2.56,2.15,2.63,2.22,-2.22,-1.85,0.34,0.41,0.41
181,2.50,2.09,2.59,2.18,-2.18,-1.80,0.32,0.41,0.41
183,2.50,2.09,2.54,2.13,-2.13,-1.74,0.37,0.41,0.41
184,2.50,2.09,2.50,2.09,-2.09,-1.72,0.42,0.41,0.41
186,2.50,2.09,2.45,2.04,-2.04,-1.67,0.46,0.41,0.41
188,2.50,2.09,2.40,2.00,-2.00,-1.62,0.51,0.41,0.41
190,2.38,1.97,2.36,1.95,-1.95,-1.57,0.43,0.41,0.41
192,2.26,1.85,2.31,1.90,-1.90,-1.53,0.36,0.41,0.41
194,2.18,1.77,2.27,1.86,-1.86,-1.48,0.32,0.41,0.41
196,2.18,1.77,2.22,1.81,-1.81,-1.44,0.37,0.41,0.41
198,2.18,1.77,2.18,1.77,-1.77,-1.40,0.41,0.41,0.41
200,2.18,1.77,2.13,1.72,-1.72,-1.36,0.46,0.41,0.41
202,2.17,1.76,2.09,1.68,-1.68,-1.33,0.49,0.41,0.41
204,2.06,1.65,2.04,1.63,-1.63,-1.29,0.43,0.41,0.41
206,1.95,1.54,1.99,1.59,-1.59,-1.26,0.37,0.41,0.41
208,1.85,1.44,1.95,1.54,-1.54,-1.23,0.31,0.41,0.41
210,1.85,1.44,1.90,1.49,-1.49,-1.20,0.36,0.41,0.41
212,1.85,1.44,1.85,1.44,-1.44,-1.17,0.41,0.41,0.41
214,1.85,1.44,1.80,1.39,-1.39,-1.14,0.47,0.41,0.41
216,1.85,1.44,1.74,1.33,-1.33,-1.11,0.52,0.41,0.41
218,1.74,1.33,1.69,1.28,-1.28,-1.08,0.46,0.41,0.41
221,1.53,1.12,1.63,1.22,-1.22,-1.05,0.31,0.41,0.41
223,1.53,1.12,1.57,1.16,-1.16,-1.02,0.37,0.41,0.41
225,1.53,1.12,1.51,1.10,-1.10,-1.00,0.43,0.41,0.41
227,1.50,1.09,1.45,1.04,-1.04,-0.98,0.46,0.41,0.41
229,1.40,0.99,1.39,0.98,-0.98,-0.95,0.42,0.41,0.41
232,1.26,0.85,1.33,0.92,-0.92,-0.92,0.34,0.41,0.41
234,1.20,0.79,1.27,0.86,-0.86,-0.90,0.34,0.41,0.41
236,1.20,0.79,1.21,0.80,-0.80,-0.88,0.41,0.41,0.41
239,1.20,0.79,1.14,0.74,-0.74,-0.85,0.47,0.41,0.41
241,1.15,0.74,1.08,0.67,-0.67,-0.84,0.48,0.41,0.41
244,1.01,0.60,1.02,0.61,-0.61,-0.81,0.40,0.41,0.41
246,0.92,0.51,0.96,0.55,-0.55,-0.79,0.37,0.41,0.41
248,0.88,0.47,0.90,0.50,-0.50,-0.78,0.39,0.41,0.41
251,0.88,0.47,0.85,0.44,-0.44,-0.75,0.44,0.41,0.41
253,0.88,0.47,0.80,0.39,-0.39,-0.74,0.49,0.41,0.41
256,0.79,0.38,0.75,0.34,-0.34,-0.71,0.45,0.41,0.41
259,0.66,0.25,0.70,0.29,-0.29,-0.69,0.37,0.41,0.41
261,0.58,0.17,0.66,0.25,-0.25,-0.68,0.33,0.41,0.41
264,0.56,0.15,0.63,0.22,-0.22,-0.66,0.34,0.41,0.41
266,0.56,0.15,0.60,0.19,-0.19,-0.64,0.37,0.41,0.41
269,0.56,0.15,0.58,0.17,-0.17,-0.63,0.39,0.41,0.41
272,0.56,0.15,0.56,0.15,-0.15,-0.61,0.41,0.41,0.41
274,0.56,0.15,0.55,0.14,-0.14,-0.59,0.42,0.41,0.41
277,0.56,0.15,0.54,0.13,-0.13,-0.58,0.43,0.41,0.41
280,0.56,0.15,0.54,0.13,-0.13,-0.56,0.44,0.41,0.41
283,0.56,0.15,0.53,0.12,-0.12,-0.54,0.44,0.41,0.41
286,0.56,0.15,0.53,0.12,-0.12,-0.53,0.44,0.41,0.41
288,0.56,0.15,0.54,0.13,-0.13,-0.52,0.43,0.41,0.41
291,0.56,0.15,0.54,0.13,-0.13,-0.50,0.43,0.41,0.41
294,0.56,0.15,0.55,0.14,-0.14,-0.49,0.42,0.41,0.41
297,0.56,0.15,0.57,0.16,-0.16,-0.47,0.41,0.41,0.41
300,0.56,0.15,0.58,0.17,-0.17,-0.46,0.39,0.41,0.41
303,0.56,0.15,0.61,0.20,-0.20,-0.44,0.37,0.41,0.41
306,0.56,0.15,0.63,0.22,-0.22,-0.43,0.34,0.41,0.41
309,0.56,0.15,0.66,0.25,-0.25,-0.42,0.31,0.41,0.41
312,0.60,0.19,0.69,0.28,-0.28,-0.41,0.32,0.41,0.41
316,0.75,0.34,0.73,0.32,-0.32,-0.39,0.43,0.41,0.41
319,0.85,0.44,0.76,0.35,-0.35,-0.38,0.50,0.41,0.41
322,0.88,0.47,0.79,0.38,-0.38,-0.37,0.50,0.41,0.41
325,0.88,0.47,0.82,0.41,-0.41,-0.36,0.47,0.41,0.41
328,0.88,0.47,0.85,0.44,-0.44,-0.34,0.45,0.41,0.41
332,0.88,0.47,0.86,0.46,-0.46,-0.33,0.43,0.41,0.41
335,0.88,0.47,0.88,0.47,-0.47,-0.32,0.41,0.41,0.41
338,0.88,0.47,0.89,0.48,-0.48,-0.31,0.40,0.41,0.41
342,0.88,0.47,0.89,0.49,-0.49,-0.30,0.40,0.41,0.41
345,0.88,0.47,0.90,0.49,-0.49,-0.29,0.39,0.41,0.41
349,0.88,0.47,0.90,0.49,-0.49,-0.28,0.39,0.41,0.41
352,0.88,0.47,0.89,0.49,-0.49,-0.27,0.40,0.41,0.41
356,0.88,0.47,0.89,0.48,-0.48,-0.25,0.40,0.41,0.41
359,0.88,0.47,0.89,0.48,-0.48,-0.25,0.40,0.41,0.41
363,0.88,0.47,0.89,0.48,-0.48,-0.23,0.41,0.41,0.41
366,0.88,0.47,0.88,0.47,-0.47,-0.23,0.41,0.41,0.41
370,0.88,0.47,0.88,0.47,-0.47,-0.22,0.41,0.41,0.41
374,0.88,0.47,0.88,0.47,-0.47,-0.21,0.41,0.41,0.41
377,0.88,0.47,0.88,0.47,-0.47,-0.20,0.41,0.41,0.41
381,0.88,0.47,0.88,0.47,-0.47,-0.19,0.41,0.41,0.41
385,0.88,0.47,0.88,0.47,-0.47,-0.18,0.41,0.41,0.41
389,0.88,0.47,0.88,0.47,-0.47,-0.17,0.41,0.41,0.41
393,0.88,0.47,0.88,0.47,-0.47,-0.16,0.41,0.41,0.41
397,0.88,0.47,0.88,0.47,-0.47,-0.15,0.41,0.41,0.41
401,0.88,0.47,0.88,0.47,-0.47,-0.14,0.41,0.41,0.41
405,0.88,0.47,0.88,0.47,-0.47,-0.13,0.41,0.41,0.41
409,0.88,0.47,0.88,0.47,-0.47,-0.12,0.41,0.41,0.41
413,0.88,0.47,0.88,0.47,-0.47,-0.12,0.41,0.41,0.41
417,0.88,0.47,0.88,0.47,-0.47,-0.11,0.41,0.41,0.41
421,0.88,0.47,0.88,0.47,-0.47,-0.10,0.41,0.41,0.41
425,0.88,0.47,0.88,0.47,-0.47,-0.09,0.41,0.41,0.41
430,0.88,0.47,0.88,0.47,-0.47,-0.08,0.41,0.41,0.41
434,0.88,0.47,0.88,0.48,-0.48,-0.07,0.41,0.41,0.41
438,0.88,0.47,0.89,0.48,-0.48,-0.07,0.40,0.41,0.41
443,0.88,0.47,0.89,0.48,-0.48,-0.06,0.40,0.41,0.41
447,0.88,0.47,0.89,0.48,-0.48,-0.05,0.40,0.41,0.41
451,0.88,0.47,0.90,0.49,-0.49,-0.04,0.40,0.41,0.41
456,0.88,0.47,0.90,0.49,-0.49,-0.03,0.39,0.41,0.41
460,0.88,0.47,0.90,0.49,-0.49,-0.03,0.39,0.41,0.41
465,0.88,0.47,0.89,0.49,-0.49,-0.02,0.40,0.41,0.41
470,0.88,0.47,0.89,0.48,-0.48,-0.01,0.40,0.41,0.41
474,0.88,0.47,0.88,0.47,-0.47,-0.00,0.41,0.41,0.41
479,0.88,0.47,0.86,0.46,-0.46,0.00,0.43,0.41,0.41
484,0.88,0.47,0.84,0.43,-0.43,0.01,0.45,0.41,0.41
489,0.88,0.47,0.82,0.41,-0.41,0.02,0.47,0.41,0.41
494,0.83,0.42,0.78,0.37,-0.37,0.03,0.46,0.41,0.41
499,0.72,0.31,0.74,0.33,-0.33,0.04,0.39,0.41,0.41
504,0.61,0.20,0.69,0.28,-0.28,0.04,0.33,0.41,0.41
509,0.56,0.15,0.63,0.23,-0.23,0.05,0.34,0.41,0.41
514,0.56,0.15,0.57,0.16,-0.16,0.06,0.40,0.41,0.41
519,0.56,0.15,0.50,0.09,-0.09,0.06,0.48,0.41,0.41
524,0.49,0.08,0.42,0.01,-0.01,0.07,0.49,0.41,0.41
529,0.38,-0.03,0.33,-0.08,0.08,0.08,0.46,0.41,0.41
535,0.26,-0.15,0.24,-0.17,0.17,0.09,0.44,0.41,0.41
540,0.15,-0.26,0.14,-0.27,0.27,0.09,0.42,0.41,0.41
545,0.05,-0.36,0.04,-0.37,0.37,0.10,0.42,0.41,0.41
551,-0.08,-0.49,-0.06,-0.47,0.47,0.11,0.39,0.41,0.41
556,-0.18,-0.59,-0.16,-0.57,0.57,0.12,0.39,0.41,0.41
562,-0.30,-0.71,-0.26,-0.67,0.67,0.12,0.37,0.41,0.41
568,-0.42,-0.83,-0.35,-0.76,0.76,0.13,0.34,0.41,0.41
573,-0.42,-0.83,-0.44,-0.84,0.84,0.14,0.43,0.41,0.41
579,-0.47,-0.88,-0.51,-0.92,0.92,0.15,0.45,0.41,0.41
585,-0.59,-1.00,-0.58,-0.99,0.99,0.16,0.40,0.41,0.41
591,-0.71,-1.12,-0.64,-1.05,1.05,0.17,0.34,0.41,0.41
596,-0.74,-1.15,-0.69,-1.10,1.10,0.17,0.36,0.41,0.41
602,-0.74,-1.15,-0.73,-1.14,1.14,0.18,0.40,0.41,0.41
608,-0.74,-1.15,-0.75,-1.16,1.16,0.19,0.43,0.41,0.41
615,-0.74,-1.15,-0.77,-1.18,1.18,0.20,0.44,0.41,0.41
621,-0.74,-1.15,-0.77,-1.18,1.18,0.21,0.45,0.41,0.41
627,-0.74,-1.15,-0.77,-1.18,1.18,0.22,0.44,0.41,0.41
633,-0.74,-1.15,-0.75,-1.16,1.16,0.23,0.42,0.41,0.41
639,-0.74,-1.15,-0.71,-1.12,1.12,0.24,0.39,0.41,0.41
646,-0.74,-1.15,-0.67,-1.08,1.08,0.25,0.34,0.41,0.41
652,-0.74,-1.15,-0.62,-1.02,1.02,0.26,0.29,0.41,0.41
659,-0.62,-1.03,-0.55,-0.96,0.96,0.27,0.34,0.41,0.41
665,-0.42,-0.83,-0.48,-0.89,0.89,0.28,0.47,0.41,0.41
672,-0.42,-0.83,-0.40,-0.81,0.81,0.29,0.39,0.41,0.41
679,-0.35,-0.76,-0.32,-0.72,0.72,0.30,0.38,0.41,0.41
686,-0.23,-0.64,-0.23,-0.64,0.64,0.31,0.41,0.41,0.41
692,-0.13,-0.54,-0.15,-0.56,0.56,0.32,0.43,0.41,0.41
699,-0.02,-0.43,-0.07,-0.48,0.48,0.33,0.46,0.41,0.41
706,0.07,-0.34,0.00,-0.41,0.41,0.34,0.48,0.41,0.41
713,0.07,-0.34,0.07,-0.34,0.34,0.36,0.42,0.41,0.41
721,0.17,-0.24,0.12,-0.29,0.29,0.37,0.46,0.41,0.41
728,0.23,-0.18,0.16,-0.24,0.24,0.38,0.48,0.41,0.41
735,0.23,-0.18,0.20,-0.21,0.21,0.40,0.44,0.41,0.41
742,0.23,-0.18,0.22,-0.19,0.19,0.41,0.42,0.41,0.41
750,0.23,-0.18,0.24,-0.17,0.17,0.42,0.40,0.41,0.41
757,0.23,-0.18,0.25,-0.16,0.16,0.44,0.39,0.41,0.41
765,0.23,-0.18,0.25,-0.16,0.16,0.45,0.39,0.41,0.41
773,0.23,-0.18,0.25,-0.16,0.16,0.47,0.39,0.41,0.41
780,0.23,-0.18,0.25,-0.16,0.16,0.48,0.39,0.41,0.41
788,0.23,-0.18,0.25,-0.16,0.16,0.49,0.39,0.41,0.41
796,0.23,-0.18,0.24,-0.17,0.17,0.51,0.40,0.41,0.41
804,0.23,-0.18,0.24,-0.17,0.17,0.53,0.40,0.41,0.41
812,0.23,-0.18,0.23,-0.17,0.17,0.54,0.41,0.41,0.41
820,0.23,-0.18,0.23,-0.18,0.18,0.56,0.41,0.41,0.41
828,0.23,-0.18,0.23,-0.18,0.18,0.57,0.41,0.41,0.41
837,0.23,-0.18,0.23,-0.18,0.18,0.59,0.41,0.41,0.41
845,0.23,-0.18,0.23,-0.18,0.18,0.60,0.41,0.41,0.41
853,0.23,-0.18,0.23,-0.17,0.17,0.62,0.41,0.41,0.41
862,0.23,-0.18,0.24,-0.17,0.17,0.63,0.40,0.41,0.41
871,0.23,-0.18,0.24,-0.17,0.17,0.65,0.40,0.41,0.41
879,0.23,-0.18,0.24,-0.17,0.17,0.66,0.40,0.41,0.41
888,0.23,-0.18,0.24,-0.16,0.16,0.68,0.40,0.41,0.41
897,0.23,-0.18,0.24,-0.16,0.16,0.69,0.40,0.41,0.41
906,0.23,-0.18,0.24,-0.17,0.17,0.71,0.40,0.41,0.41
915,0.23,-0.18,0.24,-0.17,0.17,0.72,0.40,0.41,0.41
924,0.23,-0.18,0.23,-0.18,0.18,0.74,0.41,0.41,0.41
933,0.23,-0.18,0.22,-0.19,0.19,0.75,0.42,0.41,0.41
943,0.23,-0.18,0.20,-0.21,0.21,0.76,0.44,0.41,0.41
952,0.23,-0.18,0.18,-0.23,0.23,0.77,0.46,0.41,0.41
962,0.23,-0.18,0.16,-0.25,0.25,0.79,0.48,0.41,0.41
971,0.17,-0.24,0.13,-0.28,0.28,0.80,0.45,0.41,0.41
981,0.07,-0.34,0.10,-0.31,0.31,0.81,0.38,0.41,0.41
991,0.07,-0.34,0.07,-0.34,0.34,0.82,0.41,0.41,0.41
1001,-0.01,-0.42,0.04,-0.37,0.37,0.83,0.36,0.41,0.41
1011,-0.09,-0.50,0.01,-0.40,0.40,0.83,0.31,0.41,0.41
1021,-0.09,-0.50,-0.02,-0.43,0.43,0.84,0.34,0.41,0.41
1031,-0.09,-0.50,-0.05,-0.46,0.46,0.85,0.37,0.41,0.41
1041,-0.09,-0.50,-0.08,-0.49,0.49,0.86,0.40,0.41,0.41
1052,-0.09,-0.50,-0.11,-0.51,0.51,0.86,0.43,0.41,0.41
1062,-0.09,-0.50,-0.14,-0.54,0.54,0.87,0.46,0.41,0.41
1073,-0.09,-0.50,-0.17,-0.57,0.57,0.87,0.49,0.41,0.41
1084,-0.10,-0.51,-0.20,-0.61,0.61,0.88,0.51,0.41,0.41
1094,-0.20,-0.61,-0.23,-0.64,0.64,0.88,0.44,0.41,0.41
1105,-0.31,-0.72,-0.27,-0.68,0.68,0.89,0.37,0.41,0.41
1116,-0.42,-0.83,-0.31,-0.72,0.72,0.89,0.30,0.41,0.41
1128,-0.42,-0.83,-0.36,-0.76,0.76,0.89,0.35,0.41,0.41
1139,-0.42,-0.83,-0.40,-0.81,0.81,0.90,0.39,0.41,0.41
1150,-0.42,-0.83,-0.45,-0.86,0.86,0.90,0.44,0.41,0.41
1162,-0.42,-0.83,-0.50,-0.91,0.91,0.91,0.49,0.41,0.41
1173,-0.50,-0.91,-0.55,-0.96,0.96,0.91,0.46,0.41,0.41
1185,-0.62,-1.03,-0.60,-1.01,1.01,0.92,0.40,0.41,0.41
1197,-0.73,-1.14,-0.66,-1.07,1.07,0.92,0.34,0.41,0.41
1209,-0.74,-1.15,-0.71,-1.12,1.12,0.92,0.38,0.41,0.41
1221,-0.74,-1.15,-0.77,-1.17,1.17,0.93,0.44,0.41,0.41
1233,-0.74,-1.15,-0.82,-1.23,1.23,0.94,0.49,0.41,0.41
1246,-0.86,-1.27,-0.87,-1.28,1.28,0.94,0.42,0.41,0.41
1258,-0.97,-1.38,-0.92,-1.33,1.33,0.95,0.36,0.41,0.41
1271,-1.07,-1.48,-0.97,-1.38,1.38,0.96,0.31,0.41,0.41
1283,-1.07,-1.48,-1.02,-1.43,1.43,0.96,0.36,0.41,0.41
1296,-1.07,-1.48,-1.07,-1.48,1.48,0.97,0.41,0.41,0.41
1309,-1.07,-1.48,-1.11,-1.52,1.52,0.98,0.45,0.41,0.41
1322,-1.07,-1.48,-1.16,-1.56,1.56,0.99,0.50,0.41,0.41
1335,-1.15,-1.56,-1.20,-1.61,1.61,1.00,0.46,0.41,0.41
1349,-1.27,-1.68,-1.24,-1.65,1.65,1.02,0.38,0.41,0.41
1362,-1.38,-1.79,-1.29,-1.69,1.69,1.03,0.32,0.41,0.41
1376,-1.39,-1.80,-1.33,-1.74,1.74,1.04,0.35,0.41,0.41
1390,-1.39,-1.80,-1.38,-1.78,1.78,1.06,0.40,0.41,0.41
1404,-1.39,-1.80,-1.42,-1.83,1.83,1.07,0.44,0.41,0.41
1418,-1.39,-1.80,-1.47,-1.88,1.88,1.09,0.49,0.41,0.41
1432,-1.46,-1.87,-1.52,-1.93,1.93,1.10,0.47,0.41,0.41
1446,-1.57,-1.98,-1.57,-1.98,1.98,1.12,0.42,0.41,0.41
1461,-1.68,-2.09,-1.63,-2.04,2.04,1.14,0.36,0.41,0.41
1475,-1.71,-2.12,-1.68,-2.09,2.09,1.16,0.38,0.41,0.41
1490,-1.71,-2.12,-1.74,-2.15,2.15,1.18,0.44,0.41,0.41
1505,-1.71,-2.12,-1.79,-2.20,2.20,1.20,0.49,0.41,0.41
1520,-1.81,-2.22,-1.84,-2.25,2.25,1.22,0.44,0.41,0.41
1535,-1.92,-2.33,-1.89,-2.30,2.30,1.25,0.38,0.41,0.41
1550,-2.03,-2.44,-1.93,-2.34,2.34,1.27,0.31,0.41,0.41
1566,-2.04,-2.45,-1.97,-2.38,2.38,1.29,0.34,0.41,0.41
1582,-2.04,-2.45,-2.00,-2.41,2.41,1.32,0.37,0.41,0.41
1597,-2.04,-2.45,-2.03,-2.44,2.44,1.34,0.40,0.41,0.41
1613,-2.04,-2.45,-2.05,-2.46,2.46,1.37,0.42,0.41,0.41
1629,-2.04,-2.45,-2.06,-2.47,2.47,1.39,0.43,0.41,0.41
1646,-2.04,-2.45,-2.07,-2.48,2.48,1.42,0.44,0.41,0.41
1662,-2.04,-2.45,-2.07,-2.48,2.48,1.45,0.44,0.41,0.41
1679,-2.04,-2.45,-2.07,-2.48,2.48,1.47,0.44,0.41,0.41
1696,-2.04,-2.45,-2.06,-2.47,2.47,1.50,0.43,0.41,0.41
1713,-2.04,-2.45,-2.04,-2.45,2.45,1.53,0.41,0.41,0.41
1730,-2.04,-2.45,-2.02,-2.43,2.43,1.56,0.39,0.41,0.41
1747,-2.04,-2.45,-1.99,-2.39,2.39,1.58,0.36,0.41,0.41
1764,-2.04,-2.45,-1.95,-2.36,2.36,1.61,0.32,0.41,0.41
1782,-1.94,-2.35,-1.90,-2.31,2.31,1.63,0.37,0.41,0.41
1800,-1.82,-2.23,-1.85,-2.26,2.26,1.66,0.44,0.41,0.41
1818,-1.71,-2.12,-1.79,-2.20,2.20,1.68,0.49,0.41,0.41
1836,-1.71,-2.12,-1.73,-2.14,2.14,1.71,0.43,0.41,0.41
1854,-1.71,-2.12,-1.66,-2.07,2.07,1.73,0.36,0.41,0.41
1873,-1.68,-2.09,-1.58,-1.99,1.99,1.75,0.31,0.41,0.41
1892,-1.46,-1.87,-1.50,-1.91,1.91,1.77,0.46,0.41,0.41
1911,-1.39,-1.80,-1.42,-1.83,1.83,1.79,0.45,0.41,0.41
1930,-1.36,-1.77,-1.34,-1.75,1.75,1.81,0.39,0.41,0.41
1949,-1.25,-1.66,-1.26,-1.67,1.67,1.82,0.42,0.41,0.41
1969,-1.13,-1.54,-1.18,-1.59,1.59,1.84,0.46,0.41,0.41
1988,-1.07,-1.48,-1.10,-1.50,1.50,1.85,0.44,0.41,0.41
2008,-1.07,-1.48,-1.02,-1.42,1.42,1.86,0.36,0.41,0.41
2028,-0.96,-1.37,-0.94,-1.35,1.35,1.87,0.39,0.41,0.41
2048,-0.85,-1.26,-0.86,-1.27,1.27,1.88,0.42,0.41,0.41
2069,-0.74,-1.15,-0.78,-1.19,1.19,1.89,0.46,0.41,0.41
