frequency,raw
20,2.72
21,2.78
22,2.84
23,2.91
24,2.98
25,3.05
26,3.13
27,3.21
28,3.30
29,3.39
30,3.49
31,3.61
32,3.74
33,3.87
34,3.97
35,4.08
36,4.17
37,4.27
38,4.35
39,4.42
40,4.48
41,4.55
42,4.61
43,4.67
44,4.73
45,4.80
46,4.87
47,4.92
48,4.96
49,5.02
50,5.06
51,5.10
52,5.12
53,5.14
54,5.15
55,5.16
56,5.15
57,5.14
58,5.12
59,5.12
60,5.13
61,5.15
62,5.18
63,5.21
64,5.26
65,5.29
66,5.32
67,5.34
68,5.36
69,5.36
70,5.36
71,5.35
72,5.34
73,5.31
74,5.28
75,5.25
76,5.20
77,5.17
78,5.14
79,5.13
80,5.12
81,5.11
82,5.12
83,5.13
84,5.14
85,5.14
86,5.14
87,5.14
88,5.14
89,5.14
90,5.14
91,5.14
92,5.14
93,5.14
94,5.14
95,5.14
96,5.14
97,5.14
98,5.14
99,5.14
100,5.14
101,5.14
102,5.14
104,5.14
105,5.14
106,5.14
107,5.14
108,5.14
109,5.14
110,5.14
111,5.14
112,5.14
113,5.14
114,5.14
115,5.12
117,5.12
118,5.11
119,5.12
120,5.13
121,5.15
123,5.17
124,5.20
125,5.23
126,5.27
128,5.30
129,5.34
130,5.37
131,5.40
133,5.43
134,5.45
135,5.47
137,5.48
138,5.49
140,5.48
141,5.47
142,5.46
144,5.46
145,5.46
147,5.46
148,5.46
150,5.46
151,5.46
153,5.46
154,5.46
156,5.46
157,5.46
159,5.46
160,5.46
162,5.46
164,5.46
165,5.46
167,5.46
169,5.46
170,5.46
172,5.46
174,5.46
175,5.46
177,5.45
179,5.44
181,5.44
183,5.44
184,5.45
186,5.47
188,5.49
190,5.52
192,5.55
194,5.59
196,5.62
198,5.65
200,5.69
202,5.72
204,5.75
206,5.77
208,5.79
210,5.80
212,5.81
214,5.81
216,5.80
218,5.79
221,5.79
223,5.79
225,5.79
227,5.81
229,5.81
232,5.81
234,5.80
236,5.78
239,5.76
241,5.74
244,5.72
246,5.69
248,5.64
251,5.60
253,5.55
256,5.51
259,5.45
261,5.40
264,5.34
266,5.27
269,5.20
272,5.13
274,5.07
277,5.00
280,4.92
283,4.83
286,4.74
288,4.65
291,4.57
294,4.49
297,4.40
300,4.30
303,4.20
306,4.10
309,4.03
312,3.95
316,3.87
319,3.80
322,3.72
325,3.64
328,3.57
332,3.51
335,3.44
338,3.38
342,3.33
345,3.29
349,3.27
352,3.25
356,3.26
359,3.26
363,3.27
366,3.29
370,3.31
374,3.35
377,3.39
381,3.43
385,3.46
389,3.49
393,3.51
397,3.53
401,3.53
405,3.53
409,3.53
413,3.53
417,3.53
421,3.54
425,3.54
430,3.53
434,3.51
438,3.49
443,3.47
447,3.44
451,3.40
456,3.38
460,3.36
465,3.33
470,3.29
474,3.24
479,3.20
484,3.17
489,3.13
494,3.09
499,3.05
504,3.02
509,2.98
514,2.93
519,2.87
524,2.80
529,2.73
535,2.66
540,2.59
545,2.52
551,2.46
556,2.41
562,2.33
568,2.25
573,2.16
579,2.08
585,2.02
591,1.96
596,1.88
602,1.80
608,1.73
615,1.66
621,1.59
627,1.52
633,1.46
639,1.40
646,1.36
652,1.32
659,1.29
665,1.27
672,1.26
679,1.24
686,1.23
692,1.22
699,1.22
706,1.23
713,1.24
721,1.23
728,1.22
735,1.22
742,1.23
750,1.25
757,1.27
765,1.30
773,1.33
780,1.37
788,1.42
796,1.45
804,1.48
812,1.50
820,1.52
828,1.54
837,1.53
845,1.52
853,1.49
862,1.44
871,1.38
879,1.31
888,1.23
897,1.15
906,1.06
915,0.95
924,0.85
933,0.75
943,0.64
952,0.53
962,0.42
971,0.31
981,0.20
991,0.09
1001,-0.01
1011,-0.11
1021,-0.21
1031,-0.29
1041,-0.37
1052,-0.45
1062,-0.51
1073,-0.56
1084,-0.61
1094,-0.64
1105,-0.67
1116,-0.70
1128,-0.71
1139,-0.72
1150,-0.71
1162,-0.70
1173,-0.69
1185,-0.69
1197,-0.70
1209,-0.72
1221,-0.74
1233,-0.76
1246,-0.78
1258,-0.81
1271,-0.85
1283,-0.88
1296,-0.92
1309,-0.97
1322,-1.03
1335,-1.09
1349,-1.15
1362,-1.22
1376,-1.29
1390,-1.35
1404,-1.42
1418,-1.49
1432,-1.58
1446,-1.66
1461,-1.76
1475,-1.85
1490,-1.95
1505,-2.04
1520,-2.13
1535,-2.22
1550,-2.30
1566,-2.37
1582,-2.45
1597,-2.51
1613,-2.57
1629,-2.60
1646,-2.63
1662,-2.66
1679,-2.67
1696,-2.67
1713,-2.67
1730,-2.67
1747,-2.66
1764,-2.65
1782,-2.65
1800,-2.65
1818,-2.66
1836,-2.67
1854,-2.67
1873,-2.67
1892,-2.65
1911,-2.64
1930,-2.61
1949,-2.59
1969,-2.56
1988,-2.52
2008,-2.49
2028,-2.45
2048,-2.41
2069,-2.37
2090,-2.34
2111,-2.32
2132,-2.32
2153,-2.32
2175,-2.34
2196,-2.37
2218,-2.40
2240,-2.44
2263,-2.48
2285,-2.53
2308,-2.57
2331,-2.61
2355,-2.66
2378,-2.72
2402,-2.79
2426,-2.85
2450,-2.91
2475,-2.96
2500,-3.02
2525,-3.07
2550,-3.13
2575,-3.18
2601,-3.22
2627,-3.26
2653,-3.28
2680,-3.30
2707,-3.31
2734,-3.32
2761,-3.34
2789,-3.34
2817,-3.33
2845,-3.31
2873,-3.30
2902,-3.29
2931,-3.26
2960,-3.22
2990,-3.18
3020,-3.14
3050,-3.08
3080,-3.03
3111,-2.96
3142,-2.88
3174,-2.80
3206,-2.73
3238,-2.64
3270,-2.54
3303,-2.45
3336,-2.36
3369,-2.26
3403,-2.14
3437,-2.02
3471,-1.88
3506,-1.74
3541,-1.59
3576,-1.43
3612,-1.28
3648,-1.13
3685,-0.96
3721,-0.78
3759,-0.60
3796,-0.42
3834,-0.25
3873,-0.08
3911,0.10
3950,0.29
3990,0.48
4030,0.65
4070,0.82
4111,1.00
4152,1.18
4193,1.36
4235,1.54
4278,1.70
4321,1.86
4364,2.01
4407,2.16
4451,2.30
4496,2.43
4541,2.55
4586,2.64
4632,2.71
4679,2.77
4725,2.81
4773,2.86
4820,2.90
4868,2.91
4917,2.92
4966,2.92
5016,2.93
5066,2.91
5117,2.87
5168,2.82
5220,2.77
5272,2.70
5325,2.63
5378,2.52
5432,2.39
5486,2.26
5541,2.11
5596,1.96
5652,1.80
5709,1.64
5766,1.47
5823,1.30
5882,1.13
5940,0.94
6000,0.76
6060,0.57
6120,0.38
6182,0.17
6244,-0.04
6306,-0.24
6369,-0.44
6433,-0.64
6497,-0.85
6562,-1.08
6628,-1.34
6694,-1.62
6761,-1.92
6828,-2.22
6897,-2.54
6966,-2.87
7035,-3.19
7106,-3.52
7177,-3.83
7249,-4.12
7321,-4.37
7394,-4.58
7468,-4.73
7543,-4.83
7618,-4.85
7694,-4.80
7771,-4.69
7849,-4.53
7928,-4.37
8007,-4.19
8087,-4.02
8168,-3.85
8250,-3.68
8332,-3.53
8415,-3.40
8499,-3.31
8584,-3.25
8670,-3.23
8757,-3.24
8845,-3.29
8933,-3.36
9022,-3.45
9113,-3.57
9204,-3.72
9296,-3.89
9389,-4.10
9483,-4.34
9577,-4.58
9673,-4.84
9770,-5.10
9868,-5.36
9966,-5.59
10066,-5.80
10167,-5.97
10268,-6.08
10371,-6.15
10475,-6.15
10579,-6.11
10685,-6.01
10792,-5.87
10900,-5.69
11009,-5.49
11119,-5.29
11230,-5.09
11343,-4.90
11456,-4.73
11571,-4.58
11686,-4.44
11803,-4.32
11921,-4.22
12040,-4.13
12161,-4.03
12282,-3.92
12405,-3.80
12529,-3.66
12655,-3.51
12781,-3.34
12909,-3.14
13038,-2.94
13168,-2.72
13300,-2.48
13433,-2.24
13567,-1.98
13703,-1.73
13840,-1.50
13978,-1.28
14118,-1.09
14259,-0.91
14402,-0.75
14546,-0.61
14692,-0.49
14838,-0.40
14987,-0.33
15137,-0.29
15288,-0.29
15441,-0.31
15595,-0.37
15751,-0.46
15909,-0.58
16068,-0.71
16229,-0.87
16391,-1.07
16555,-1.32
16720,-1.62
16888,-1.96
17056,-2.35
17227,-2.76
17399,-3.20
17573,-3.66
17749,-4.12
17926,-4.55
18106,-4.97
18287,-5.32
18470,-5.64
18654,-5.95
18841,-6.24
19029,-6.52
19220,-6.78
19412,-7.02
19606,-7.24
19802,-7.45
20000,-7.63
