frequency,raw,smoothed,error,error_smoothed,equalization,parametric_eq,fixed_band_eq,equalized_raw,equalized_smoothed,target
20.00,6.56,6.56,0.91,0.90,-0.90,-0.92,-0.34,5.66,5.66,5.65
20.20,6.60,6.60,0.95,0.95,-0.95,-0.92,-0.35,5.65,5.65,5.65
20.40,6.64,6.64,0.99,0.99,-1.00,-0.92,-0.36,5.64,5.64,5.65
20.61,6.68,6.68,1.03,1.03,-1.03,-0.92,-0.38,5.64,5.65,5.65
20.81,6.72,6.72,1.07,1.07,-1.07,-0.92,-0.39,5.65,5.65,5.65
21.02,6.75,6.75,1.10,1.10,-1.09,-0.92,-0.40,5.66,5.66,5.65
21.23,6.78,6.77,1.13,1.12,-1.11,-0.92,-0.41,5.67,5.67,5.65
21.44,6.78,6.78,1.13,1.13,-1.12,-0.92,-0.42,5.66,5.66,5.65
21.66,6.77,6.77,1.12,1.13,-1.11,-0.92,-0.44,5.66,5.66,5.65
21.87,6.76,6.76,1.11,1.11,-1.10,-0.91,-0.45,5.65,5.65,5.65
22.09,6.74,6.74,1.09,1.09,-1.09,-0.91,-0.46,5.65,5.65,5.65
22.31,6.71,6.71,1.06,1.07,-1.07,-0.91,-0.48,5.64,5.64,5.65
22.54,6.69,6.69,1.04,1.04,-1.05,-0.91,-0.49,5.64,5.63,5.65
22.76,6.67,6.67,1.02,1.03,-1.04,-0.91,-0.50,5.63,5.63,5.64
22.99,6.66,6.66,1.02,1.02,-1.03,-0.91,-0.52,5.63,5.63,5.64
23.22,6.66,6.66,1.02,1.01,-1.02,-0.91,-0.53,5.64,5.64,5.64
23.45,6.66,6.66,1.02,1.02,-1.02,-0.90,-0.55,5.64,5.64,5.64
23.69,6.66,6.66,1.02,1.02,-1.02,-0.90,-0.57,5.64,5.64,5.64
23.92,6.67,6.67,1.03,1.03,-1.02,-0.90,-0.58,5.65,5.64,5.64
24.16,6.67,6.67,1.03,1.03,-1.03,-0.90,-0.60,5.64,5.64,5.64
24.40,6.67,6.67,1.03,1.03,-1.03,-0.90,-0.61,5.64,5.64,5.64
24.65,6.67,6.67,1.03,1.03,-1.03,-0.89,-0.63,5.64,5.64,5.64
24.89,6.67,6.67,1.04,1.03,-1.03,-0.89,-0.65,5.64,5.64,5.63
25.14,6.67,6.67,1.04,1.03,-1.03,-0.89,-0.66,5.64,5.63,5.63
25.39,6.66,6.66,1.03,1.03,-1.03,-0.89,-0.68,5.62,5.63,5.63
25.65,6.66,6.66,1.03,1.03,-1.04,-0.89,-0.70,5.62,5.62,5.63
25.91,6.66,6.66,1.03,1.03,-1.04,-0.88,-0.72,5.62,5.62,5.63
26.16,6.66,6.66,1.03,1.04,-1.04,-0.88,-0.73,5.62,5.62,5.63
26.43,6.67,6.66,1.04,1.04,-1.04,-0.88,-0.75,5.63,5.62,5.63
26.69,6.66,6.66,1.04,1.04,-1.04,-0.88,-0.76,5.62,5.63,5.62
26.96,6.66,6.66,1.04,1.04,-1.03,-0.87,-0.78,5.63,5.63,5.62
27.23,6.65,6.64,1.03,1.02,-1.01,-0.87,-0.80,5.64,5.63,5.62
27.50,6.62,6.62,1.00,1.00,-0.99,-0.87,-0.81,5.63,5.64,5.62
27.77,6.59,6.58,0.97,0.97,-0.95,-0.87,-0.83,5.63,5.63,5.62
28.05,6.54,6.54,0.92,0.93,-0.92,-0.86,-0.84,5.62,5.62,5.61
28.33,6.49,6.49,0.88,0.88,-0.88,-0.86,-0.85,5.61,5.61,5.61
28.62,6.45,6.45,0.84,0.84,-0.85,-0.86,-0.86,5.60,5.60,5.61
28.90,6.41,6.41,0.80,0.80,-0.82,-0.85,-0.87,5.59,5.59,5.61
29.19,6.38,6.38,0.77,0.78,-0.80,-0.85,-0.88,5.57,5.58,5.61
29.48,6.37,6.37,0.77,0.77,-0.80,-0.85,-0.89,5.57,5.57,5.60
29.78,6.39,6.39,0.79,0.79,-0.81,-0.84,-0.90,5.58,5.58,5.60
30.08,6.41,6.41,0.81,0.82,-0.82,-0.84,-0.91,5.59,5.59,5.60
30.38,6.45,6.44,0.85,0.85,-0.84,-0.84,-0.91,5.61,5.61,5.59
30.68,6.47,6.46,0.88,0.87,-0.85,-0.83,-0.91,5.62,5.62,5.59
30.99,6.47,6.47,0.88,0.88,-0.85,-0.83,-0.92,5.62,5.62,5.59
31.30,6.46,6.46,0.87,0.87,-0.84,-0.82,-0.92,5.61,5.61,5.59
31.61,6.43,6.42,0.85,0.84,-0.83,-0.82,-0.92,5.60,5.60,5.58
31.93,6.38,6.38,0.80,0.80,-0.80,-0.81,-0.91,5.58,5.58,5.58
32.24,6.33,6.33,0.75,0.76,-0.76,-0.81,-0.91,5.56,5.57,5.58
32.57,6.29,6.29,0.72,0.72,-0.73,-0.80,-0.90,5.56,5.56,5.57
32.89,6.25,6.25,0.68,0.68,-0.69,-0.80,-0.90,5.56,5.56,5.57
33.22,6.22,6.22,0.65,0.65,-0.66,-0.79,-0.89,5.56,5.56,5.57
33.55,6.19,6.19,0.63,0.63,-0.64,-0.79,-0.88,5.55,5.55,5.56
33.89,6.18,6.18,0.62,0.62,-0.63,-0.78,-0.87,5.55,5.55,5.56
34.23,6.17,6.17,0.62,0.62,-0.63,-0.78,-0.86,5.54,5.53,5.55
34.57,6.17,6.17,0.62,0.63,-0.64,-0.77,-0.85,5.52,5.53,5.55
34.92,6.19,6.19,0.64,0.65,-0.66,-0.77,-0.83,5.53,5.53,5.54
35.27,6.22,6.22,0.68,0.68,-0.67,-0.76,-0.82,5.55,5.55,5.54
35.62,6.24,6.24,0.70,0.70,-0.68,-0.75,-0.80,5.56,5.56,5.53
35.97,6.25,6.25,0.72,0.72,-0.68,-0.75,-0.79,5.57,5.56,5.53
36.33,6.24,6.23,0.71,0.71,-0.68,-0.74,-0.77,5.56,5.55,5.52
36.70,6.20,6.20,0.68,0.68,-0.67,-0.73,-0.76,5.52,5.53,5.52
37.06,6.16,6.16,0.65,0.65,-0.66,-0.73,-0.74,5.50,5.50,5.51
37.43,6.13,6.13,0.62,0.62,-0.65,-0.72,-0.72,5.48,5.48,5.51
37.81,6.11,6.11,0.61,0.61,-0.63,-0.71,-0.71,5.48,5.48,5.50
38.19,6.10,6.10,0.60,0.60,-0.61,-0.70,-0.69,5.49,5.49,5.49
38.57,6.09,6.09,0.60,0.60,-0.59,-0.69,-0.67,5.50,5.50,5.49
38.95,6.08,6.08,0.60,0.59,-0.58,-0.68,-0.65,5.50,5.50,5.48
39.34,6.06,6.06,0.58,0.58,-0.57,-0.68,-0.64,5.49,5.48,5.47
39.74,6.03,6.03,0.56,0.56,-0.57,-0.67,-0.62,5.46,5.46,5.47
40.14,6.01,6.01,0.55,0.55,-0.57,-0.66,-0.60,5.44,5.44,5.46
40.54,6.00,6.00,0.55,0.55,-0.57,-0.65,-0.58,5.43,5.44,5.45
40.94,6.01,6.01,0.57,0.56,-0.57,-0.64,-0.57,5.44,5.44,5.44
41.35,6.01,6.01,0.57,0.57,-0.57,-0.63,-0.55,5.44,5.44,5.44
41.76,6.01,6.01,0.58,0.58,-0.57,-0.62,-0.53,5.44,5.44,5.43
42.18,6.00,6.00,0.58,0.58,-0.57,-0.60,-0.52,5.43,5.43,5.42
42.60,5.99,5.98,0.58,0.58,-0.57,-0.59,-0.50,5.42,5.42,5.41
43.03,5.96,5.96,0.56,0.56,-0.55,-0.58,-0.49,5.40,5.41,5.40
43.46,5.93,5.93,0.54,0.54,-0.54,-0.57,-0.47,5.39,5.40,5.39
43.90,5.90,5.90,0.52,0.52,-0.51,-0.56,-0.46,5.39,5.38,5.38
44.33,5.86,5.86,0.49,0.49,-0.49,-0.55,-0.44,5.37,5.37,5.37
44.78,5.81,5.81,0.45,0.46,-0.46,-0.53,-0.43,5.35,5.35,5.36
45.23,5.77,5.77,0.43,0.43,-0.44,-0.52,-0.41,5.33,5.33,5.34
45.68,5.74,5.74,0.41,0.41,-0.42,-0.51,-0.40,5.32,5.32,5.33
46.13,5.71,5.71,0.39,0.39,-0.41,-0.49,-0.38,5.30,5.30,5.32
46.60,5.70,5.70,0.39,0.39,-0.41,-0.48,-0.37,5.29,5.29,5.31
47.06,5.69,5.69,0.40,0.40,-0.41,-0.46,-0.36,5.28,5.29,5.29
47.53,5.69,5.69,0.41,0.41,-0.40,-0.45,-0.35,5.28,5.29,5.28
48.01,5.69,5.68,0.42,0.42,-0.40,-0.43,-0.33,5.29,5.28,5.27
48.49,5.67,5.67,0.42,0.42,-0.40,-0.42,-0.32,5.27,5.27,5.25
48.97,5.64,5.64,0.40,0.40,-0.38,-0.40,-0.31,5.25,5.25,5.24
49.46,5.60,5.60,0.38,0.38,-0.37,-0.39,-0.30,5.23,5.23,5.22
49.96,5.55,5.55,0.35,0.35,-0.35,-0.37,-0.29,5.20,5.20,5.20
50.46,5.50,5.50,0.31,0.31,-0.33,-0.36,-0.28,5.17,5.17,5.19
50.96,5.45,5.46,0.28,0.29,-0.30,-0.34,-0.27,5.15,5.15,5.17
51.47,5.42,5.42,0.27,0.27,-0.28,-0.33,-0.26,5.14,5.14,5.15
51.99,5.39,5.39,0.26,0.26,-0.26,-0.31,-0.25,5.13,5.13,5.13
52.51,5.36,5.36,0.25,0.25,-0.24,-0.30,-0.24,5.12,5.12,5.11
53.03,5.33,5.33,0.24,0.24,-0.23,-0.28,-0.24,5.10,5.10,5.09
53.56,5.30,5.30,0.23,0.22,-0.22,-0.27,-0.23,5.08,5.08,5.07
54.10,5.26,5.26,0.21,0.21,-0.21,-0.25,-0.22,5.05,5.05,5.05
54.64,5.23,5.23,0.20,0.20,-0.20,-0.24,-0.22,5.03,5.03,5.03
55.18,5.19,5.19,0.18,0.19,-0.19,-0.22,-0.21,5.00,5.00,5.01
55.74,5.16,5.16,0.18,0.18,-0.18,-0.21,-0.20,4.98,4.98,4.98
56.29,5.14,5.13,0.18,0.18,-0.18,-0.20,-0.20,4.96,4.96,4.96
56.86,5.11,5.11,0.18,0.18,-0.17,-0.19,-0.20,4.94,4.94,4.93
57.42,5.08,5.08,0.17,0.17,-0.17,-0.17,-0.19,4.91,4.91,4.91
58.00,5.05,5.05,0.17,0.17,-0.17,-0.16,-0.19,4.88,4.88,4.88
58.58,5.02,5.02,0.16,0.16,-0.17,-0.15,-0.19,4.85,4.85,4.85
59.16,4.99,4.99,0.16,0.16,-0.16,-0.15,-0.19,4.82,4.82,4.83
59.76,4.96,4.96,0.16,0.16,-0.16,-0.14,-0.19,4.80,4.80,4.80
60.35,4.93,4.93,0.16,0.16,-0.16,-0.13,-0.19,4.77,4.77,4.77
60.96,4.90,4.90,0.16,0.16,-0.16,-0.13,-0.19,4.74,4.74,4.74
61.57,4.87,4.87,0.16,0.16,-0.16,-0.12,-0.19,4.71,4.71,4.71
62.18,4.83,4.83,0.16,0.16,-0.16,-0.12,-0.20,4.67,4.67,4.67
62.80,4.79,4.79,0.15,0.15,-0.15,-0.12,-0.20,4.64,4.64,4.64
63.43,4.76,4.76,0.15,0.15,-0.15,-0.12,-0.21,4.61,4.61,4.61
64.07,4.72,4.72,0.15,0.15,-0.15,-0.12,-0.21,4.57,4.57,4.57
64.71,4.68,4.68,0.14,0.14,-0.14,-0.12,-0.22,4.54,4.53,4.53
65.35,4.64,4.64,0.14,0.14,-0.14,-0.13,-0.23,4.50,4.50,4.50
66.01,4.60,4.60,0.14,0.14,-0.14,-0.13,-0.24,4.45,4.46,4.46
66.67,4.57,4.57,0.15,0.15,-0.15,-0.14,-0.25,4.42,4.42,4.42
67.33,4.53,4.53,0.15,0.15,-0.15,-0.15,-0.26,4.37,4.38,4.38
68.01,4.50,4.50,0.16,0.16,-0.16,-0.16,-0.27,4.34,4.34,4.34
68.69,4.47,4.47,0.17,0.17,-0.17,-0.17,-0.28,4.30,4.30,4.30
69.37,4.44,4.44,0.18,0.19,-0.18,-0.18,-0.30,4.25,4.25,4.25
70.07,4.41,4.41,0.20,0.20,-0.20,-0.20,-0.31,4.21,4.21,4.21
70.77,4.38,4.38,0.21,0.21,-0.21,-0.21,-0.32,4.17,4.17,4.16
71.48,4.35,4.35,0.23,0.23,-0.23,-0.23,-0.34,4.12,4.12,4.12
72.19,4.31,4.31,0.24,0.24,-0.24,-0.25,-0.36,4.07,4.07,4.07
72.91,4.28,4.28,0.26,0.25,-0.25,-0.27,-0.37,4.03,4.03,4.02
73.64,4.24,4.24,0.26,0.26,-0.26,-0.28,-0.39,3.98,3.97,3.97
74.38,4.20,4.20,0.28,0.28,-0.28,-0.31,-0.41,3.92,3.92,3.92
75.12,4.16,4.16,0.29,0.29,-0.29,-0.33,-0.43,3.87,3.87,3.87
75.87,4.12,4.12,0.30,0.30,-0.30,-0.35,-0.45,3.82,3.82,3.82
76.63,4.08,4.08,0.31,0.31,-0.31,-0.37,-0.47,3.77,3.77,3.77
77.40,4.04,4.04,0.33,0.33,-0.33,-0.40,-0.49,3.71,3.71,3.71
78.17,4.00,4.00,0.34,0.34,-0.34,-0.42,-0.51,3.66,3.66,3.66
78.95,3.96,3.96,0.36,0.36,-0.36,-0.45,-0.53,3.60,3.60,3.60
79.74,3.92,3.92,0.38,0.38,-0.38,-0.47,-0.55,3.54,3.54,3.54
80.54,3.88,3.88,0.39,0.40,-0.40,-0.50,-0.58,3.48,3.48,3.49
81.35,3.85,3.85,0.42,0.42,-0.42,-0.52,-0.60,3.43,3.43,3.43
82.16,3.81,3.81,0.44,0.45,-0.44,-0.55,-0.62,3.36,3.37,3.37
82.98,3.78,3.78,0.47,0.47,-0.47,-0.58,-0.65,3.31,3.31,3.31
83.81,3.74,3.74,0.50,0.50,-0.50,-0.60,-0.67,3.24,3.24,3.24
84.65,3.70,3.70,0.52,0.52,-0.52,-0.63,-0.70,3.18,3.18,3.18
85.50,3.67,3.67,0.55,0.55,-0.55,-0.66,-0.73,3.12,3.12,3.12
86.35,3.63,3.63,0.58,0.58,-0.58,-0.68,-0.75,3.05,3.05,3.05
87.22,3.59,3.59,0.60,0.60,-0.60,-0.71,-0.78,2.99,2.99,2.99
88.09,3.55,3.55,0.63,0.63,-0.63,-0.74,-0.81,2.92,2.92,2.92
88.97,3.52,3.52,0.66,0.66,-0.66,-0.76,-0.84,2.86,2.86,2.85
89.86,3.48,3.48,0.69,0.69,-0.69,-0.79,-0.87,2.79,2.79,2.79
90.76,3.43,3.43,0.71,0.71,-0.71,-0.82,-0.90,2.72,2.72,2.72
91.66,3.39,3.39,0.74,0.74,-0.74,-0.84,-0.93,2.65,2.65,2.65
92.58,3.35,3.35,0.77,0.77,-0.77,-0.87,-0.96,2.58,2.58,2.58
93.51,3.31,3.31,0.80,0.80,-0.80,-0.90,-1.00,2.51,2.51,2.51
94.44,3.27,3.27,0.83,0.83,-0.83,-0.92,-1.03,2.44,2.44,2.44
95.39,3.23,3.23,0.86,0.86,-0.86,-0.95,-1.06,2.37,2.37,2.37
96.34,3.19,3.19,0.89,0.89,-0.90,-0.97,-1.09,2.29,2.30,2.30
97.30,3.16,3.16,0.93,0.93,-0.93,-1.00,-1.13,2.23,2.23,2.23
98.28,3.12,3.12,0.96,0.97,-0.97,-1.03,-1.16,2.15,2.16,2.16
99.26,3.09,3.09,1.01,1.00,-1.00,-1.05,-1.20,2.09,2.09,2.08
100.25,3.05,3.05,1.04,1.04,-1.03,-1.08,-1.23,2.02,2.02,2.01
101.25,3.01,3.01,1.07,1.07,-1.07,-1.10,-1.27,1.94,1.94,1.94
102.27,2.97,2.97,1.10,1.10,-1.10,-1.13,-1.30,1.87,1.87,1.87
103.29,2.92,2.92,1.13,1.13,-1.13,-1.15,-1.34,1.79,1.79,1.79
104.32,2.88,2.88,1.16,1.16,-1.16,-1.18,-1.37,1.72,1.72,1.72
105.37,2.84,2.84,1.19,1.19,-1.19,-1.20,-1.41,1.64,1.64,1.65
106.42,2.80,2.80,1.23,1.22,-1.23,-1.23,-1.44,1.57,1.57,1.57
107.48,2.76,2.76,1.26,1.26,-1.26,-1.26,-1.48,1.50,1.50,1.50
108.56,2.72,2.72,1.29,1.29,-1.30,-1.28,-1.51,1.42,1.42,1.43
109.64,2.69,2.69,1.33,1.33,-1.33,-1.31,-1.54,1.35,1.35,1.36
110.74,2.65,2.65,1.37,1.37,-1.37,-1.33,-1.58,1.28,1.28,1.28
111.85,2.62,2.62,1.41,1.41,-1.40,-1.36,-1.61,1.22,1.22,1.21
112.97,2.58,2.58,1.44,1.44,-1.43,-1.38,-1.64,1.15,1.15,1.14
114.10,2.53,2.53,1.46,1.47,-1.45,-1.41,-1.67,1.07,1.08,1.07
115.24,2.48,2.48,1.48,1.48,-1.48,-1.43,-1.69,1.00,1.00,1.00
116.39,2.43,2.43,1.50,1.50,-1.50,-1.46,-1.72,0.93,0.93,0.92
117.55,2.37,2.37,1.52,1.52,-1.52,-1.48,-1.74,0.85,0.85,0.85
118.73,2.32,2.32,1.54,1.53,-1.54,-1.51,-1.77,0.78,0.77,0.78
119.92,2.27,2.27,1.55,1.56,-1.57,-1.53,-1.79,0.70,0.70,0.71
121.12,2.23,2.23,1.58,1.59,-1.60,-1.56,-1.81,0.63,0.63,0.65
122.33,2.21,2.20,1.63,1.63,-1.63,-1.58,-1.82,0.58,0.57,0.58
123.55,2.18,2.18,1.67,1.67,-1.67,-1.61,-1.84,0.51,0.51,0.51
124.79,2.16,2.16,1.72,1.71,-1.71,-1.64,-1.85,0.45,0.45,0.44
126.03,2.13,2.13,1.75,1.75,-1.74,-1.66,-1.86,0.39,0.39,0.38
127.29,2.10,2.10,1.79,1.79,-1.78,-1.69,-1.87,0.32,0.32,0.31
128.57,2.06,2.06,1.81,1.81,-1.81,-1.71,-1.87,0.25,0.25,0.25
129.85,2.02,2.02,1.84,1.84,-1.84,-1.74,-1.88,0.18,0.18,0.18
131.15,1.98,1.98,1.86,1.86,-1.86,-1.76,-1.88,0.12,0.12,0.12
132.46,1.94,1.94,1.88,1.88,-1.88,-1.79,-1.88,0.06,0.06,0.06
133.79,1.90,1.90,1.90,1.90,-1.90,-1.81,-1.88,-0.00,-0.00,-0.00
135.12,1.86,1.86,1.92,1.92,-1.92,-1.84,-1.87,-0.06,-0.07,-0.06
136.48,1.82,1.82,1.94,1.94,-1.94,-1.86,-1.87,-0.13,-0.12,-0.12
137.84,1.78,1.78,1.96,1.96,-1.97,-1.89,-1.86,-0.19,-0.18,-0.18
139.22,1.75,1.75,1.99,1.98,-1.99,-1.91,-1.86,-0.24,-0.24,-0.24
140.61,1.71,1.71,2.01,2.01,-2.01,-1.94,-1.85,-0.30,-0.30,-0.30
142.02,1.68,1.68,2.03,2.03,-2.03,-1.96,-1.84,-0.35,-0.35,-0.35
143.44,1.65,1.65,2.06,2.05,-2.05,-1.99,-1.83,-0.40,-0.40,-0.41
144.87,1.62,1.62,2.08,2.08,-2.07,-2.01,-1.82,-0.45,-0.46,-0.46
146.32,1.58,1.58,2.09,2.09,-2.09,-2.04,-1.81,-0.52,-0.51,-0.51
147.78,1.55,1.55,2.11,2.11,-2.12,-2.06,-1.81,-0.57,-0.57,-0.56
149.26,1.52,1.52,2.13,2.14,-2.14,-2.08,-1.80,-0.62,-0.62,-0.61
150.75,1.50,1.49,2.16,2.16,-2.16,-2.11,-1.79,-0.66,-0.66,-0.66
152.26,1.47,1.47,2.18,2.18,-2.18,-2.13,-1.78,-0.71,-0.71,-0.71
153.78,1.44,1.44,2.20,2.20,-2.20,-2.15,-1.77,-0.76,-0.76,-0.76
155.32,1.42,1.42,2.23,2.22,-2.23,-2.17,-1.76,-0.81,-0.81,-0.81
156.88,1.40,1.39,2.25,2.25,-2.25,-2.20,-1.75,-0.85,-0.86,-0.85
158.44,1.37,1.37,2.27,2.27,-2.27,-2.22,-1.75,-0.90,-0.90,-0.90
160.03,1.35,1.35,2.29,2.29,-2.29,-2.24,-1.74,-0.94,-0.94,-0.94
161.63,1.33,1.33,2.32,2.32,-2.31,-2.26,-1.74,-0.99,-0.99,-0.99
163.24,1.31,1.31,2.34,2.34,-2.33,-2.28,-1.73,-1.02,-1.03,-1.03
164.88,1.28,1.28,2.35,2.35,-2.35,-2.29,-1.73,-1.07,-1.07,-1.07
166.53,1.25,1.25,2.36,2.36,-2.36,-2.31,-1.73,-1.12,-1.11,-1.11
168.19,1.22,1.22,2.37,2.37,-2.38,-2.33,-1.73,-1.16,-1.15,-1.15
169.87,1.20,1.20,2.39,2.38,-2.39,-2.35,-1.73,-1.19,-1.19,-1.19
171.57,1.17,1.17,2.39,2.39,-2.39,-2.36,-1.74,-1.22,-1.22,-1.23
173.29,1.14,1.14,2.40,2.40,-2.40,-2.38,-1.74,-1.26,-1.26,-1.26
175.02,1.11,1.11,2.40,2.40,-2.40,-2.39,-1.75,-1.29,-1.29,-1.30
176.77,1.08,1.08,2.41,2.40,-2.40,-2.40,-1.75,-1.33,-1.33,-1.33
178.54,1.04,1.04,2.40,2.40,-2.41,-2.41,-1.76,-1.37,-1.36,-1.36
180.32,1.01,1.01,2.40,2.40,-2.41,-2.42,-1.77,-1.40,-1.40,-1.39
182.13,0.98,0.98,2.40,2.40,-2.40,-2.43,-1.78,-1.43,-1.43,-1.42
183.95,0.95,0.95,2.40,2.40,-2.40,-2.44,-1.79,-1.45,-1.45,-1.45
185.79,0.92,0.92,2.40,2.40,-2.40,-2.45,-1.81,-1.48,-1.48,-1.48
187.65,0.89,0.89,2.40,2.40,-2.40,-2.46,-1.82,-1.51,-1.51,-1.51
189.52,0.85,0.85,2.39,2.39,-2.39,-2.46,-1.84,-1.54,-1.54,-1.54
191.42,0.82,0.82,2.38,2.39,-2.39,-2.47,-1.86,-1.57,-1.57,-1.57
193.33,0.79,0.79,2.38,2.38,-2.38,-2.47,-1.88,-1.59,-1.59,-1.59
195.27,0.76,0.76,2.38,2.38,-2.38,-2.47,-1.90,-1.62,-1.62,-1.62
197.22,0.73,0.73,2.37,2.37,-2.37,-2.47,-1.92,-1.64,-1.64,-1.64
199.19,0.70,0.70,2.36,2.36,-2.37,-2.47,-1.94,-1.67,-1.67,-1.66
201.18,0.67,0.67,2.36,2.36,-2.36,-2.47,-1.96,-1.69,-1.69,-1.69
203.19,0.65,0.65,2.36,2.36,-2.35,-2.47,-1.98,-1.70,-1.71,-1.71
205.23,0.62,0.62,2.35,2.35,-2.35,-2.47,-2.01,-1.73,-1.73,-1.73
207.28,0.59,0.59,2.34,2.34,-2.34,-2.46,-2.03,-1.75,-1.75,-1.75
209.35,0.56,0.56,2.33,2.33,-2.33,-2.45,-2.05,-1.77,-1.77,-1.77
211.44,0.53,0.53,2.32,2.32,-2.33,-2.45,-2.08,-1.80,-1.79,-1.79
213.56,0.51,0.51,2.32,2.32,-2.32,-2.44,-2.10,-1.81,-1.81,-1.81
215.69,0.48,0.48,2.31,2.31,-2.31,-2.43,-2.12,-1.83,-1.83,-1.83
217.85,0.45,0.45,2.30,2.30,-2.29,-2.42,-2.15,-1.84,-1.84,-1.85
220.03,0.42,0.42,2.28,2.28,-2.28,-2.41,-2.17,-1.86,-1.86,-1.86
222.23,0.39,0.39,2.27,2.27,-2.27,-2.40,-2.19,-1.88,-1.88,-1.88
224.45,0.36,0.36,2.26,2.26,-2.25,-2.38,-2.21,-1.90,-1.90,-1.90
226.70,0.33,0.33,2.24,2.24,-2.24,-2.37,-2.23,-1.91,-1.91,-1.91
228.96,0.30,0.30,2.23,2.22,-2.23,-2.36,-2.24,-1.93,-1.93,-1.93
231.25,0.27,0.27,2.21,2.21,-2.21,-2.34,-2.26,-1.94,-1.95,-1.94
233.57,0.24,0.24,2.19,2.20,-2.20,-2.32,-2.27,-1.96,-1.96,-1.95
235.90,0.21,0.21,2.19,2.19,-2.19,-2.30,-2.28,-1.98,-1.97,-1.98
238.26,0.19,0.18,2.18,2.18,-2.17,-2.29,-2.29,-1.98,-1.99,-1.99
240.64,0.16,0.16,2.16,2.16,-2.16,-2.27,-2.30,-2.00,-2.00,-2.00
243.05,0.13,0.13,2.15,2.15,-2.15,-2.25,-2.30,-2.02,-2.01,-2.02
245.48,0.11,0.10,2.14,2.13,-2.13,-2.23,-2.30,-2.02,-2.03,-2.03
247.93,0.08,0.08,2.12,2.12,-2.12,-2.21,-2.30,-2.04,-2.04,-2.04
250.41,0.05,0.05,2.10,2.10,-2.10,-2.18,-2.29,-2.05,-2.05,-2.05
252.92,0.03,0.02,2.09,2.09,-2.09,-2.16,-2.29,-2.06,-2.06,-2.06
255.45,-0.00,-0.00,2.07,2.07,-2.07,-2.14,-2.27,-2.07,-2.07,-2.07
258.00,-0.03,-0.03,2.05,2.05,-2.05,-2.12,-2.26,-2.08,-2.08,-2.08
260.58,-0.05,-0.05,2.04,2.04,-2.04,-2.09,-2.24,-2.09,-2.09,-2.09
263.19,-0.08,-0.08,2.02,2.02,-2.02,-2.07,-2.22,-2.10,-2.10,-2.10
265.82,-0.10,-0.10,2.01,2.00,-2.00,-2.04,-2.20,-2.10,-2.11,-2.11
268.48,-0.13,-0.13,1.99,1.99,-1.99,-2.02,-2.18,-2.12,-2.12,-2.12
271.16,-0.16,-0.16,1.96,1.97,-1.97,-2.00,-2.15,-2.13,-2.13,-2.12
273.87,-0.18,-0.18,1.95,1.95,-1.95,-1.97,-2.12,-2.13,-2.13,-2.13
276.61,-0.21,-0.21,1.93,1.93,-1.93,-1.95,-2.09,-2.14,-2.14,-2.14
279.38,-0.23,-0.23,1.92,1.91,-1.91,-1.92,-2.06,-2.14,-2.14,-2.15
282.17,-0.26,-0.26,1.89,1.89,-1.89,-1.89,-2.03,-2.15,-2.15,-2.15
284.99,-0.29,-0.29,1.86,1.87,-1.86,-1.87,-1.99,-2.16,-2.15,-2.15
287.84,-0.31,-0.31,1.84,1.84,-1.84,-1.84,-1.96,-2.15,-2.15,-2.15
290.72,-0.34,-0.34,1.81,1.81,-1.81,-1.82,-1.92,-2.16,-2.16,-2.15
293.63,-0.37,-0.37,1.79,1.79,-1.79,-1.79,-1.88,-2.16,-2.16,-2.16
296.57,-0.40,-0.40,1.76,1.76,-1.76,-1.76,-1.85,-2.16,-2.16,-2.16
299.53,-0.42,-0.42,1.73,1.73,-1.73,-1.74,-1.81,-2.15,-2.16,-2.15
302.53,-0.45,-0.45,1.71,1.70,-1.70,-1.71,-1.77,-2.15,-2.15,-2.16
305.55,-0.48,-0.48,1.67,1.68,-1.67,-1.69,-1.73,-2.15,-2.15,-2.15
308.61,-0.51,-0.51,1.65,1.65,-1.64,-1.66,-1.69,-2.15,-2.15,-2.16
311.69,-0.54,-0.54,1.61,1.61,-1.61,-1.64,-1.65,-2.15,-2.15,-2.15
314.81,-0.57,-0.57,1.59,1.59,-1.58,-1.61,-1.62,-2.15,-2.15,-2.16
317.96,-0.60,-0.60,1.55,1.56,-1.55,-1.58,-1.58,-2.15,-2.15,-2.15
321.14,-0.62,-0.62,1.54,1.53,-1.53,-1.56,-1.54,-2.15,-2.15,-2.16
324.35,-0.65,-0.65,1.50,1.50,-1.51,-1.53,-1.51,-2.16,-2.15,-2.15
327.59,-0.66,-0.67,1.48,1.48,-1.49,-1.51,-1.47,-2.15,-2.15,-2.15
330.87,-0.68,-0.68,1.47,1.47,-1.48,-1.48,-1.43,-2.16,-2.16,-2.15
334.18,-0.68,-0.68,1.46,1.47,-1.48,-1.46,-1.40,-2.16,-2.15,-2.14
337.52,-0.67,-0.67,1.48,1.47,-1.48,-1.44,-1.37,-2.15,-2.15,-2.15
340.90,-0.66,-0.66,1.48,1.48,-1.49,-1.41,-1.33,-2.15,-2.15,-2.14
344.30,-0.64,-0.64,1.49,1.50,-1.50,-1.39,-1.30,-2.14,-2.14,-2.13
347.75,-0.61,-0.61,1.52,1.52,-1.52,-1.36,-1.27,-2.13,-2.13,-2.13
351.23,-0.59,-0.59,1.54,1.53,-1.53,-1.34,-1.24,-2.12,-2.12,-2.13
354.74,-0.57,-0.57,1.54,1.55,-1.54,-1.32,-1.21,-2.11,-2.11,-2.11
358.28,-0.56,-0.56,1.56,1.55,-1.54,-1.30,-1.19,-2.10,-2.10,-2.12
361.87,-0.56,-0.56,1.55,1.55,-1.54,-1.27,-1.16,-2.10,-2.10,-2.11
365.49,-0.57,-0.57,1.53,1.54,-1.53,-1.25,-1.13,-2.10,-2.10,-2.10
369.14,-0.58,-0.58,1.52,1.52,-1.52,-1.23,-1.11,-2.10,-2.10,-2.10
372.83,-0.60,-0.60,1.49,1.49,-1.50,-1.21,-1.08,-2.10,-2.10,-2.09
376.56,-0.62,-0.62,1.47,1.47,-1.47,-1.19,-1.06,-2.09,-2.09,-2.09
380.33,-0.64,-0.64,1.44,1.44,-1.44,-1.17,-1.04,-2.08,-2.09,-2.08
384.13,-0.67,-0.67,1.41,1.41,-1.41,-1.15,-1.02,-2.08,-2.08,-2.08
387.97,-0.69,-0.69,1.39,1.38,-1.38,-1.13,-1.00,-2.07,-2.07,-2.08
391.85,-0.72,-0.72,1.34,1.35,-1.35,-1.11,-0.98,-2.07,-2.07,-2.06
395.77,-0.74,-0.74,1.32,1.32,-1.32,-1.09,-0.96,-2.06,-2.06,-2.06
399.73,-0.76,-0.77,1.29,1.29,-1.29,-1.07,-0.94,-2.05,-2.06,-2.05
403.72,-0.79,-0.79,1.25,1.26,-1.26,-1.05,-0.92,-2.05,-2.05,-2.04
407.76,-0.81,-0.81,1.24,1.23,-1.23,-1.03,-0.91,-2.04,-2.04,-2.05
411.84,-0.83,-0.83,1.21,1.21,-1.21,-1.01,-0.89,-2.04,-2.04,-2.04
415.96,-0.85,-0.85,1.18,1.18,-1.18,-0.99,-0.87,-2.03,-2.03,-2.03
420.12,-0.87,-0.87,1.16,1.16,-1.16,-0.98,-0.86,-2.03,-2.03,-2.03
424.32,-0.89,-0.89,1.13,1.13,-1.13,-0.96,-0.84,-2.02,-2.02,-2.02
428.56,-0.91,-0.91,1.10,1.11,-1.11,-0.94,-0.83,-2.02,-2.02,-2.01
432.85,-0.93,-0.93,1.08,1.08,-1.08,-0.92,-0.82,-2.01,-2.01,-2.01
437.18,-0.95,-0.95,1.06,1.05,-1.05,-0.91,-0.81,-2.00,-2.00,-2.01
441.55,-0.97,-0.97,1.03,1.03,-1.02,-0.89,-0.79,-1.99,-1.99,-2.00
445.96,-0.99,-0.99,1.00,1.00,-1.00,-0.88,-0.78,-1.99,-1.99,-1.99
450.42,-1.01,-1.01,0.96,0.96,-0.97,-0.86,-0.77,-1.98,-1.98,-1.97
454.93,-1.03,-1.03,0.93,0.94,-0.94,-0.85,-0.76,-1.97,-1.97,-1.96
459.48,-1.04,-1.04,0.91,0.91,-0.91,-0.83,-0.75,-1.96,-1.96,-1.95
464.07,-1.06,-1.06,0.89,0.89,-0.89,-0.82,-0.74,-1.95,-1.95,-1.96
468.71,-1.08,-1.08,0.87,0.87,-0.86,-0.80,-0.73,-1.94,-1.94,-1.95
473.40,-1.10,-1.10,0.84,0.84,-0.84,-0.79,-0.72,-1.94,-1.94,-1.94
478.13,-1.11,-1.11,0.82,0.81,-0.82,-0.78,-0.71,-1.93,-1.93,-1.93
482.91,-1.13,-1.13,0.79,0.79,-0.79,-0.76,-0.70,-1.92,-1.92,-1.92
487.74,-1.14,-1.14,0.77,0.77,-0.77,-0.75,-0.69,-1.91,-1.91,-1.91
492.62,-1.16,-1.16,0.74,0.74,-0.74,-0.74,-0.68,-1.90,-1.90,-1.90
497.55,-1.17,-1.17,0.72,0.72,-0.71,-0.72,-0.68,-1.89,-1.89,-1.89
