frequency,raw,error,smoothed,error_smoothed,equalization,parametric_eq,equalized_raw,equalized_smoothed,target
20,-21.62,-23.27,-21.62,-23.27,6.00,5.17,-15.62,-15.62,1.65
21,-20.93,-22.58,-20.90,-22.55,6.00,5.35,-14.93,-14.90,1.65
22,-20.14,-21.79,-20.21,-21.85,6.00,5.51,-14.14,-14.21,1.65
23,-19.57,-21.22,-19.53,-21.18,6.00,5.66,-13.57,-13.53,1.65
24,-18.92,-20.57,-18.88,-20.53,6.00,5.80,-12.92,-12.88,1.65
25,-18.27,-19.92,-18.26,-19.91,6.00,5.92,-12.27,-12.26,1.65
26,-17.58,-19.23,-17.66,-19.30,6.00,6.03,-11.58,-11.66,1.65
27,-17.05,-18.70,-17.08,-18.72,6.00,6.13,-11.05,-11.08,1.65
28,-16.55,-18.20,-16.52,-18.16,6.00,6.22,-10.55,-10.52,1.65
29,-15.98,-17.63,-15.97,-17.62,6.00,6.29,-9.98,-9.97,1.65
30,-15.46,-17.11,-15.45,-17.09,6.00,6.35,-9.46,-9.45,1.65
31,-14.90,-16.54,-14.93,-16.58,6.00,6.40,-8.90,-8.93,1.65
32,-14.50,-16.15,-14.43,-16.07,6.00,6.45,-8.50,-8.43,1.65
33,-13.88,-15.52,-13.93,-15.58,6.00,6.48,-7.88,-7.93,1.65
34,-13.54,-15.19,-13.45,-15.09,6.00,6.50,-7.54,-7.45,1.65
35,-12.95,-14.59,-12.97,-14.61,6.00,6.51,-6.95,-6.97,1.65
36,-12.43,-14.07,-12.50,-14.15,6.00,6.52,-6.43,-6.50,1.65
37,-12.06,-13.70,-12.04,-13.69,6.00,6.52,-6.06,-6.04,1.64
38,-11.58,-13.22,-11.60,-13.24,6.00,6.51,-5.58,-5.60,1.64
39,-11.19,-12.83,-11.16,-12.80,6.00,6.49,-5.19,-5.16,1.64
40,-10.76,-12.40,-10.73,-12.37,6.00,6.46,-4.76,-4.73,1.64
41,-10.37,-12.01,-10.31,-11.95,6.00,6.43,-4.37,-4.31,1.64
42,-9.86,-11.50,-9.90,-11.54,6.00,6.40,-3.86,-3.90,1.64
43,-9.50,-11.14,-9.50,-11.14,6.00,6.35,-3.50,-3.50,1.64
44,-9.16,-10.80,-9.12,-10.76,6.00,6.31,-3.16,-3.12,1.64
45,-8.83,-10.47,-8.77,-10.40,6.00,6.25,-2.83,-2.77,1.64
46,-8.41,-10.04,-8.45,-10.08,6.00,6.19,-2.41,-2.45,1.64
47,-8.14,-9.78,-8.17,-9.80,6.00,6.13,-2.14,-2.17,1.63
48,-7.84,-9.47,-7.93,-9.56,6.00,6.06,-1.84,-1.93,1.63
49,-7.60,-9.23,-7.74,-9.37,6.00,5.99,-1.60,-1.74,1.63
50,-7.45,-9.08,-7.59,-9.21,6.00,5.91,-1.45,-1.59,1.63
51,-7.45,-9.08,-7.46,-9.09,6.00,5.83,-1.45,-1.46,1.62
52,-7.35,-8.97,-7.35,-8.97,6.00,5.74,-1.35,-1.35,1.62
53,-7.35,-8.96,-7.23,-8.85,6.00,5.66,-1.35,-1.23,1.62
54,-7.18,-8.79,-7.08,-8.70,6.00,5.57,-1.18,-1.08,1.61
55,-6.99,-8.60,-6.90,-8.51,6.00,5.47,-0.99,-0.90,1.61
56,-6.82,-8.42,-6.67,-8.28,6.00,5.37,-0.82,-0.67,1.60
57,-6.49,-8.09,-6.40,-8.00,6.00,5.27,-0.49,-0.40,1.60
58,-6.06,-7.65,-6.09,-7.68,6.00,5.17,-0.06,-0.09,1.59
59,-5.73,-7.31,-5.75,-7.34,6.00,5.07,0.27,0.25,1.58
60,-5.31,-6.88,-5.40,-6.98,6.00,4.96,0.69,0.60,1.58
61,-4.99,-6.56,-5.05,-6.62,5.95,4.85,0.96,0.90,1.57
62,-4.67,-6.23,-4.70,-6.26,5.84,4.74,1.17,1.14,1.56
63,-4.41,-5.96,-4.37,-5.92,5.69,4.62,1.28,1.31,1.55
64,-4.02,-5.56,-4.06,-5.60,5.49,4.51,1.47,1.43,1.54
65,-3.81,-5.33,-3.77,-5.30,5.26,4.39,1.46,1.49,1.53
66,-3.43,-4.94,-3.50,-5.01,5.01,4.27,1.59,1.51,1.51
67,-3.23,-4.73,-3.24,-4.74,4.74,4.15,1.51,1.50,1.50
68,-3.05,-4.53,-3.00,-4.49,4.49,4.03,1.44,1.49,1.49
69,-2.82,-4.29,-2.77,-4.24,4.24,3.91,1.42,1.47,1.47
70,-2.54,-3.99,-2.55,-4.01,4.01,3.78,1.47,1.45,1.45
71,-2.32,-3.76,-2.34,-3.78,3.78,3.66,1.46,1.44,1.44
72,-2.14,-3.55,-2.15,-3.56,3.56,3.53,1.43,1.42,1.42
73,-1.98,-3.38,-1.96,-3.36,3.36,3.41,1.37,1.40,1.40
74,-1.77,-3.15,-1.79,-3.16,3.16,3.28,1.39,1.37,1.37
75,-1.62,-2.97,-1.62,-2.97,2.97,3.15,1.35,1.35,1.35
76,-1.46,-2.78,-1.47,-2.80,2.80,3.03,1.34,1.32,1.32
77,-1.34,-2.64,-1.33,-2.63,2.63,2.90,1.29,1.30,1.30
78,-1.21,-2.48,-1.20,-2.46,2.46,2.77,1.25,1.27,1.27
79,-1.04,-2.28,-1.07,-2.31,2.31,2.64,1.27,1.24,1.24
80,-0.90,-2.10,-0.95,-2.15,2.15,2.51,1.26,1.21,1.21
81,-0.91,-2.08,-0.83,-2.00,2.00,2.39,1.09,1.17,1.17
82,-0.75,-1.89,-0.71,-1.85,1.85,2.26,1.10,1.14,1.14
83,-0.62,-1.72,-0.60,-1.70,1.70,2.13,1.09,1.10,1.10
84,-0.45,-1.51,-0.49,-1.55,1.55,2.00,1.10,1.06,1.06
85,-0.35,-1.38,-0.39,-1.41,1.41,1.88,1.05,1.02,1.02
86,-0.31,-1.29,-0.29,-1.27,1.27,1.75,0.96,0.98,0.98
87,-0.17,-1.11,-0.20,-1.13,1.13,1.62,0.96,0.94,0.94
88,-0.15,-1.04,-0.12,-1.01,1.01,1.50,0.85,0.89,0.89
89,-0.02,-0.87,-0.04,-0.89,0.89,1.38,0.86,0.84,0.84
90,0.05,-0.75,0.02,-0.77,0.77,1.25,0.82,0.79,0.80
91,0.16,-0.59,0.08,-0.66,0.66,1.13,0.82,0.74,0.74
92,0.05,-0.64,0.13,-0.56,0.56,1.01,0.61,0.69,0.69
93,0.10,-0.54,0.18,-0.46,0.46,0.89,0.55,0.64,0.64
94,0.36,-0.22,0.23,-0.36,0.36,0.77,0.72,0.59,0.58
95,0.31,-0.22,0.28,-0.25,0.25,0.66,0.56,0.53,0.53
96,0.26,-0.21,0.33,-0.15,0.15,0.54,0.41,0.47,0.47
97,0.23,-0.18,0.37,-0.04,0.04,0.43,0.27,0.41,0.41
98,0.42,0.07,0.42,0.07,-0.07,0.32,0.35,0.35,0.35
99,0.53,0.24,0.46,0.17,-0.17,0.21,0.36,0.29,0.29
100,0.53,0.30,0.49,0.27,-0.27,0.10,0.26,0.22,0.23
101,0.62,0.45,0.52,0.36,-0.36,-0.01,0.25,0.15,0.17
102,0.55,0.44,0.53,0.45,-0.45,-0.11,0.10,0.08,0.11
104,0.50,0.51,0.54,0.53,-0.53,-0.31,-0.03,0.01,-0.01
105,0.47,0.55,0.54,0.60,-0.60,-0.41,-0.13,-0.06,-0.08
106,0.45,0.59,0.53,0.66,-0.66,-0.51,-0.21,-0.13,-0.14
107,0.58,0.78,0.52,0.71,-0.71,-0.60,-0.13,-0.20,-0.20
108,0.59,0.85,0.50,0.76,-0.76,-0.69,-0.17,-0.26,-0.26
109,0.48,0.80,0.48,0.81,-0.81,-0.78,-0.33,-0.32,-0.32
110,0.46,0.84,0.47,0.85,-0.85,-0.87,-0.39,-0.38,-0.38
111,0.44,0.88,0.45,0.89,-0.89,-0.95,-0.44,-0.44,-0.44
112,0.43,0.93,0.44,0.94,-0.94,-1.03,-0.50,-0.50,-0.49
113,0.42,0.97,0.44,0.99,-0.99,-1.11,-0.57,-0.56,-0.55
114,0.42,1.02,0.44,1.06,-1.06,-1.19,-0.64,-0.61,-0.60
115,0.42,1.07,0.45,1.13,-1.13,-1.26,-0.71,-0.67,-0.65
117,0.42,1.18,0.47,1.21,-1.21,-1.40,-0.79,-0.73,-0.76
118,0.45,1.26,0.50,1.29,-1.29,-1.47,-0.84,-0.79,-0.81
119,0.63,1.49,0.52,1.37,-1.37,-1.53,-0.74,-0.85,-0.85
120,0.63,1.53,0.54,1.45,-1.45,-1.59,-0.82,-0.91,-0.90
121,0.54,1.48,0.56,1.52,-1.52,-1.65,-0.98,-0.96,-0.94
123,0.55,1.58,0.57,1.58,-1.58,-1.75,-1.03,-1.01,-1.03
124,0.56,1.63,0.58,1.64,-1.64,-1.80,-1.08,-1.06,-1.07
125,0.56,1.67,0.58,1.69,-1.69,-1.85,-1.13,-1.11,-1.11
126,0.57,1.71,0.58,1.74,-1.74,-1.90,-1.17,-1.16,-1.14
128,0.58,1.80,0.59,1.79,-1.79,-1.98,-1.21,-1.20,-1.22
129,0.58,1.83,0.59,1.83,-1.83,-2.01,-1.25,-1.24,-1.25
130,0.59,1.87,0.59,1.87,-1.87,-2.05,-1.28,-1.28,-1.28
131,0.59,1.90,0.58,1.91,-1.91,-2.08,-1.31,-1.32,-1.31
133,0.60,1.97,0.57,1.94,-1.94,-2.14,-1.34,-1.36,-1.37
134,0.60,2.00,0.56,1.96,-1.96,-2.16,-1.36,-1.40,-1.40
135,0.61,2.03,0.54,1.98,-1.98,-2.19,-1.37,-1.44,-1.42
137,0.50,1.98,0.53,2.00,-2.00,-2.23,-1.50,-1.47,-1.48
138,0.37,1.87,0.52,2.02,-2.02,-2.25,-1.65,-1.51,-1.50
140,0.51,2.06,0.51,2.05,-2.05,-2.28,-1.54,-1.54,-1.55
141,0.52,2.09,0.51,2.08,-2.08,-2.29,-1.56,-1.57,-1.57
142,0.52,2.11,0.51,2.11,-2.11,-2.30,-1.60,-1.60,-1.59
144,0.52,2.15,0.52,2.15,-2.15,-2.31,-1.63,-1.63,-1.63
145,0.52,2.17,0.52,2.18,-2.18,-2.32,-1.66,-1.66,-1.65
147,0.52,2.21,0.51,2.20,-2.20,-2.33,-1.68,-1.69,-1.69
148,0.52,2.22,0.50,2.21,-2.21,-2.33,-1.69,-1.71,-1.71
150,0.53,2.27,0.47,2.21,-2.21,-2.32,-1.68,-1.74,-1.74
151,0.63,2.38,0.44,2.21,-2.21,-2.32,-1.58,-1.76,-1.76
153,0.31,2.10,0.41,2.19,-2.19,-2.31,-1.89,-1.78,-1.79
154,0.19,1.99,0.37,2.18,-2.18,-2.31,-1.99,-1.81,-1.80
156,0.32,2.15,0.34,2.16,-2.16,-2.29,-1.85,-1.83,-1.83
157,0.32,2.16,0.30,2.15,-2.15,-2.28,-1.83,-1.85,-1.84
159,0.32,2.18,0.26,2.13,-2.13,-2.26,-1.81,-1.87,-1.87
160,0.24,2.12,0.22,2.11,-2.11,-2.25,-1.86,-1.88,-1.88
162,0.14,2.04,0.18,2.08,-2.08,-2.23,-1.95,-1.90,-1.90
164,0.34,2.26,0.14,2.06,-2.06,-2.20,-1.71,-1.92,-1.92
165,0.13,2.06,0.10,2.03,-2.03,-2.19,-1.90,-1.93,-1.93
167,-0.16,1.79,0.06,2.00,-2.00,-2.16,-2.16,-1.94,-1.94
169,-0.00,1.96,0.02,1.98,-1.98,-2.13,-1.98,-1.95,-1.96
170,-0.01,1.95,-0.00,1.96,-1.96,-2.11,-1.97,-1.96,-1.96
172,-0.02,1.96,-0.02,1.95,-1.95,-2.08,-1.97,-1.97,-1.97
174,-0.02,1.96,-0.03,1.95,-1.95,-2.05,-1.97,-1.98,-1.98
175,-0.03,1.96,-0.04,1.95,-1.95,-2.03,-1.97,-1.99,-1.98
177,-0.03,1.96,-0.05,1.94,-1.94,-1.99,-1.97,-1.99,-1.99
179,-0.03,1.96,-0.05,1.94,-1.94,-1.96,-1.97,-1.99,-1.99
181,-0.03,1.97,-0.06,1.94,-1.94,-1.92,-1.96,-2.00,-2.00
183,-0.06,1.94,-0.07,1.93,-1.93,-1.88,-1.98,-2.00,-2.00
184,-0.20,1.80,-0.08,1.91,-1.91,-1.86,-2.11,-2.00,-2.00
186,-0.13,1.87,-0.10,1.90,-1.90,-1.83,-2.02,-2.00,-2.00
188,0.04,2.04,-0.11,1.88,-1.88,-1.79,-1.84,-1.99,-1.99
190,-0.17,1.82,-0.13,1.86,-1.86,-1.75,-2.03,-1.99,-1.99
192,-0.15,1.84,-0.15,1.84,-1.84,-1.71,-2.00,-1.99,-1.99
194,-0.14,1.85,-0.16,1.82,-1.82,-1.68,-1.96,-1.99,-1.99
196,-0.32,1.66,-0.18,1.80,-1.80,-1.64,-2.13,-1.98,-1.98
198,-0.32,1.66,-0.20,1.78,-1.78,-1.60,-2.09,-1.98,-1.98
200,-0.02,1.95,-0.23,1.75,-1.75,-1.56,-1.77,-1.98,-1.98
202,-0.05,1.92,-0.25,1.72,-1.72,-1.53,-1.77,-1.97,-1.97
204,-0.29,1.68,-0.28,1.68,-1.68,-1.49,-1.98,-1.97,-1.97
206,-0.42,1.54,-0.32,1.65,-1.65,-1.46,-2.07,-1.97,-1.97
208,-0.57,1.39,-0.35,1.61,-1.61,-1.42,-2.19,-1.96,-1.96
210,-0.44,1.52,-0.38,1.58,-1.58,-1.39,-2.02,-1.96,-1.96
212,-0.36,1.60,-0.41,1.54,-1.54,-1.35,-1.90,-1.95,-1.95
214,-0.22,1.73,-0.45,1.50,-1.50,-1.32,-1.72,-1.95,-1.95
216,-0.35,1.60,-0.48,1.47,-1.47,-1.29,-1.82,-1.95,-1.95
218,-0.51,1.44,-0.51,1.43,-1.43,-1.25,-1.94,-1.94,-1.94
221,-0.79,1.15,-0.54,1.40,-1.40,-1.21,-2.19,-1.94,-1.94
223,-0.71,1.22,-0.57,1.36,-1.36,-1.18,-2.08,-1.93,-1.93
225,-0.61,1.31,-0.60,1.33,-1.33,-1.15,-1.95,-1.93,-1.93
227,-0.47,1.45,-0.62,1.30,-1.30,-1.12,-1.77,-1.92,-1.92
229,-0.45,1.47,-0.65,1.27,-1.27,-1.09,-1.71,-1.92,-1.92
232,-0.70,1.21,-0.67,1.24,-1.24,-1.04,-1.94,-1.91,-1.91
234,-0.69,1.21,-0.69,1.21,-1.21,-1.02,-1.90,-1.90,-1.90
236,-0.82,1.08,-0.71,1.18,-1.18,-0.99,-2.00,-1.89,-1.89
239,-0.92,0.96,-0.72,1.16,-1.16,-0.95,-2.08,-1.88,-1.89
241,-0.66,1.22,-0.73,1.14,-1.14,-0.92,-1.80,-1.88,-1.88
244,-0.58,1.28,-0.74,1.13,-1.13,-0.88,-1.71,-1.87,-1.87
246,-0.78,1.07,-0.74,1.11,-1.11,-0.86,-1.89,-1.86,-1.86
248,-0.79,1.06,-0.75,1.10,-1.10,-0.83,-1.88,-1.85,-1.85
251,-0.77,1.07,-0.76,1.08,-1.08,-0.80,-1.85,-1.84,-1.84
253,-0.75,1.07,-0.77,1.06,-1.06,-0.78,-1.81,-1.83,-1.83
256,-0.74,1.07,-0.79,1.03,-1.03,-0.74,-1.77,-1.81,-1.81
259,-0.77,1.04,-0.81,1.00,-1.00,-0.71,-1.76,-1.80,-1.80
261,-0.83,0.97,-0.83,0.96,-0.96,-0.69,-1.79,-1.79,-1.79
264,-0.89,0.89,-0.86,0.93,-0.93,-0.66,-1.82,-1.78,-1.78
266,-0.93,0.85,-0.88,0.90,-0.90,-0.64,-1.83,-1.77,-1.77
269,-0.93,0.83,-0.89,0.87,-0.87,-0.61,-1.80,-1.76,-1.76
272,-0.93,0.82,-0.91,0.84,-0.84,-0.58,-1.78,-1.75,-1.75
274,-0.94,0.81,-0.93,0.82,-0.82,-0.56,-1.76,-1.75,-1.74
277,-0.81,0.93,-0.94,0.80,-0.80,-0.54,-1.61,-1.74,-1.74
280,-0.85,0.87,-0.95,0.78,-0.78,-0.51,-1.63,-1.73,-1.73
283,-1.04,0.68,-0.96,0.75,-0.75,-0.48,-1.79,-1.72,-1.72
286,-1.03,0.68,-0.97,0.74,-0.74,-0.46,-1.77,-1.71,-1.71
288,-1.02,0.68,-0.98,0.72,-0.72,-0.44,-1.74,-1.70,-1.70
291,-1.01,0.68,-0.98,0.71,-0.71,-0.42,-1.72,-1.69,-1.69
294,-1.00,0.69,-0.98,0.71,-0.71,-0.40,-1.71,-1.69,-1.69
297,-0.85,0.83,-0.97,0.71,-0.71,-0.37,-1.55,-1.68,-1.68
300,-0.98,0.70,-0.96,0.71,-0.71,-0.35,-1.68,-1.67,-1.67
303,-0.99,0.67,-0.95,0.71,-0.71,-0.33,-1.71,-1.66,-1.66
306,-0.95,0.70,-0.94,0.72,-0.72,-0.31,-1.67,-1.66,-1.66
309,-0.94,0.71,-0.93,0.72,-0.72,-0.29,-1.67,-1.65,-1.65
312,-0.94,0.70,-0.92,0.73,-0.73,-0.27,-1.66,-1.64,-1.64
316,-0.75,0.88,-0.91,0.73,-0.73,-0.25,-1.48,-1.64,-1.64
319,-0.93,0.70,-0.90,0.73,-0.73,-0.23,-1.66,-1.63,-1.63
322,-1.01,0.61,-0.90,0.72,-0.72,-0.21,-1.74,-1.62,-1.62
325,-0.93,0.69,-0.90,0.72,-0.72,-0.20,-1.65,-1.62,-1.62
328,-0.93,0.68,-0.91,0.70,-0.70,-0.18,-1.63,-1.61,-1.61
332,-0.91,0.70,-0.93,0.68,-0.68,-0.16,-1.59,-1.61,-1.61
335,-0.72,0.88,-0.96,0.64,-0.64,-0.14,-1.37,-1.60,-1.60
338,-1.02,0.58,-0.99,0.60,-0.60,-0.13,-1.62,-1.60,-1.60
342,-1.15,0.44,-1.04,0.55,-0.55,-0.10,-1.70,-1.59,-1.59
345,-1.10,0.48,-1.09,0.49,-0.49,-0.09,-1.59,-1.59,-1.59
349,-1.24,0.34,-1.15,0.43,-0.43,-0.07,-1.67,-1.58,-1.58
352,-1.09,0.49,-1.21,0.37,-0.37,-0.06,-1.46,-1.58,-1.58
356,-1.12,0.46,-1.27,0.30,-0.30,-0.04,-1.42,-1.58,-1.58
359,-1.52,0.05,-1.33,0.25,-0.25,-0.02,-1.77,-1.57,-1.57
363,-1.47,0.10,-1.37,0.20,-0.20,-0.01,-1.67,-1.57,-1.57
366,-1.24,0.33,-1.41,0.16,-0.16,0.01,-1.40,-1.57,-1.57
370,-1.51,0.06,-1.44,0.13,-0.13,0.03,-1.64,-1.57,-1.57
374,-1.51,0.05,-1.45,0.11,-0.11,0.04,-1.62,-1.56,-1.56
377,-1.50,0.06,-1.46,0.10,-0.10,0.06,-1.60,-1.56,-1.56
381,-1.49,0.06,-1.47,0.09,-0.09,0.07,-1.58,-1.56,-1.56
385,-1.43,0.12,-1.47,0.08,-0.08,0.09,-1.51,-1.55,-1.55
389,-1.30,0.25,-1.48,0.07,-0.07,0.11,-1.37,-1.55,-1.55
393,-1.50,0.04,-1.49,0.05,-0.05,0.13,-1.56,-1.54,-1.54
397,-1.58,-0.05,-1.50,0.03,-0.03,0.14,-1.61,-1.53,-1.53
401,-1.58,-0.06,-1.52,0.00,-0.00,0.16,-1.58,-1.52,-1.52
405,-1.56,-0.05,-1.54,-0.03,0.03,0.18,-1.53,-1.51,-1.51
409,-1.42,0.07,-1.56,-0.07,0.07,0.19,-1.35,-1.49,-1.50
413,-1.55,-0.07,-1.59,-0.11,0.11,0.21,-1.44,-1.48,-1.48
417,-1.69,-0.23,-1.61,-0.15,0.15,0.23,-1.54,-1.46,-1.46
421,-1.69,-0.25,-1.63,-0.19,0.19,0.25,-1.49,-1.43,-1.44
425,-1.68,-0.27,-1.64,-0.23,0.23,0.27,-1.45,-1.41,-1.41
430,-1.55,-0.17,-1.64,-0.27,0.27,0.29,-1.28,-1.38,-1.38
434,-1.56,-0.21,-1.64,-0.29,0.29,0.31,-1.27,-1.35,-1.35
438,-1.72,-0.41,-1.62,-0.31,0.31,0.33,-1.42,-1.31,-1.32
443,-1.69,-0.41,-1.60,-0.32,0.32,0.36,-1.37,-1.28,-1.28
447,-1.64,-0.40,-1.57,-0.33,0.33,0.38,-1.31,-1.24,-1.24
451,-1.53,-0.33,-1.54,-0.34,0.34,0.40,-1.19,-1.20,-1.20
456,-1.41,-0.25,-1.52,-0.36,0.36,0.43,-1.05,-1.16,-1.16
460,-1.49,-0.37,-1.50,-0.39,0.39,0.46,-1.10,-1.12,-1.12
465,-1.42,-0.35,-1.50,-0.43,0.43,0.49,-0.99,-1.08,-1.08
470,-1.46,-0.43,-1.52,-0.48,0.48,0.52,-0.98,-1.04,-1.03
474,-1.56,-0.56,-1.55,-0.55,0.55,0.55,-1.00,-1.00,-1.00
479,-1.68,-0.72,-1.59,-0.63,0.63,0.58,-1.04,-0.96,-0.96
484,-1.70,-0.78,-1.65,-0.72,0.72,0.62,-0.98,-0.92,-0.92
489,-1.65,-0.76,-1.70,-0.81,0.81,0.66,-0.84,-0.89,-0.89
494,-1.75,-0.88,-1.76,-0.90,0.90,0.70,-0.85,-0.87,-0.86
499,-1.80,-0.96,-1.82,-0.98,0.98,0.74,-0.82,-0.84,-0.84
504,-1.87,-1.05,-1.87,-1.05,1.05,0.79,-0.82,-0.82,-0.82
509,-1.90,-1.09,-1.91,-1.10,1.10,0.83,-0.80,-0.81,-0.81
514,-1.94,-1.14,-1.94,-1.14,1.14,0.88,-0.80,-0.80,-0.80
519,-2.09,-1.30,-1.96,-1.17,1.17,0.92,-0.92,-0.79,-0.79
524,-2.10,-1.31,-1.97,-1.19,1.19,0.97,-0.92,-0.79,-0.79
529,-1.91,-1.12,-1.98,-1.19,1.19,1.01,-0.72,-0.79,-0.79
535,-1.89,-1.09,-1.99,-1.19,1.19,1.07,-0.69,-0.79,-0.79
540,-2.00,-1.20,-2.00,-1.20,1.20,1.11,-0.80,-0.80,-0.80
545,-1.92,-1.11,-2.01,-1.20,1.20,1.15,-0.72,-0.81,-0.81
551,-1.89,-1.07,-2.03,-1.21,1.21,1.19,-0.68,-0.82,-0.82
556,-2.15,-1.32,-2.04,-1.21,1.21,1.22,-0.94,-0.83,-0.83
562,-2.21,-1.37,-2.05,-1.21,1.21,1.24,-1.00,-0.84,-0.84
568,-2.04,-1.18,-2.06,-1.21,1.21,1.26,-0.83,-0.85,-0.85
573,-2.12,-1.26,-2.05,-1.19,1.19,1.27,-0.93,-0.86,-0.86
579,-2.01,-1.15,-2.04,-1.17,1.17,1.28,-0.84,-0.87,-0.87
585,-1.92,-1.04,-2.01,-1.14,1.14,1.27,-0.77,-0.87,-0.87
591,-2.05,-1.18,-1.98,-1.11,1.11,1.25,-0.94,-0.87,-0.87
596,-1.95,-1.08,-1.95,-1.08,1.08,1.24,-0.86,-0.87,-0.87
602,-1.85,-0.99,-1.91,-1.06,1.06,1.21,-0.80,-0.86,-0.86
608,-1.84,-0.99,-1.88,-1.03,1.03,1.18,-0.81,-0.85,-0.85
615,-1.83,-0.99,-1.85,-1.01,1.01,1.13,-0.81,-0.83,-0.83
621,-1.81,-0.99,-1.81,-1.00,1.00,1.09,-0.81,-0.81,-0.81
627,-1.86,-1.07,-1.77,-0.98,0.98,1.05,-0.88,-0.79,-0.79
633,-1.77,-1.01,-1.72,-0.95,0.95,1.01,-0.82,-0.76,-0.76
639,-1.62,-0.88,-1.66,-0.92,0.92,0.96,-0.70,-0.74,-0.74
646,-1.58,-0.87,-1.59,-0.89,0.89,0.91,-0.69,-0.71,-0.71
652,-1.54,-0.86,-1.52,-0.85,0.85,0.87,-0.69,-0.67,-0.67
659,-1.49,-0.85,-1.44,-0.80,0.80,0.82,-0.68,-0.64,-0.64
665,-1.33,-0.73,-1.37,-0.76,0.76,0.79,-0.57,-0.61,-0.60
672,-1.21,-0.64,-1.29,-0.72,0.72,0.74,-0.49,-0.57,-0.57
679,-1.24,-0.70,-1.22,-0.69,0.69,0.70,-0.55,-0.54,-0.54
686,-1.19,-0.69,-1.16,-0.66,0.66,0.67,-0.53,-0.50,-0.50
692,-1.15,-0.68,-1.10,-0.63,0.63,0.63,-0.52,-0.47,-0.47
699,-1.12,-0.68,-1.06,-0.62,0.62,0.60,-0.51,-0.44,-0.44
706,-0.91,-0.50,-1.02,-0.61,0.61,0.57,-0.30,-0.41,-0.41
713,-0.90,-0.52,-1.00,-0.62,0.62,0.54,-0.29,-0.39,-0.39
721,-1.01,-0.65,-0.99,-0.63,0.63,0.51,-0.38,-0.36,-0.36
728,-1.03,-0.69,-0.99,-0.65,0.65,0.48,-0.38,-0.34,-0.34
735,-1.02,-0.70,-1.00,-0.68,0.68,0.46,-0.35,-0.32,-0.32
742,-0.86,-0.56,-1.00,-0.70,0.70,0.44,-0.16,-0.30,-0.30
750,-1.07,-0.79,-1.01,-0.72,0.72,0.41,-0.35,-0.29,-0.28
757,-1.16,-0.89,-1.01,-0.74,0.74,0.39,-0.42,-0.27,-0.27
765,-0.98,-0.72,-1.00,-0.74,0.74,0.37,-0.23,-0.26,-0.26
773,-0.98,-0.73,-0.98,-0.74,0.74,0.35,-0.24,-0.25,-0.25
780,-0.99,-0.75,-0.96,-0.72,0.72,0.33,-0.26,-0.24,-0.24
788,-0.81,-0.59,-0.93,-0.70,0.70,0.32,-0.11,-0.23,-0.23
796,-0.86,-0.64,-0.89,-0.67,0.67,0.30,-0.19,-0.22,-0.22
804,-1.01,-0.80,-0.85,-0.64,0.64,0.28,-0.37,-0.21,-0.21
812,-0.78,-0.58,-0.81,-0.60,0.60,0.27,-0.18,-0.20,-0.20
820,-0.57,-0.37,-0.75,-0.56,0.56,0.25,-0.02,-0.20,-0.20
828,-0.75,-0.56,-0.69,-0.50,0.50,0.24,-0.25,-0.19,-0.19
837,-0.78,-0.60,-0.62,-0.44,0.44,0.22,-0.34,-0.18,-0.18
845,-0.53,-0.36,-0.55,-0.37,0.37,0.21,-0.16,-0.18,-0.18
853,-0.48,-0.31,-0.47,-0.30,0.30,0.19,-0.18,-0.17,-0.17
862,-0.40,-0.23,-0.39,-0.22,0.22,0.18,-0.17,-0.16,-0.16
871,-0.30,-0.15,-0.31,-0.16,0.16,0.17,-0.14,-0.15,-0.15
879,-0.23,-0.08,-0.25,-0.11,0.11,0.15,-0.12,-0.15,-0.15
888,-0.16,-0.02,-0.21,-0.07,0.07,0.14,-0.09,-0.14,-0.14
897,-0.05,0.08,-0.19,-0.06,0.06,0.13,0.01,-0.13,-0.13
906,-0.16,-0.04,-0.18,-0.06,0.06,0.11,-0.10,-0.12,-0.12
915,-0.23,-0.11,-0.19,-0.07,0.07,0.10,-0.15,-0.11,-0.11
924,-0.23,-0.13,-0.20,-0.10,0.10,0.09,-0.13,-0.10,-0.10
933,-0.23,-0.14,-0.21,-0.12,0.12,0.07,-0.11,-0.09,-0.09
943,-0.23,-0.15,-0.22,-0.14,0.14,0.06,-0.09,-0.08,-0.08
952,-0.23,-0.16,-0.21,-0.14,0.14,0.05,-0.08,-0.07,-0.07
962,-0.35,-0.30,-0.20,-0.14,0.14,0.03,-0.21,-0.05,-0.05
971,-0.18,-0.14,-0.17,-0.13,0.13,0.02,-0.06,-0.04,-0.04
981,0.01,0.04,-0.13,-0.10,0.10,0.01,0.12,-0.02,-0.02
991,0.03,0.03,-0.08,-0.07,0.07,-0.01,0.10,-0.01,-0.01
1001,-0.00,-0.02,-0.02,-0.03,0.03,-0.02,0.03,0.01,0.01
1011,-0.03,-0.06,0.05,0.01,-0.01,-0.03,-0.04,0.03,0.03
1021,0.07,0.01,0.12,0.07,-0.07,-0.05,-0.00,0.06,0.05
1031,0.10,0.02,0.20,0.12,-0.12,-0.06,-0.03,0.08,0.08
1041,0.22,0.12,0.29,0.18,-0.18,-0.07,0.04,0.10,0.10
1052,0.37,0.24,0.37,0.24,-0.24,-0.08,0.13,0.13,0.13
1062,0.61,0.45,0.45,0.29,-0.29,-0.10,0.32,0.16,0.16
1073,0.68,0.49,0.52,0.33,-0.33,-0.11,0.36,0.19,0.19
1084,0.62,0.40,0.57,0.35,-0.35,-0.12,0.27,0.22,0.22
1094,0.43,0.17,0.62,0.37,-0.37,-0.13,0.06,0.25,0.25
1105,0.56,0.27,0.66,0.37,-0.37,-0.14,0.19,0.29,0.29
1116,0.85,0.53,0.69,0.37,-0.37,-0.15,0.48,0.32,0.32
1128,0.75,0.40,0.72,0.36,-0.36,-0.16,0.39,0.36,0.36
1139,0.70,0.31,0.74,0.36,-0.36,-0.17,0.34,0.39,0.39
1150,0.52,0.10,0.77,0.35,-0.35,-0.17,0.17,0.42,0.42
1162,0.89,0.44,0.80,0.34,-0.34,-0.18,0.55,0.46,0.46
1173,0.91,0.42,0.82,0.33,-0.33,-0.19,0.58,0.49,0.49
1185,0.89,0.37,0.84,0.32,-0.32,-0.19,0.57,0.52,0.52
1197,0.86,0.31,0.84,0.29,-0.29,-0.19,0.56,0.55,0.55
1209,0.88,0.31,0.84,0.26,-0.26,-0.19,0.62,0.57,0.57
1221,0.81,0.21,0.83,0.23,-0.23,-0.19,0.58,0.60,0.60
1233,0.73,0.11,0.81,0.19,-0.19,-0.19,0.54,0.62,0.62
1246,0.75,0.11,0.78,0.14,-0.14,-0.18,0.60,0.64,0.64
1258,0.74,0.09,0.76,0.10,-0.10,-0.18,0.64,0.65,0.65
1271,0.77,0.10,0.73,0.07,-0.07,-0.17,0.70,0.67,0.67
1283,0.77,0.10,0.71,0.03,-0.03,-0.16,0.74,0.68,0.68
1296,0.70,0.01,0.69,0.01,-0.01,-0.15,0.69,0.68,0.68
1309,0.65,-0.03,0.68,-0.01,0.01,-0.13,0.66,0.69,0.69
1322,0.62,-0.07,0.67,-0.02,0.02,-0.11,0.63,0.69,0.69
1335,0.58,-0.11,0.66,-0.03,0.03,-0.10,0.60,0.68,0.68
1349,0.61,-0.07,0.65,-0.03,0.03,-0.07,0.64,0.68,0.68
1362,0.64,-0.03,0.63,-0.05,0.05,-0.05,0.69,0.67,0.67
1376,0.69,0.02,0.60,-0.07,0.07,-0.02,0.76,0.67,0.67
1390,0.68,0.02,0.56,-0.10,0.10,0.01,0.78,0.66,0.66
1404,0.59,-0.06,0.51,-0.14,0.14,0.04,0.73,0.65,0.65
1418,0.49,-0.15,0.46,-0.18,0.18,0.07,0.67,0.64,0.64
1432,0.34,-0.29,0.41,-0.22,0.22,0.10,0.56,0.63,0.63
1446,0.22,-0.40,0.37,-0.26,0.26,0.14,0.48,0.63,0.63
1461,0.21,-0.40,0.33,-0.29,0.29,0.18,0.50,0.62,0.62
1475,0.27,-0.34,0.32,-0.30,0.30,0.22,0.57,0.62,0.62
1490,0.33,-0.29,0.31,-0.31,0.31,0.26,0.63,0.62,0.61
1505,0.41,-0.20,0.31,-0.31,0.31,0.30,0.72,0.62,0.62
1520,0.38,-0.24,0.31,-0.31,0.31,0.35,0.70,0.62,0.62
1535,0.35,-0.29,0.31,-0.33,0.33,0.39,0.67,0.63,0.63
1550,0.25,-0.40,0.29,-0.35,0.35,0.44,0.60,0.65,0.65
1566,0.26,-0.40,0.27,-0.40,0.40,0.49,0.66,0.67,0.67
1582,0.23,-0.46,0.24,-0.45,0.45,0.54,0.68,0.69,0.69
1597,0.23,-0.49,0.21,-0.51,0.51,0.59,0.74,0.72,0.72
1613,0.27,-0.48,0.18,-0.58,0.58,0.64,0.85,0.76,0.75
1629,0.15,-0.64,0.15,-0.65,0.65,0.70,0.80,0.80,0.79
1646,0.04,-0.80,0.14,-0.71,0.71,0.76,0.75,0.84,0.84
1662,0.06,-0.83,0.13,-0.76,0.76,0.81,0.82,0.89,0.89
