frequency,raw,error,smoothed,error_smoothed,equalization,parametric_eq,fixed_band_eq,equalized_raw,equalized_smoothed,target
20.00,-43.19,-37.79,-43.19,-37.79,6.00,6.11,2.72,-37.19,-37.19,-5.40
20.20,-43.65,-38.24,-43.66,-38.24,6.00,6.11,2.80,-37.65,-37.66,-5.41
20.40,-44.00,-38.58,-43.98,-38.56,6.00,6.11,2.88,-38.00,-37.98,-5.42
20.61,-44.20,-38.77,-44.17,-38.74,6.00,6.11,2.96,-38.20,-38.17,-5.43
20.81,-44.20,-38.75,-44.21,-38.76,6.00,6.11,3.04,-38.20,-38.21,-5.44
21.02,-44.11,-38.65,-44.11,-38.66,6.00,6.11,3.13,-38.11,-38.11,-5.45
21.23,-43.94,-38.47,-43.93,-38.47,6.00,6.11,3.22,-37.94,-37.93,-5.46
21.44,-43.70,-38.23,-43.71,-38.23,6.00,6.11,3.31,-37.70,-37.71,-5.47
21.66,-43.44,-37.96,-43.44,-37.96,6.00,6.11,3.41,-37.44,-37.44,-5.48
21.87,-43.17,-37.68,-43.17,-37.68,6.00,6.11,3.50,-37.17,-37.17,-5.49
22.09,-42.90,-37.40,-42.91,-37.41,6.00,6.11,3.60,-36.90,-36.91,-5.50
22.31,-42.65,-37.14,-42.66,-37.15,6.00,6.11,3.70,-36.65,-36.66,-5.51
22.54,-42.40,-36.88,-42.39,-36.87,6.00,6.11,3.81,-36.40,-36.39,-5.52
22.76,-42.10,-36.57,-42.10,-36.57,6.00,6.11,3.92,-36.10,-36.10,-5.53
22.99,-41.77,-36.24,-41.77,-36.23,6.00,6.11,4.02,-35.77,-35.77,-5.53
23.22,-41.40,-35.86,-41.39,-35.85,6.00,6.11,4.14,-35.40,-35.39,-5.54
23.45,-40.98,-35.43,-40.99,-35.44,6.00,6.11,4.25,-34.98,-34.99,-5.55
23.69,-40.58,-35.02,-40.58,-35.02,6.00,6.11,4.37,-34.58,-34.58,-5.56
23.92,-40.20,-34.63,-40.20,-34.63,6.00,6.11,4.49,-34.20,-34.20,-5.57
24.16,-39.86,-34.28,-39.88,-34.30,6.00,6.11,4.61,-33.86,-33.88,-5.58
24.40,-39.63,-34.04,-39.64,-34.06,6.00,6.11,4.74,-33.63,-33.64,-5.59
24.65,-39.50,-33.91,-39.50,-33.91,6.00,6.11,4.86,-33.50,-33.50,-5.59
24.89,-39.43,-33.83,-39.43,-33.84,6.00,6.11,4.99,-33.43,-33.43,-5.59
25.14,-39.41,-33.81,-39.41,-33.81,6.00,6.11,5.12,-33.41,-33.41,-5.59
25.39,-39.41,-33.80,-39.41,-33.81,6.00,6.11,5.25,-33.41,-33.41,-5.60
25.65,-39.40,-33.80,-39.39,-33.79,6.00,6.11,5.38,-33.40,-33.39,-5.60
25.91,-39.36,-33.76,-39.34,-33.74,6.00,6.11,5.51,-33.36,-33.34,-5.60
26.16,-39.24,-33.64,-39.25,-33.65,6.00,6.11,5.64,-33.24,-33.25,-5.60
26.43,-39.11,-33.51,-39.11,-33.51,6.00,6.11,5.78,-33.11,-33.11,-5.60
26.69,-38.93,-33.33,-38.92,-33.32,6.00,6.11,5.91,-32.93,-32.92,-5.60
26.96,-38.70,-33.10,-38.70,-33.10,6.00,6.11,6.04,-32.70,-32.70,-5.60
27.23,-38.43,-32.83,-38.43,-32.83,6.00,6.11,6.16,-32.43,-32.43,-5.60
27.50,-38.12,-32.52,-38.10,-32.50,6.00,6.11,6.29,-32.12,-32.10,-5.60
27.77,-37.72,-32.12,-37.73,-32.12,6.00,6.11,6.41,-31.72,-31.73,-5.60
28.05,-37.30,-31.69,-37.30,-31.69,6.00,6.11,6.53,-31.30,-31.30,-5.61
28.33,-36.86,-31.25,-36.85,-31.24,6.00,6.11,6.64,-30.86,-30.85,-5.61
28.62,-36.40,-30.78,-36.41,-30.79,6.00,6.11,6.74,-30.40,-30.41,-5.62
28.90,-36.00,-30.37,-36.00,-30.37,6.00,6.11,6.84,-30.00,-30.00,-5.62
29.19,-35.65,-30.01,-35.65,-30.01,6.00,6.11,6.94,-29.65,-29.65,-5.63
29.48,-35.38,-29.73,-35.39,-29.75,6.00,6.11,7.02,-29.38,-29.39,-5.64
29.78,-35.24,-29.60,-35.24,-29.59,6.00,6.11,7.10,-29.24,-29.24,-5.64
30.08,-35.19,-29.54,-35.19,-29.54,6.00,6.11,7.17,-29.19,-29.19,-5.65
30.38,-35.23,-29.57,-35.24,-29.59,6.00,6.11,7.23,-29.23,-29.24,-5.65
30.68,-35.34,-29.68,-35.33,-29.68,6.00,6.11,7.27,-29.34,-29.33,-5.65
30.99,-35.44,-29.78,-35.43,-29.78,6.00,6.11,7.32,-29.44,-29.43,-5.65
31.30,-35.52,-29.86,-35.50,-29.85,6.00,6.11,7.34,-29.52,-29.50,-5.65
31.61,-35.51,-29.86,-35.51,-29.86,6.00,6.11,7.36,-29.51,-29.51,-5.65
31.93,-35.45,-29.81,-35.45,-29.80,6.00,6.10,7.37,-29.45,-29.45,-5.64
32.24,-35.33,-29.69,-35.32,-29.68,6.00,6.10,7.37,-29.33,-29.32,-5.64
32.57,-35.16,-29.52,-35.17,-29.53,6.00,6.10,7.36,-29.16,-29.17,-5.64
32.89,-35.00,-29.36,-35.00,-29.36,6.00,6.10,7.34,-29.00,-29.00,-5.63
33.22,-34.82,-29.18,-34.82,-29.19,6.00,6.10,7.31,-28.82,-28.82,-5.63
33.55,-34.66,-29.02,-34.65,-29.02,6.00,6.10,7.27,-28.66,-28.65,-5.63
33.89,-34.49,-28.85,-34.49,-28.85,6.00,6.10,7.23,-28.49,-28.49,-5.64
34.23,-34.33,-28.69,-34.33,-28.69,6.00,6.10,7.18,-28.33,-28.33,-5.64
34.57,-34.18,-28.53,-34.18,-28.53,6.00,6.10,7.12,-28.18,-28.18,-5.64
34.92,-34.04,-28.39,-34.04,-28.38,6.00,6.10,7.06,-28.04,-28.04,-5.65
35.27,-33.91,-28.25,-33.91,-28.25,6.00,6.09,7.00,-27.91,-27.91,-5.66
35.62,-33.80,-28.13,-33.80,-28.13,6.00,6.09,6.93,-27.80,-27.80,-5.67
35.97,-33.72,-28.03,-33.71,-28.03,6.00,6.09,6.86,-27.72,-27.71,-5.68
36.33,-33.64,-27.94,-33.64,-27.95,6.00,6.09,6.79,-27.64,-27.64,-5.69
36.70,-33.60,-27.89,-33.60,-27.89,6.00,6.09,6.71,-27.60,-27.60,-5.71
37.06,-33.58,-27.85,-33.57,-27.85,6.00,6.09,6.64,-27.58,-27.57,-5.72
37.43,-33.56,-27.81,-33.56,-27.82,6.00,6.09,6.57,-27.56,-27.56,-5.74
37.81,-33.55,-27.80,-33.55,-27.79,6.00,6.08,6.50,-27.55,-27.55,-5.75
38.19,-33.53,-27.76,-33.53,-27.76,6.00,6.08,6.42,-27.53,-27.53,-5.77
38.57,-33.52,-27.74,-33.51,-27.73,6.00,6.08,6.35,-27.52,-27.51,-5.78
38.95,-33.49,-27.69,-33.49,-27.70,6.00,6.08,6.29,-27.49,-27.49,-5.79
39.34,-33.47,-27.66,-33.47,-27.66,6.00,6.08,6.22,-27.47,-27.47,-5.80
39.74,-33.45,-27.64,-33.45,-27.63,6.00,6.07,6.16,-27.45,-27.45,-5.81
40.14,-33.44,-27.62,-33.44,-27.62,6.00,6.07,6.10,-27.44,-27.44,-5.82
40.54,-33.45,-27.63,-33.45,-27.62,6.00,6.07,6.04,-27.45,-27.45,-5.82
40.94,-33.47,-27.65,-33.47,-27.64,6.00,6.07,5.99,-27.47,-27.47,-5.82
41.35,-33.52,-27.69,-33.51,-27.69,6.00,6.06,5.94,-27.52,-27.51,-5.83
41.76,-33.58,-27.75,-33.58,-27.75,6.00,6.06,5.90,-27.58,-27.58,-5.83
42.18,-33.67,-27.85,-33.67,-27.84,6.00,6.06,5.86,-27.67,-27.67,-5.82
42.60,-33.79,-27.97,-33.78,-27.96,6.00,6.05,5.82,-27.79,-27.78,-5.82
43.03,-33.92,-28.10,-33.92,-28.10,6.00,6.05,5.79,-27.92,-27.92,-5.82
43.46,-34.09,-28.28,-34.08,-28.27,6.00,6.05,5.76,-28.09,-28.08,-5.81
43.90,-34.28,-28.48,-34.29,-28.48,6.00,6.04,5.73,-28.28,-28.29,-5.80
44.33,-34.52,-28.72,-34.53,-28.73,6.00,6.04,5.71,-28.52,-28.53,-5.80
44.78,-34.82,-29.02,-34.81,-29.02,6.00,6.04,5.70,-28.82,-28.81,-5.79
45.23,-35.13,-29.35,-35.14,-29.35,6.00,6.03,5.69,-29.13,-29.14,-5.78
45.68,-35.48,-29.69,-35.48,-29.70,6.00,6.03,5.68,-29.48,-29.48,-5.78
46.13,-35.83,-30.05,-35.82,-30.05,6.00,6.02,5.68,-29.83,-29.82,-5.78
46.60,-36.15,-30.38,-36.16,-30.38,6.00,6.02,5.68,-30.15,-30.16,-5.77
47.06,-36.45,-30.68,-36.45,-30.68,6.00,6.01,5.68,-30.45,-30.45,-5.77
47.53,-36.71,-30.94,-36.69,-30.92,6.00,6.01,5.69,-30.71,-30.69,-5.77
48.01,-36.88,-31.10,-36.88,-31.11,6.00,6.00,5.71,-30.88,-30.88,-5.77
48.49,-37.00,-31.22,-37.00,-31.23,6.00,6.00,5.72,-31.00,-31.00,-5.77
48.97,-37.07,-31.30,-37.05,-31.28,6.00,5.99,5.74,-31.07,-31.05,-5.77
49.46,-37.06,-31.28,-37.06,-31.29,6.00,5.99,5.77,-31.06,-31.06,-5.77
49.96,-37.03,-31.25,-37.03,-31.25,6.00,5.98,5.79,-31.03,-31.03,-5.78
50.46,-36.97,-31.19,-36.96,-31.18,6.00,5.98,5.82,-30.97,-30.96,-5.78
50.96,-36.88,-31.08,-36.88,-31.09,6.00,5.97,5.86,-30.88,-30.88,-5.79
51.47,-36.77,-30.97,-36.78,-30.99,6.00,5.96,5.89,-30.77,-30.78,-5.79
51.99,-36.66,-30.87,-36.65,-30.86,6.00,5.96,5.93,-30.66,-30.65,-5.79
52.51,-36.51,-30.72,-36.50,-30.71,6.00,5.95,5.97,-30.51,-30.50,-5.79
53.03,-36.32,-30.52,-36.32,-30.53,6.00,5.94,6.00,-30.32,-30.32,-5.79
53.56,-36.11,-30.31,-36.10,-30.31,6.00,5.94,6.04,-30.11,-30.10,-5.79
54.10,-35.85,-30.06,-35.85,-30.06,6.00,5.93,6.09,-29.85,-29.85,-5.79
54.64,-35.58,-29.79,-35.58,-29.78,6.00,5.92,6.13,-29.58,-29.58,-5.79
55.18,-35.26,-29.47,-35.26,-29.47,6.00,5.91,6.17,-29.26,-29.26,-5.79
55.74,-34.92,-29.13,-34.92,-29.12,6.00,5.90,6.21,-28.92,-28.92,-5.79
56.29,-34.54,-28.74,-34.54,-28.75,6.00,5.90,6.24,-28.54,-28.54,-5.79
56.86,-34.14,-28.35,-34.14,-28.35,6.00,5.89,6.28,-28.14,-28.14,-5.79
57.42,-33.72,-27.93,-33.73,-27.94,6.00,5.88,6.31,-27.72,-27.73,-5.79
58.00,-33.32,-27.53,-33.31,-27.52,6.00,5.87,6.34,-27.32,-27.31,-5.79
58.58,-32.89,-27.10,-32.89,-27.10,6.00,5.86,6.37,-26.89,-26.89,-5.79
59.16,-32.45,-26.66,-32.46,-26.67,6.00,5.85,6.40,-26.45,-26.46,-5.79
59.76,-32.04,-26.25,-32.03,-26.24,6.00,5.84,6.41,-26.04,-26.03,-5.79
60.35,-31.59,-25.80,-31.60,-25.81,6.00,5.83,6.43,-25.59,-25.60,-5.79
60.96,-31.17,-25.38,-31.16,-25.37,6.00,5.82,6.44,-25.17,-25.16,-5.79
61.57,-30.73,-24.93,-30.73,-24.93,6.00,5.81,6.45,-24.73,-24.73,-5.80
62.18,-30.30,-24.49,-30.30,-24.50,6.00,5.80,6.45,-24.30,-24.30,-5.80
62.80,-29.88,-24.08,-29.88,-24.07,6.00,5.79,6.44,-23.88,-23.88,-5.80
63.43,-29.48,-23.66,-29.48,-23.67,6.00,5.78,6.43,-23.48,-23.48,-5.81
64.07,-29.10,-23.29,-29.09,-23.28,6.00,5.77,6.42,-23.10,-23.09,-5.81
64.71,-28.75,-22.94,-28.75,-22.93,6.00,5.76,6.40,-22.75,-22.75,-5.81
65.35,-28.44,-22.62,-28.45,-22.64,6.00,5.75,6.37,-22.44,-22.45,-5.81
66.01,-28.22,-22.41,-28.21,-22.40,6.00,5.74,6.34,-22.22,-22.21,-5.81
66.67,-28.04,-22.23,-28.04,-22.22,6.00,5.73,6.31,-22.04,-22.04,-5.81
67.33,-27.92,-22.10,-27.93,-22.12,6.00,5.72,6.27,-21.92,-21.93,-5.81
68.01,-27.89,-22.08,-27.88,-22.07,6.00,5.70,6.23,-21.89,-21.88,-5.81
68.69,-27.89,-22.08,-27.89,-22.08,6.00,5.69,6.19,-21.89,-21.89,-5.81
69.37,-27.93,-22.12,-27.93,-22.12,6.00,5.68,6.14,-21.93,-21.93,-5.81
70.07,-28.00,-22.19,-27.99,-22.19,6.00,5.67,6.09,-22.00,-21.99,-5.80
70.77,-28.07,-22.27,-28.07,-22.27,6.00,5.66,6.04,-22.07,-22.07,-5.80
71.48,-28.13,-22.32,-28.13,-22.33,6.00,5.65,5.99,-22.13,-22.13,-5.80
72.19,-28.18,-22.38,-28.16,-22.36,6.00,5.64,5.94,-22.18,-22.16,-5.80
72.91,-28.16,-22.36,-28.16,-22.37,6.00,5.63,5.89,-22.16,-22.16,-5.79
73.64,-28.11,-22.31,-28.11,-22.32,6.00,5.62,5.84,-22.11,-22.11,-5.79
74.38,-28.03,-22.24,-28.01,-22.22,6.00,5.61,5.79,-22.03,-22.01,-5.79
75.12,-27.86,-22.06,-27.86,-22.07,6.00,5.60,5.74,-21.86,-21.86,-5.79
75.87,-27.67,-21.88,-27.67,-21.89,6.00,5.60,5.69,-21.67,-21.67,-5.78
76.63,-27.46,-21.67,-27.45,-21.66,6.00,5.59,5.65,-21.46,-21.45,-5.78
77.40,-27.20,-21.42,-27.20,-21.42,6.00,5.58,5.60,-21.20,-21.20,-5.78
78.17,-26.94,-21.15,-26.93,-21.16,6.00,5.58,5.56,-20.94,-20.93,-5.78
78.95,-26.66,-20.88,-26.66,-20.88,6.00,5.57,5.53,-20.66,-20.66,-5.77
79.74,-26.38,-20.60,-26.38,-20.61,6.00,5.57,5.49,-20.38,-20.38,-5.77
80.54,-26.11,-20.33,-26.10,-20.34,6.00,5.56,5.46,-20.11,-20.10,-5.77
81.35,-25.84,-20.08,-25.84,-20.07,6.00,5.56,5.43,-19.84,-19.84,-5.76
82.16,-25.58,-19.81,-25.58,-19.82,6.00,5.56,5.40,-19.58,-19.58,-5.76
82.98,-25.34,-19.57,-25.34,-19.58,6.00,5.56,5.38,-19.34,-19.34,-5.76
83.81,-25.11,-19.35,-25.11,-19.36,6.00,5.56,5.36,-19.11,-19.11,-5.75
84.65,-24.91,-19.16,-24.90,-19.15,6.00,5.56,5.35,-18.91,-18.90,-5.75
85.50,-24.71,-18.97,-24.71,-18.96,6.00,5.57,5.34,-18.71,-18.71,-5.74
86.35,-24.52,-18.78,-24.52,-18.79,6.00,5.57,5.33,-18.52,-18.52,-5.73
87.22,-24.36,-18.63,-24.35,-18.62,6.00,5.58,5.33,-18.36,-18.35,-5.73
88.09,-24.20,-18.48,-24.20,-18.47,6.00,5.59,5.33,-18.20,-18.20,-5.72
88.97,-24.05,-18.33,-24.05,-18.33,6.00,5.61,5.34,-18.05,-18.05,-5.72
89.86,-23.92,-18.21,-23.91,-18.20,6.00,5.62,5.35,-17.92,-17.91,-5.71
90.76,-23.79,-18.08,-23.79,-18.08,6.00,5.64,5.36,-17.79,-17.79,-5.71
91.66,-23.67,-17.96,-23.67,-17.96,6.00,5.65,5.38,-17.67,-17.67,-5.70
92.58,-23.55,-17.85,-23.55,-17.85,6.00,5.68,5.40,-17.55,-17.55,-5.70
93.51,-23.44,-17.74,-23.43,-17.73,6.00,5.70,5.43,-17.44,-17.43,-5.70
94.44,-23.32,-17.61,-23.32,-17.62,6.00,5.73,5.46,-17.32,-17.32,-5.70
95.39,-23.21,-17.51,-23.21,-17.51,6.00,5.75,5.49,-17.21,-17.21,-5.70
96.34,-23.10,-17.40,-23.09,-17.39,6.00,5.79,5.53,-17.10,-17.09,-5.70
97.30,-22.98,-17.27,-22.98,-17.27,6.00,5.82,5.57,-16.98,-16.98,-5.70
98.28,-22.86,-17.15,-22.86,-17.15,6.00,5.86,5.61,-16.86,-16.86,-5.71
99.26,-22.73,-17.02,-22.73,-17.01,6.00,5.90,5.65,-16.73,-16.73,-5.71
100.25,-22.59,-16.87,-22.59,-16.87,6.00,5.94,5.70,-16.59,-16.59,-5.71
101.25,-22.45,-16.72,-22.45,-16.73,6.00,5.98,5.75,-16.45,-16.45,-5.72
102.27,-22.30,-16.58,-22.30,-16.57,6.00,6.02,5.80,-16.30,-16.30,-5.72
103.29,-22.14,-16.42,-22.14,-16.41,6.00,6.07,5.86,-16.14,-16.14,-5.72
104.32,-21.97,-16.24,-21.97,-16.25,6.00,6.12,5.91,-15.97,-15.97,-5.72
105.37,-21.79,-16.07,-21.79,-16.07,6.00,6.17,5.97,-15.79,-15.79,-5.72
106.42,-21.60,-15.88,-21.60,-15.87,6.00,6.21,6.02,-15.60,-15.60,-5.72
107.48,-21.40,-15.67,-21.39,-15.67,6.00,6.26,6.08,-15.40,-15.39,-5.72
108.56,-21.18,-15.46,-21.18,-15.46,6.00,6.31,6.13,-15.18,-15.18,-5.72
109.64,-20.95,-15.23,-20.95,-15.24,6.00,6.35,6.18,-14.95,-14.95,-5.71
110.74,-20.72,-15.01,-20.72,-15.00,6.00,6.39,6.23,-14.72,-14.72,-5.71
111.85,-20.47,-14.76,-20.47,-14.76,6.00,6.43,6.27,-14.47,-14.47,-5.71
112.97,-20.21,-14.50,-20.20,-14.49,6.00,6.46,6.31,-14.21,-14.20,-5.71
114.10,-19.92,-14.21,-19.92,-14.20,6.00,6.49,6.35,-13.92,-13.92,-5.71
115.24,-19.61,-13.90,-19.61,-13.90,6.00,6.51,6.38,-13.61,-13.61,-5.71
116.39,-19.29,-13.57,-19.29,-13.57,6.00,6.52,6.40,-13.29,-13.29,-5.72
117.55,-18.95,-13.22,-18.95,-13.22,6.00,6.52,6.42,-12.95,-12.95,-5.72
118.73,-18.59,-12.86,-18.59,-12.85,6.00,6.51,6.43,-12.59,-12.59,-5.73
119.92,-18.21,-12.47,-18.21,-12.47,6.00,6.48,6.43,-12.21,-12.21,-5.74
121.12,-17.82,-12.07,-17.81,-12.06,6.00,6.45,6.42,-11.82,-11.81,-5.75
122.33,-17.41,-11.65,-17.41,-11.65,6.00,6.40,6.40,-11.41,-11.41,-5.76
123.55,-17.00,-11.23,-17.00,-11.23,6.00,6.35,6.38,-11.00,-11.00,-5.77
124.79,-16.59,-10.81,-16.58,-10.80,6.00,6.27,6.34,-10.59,-10.58,-5.78
126.03,-16.17,-10.37,-16.17,-10.37,6.00,6.19,6.29,-10.17,-10.17,-5.79
127.29,-15.75,-9.93,-15.75,-9.94,6.00,6.08,6.23,-9.75,-9.75,-5.81
128.57,-15.33,-9.51,-15.33,-9.50,6.00,5.97,6.17,-9.33,-9.33,-5.82
129.85,-14.91,-9.07,-14.91,-9.08,6.00,5.84,6.09,-8.91,-8.91,-5.83
131.15,-14.50,-8.65,-14.50,-8.65,6.00,5.71,6.01,-8.50,-8.49,-5.84
132.46,-14.09,-8.23,-14.09,-8.24,6.03,5.57,5.91,-8.06,-8.06,-5.85
133.79,-13.69,-7.84,-13.69,-7.83,6.05,5.42,5.81,-7.64,-7.64,-5.85
135.12,-13.30,-7.43,-13.30,-7.44,6.06,5.25,5.70,-7.23,-7.23,-5.86
136.48,-12.92,-7.06,-12.92,-7.06,6.05,5.09,5.58,-6.87,-6.87,-5.86
137.84,-12.55,-6.69,-12.55,-6.68,5.99,4.91,5.45,-6.55,-6.55,-5.86
139.22,-12.19,-6.33,-12.19,-6.32,5.90,4.74,5.33,-6.29,-6.29,-5.86
140.61,-11.84,-5.97,-11.84,-5.98,5.75,4.56,5.19,-6.09,-6.09,-5.86
142.02,-11.50,-5.64,-11.50,-5.64,5.56,4.38,5.05,-5.94,-5.94,-5.86
143.44,-11.18,-5.32,-11.17,-5.31,5.33,4.20,4.90,-5.85,-5.85,-5.86
144.87,-10.86,-4.99,-10.86,-5.00,5.06,4.01,4.76,-5.80,-5.80,-5.86
146.32,-10.55,-4.69,-10.55,-4.69,4.76,3.83,4.60,-5.79,-5.79,-5.86
147.78,-10.26,-4.39,-10.25,-4.39,4.44,3.65,4.45,-5.81,-5.81,-5.86
149.26,-9.96,-4.09,-9.97,-4.10,4.13,3.47,4.30,-5.83,-5.84,-5.86
150.75,-9.70,-3.83,-9.69,-3.83,3.83,3.29,4.14,-5.86,-5.86,-5.86
152.26,-9.43,-3.56,-9.43,-3.57,3.57,3.12,3.98,-5.86,-5.86,-5.86
153.78,-9.18,-3.31,-9.17,-3.31,3.31,2.94,3.83,-5.86,-5.86,-5.86
155.32,-8.93,-3.06,-8.93,-3.07,3.07,2.77,3.67,-5.86,-5.86,-5.86
156.88,-8.70,-2.84,-8.70,-2.84,2.83,2.60,3.51,-5.87,-5.86,-5.86
158.44,-8.48,-2.61,-8.47,-2.61,2.60,2.44,3.36,-5.87,-5.87,-5.86
160.03,-8.25,-2.39,-8.26,-2.39,2.38,2.27,3.20,-5.86,-5.87,-5.86
161.63,-8.05,-2.18,-8.05,-2.17,2.17,2.12,3.04,-5.87,-5.87,-5.87
163.24,-7.85,-1.96,-7.84,-1.96,1.97,1.96,2.89,-5.88,-5.87,-5.88
164.88,-7.65,-1.77,-7.65,-1.77,1.77,1.80,2.73,-5.87,-5.88,-5.88
166.53,-7.46,-1.58,-7.46,-1.58,1.58,1.65,2.58,-5.87,-5.88,-5.88
168.19,-7.29,-1.40,-7.28,-1.40,1.40,1.50,2.43,-5.89,-5.88,-5.88
169.87,-7.12,-1.23,-7.11,-1.23,1.22,1.35,2.28,-5.89,-5.89,-5.88
171.57,-6.95,-1.05,-6.95,-1.06,1.06,1.21,2.13,-5.89,-5.89,-5.89
173.29,-6.79,-0.90,-6.79,-0.89,0.89,1.07,1.98,-5.89,-5.89,-5.89
175.02,-6.63,-0.74,-6.63,-0.74,0.74,0.93,1.84,-5.89,-5.89,-5.89
176.77,-6.48,-0.59,-6.48,-0.59,0.59,0.79,1.69,-5.89,-5.89,-5.89
178.54,-6.34,-0.45,-6.34,-0.44,0.44,0.65,1.55,-5.89,-5.89,-5.89
180.32,-6.20,-0.30,-6.20,-0.31,0.31,0.52,1.40,-5.89,-5.89,-5.89
182.13,-6.07,-0.18,-6.07,-0.17,0.17,0.38,1.26,-5.90,-5.89,-5.89
183.95,-5.94,-0.05,-5.93,-0.04,0.04,0.25,1.12,-5.90,-5.89,-5.89
185.79,-5.81,0.08,-5.81,0.08,-0.08,0.12,0.98,-5.89,-5.89,-5.89
187.65,-5.69,0.20,-5.69,0.20,-0.20,-0.01,0.85,-5.89,-5.89,-5.89
189.52,-5.58,0.32,-5.57,0.32,-0.32,-0.13,0.71,-5.90,-5.89,-5.89
191.42,-5.46,0.44,-5.46,0.44,-0.43,-0.25,0.57,-5.89,-5.90,-5.90
193.33,-5.36,0.54,-5.36,0.54,-0.54,-0.37,0.44,-5.90,-5.90,-5.90
195.27,-5.26,0.64,-5.25,0.65,-0.65,-0.49,0.31,-5.90,-5.90,-5.90
197.22,-5.16,0.74,-5.16,0.75,-0.75,-0.60,0.17,-5.90,-5.90,-5.90
199.19,-5.06,0.84,-5.06,0.84,-0.84,-0.71,0.04,-5.90,-5.90,-5.90
201.18,-4.97,0.93,-4.97,0.93,-0.93,-0.81,-0.09,-5.90,-5.90,-5.90
203.19,-4.89,1.02,-4.88,1.02,-1.02,-0.91,-0.21,-5.91,-5.90,-5.90
205.23,-4.80,1.10,-4.80,1.10,-1.10,-1.00,-0.34,-5.90,-5.90,-5.90
207.28,-4.72,1.18,-4.72,1.18,-1.19,-1.09,-0.47,-5.90,-5.90,-5.90
209.35,-4.64,1.26,-4.64,1.27,-1.27,-1.17,-0.59,-5.90,-5.90,-5.90
211.44,-4.56,1.35,-4.56,1.35,-1.35,-1.25,-0.71,-5.90,-5.91,-5.90
213.56,-4.49,1.42,-4.49,1.42,-1.42,-1.32,-0.83,-5.91,-5.91,-5.91
215.69,-4.42,1.50,-4.42,1.50,-1.49,-1.39,-0.95,-5.91,-5.91,-5.91
217.85,-4.35,1.56,-4.35,1.57,-1.57,-1.46,-1.06,-5.91,-5.91,-5.91
220.03,-4.28,1.63,-4.28,1.64,-1.63,-1.52,-1.18,-5.91,-5.91,-5.91
222.23,-4.21,1.70,-4.21,1.70,-1.70,-1.58,-1.29,-5.91,-5.91,-5.91
224.45,-4.15,1.76,-4.15,1.77,-1.76,-1.63,-1.40,-5.91,-5.91,-5.91
226.70,-4.09,1.82,-4.08,1.83,-1.83,-1.68,-1.50,-5.92,-5.91,-5.91
228.96,-4.02,1.89,-4.02,1.89,-1.89,-1.74,-1.61,-5.91,-5.92,-5.91
231.25,-3.97,1.94,-3.96,1.95,-1.95,-1.79,-1.71,-5.92,-5.92,-5.91
233.57,-3.91,2.00,-3.90,2.01,-2.02,-1.84,-1.80,-5.92,-5.92,-5.91
235.90,-3.85,2.08,-3.85,2.08,-2.08,-1.89,-1.90,-5.92,-5.92,-5.93
238.26,-3.79,2.14,-3.79,2.14,-2.14,-1.94,-1.99,-5.92,-5.92,-5.93
240.64,-3.74,2.19,-3.73,2.20,-2.19,-1.99,-2.07,-5.93,-5.93,-5.93
243.05,-3.68,2.25,-3.68,2.25,-2.25,-2.04,-2.15,-5.93,-5.93,-5.93
245.48,-3.63,2.30,-3.63,2.30,-2.31,-2.09,-2.23,-5.93,-5.94,-5.93
247.93,-3.58,2.35,-3.57,2.36,-2.36,-2.14,-2.31,-5.94,-5.93,-5.93
250.41,-3.52,2.41,-3.52,2.41,-2.42,-2.20,-2.38,-5.93,-5.93,-5.93
252.92,-3.46,2.47,-3.46,2.47,-2.47,-2.25,-2.45,-5.93,-5.93,-5.93
255.45,-3.42,2.51,-3.41,2.52,-2.52,-2.31,-2.51,-5.94,-5.93,-5.93
258.00,-3.36,2.57,-3.36,2.57,-2.57,-2.36,-2.57,-5.93,-5.93,-5.93
260.58,-3.31,2.62,-3.31,2.62,-2.63,-2.42,-2.63,-5.93,-5.94,-5.93
263.19,-3.27,2.67,-3.26,2.68,-2.68,-2.47,-2.68,-5.94,-5.94,-5.94
265.82,-3.22,2.72,-3.22,2.73,-2.73,-2.53,-2.73,-5.94,-5.94,-5.94
268.48,-3.17,2.77,-3.17,2.77,-2.78,-2.59,-2.78,-5.94,-5.95,-5.94
271.16,-3.13,2.82,-3.13,2.82,-2.82,-2.65,-2.83,-5.95,-5.95,-5.95
273.87,-3.09,2.86,-3.09,2.87,-2.87,-2.71,-2.87,-5.95,-5.95,-5.95
276.61,-3.05,2.91,-3.05,2.91,-2.91,-2.77,-2.91,-5.96,-5.96,-5.96
279.38,-3.01,2.95,-3.01,2.95,-2.95,-2.84,-2.95,-5.96,-5.96,-5.96
282.17,-2.98,2.99,-2.97,2.99,-2.99,-2.90,-2.99,-5.97,-5.97,-5.97
284.99,-2.94,3.02,-2.94,3.03,-3.03,-2.96,-3.03,-5.97,-5.97,-5.96
287.84,-2.91,3.05,-2.90,3.06,-3.07,-3.03,-3.07,-5.97,-5.97,-5.96
290.72,-2.87,3.10,-2.87,3.10,-3.10,-3.09,-3.11,-5.97,-5.97,-5.97
293.63,-2.84,3.13,-2.84,3.13,-3.13,-3.16,-3.15,-5.97,-5.97,-5.97
296.57,-2.81,3.16,-2.81,3.17,-3.16,-3.22,-3.18,-5.97,-5.97,-5.97
299.53,-2.78,3.18,-2.78,3.19,-3.19,-3.29,-3.22,-5.97,-5.97,-5.96
302.53,-2.76,3.21,-2.76,3.21,-3.22,-3.36,-3.26,-5.97,-5.97,-5.97
305.55,-2.74,3.22,-2.73,3.23,-3.24,-3.42,-3.30,-5.97,-5.97,-5.96
308.61,-2.72,3.25,-2.72,3.25,-3.25,-3.49,-3.35,-5.97,-5.97,-5.97
311.69,-2.70,3.26,-2.70,3.26,-3.26,-3.56,-3.39,-5.96,-5.96,-5.96
314.81,-2.70,3.27,-2.70,3.27,-3.26,-3.63,-3.44,-5.96,-5.96,-5.97
317.96,-2.71,3.25,-2.70,3.26,-3.25,-3.70,-3.48,-5.96,-5.96,-5.96
321.14,-2.72,3.24,-2.72,3.24,-3.24,-3.77,-3.53,-5.95,-5.95,-5.96
324.35,-2.74,3.22,-2.74,3.22,-3.21,-3.84,-3.59,-5.95,-5.95,-5.96
327.59,-2.78,3.17,-2.78,3.18,-3.17,-3.91,-3.64,-5.95,-5.95,-5.95
330.87,-2.82,3.13,-2.82,3.13,-3.12,-3.98,-3.70,-5.94,-5.94,-5.95
334.18,-2.87,3.08,-2.86,3.09,-3.07,-4.06,-3.76,-5.94,-5.93,-5.95
337.52,-2.91,3.04,-2.91,3.04,-3.01,-4.13,-3.82,-5.92,-5.93,-5.95
340.90,-2.96,2.99,-2.96,2.99,-2.97,-4.20,-3.89,-5.93,-5.93,-5.95
344.30,-3.00,2.94,-3.00,2.95,-2.96,-4.27,-3.96,-5.95,-5.95,-5.94
347.75,-3.02,2.91,-3.03,2.90,-2.97,-4.34,-4.03,-5.99,-6.00,-5.93
351.23,-3.03,2.91,-3.02,2.91,-3.01,-4.42,-4.11,-6.04,-6.03,-5.94
354.74,-3.00,2.92,-2.95,2.98,-3.07,-4.49,-4.18,-6.07,-6.02,-5.92
358.28,-2.81,3.13,-2.82,3.11,-3.15,-4.56,-4.27,-5.95,-5.97,-5.93
361.87,-2.65,3.27,-2.66,3.26,-3.23,-4.63,-4.35,-5.87,-5.89,-5.92
365.49,-2.52,3.40,-2.53,3.40,-3.30,-4.70,-4.44,-5.82,-5.82,-5.92
369.14,-2.45,3.47,-2.45,3.46,-3.35,-4.78,-4.53,-5.80,-5.81,-5.92
