frequency,raw
20,-8.26
21,-7.80
22,-7.43
23,-7.11
24,-6.85
25,-6.40
26,-6.03
27,-5.66
28,-5.32
29,-5.03
30,-4.84
31,-4.66
32,-4.47
33,-4.28
34,-4.06
35,-3.77
36,-3.48
37,-3.25
38,-3.11
39,-2.99
40,-2.87
41,-2.79
42,-2.72
43,-2.67
44,-2.56
45,-2.42
46,-2.32
47,-2.23
48,-2.13
49,-2.02
50,-1.92
51,-1.79
52,-1.67
53,-1.54
54,-1.44
55,-1.37
56,-1.31
57,-1.24
58,-1.19
59,-1.14
60,-1.08
61,-1.04
62,-0.99
63,-0.97
64,-0.95
65,-0.95
66,-0.95
67,-0.96
68,-0.99
69,-1.03
70,-1.10
71,-1.13
72,-1.13
73,-1.13
74,-1.13
75,-1.09
76,-1.02
77,-0.97
78,-0.90
79,-0.83
80,-0.74
81,-0.62
82,-0.53
83,-0.44
84,-0.35
85,-0.31
86,-0.30
87,-0.26
88,-0.25
89,-0.25
90,-0.20
91,-0.19
92,-0.16
93,-0.15
94,-0.09
95,-0.04
96,0.01
97,0.08
98,0.16
99,0.26
100,0.32
101,0.38
102,0.45
104,0.52
105,0.57
106,0.62
107,0.69
108,0.75
109,0.80
110,0.87
111,0.89
112,0.94
113,0.99
114,1.02
115,1.06
117,1.11
118,1.15
119,1.18
120,1.20
121,1.24
123,1.29
124,1.29
125,1.29
126,1.34
128,1.34
129,1.38
130,1.38
131,1.38
133,1.38
134,1.38
135,1.38
137,1.43
138,1.45
140,1.52
141,1.55
142,1.59
144,1.62
145,1.62
147,1.66
148,1.66
150,1.66
151,1.66
153,1.66
154,1.66
156,1.69
157,1.72
159,1.78
160,1.80
162,1.85
164,1.88
165,1.90
167,1.90
169,1.94
170,1.94
172,1.94
174,1.94
175,1.94
177,1.99
179,1.99
181,1.99
183,2.00
184,2.03
186,2.04
188,2.04
190,2.04
192,2.08
194,2.08
196,2.06
198,2.06
200,2.08
202,2.08
204,2.12
206,2.13
208,2.13
210,2.18
212,2.18
214,2.13
216,2.13
218,2.13
221,2.09
223,2.08
225,2.04
227,2.04
229,2.04
232,1.99
234,1.99
236,1.99
239,1.99
241,1.99
244,2.03
246,2.04
248,2.04
251,2.04
253,2.04
256,2.04
259,2.06
261,2.08
264,2.08
266,2.13
269,2.13
272,2.08
274,2.08
277,2.04
280,1.99
283,1.98
286,1.92
288,1.89
291,1.83
294,1.78
297,1.71
300,1.65
303,1.52
306,1.41
309,1.25
312,1.06
316,0.81
319,0.62
322,0.41
325,0.26
328,0.08
332,-0.09
335,-0.21
338,-0.30
342,-0.39
345,-0.44
349,-0.50
352,-0.54
356,-0.62
359,-0.65
363,-0.67
366,-0.69
370,-0.74
374,-0.79
377,-0.83
381,-0.89
385,-0.92
389,-1.01
393,-1.08
397,-1.14
401,-1.18
405,-1.24
409,-1.30
413,-1.36
417,-1.42
421,-1.50
425,-1.56
430,-1.68
434,-1.79
438,-1.84
443,-1.96
447,-2.06
451,-2.14
456,-2.26
460,-2.35
465,-2.47
470,-2.61
474,-2.69
479,-2.75
484,-2.80
489,-2.84
494,-2.89
499,-2.91
504,-2.91
509,-2.95
514,-2.98
519,-3.05
524,-3.12
529,-3.22
535,-3.35
540,-3.51
545,-3.68
551,-3.91
556,-4.06
562,-4.29
568,-4.53
573,-4.71
579,-4.91
585,-5.10
591,-5.27
596,-5.40
602,-5.51
608,-5.61
615,-5.68
621,-5.73
627,-5.75
633,-5.72
639,-5.68
646,-5.66
652,-5.61
659,-5.54
665,-5.49
672,-5.42
679,-5.38
686,-5.36
692,-5.30
699,-5.20
706,-5.06
713,-4.91
721,-4.69
728,-4.46
735,-4.20
742,-3.91
750,-3.53
757,-3.18
765,-2.77
773,-2.40
780,-2.08
788,-1.77
796,-1.50
804,-1.30
812,-1.16
820,-1.03
828,-0.96
837,-0.87
845,-0.82
853,-0.77
862,-0.74
871,-0.71
879,-0.71
888,-0.69
897,-0.64
906,-0.60
915,-0.55
924,-0.49
933,-0.42
943,-0.34
952,-0.29
962,-0.25
971,-0.23
981,-0.17
991,-0.10
1001,0.01
1011,0.12
1021,0.24
1031,0.36
1041,0.43
1052,0.45
1062,0.50
1073,0.52
1084,0.48
1094,0.43
1105,0.37
1116,0.28
1128,0.19
1139,0.11
1150,-0.00
1162,-0.09
1173,-0.19
1185,-0.31
1197,-0.42
1209,-0.51
1221,-0.61
1233,-0.72
1246,-0.78
1258,-0.85
1271,-0.90
1283,-0.93
1296,-0.95
1309,-0.99
1322,-0.99
1335,-1.03
1349,-1.04
1362,-1.04
1376,-1.06
1390,-1.09
1404,-1.09
1418,-1.09
1432,-1.08
1446,-1.04
1461,-1.04
1475,-0.99
1490,-0.99
1505,-0.99
1520,-0.99
1535,-1.02
1550,-1.06
1566,-1.11
1582,-1.15
1597,-1.18
1613,-1.21
1629,-1.24
1646,-1.27
1662,-1.25
1679,-1.20
1696,-1.14
1713,-1.06
1730,-1.01
1747,-0.93
1764,-0.85
1782,-0.77
1800,-0.70
1818,-0.64
1836,-0.58
1854,-0.51
1873,-0.45
1892,-0.39
1911,-0.32
1930,-0.27
1949,-0.21
1969,-0.18
1988,-0.15
2008,-0.07
2028,-0.02
2048,0.08
2069,0.15
2090,0.28
2111,0.39
2132,0.50
2153,0.63
2175,0.74
2196,0.89
2218,1.02
2240,1.19
2263,1.36
2285,1.54
2308,1.70
2331,1.90
2355,2.08
2378,2.26
2402,2.45
2426,2.61
2450,2.77
2475,2.94
2500,3.06
2525,3.19
2550,3.32
2575,3.43
2601,3.52
2627,3.61
2653,3.71
2680,3.77
2707,3.85
2734,3.92
2761,3.98
2789,4.02
2817,4.09
2845,4.17
2873,4.22
2902,4.30
2931,4.35
2960,4.38
2990,4.44
3020,4.49
3050,4.51
3080,4.55
3111,4.63
3142,4.72
3174,4.86
3206,4.99
3238,5.12
3270,5.28
3303,5.44
3336,5.57
3369,5.72
3403,5.81
3437,5.92
3471,6.00
3506,6.07
3541,6.12
3576,6.14
3612,6.09
3648,6.02
3685,5.93
3721,5.82
3759,5.69
3796,5.54
3834,5.39
3873,5.23
3911,5.05
3950,4.86
3990,4.68
4030,4.49
4070,4.33
4111,4.20
4152,4.07
4193,4.00
4235,3.89
4278,3.81
4321,3.76
4364,3.80
4407,3.88
4451,3.96
4496,4.04
4541,4.16
4586,4.29
4632,4.40
4679,4.51
4725,4.59
4773,4.60
4820,4.65
4868,4.65
4917,4.65
4966,4.60
5016,4.57
5066,4.56
5117,4.56
5168,4.56
5220,4.60
5272,4.65
5325,4.75
5378,4.83
5432,4.93
5486,5.03
5541,5.10
5596,5.21
5652,5.22
5709,5.13
5766,4.99
5823,4.83
5882,4.58
5940,4.32
6000,3.97
6060,3.55
6120,3.12
6182,2.63
6244,2.15
6306,1.69
6369,1.24
6433,0.86
6497,0.51
6562,0.22
6628,0.00
6694,-0.14
6761,-0.24
6828,-0.23
6897,-0.15
6966,-0.01
7035,0.17
7106,0.37
7177,0.67
7249,1.01
7321,1.36
7394,1.79
7468,2.21
7543,2.67
7618,3.10
7694,3.55
7771,3.99
7849,4.31
7928,4.58
8007,4.79
8087,4.86
8168,4.73
8250,4.53
8332,4.08
8415,3.55
8499,2.90
8584,2.11
8670,1.23
8757,0.17
8845,-0.74
8933,-1.73
9022,-2.88
9113,-3.86
9204,-4.80
9296,-5.80
9389,-6.62
9483,-7.34
9577,-8.03
9673,-8.60
9770,-9.10
9868,-9.72
9966,-10.27
10066,-10.82
10167,-11.62
10268,-12.24
10371,-12.63
10475,-13.14
10579,-13.07
10685,-12.70
10792,-12.20
10900,-11.49
11009,-10.80
11119,-10.19
11230,-9.76
11343,-9.54
11456,-9.61
11571,-9.78
11686,-10.03
11803,-10.33
11921,-10.68
12040,-11.05
12161,-11.40
12282,-11.71
12405,-11.99
12529,-12.23
12655,-12.39
12781,-12.56
12909,-12.67
13038,-12.73
13168,-12.62
13300,-12.46
13433,-12.35
13567,-12.24
13703,-12.17
13840,-12.16
13978,-12.19
14118,-12.22
14259,-12.12
14402,-11.85
14546,-11.52
14692,-11.10
14838,-10.60
14987,-10.00
15137,-9.34
15288,-8.55
15441,-7.60
15595,-6.64
15751,-5.64
15909,-4.82
16068,-4.12
16229,-3.64
16391,-3.39
16555,-3.29
16720,-3.42
16888,-3.67
17056,-4.08
17227,-4.58
17399,-5.16
17573,-5.72
17749,-6.21
17926,-6.63
18106,-6.81
18287,-6.96
18470,-6.93
18654,-6.86
18841,-6.78
19029,-6.75
19220,-6.86
19412,-6.99
19606,-7.17
19802,-7.30
20000,-7.36
