frequency,raw,error,smoothed,error_smoothed,equalization,parametric_eq,fixed_band_eq,equalized_raw,equalized_smoothed,target
20.00,-17.76,-23.11,-17.76,-23.11,6.00,6.13,2.70,-11.76,-11.76,5.35
20.20,-17.62,-23.01,-17.62,-23.00,6.00,6.13,2.78,-11.62,-11.62,5.39
20.40,-17.49,-22.91,-17.48,-22.90,6.00,6.13,2.86,-11.49,-11.48,5.42
20.61,-17.35,-22.80,-17.35,-22.80,6.00,6.13,2.94,-11.35,-11.35,5.45
20.81,-17.21,-22.70,-17.21,-22.70,6.00,6.13,3.02,-11.21,-11.21,5.49
21.02,-17.08,-22.61,-17.09,-22.60,6.00,6.13,3.11,-11.08,-11.09,5.53
21.23,-16.98,-22.52,-16.98,-22.52,6.00,6.13,3.19,-10.98,-10.98,5.54
21.44,-16.88,-22.43,-16.88,-22.44,6.00,6.13,3.29,-10.88,-10.88,5.56
21.66,-16.78,-22.36,-16.78,-22.36,6.00,6.13,3.38,-10.78,-10.78,5.57
21.87,-16.68,-22.26,-16.67,-22.26,6.00,6.13,3.47,-10.68,-10.67,5.58
22.09,-16.55,-22.15,-16.54,-22.14,6.00,6.13,3.57,-10.55,-10.54,5.60
22.31,-16.39,-21.99,-16.40,-22.00,6.00,6.13,3.67,-10.39,-10.40,5.60
22.54,-16.24,-21.85,-16.23,-21.85,6.00,6.13,3.78,-10.24,-10.23,5.61
22.76,-16.08,-21.70,-16.08,-21.69,6.00,6.13,3.89,-10.08,-10.08,5.62
22.99,-15.92,-21.54,-15.93,-21.56,6.00,6.13,3.99,-9.92,-9.93,5.62
23.22,-15.81,-21.44,-15.81,-21.44,6.00,6.13,4.11,-9.81,-9.81,5.63
23.45,-15.71,-21.35,-15.71,-21.35,6.00,6.13,4.22,-9.71,-9.71,5.64
23.69,-15.61,-21.26,-15.61,-21.26,6.00,6.13,4.34,-9.61,-9.61,5.65
23.92,-15.50,-21.16,-15.49,-21.15,6.00,6.13,4.46,-9.50,-9.49,5.66
24.16,-15.37,-21.04,-15.37,-21.03,6.00,6.13,4.58,-9.37,-9.37,5.67
24.40,-15.22,-20.89,-15.22,-20.89,6.00,6.13,4.70,-9.22,-9.22,5.68
24.65,-15.07,-20.74,-15.07,-20.74,6.00,6.13,4.83,-9.07,-9.07,5.66
24.89,-14.91,-20.57,-14.92,-20.58,6.00,6.13,4.95,-8.91,-8.92,5.66
25.14,-14.77,-20.43,-14.77,-20.43,6.00,6.13,5.08,-8.77,-8.77,5.66
25.39,-14.62,-20.28,-14.62,-20.28,6.00,6.13,5.21,-8.62,-8.62,5.66
25.65,-14.47,-20.13,-14.47,-20.13,6.00,6.13,5.34,-8.47,-8.47,5.66
25.91,-14.32,-19.97,-14.32,-19.98,6.00,6.13,5.47,-8.32,-8.32,5.65
26.16,-14.18,-19.84,-14.18,-19.84,6.00,6.13,5.60,-8.18,-8.18,5.66
26.43,-14.04,-19.70,-14.04,-19.69,6.00,6.13,5.74,-8.04,-8.04,5.66
26.69,-13.90,-19.56,-13.90,-19.56,6.00,6.12,5.86,-7.90,-7.90,5.66
26.96,-13.76,-19.42,-13.77,-19.42,6.00,6.12,5.99,-7.76,-7.77,5.66
27.23,-13.63,-19.29,-13.63,-19.28,6.00,6.12,6.12,-7.63,-7.63,5.65
27.50,-13.49,-19.14,-13.48,-19.13,6.00,6.12,6.24,-7.49,-7.48,5.65
27.77,-13.35,-18.99,-13.35,-19.00,6.00,6.12,6.36,-7.35,-7.35,5.64
28.05,-13.23,-18.87,-13.24,-18.88,6.00,6.12,6.48,-7.23,-7.24,5.64
28.33,-13.16,-18.79,-13.16,-18.80,6.00,6.12,6.59,-7.16,-7.16,5.63
28.62,-13.09,-18.73,-13.09,-18.72,6.00,6.12,6.70,-7.09,-7.09,5.64
28.90,-13.01,-18.64,-12.99,-18.62,6.00,6.12,6.80,-7.01,-6.99,5.63
29.19,-12.86,-18.48,-12.85,-18.48,6.00,6.12,6.89,-6.86,-6.85,5.62
29.48,-12.67,-18.30,-12.67,-18.30,6.00,6.12,6.97,-6.67,-6.67,5.63
29.78,-12.48,-18.11,-12.48,-18.11,6.00,6.12,7.05,-6.48,-6.48,5.63
30.08,-12.30,-17.93,-12.32,-17.94,6.00,6.12,7.12,-6.30,-6.32,5.63
30.38,-12.17,-17.79,-12.18,-17.80,6.00,6.12,7.18,-6.17,-6.18,5.62
30.68,-12.05,-17.66,-12.05,-17.66,6.00,6.11,7.23,-6.05,-6.05,5.61
30.99,-11.93,-17.53,-11.92,-17.52,6.00,6.11,7.27,-5.93,-5.92,5.60
31.30,-11.76,-17.36,-11.77,-17.37,6.00,6.11,7.30,-5.76,-5.77,5.60
31.61,-11.60,-17.20,-11.60,-17.20,6.00,6.11,7.32,-5.60,-5.60,5.60
31.93,-11.44,-17.03,-11.44,-17.03,6.00,6.11,7.32,-5.44,-5.44,5.59
32.24,-11.29,-16.86,-11.29,-16.87,6.00,6.11,7.33,-5.29,-5.29,5.57
32.57,-11.15,-16.72,-11.14,-16.71,6.00,6.11,7.31,-5.15,-5.14,5.57
32.89,-11.01,-16.58,-11.02,-16.58,6.00,6.11,7.30,-5.01,-5.02,5.57
33.22,-10.90,-16.46,-10.91,-16.48,6.00,6.10,7.27,-4.90,-4.91,5.56
33.55,-10.82,-16.38,-10.82,-16.38,6.00,6.10,7.23,-4.82,-4.82,5.56
33.89,-10.74,-16.30,-10.73,-16.29,6.00,6.10,7.19,-4.74,-4.73,5.56
34.23,-10.62,-16.18,-10.62,-16.18,6.00,6.10,7.14,-4.62,-4.62,5.56
34.57,-10.49,-16.03,-10.49,-16.04,6.00,6.10,7.09,-4.49,-4.49,5.54
34.92,-10.35,-15.89,-10.34,-15.88,6.00,6.10,7.03,-4.35,-4.34,5.54
35.27,-10.18,-15.72,-10.17,-15.71,6.00,6.09,6.97,-4.18,-4.17,5.54
35.62,-10.00,-15.52,-10.00,-15.53,6.00,6.09,6.90,-4.00,-4.00,5.52
35.97,-9.82,-15.34,-9.84,-15.36,6.00,6.09,6.83,-3.82,-3.84,5.52
36.33,-9.72,-15.23,-9.71,-15.23,6.00,6.09,6.76,-3.72,-3.71,5.52
36.70,-9.62,-15.13,-9.61,-15.12,6.00,6.08,6.69,-3.62,-3.61,5.51
37.06,-9.52,-15.02,-9.53,-15.03,6.00,6.08,6.62,-3.52,-3.53,5.50
37.43,-9.43,-14.92,-9.44,-14.93,6.00,6.08,6.55,-3.43,-3.44,5.49
37.81,-9.35,-14.84,-9.34,-14.82,6.00,6.08,6.48,-3.35,-3.34,5.49
38.19,-9.22,-14.70,-9.21,-14.69,6.00,6.07,6.41,-3.22,-3.21,5.47
38.57,-9.07,-14.54,-9.07,-14.54,6.00,6.07,6.34,-3.07,-3.07,5.47
38.95,-8.91,-14.37,-8.93,-14.39,6.00,6.07,6.28,-2.91,-2.93,5.46
39.34,-8.80,-14.25,-8.81,-14.26,6.00,6.07,6.21,-2.80,-2.81,5.45
39.74,-8.70,-14.14,-8.69,-14.13,6.00,6.06,6.16,-2.70,-2.69,5.43
40.14,-8.57,-14.01,-8.56,-14.00,6.00,6.06,6.10,-2.57,-2.56,5.44
40.54,-8.40,-13.84,-8.40,-13.84,6.00,6.06,6.04,-2.40,-2.40,5.43
40.94,-8.23,-13.66,-8.23,-13.65,6.00,6.05,5.99,-2.23,-2.23,5.43
41.35,-8.06,-13.47,-8.05,-13.46,6.00,6.05,5.95,-2.06,-2.05,5.41
41.76,-7.90,-13.29,-7.91,-13.31,6.00,6.04,5.91,-1.90,-1.91,5.40
42.18,-7.79,-13.17,-7.83,-13.21,6.00,6.04,5.87,-1.79,-1.83,5.38
42.60,-7.77,-13.12,-7.77,-13.12,6.00,6.04,5.83,-1.77,-1.77,5.35
43.03,-7.74,-13.08,-7.68,-13.01,6.00,6.03,5.80,-1.74,-1.68,5.34
43.46,-7.54,-12.85,-7.54,-12.85,6.00,6.03,5.78,-1.54,-1.54,5.31
43.90,-7.34,-12.60,-7.38,-12.65,6.00,6.02,5.76,-1.34,-1.38,5.26
44.33,-7.22,-12.45,-7.22,-12.45,6.00,6.02,5.74,-1.22,-1.22,5.23
44.78,-7.12,-12.32,-7.11,-12.31,6.00,6.02,5.73,-1.12,-1.11,5.20
45.23,-7.02,-12.19,-7.02,-12.18,6.00,6.01,5.72,-1.02,-1.02,5.17
45.68,-6.91,-12.05,-6.91,-12.05,6.00,6.01,5.72,-0.91,-0.91,5.14
46.13,-6.81,-11.93,-6.81,-11.93,6.00,6.00,5.72,-0.81,-0.81,5.12
46.60,-6.70,-11.81,-6.70,-11.81,6.00,6.00,5.72,-0.70,-0.70,5.11
47.06,-6.60,-11.69,-6.59,-11.69,6.00,5.99,5.73,-0.60,-0.59,5.09
47.53,-6.49,-11.57,-6.49,-11.57,6.00,5.99,5.74,-0.49,-0.49,5.08
48.01,-6.38,-11.46,-6.40,-11.48,6.00,5.98,5.76,-0.38,-0.40,5.08
48.49,-6.32,-11.39,-6.32,-11.39,6.00,5.97,5.78,-0.32,-0.32,5.07
48.97,-6.25,-11.31,-6.21,-11.27,6.00,5.97,5.80,-0.25,-0.21,5.06
49.46,-6.10,-11.15,-6.10,-11.14,6.00,5.96,5.83,-0.10,-0.10,5.05
49.96,-5.94,-10.99,-5.99,-11.04,6.00,5.96,5.86,0.06,0.01,5.04
50.46,-5.91,-10.96,-5.91,-10.96,6.00,5.95,5.89,0.09,0.09,5.05
50.96,-5.88,-10.94,-5.84,-10.90,6.00,5.95,5.93,0.12,0.16,5.06
51.47,-5.75,-10.80,-5.75,-10.80,6.00,5.94,5.96,0.25,0.25,5.05
51.99,-5.60,-10.63,-5.59,-10.62,6.00,5.94,6.00,0.40,0.41,5.03
52.51,-5.42,-10.44,-5.42,-10.44,6.00,5.93,6.04,0.58,0.58,5.02
53.03,-5.24,-10.24,-5.31,-10.30,6.00,5.93,6.08,0.76,0.69,5.00
53.56,-5.24,-10.20,-5.23,-10.19,6.00,5.93,6.12,0.76,0.77,4.96
54.10,-5.22,-10.14,-5.17,-10.09,6.00,5.92,6.16,0.78,0.83,4.92
54.64,-5.09,-9.96,-5.10,-9.97,6.00,5.92,6.21,0.91,0.90,4.87
55.18,-4.97,-9.79,-4.98,-9.80,6.00,5.92,6.24,1.03,1.02,4.82
55.74,-4.85,-9.62,-4.85,-9.62,6.00,5.92,6.28,1.15,1.15,4.77
56.29,-4.72,-9.44,-4.72,-9.44,6.00,5.92,6.32,1.28,1.28,4.72
56.86,-4.59,-9.25,-4.58,-9.23,6.00,5.92,6.35,1.41,1.42,4.66
57.42,-4.46,-9.05,-4.46,-9.05,6.00,5.92,6.38,1.54,1.54,4.59
58.00,-4.33,-8.86,-4.38,-8.91,6.00,5.92,6.40,1.67,1.62,4.53
58.58,-4.33,-8.80,-4.32,-8.79,6.00,5.93,6.42,1.67,1.68,4.47
59.16,-4.29,-8.71,-4.25,-8.67,6.00,5.93,6.43,1.71,1.75,4.42
59.76,-4.16,-8.52,-4.15,-8.51,6.00,5.94,6.44,1.84,1.85,4.36
60.35,-4.02,-8.31,-4.03,-8.32,6.00,5.95,6.44,1.98,1.97,4.29
60.96,-3.88,-8.12,-3.93,-8.16,6.00,5.96,6.44,2.12,2.07,4.24
61.57,-3.87,-8.03,-3.86,-8.03,6.00,5.97,6.43,2.13,2.14,4.16
62.18,-3.83,-7.93,-3.79,-7.90,6.00,5.98,6.41,2.17,2.21,4.10
62.80,-3.69,-7.74,-3.68,-7.72,6.00,6.00,6.38,2.31,2.32,4.05
63.43,-3.51,-7.51,-3.51,-7.51,6.00,6.00,6.35,2.49,2.49,4.00
64.07,-3.31,-7.26,-3.34,-7.30,6.00,6.01,6.31,2.69,2.66,3.95
64.71,-3.23,-7.14,-3.25,-7.16,6.00,6.00,6.27,2.77,2.75,3.91
65.35,-3.19,-7.05,-3.20,-7.06,6.00,5.99,6.21,2.81,2.80,3.86
66.01,-3.19,-7.01,-3.14,-6.96,6.00,5.97,6.15,2.81,2.86,3.82
66.67,-3.04,-6.82,-3.03,-6.82,6.01,5.95,6.09,2.97,2.98,3.78
67.33,-2.89,-6.64,-2.90,-6.66,6.02,5.91,6.02,3.13,3.11,3.75
68.01,-2.74,-6.46,-2.79,-6.51,6.02,5.86,5.94,3.28,3.24,3.72
68.69,-2.72,-6.41,-2.70,-6.39,6.01,5.81,5.86,3.29,3.32,3.69
69.37,-2.63,-6.29,-2.60,-6.26,5.99,5.75,5.77,3.36,3.40,3.66
70.07,-2.49,-6.12,-2.49,-6.12,5.96,5.69,5.69,3.47,3.47,3.63
70.77,-2.33,-5.94,-2.38,-5.98,5.91,5.63,5.59,3.58,3.53,3.61
71.48,-2.28,-5.86,-2.27,-5.85,5.84,5.57,5.50,3.56,3.57,3.58
72.19,-2.23,-5.78,-2.19,-5.74,5.75,5.50,5.40,3.53,3.57,3.55
72.91,-2.07,-5.59,-2.12,-5.64,5.65,5.44,5.31,3.58,3.53,3.52
73.64,-2.05,-5.54,-2.04,-5.53,5.54,5.38,5.21,3.49,3.51,3.49
74.38,-1.99,-5.45,-1.97,-5.42,5.43,5.32,5.11,3.44,3.46,3.46
75.12,-1.87,-5.29,-1.90,-5.33,5.31,5.26,5.01,3.44,3.41,3.42
75.87,-1.83,-5.22,-1.80,-5.20,5.20,5.20,4.91,3.37,3.40,3.39
76.63,-1.71,-5.07,-1.71,-5.07,5.10,5.14,4.81,3.39,3.39,3.36
77.40,-1.62,-4.96,-1.66,-5.00,5.01,5.09,4.71,3.39,3.35,3.34
78.17,-1.60,-4.91,-1.60,-4.91,4.92,5.03,4.62,3.32,3.32,3.31
78.95,-1.60,-4.90,-1.53,-4.83,4.83,4.98,4.52,3.23,3.30,3.30
79.74,-1.43,-4.72,-1.47,-4.75,4.75,4.92,4.43,3.32,3.28,3.29
80.54,-1.37,-4.63,-1.41,-4.68,4.66,4.87,4.34,3.29,3.25,3.26
81.35,-1.37,-4.62,-1.33,-4.58,4.58,4.82,4.25,3.21,3.25,3.25
82.16,-1.32,-4.56,-1.29,-4.53,4.50,4.77,4.16,3.18,3.21,3.24
82.98,-1.14,-4.38,-1.20,-4.44,4.42,4.72,4.08,3.28,3.22,3.24
83.81,-1.14,-4.38,-1.09,-4.33,4.35,4.67,4.00,3.21,3.26,3.24
84.65,-0.99,-4.22,-1.00,-4.23,4.27,4.61,3.92,3.28,3.28,3.23
85.50,-0.91,-4.15,-0.95,-4.19,4.21,4.56,3.84,3.30,3.26,3.24
86.35,-0.91,-4.15,-0.91,-4.15,4.15,4.51,3.77,3.24,3.24,3.24
87.22,-0.90,-4.14,-0.87,-4.11,4.10,4.46,3.70,3.20,3.23,3.24
88.09,-0.84,-4.08,-0.81,-4.06,4.05,4.41,3.63,3.21,3.24,3.24
88.97,-0.69,-3.95,-0.74,-3.99,4.00,4.36,3.56,3.31,3.27,3.26
89.86,-0.68,-3.94,-0.69,-3.95,3.96,4.31,3.50,3.28,3.27,3.26
90.76,-0.68,-3.93,-0.67,-3.93,3.91,4.26,3.44,3.23,3.24,3.25
91.66,-0.68,-3.93,-0.65,-3.90,3.86,4.21,3.38,3.18,3.21,3.25
92.58,-0.60,-3.83,-0.59,-3.83,3.81,4.15,3.32,3.21,3.22,3.23
93.51,-0.50,-3.74,-0.52,-3.76,3.77,4.10,3.27,3.27,3.24,3.24
94.44,-0.46,-3.68,-0.47,-3.69,3.73,4.05,3.22,3.27,3.26,3.22
95.39,-0.46,-3.67,-0.45,-3.66,3.70,4.00,3.17,3.24,3.25,3.21
96.34,-0.46,-3.63,-0.46,-3.64,3.66,3.95,3.12,3.20,3.21,3.17
97.30,-0.46,-3.62,-0.46,-3.62,3.62,3.90,3.08,3.16,3.16,3.16
98.28,-0.46,-3.59,-0.47,-3.60,3.57,3.84,3.04,3.11,3.10,3.13
99.26,-0.46,-3.57,-0.47,-3.58,3.51,3.79,3.00,3.05,3.05,3.11
100.25,-0.45,-3.53,-0.42,-3.50,3.46,3.74,2.96,3.01,3.03,3.08
101.25,-0.38,-3.43,-0.35,-3.40,3.40,3.69,2.92,3.02,3.04,3.05
102.27,-0.23,-3.24,-0.28,-3.29,3.33,3.64,2.89,3.10,3.04,3.01
103.29,-0.23,-3.19,-0.23,-3.20,3.25,3.59,2.86,3.02,3.02,2.96
104.32,-0.23,-3.16,-0.22,-3.14,3.18,3.53,2.83,2.95,2.96,2.93
105.37,-0.23,-3.11,-0.23,-3.11,3.10,3.48,2.80,2.87,2.87,2.88
106.42,-0.23,-3.06,-0.23,-3.05,3.03,3.43,2.77,2.80,2.80,2.83
107.48,-0.23,-2.99,-0.23,-2.99,2.97,3.38,2.75,2.74,2.74,2.76
108.56,-0.23,-2.91,-0.23,-2.92,2.91,3.33,2.72,2.68,2.68,2.68
109.64,-0.23,-2.85,-0.23,-2.85,2.85,3.28,2.70,2.62,2.62,2.62
110.74,-0.23,-2.78,-0.23,-2.78,2.78,3.23,2.68,2.55,2.55,2.55
111.85,-0.23,-2.72,-0.23,-2.71,2.71,3.18,2.66,2.48,2.48,2.49
112.97,-0.23,-2.63,-0.23,-2.64,2.63,3.13,2.64,2.40,2.40,2.40
114.10,-0.23,-2.56,-0.23,-2.56,2.56,3.09,2.61,2.33,2.33,2.33
115.24,-0.23,-2.49,-0.23,-2.49,2.48,3.04,2.59,2.25,2.25,2.26
116.39,-0.23,-2.42,-0.23,-2.42,2.41,2.99,2.57,2.18,2.18,2.19
117.55,-0.23,-2.35,-0.23,-2.35,2.34,2.94,2.55,2.11,2.11,2.12
118.73,-0.23,-2.29,-0.23,-2.29,2.30,2.90,2.53,2.07,2.07,2.06
119.92,-0.23,-2.24,-0.22,-2.23,2.26,2.85,2.51,2.03,2.04,2.01
121.12,-0.23,-2.19,-0.22,-2.19,2.24,2.81,2.49,2.01,2.02,1.96
122.33,-0.23,-2.15,-0.27,-2.19,2.23,2.76,2.47,2.00,1.97,1.92
123.55,-0.33,-2.23,-0.34,-2.23,2.23,2.72,2.45,1.90,1.89,1.90
124.79,-0.45,-2.31,-0.41,-2.27,2.23,2.68,2.43,1.78,1.82,1.86
126.03,-0.46,-2.29,-0.46,-2.29,2.22,2.64,2.41,1.76,1.76,1.83
127.29,-0.46,-2.26,-0.47,-2.26,2.22,2.60,2.39,1.76,1.74,1.80
128.57,-0.46,-2.22,-0.46,-2.22,2.21,2.56,2.37,1.75,1.74,1.76
129.85,-0.46,-2.19,-0.46,-2.19,2.19,2.52,2.35,1.73,1.73,1.73
131.15,-0.46,-2.16,-0.46,-2.16,2.17,2.48,2.32,1.71,1.71,1.70
132.46,-0.46,-2.12,-0.45,-2.11,2.15,2.44,2.30,1.69,1.71,1.66
133.79,-0.46,-2.10,-0.46,-2.09,2.13,2.41,2.28,1.67,1.67,1.64
135.12,-0.47,-2.06,-0.52,-2.12,2.13,2.37,2.26,1.66,1.61,1.59
136.48,-0.62,-2.18,-0.59,-2.15,2.13,2.34,2.23,1.51,1.54,1.56
137.84,-0.68,-2.21,-0.64,-2.16,2.15,2.30,2.21,1.47,1.51,1.53
139.22,-0.68,-2.16,-0.69,-2.17,2.17,2.27,2.19,1.49,1.48,1.48
140.61,-0.68,-2.11,-0.72,-2.17,2.19,2.24,2.16,1.51,1.47,1.43
142.02,-0.79,-2.20,-0.78,-2.19,2.21,2.21,2.14,1.42,1.42,1.41
143.44,-0.88,-2.25,-0.85,-2.22,2.21,2.18,2.12,1.33,1.36,1.37
144.87,-0.91,-2.24,-0.91,-2.24,2.20,2.15,2.10,1.29,1.29,1.33
146.32,-0.91,-2.19,-0.92,-2.20,2.17,2.13,2.07,1.26,1.25,1.28
147.78,-0.91,-2.15,-0.91,-2.15,2.12,2.10,2.05,1.21,1.21,1.24
149.26,-0.91,-2.08,-0.91,-2.08,2.07,2.07,2.03,1.16,1.16,1.17
150.75,-0.91,-2.01,-0.91,-2.01,2.01,2.05,2.01,1.10,1.10,1.10
152.26,-0.91,-1.94,-0.91,-1.93,1.95,2.03,2.00,1.04,1.04,1.03
153.78,-0.91,-1.86,-0.90,-1.84,1.89,2.01,1.98,0.98,0.99,0.95
155.32,-0.91,-1.77,-0.92,-1.79,1.84,1.99,1.96,0.93,0.92,0.86
156.88,-0.93,-1.72,-0.98,-1.76,1.79,1.97,1.94,0.86,0.82,0.79
158.44,-1.08,-1.79,-1.05,-1.76,1.75,1.95,1.93,0.67,0.70,0.71
160.03,-1.14,-1.78,-1.11,-1.76,1.72,1.93,1.92,0.58,0.60,0.64
161.63,-1.14,-1.72,-1.15,-1.73,1.69,1.91,1.90,0.55,0.53,0.58
163.24,-1.14,-1.67,-1.15,-1.67,1.65,1.90,1.89,0.51,0.51,0.53
164.88,-1.14,-1.63,-1.14,-1.63,1.62,1.88,1.88,0.48,0.48,0.49
166.53,-1.14,-1.59,-1.14,-1.59,1.59,1.87,1.87,0.45,0.45,0.45
168.19,-1.14,-1.56,-1.14,-1.56,1.57,1.86,1.87,0.43,0.43,0.42
169.87,-1.14,-1.54,-1.14,-1.54,1.57,1.85,1.86,0.43,0.43,0.40
171.57,-1.14,-1.54,-1.12,-1.52,1.58,1.84,1.85,0.44,0.45,0.40
173.29,-1.14,-1.54,-1.15,-1.55,1.60,1.83,1.85,0.46,0.45,0.40
175.02,-1.14,-1.56,-1.21,-1.61,1.64,1.82,1.85,0.50,0.43,0.42
176.77,-1.33,-1.74,-1.28,-1.69,1.68,1.81,1.85,0.35,0.40,0.41
178.54,-1.37,-1.79,-1.35,-1.77,1.72,1.80,1.85,0.35,0.37,0.42
180.32,-1.37,-1.79,-1.39,-1.81,1.75,1.80,1.85,0.38,0.36,0.42
182.13,-1.37,-1.80,-1.37,-1.80,1.77,1.79,1.85,0.40,0.40,0.43
183.95,-1.37,-1.80,-1.37,-1.80,1.78,1.79,1.86,0.41,0.41,0.43
185.79,-1.37,-1.79,-1.37,-1.79,1.78,1.79,1.86,0.41,0.41,0.42
187.65,-1.37,-1.77,-1.37,-1.77,1.78,1.78,1.87,0.41,0.41,0.40
189.52,-1.37,-1.75,-1.36,-1.74,1.78,1.78,1.88,0.41,0.42,0.38
191.42,-1.37,-1.73,-1.37,-1.72,1.78,1.78,1.89,0.41,0.41,0.36
193.33,-1.37,-1.71,-1.41,-1.75,1.79,1.78,1.90,0.42,0.38,0.34
195.27,-1.47,-1.80,-1.47,-1.80,1.80,1.78,1.91,0.33,0.33,0.33
197.22,-1.57,-1.88,-1.54,-1.85,1.81,1.79,1.92,0.24,0.27,0.31
199.19,-1.60,-1.87,-1.59,-1.88,1.82,1.79,1.93,0.22,0.23,0.27
201.18,-1.60,-1.87,-1.61,-1.87,1.83,1.79,1.95,0.23,0.22,0.27
203.19,-1.60,-1.85,-1.60,-1.85,1.83,1.80,1.96,0.23,0.23,0.25
205.23,-1.60,-1.83,-1.60,-1.83,1.84,1.80,1.98,0.24,0.24,0.23
207.28,-1.60,-1.82,-1.59,-1.80,1.85,1.81,1.99,0.25,0.27,0.22
209.35,-1.60,-1.80,-1.60,-1.80,1.86,1.81,2.01,0.26,0.26,0.20
211.44,-1.60,-1.77,-1.65,-1.84,1.87,1.82,2.02,0.27,0.22,0.17
213.56,-1.75,-1.92,-1.72,-1.89,1.89,1.83,2.04,0.14,0.16,0.17
215.69,-1.82,-1.99,-1.79,-1.95,1.90,1.84,2.06,0.08,0.11,0.17
217.85,-1.82,-1.96,-1.83,-1.98,1.91,1.84,2.08,0.09,0.08,0.14
220.03,-1.82,-1.95,-1.83,-1.96,1.92,1.85,2.09,0.10,0.10,0.13
222.23,-1.82,-1.93,-1.82,-1.94,1.93,1.86,2.11,0.11,0.11,0.11
224.45,-1.82,-1.93,-1.82,-1.93,1.94,1.87,2.12,0.12,0.12,0.11
226.70,-1.82,-1.93,-1.82,-1.92,1.95,1.89,2.14,0.13,0.13,0.11
228.96,-1.82,-1.92,-1.80,-1.90,1.96,1.90,2.15,0.14,0.15,0.10
231.25,-1.82,-1.92,-1.84,-1.93,1.98,1.91,2.17,0.16,0.14,0.10
233.57,-1.85,-1.94,-1.90,-1.99,2.00,1.92,2.18,0.15,0.10,0.09
235.90,-2.04,-2.12,-1.98,-2.06,2.04,1.93,2.19,-0.00,0.06,0.08
238.26,-2.05,-2.13,-2.04,-2.12,2.07,1.95,2.20,0.02,0.03,0.08
240.64,-2.05,-2.13,-2.07,-2.15,2.09,1.96,2.21,0.04,0.02,0.08
243.05,-2.05,-2.14,-2.05,-2.14,2.11,1.97,2.22,0.06,0.06,0.09
245.48,-2.05,-2.14,-2.05,-2.14,2.14,1.99,2.22,0.09,0.09,0.09
247.93,-2.05,-2.15,-2.05,-2.14,2.16,2.00,2.23,0.11,0.11,0.10
250.41,-2.05,-2.14,-2.04,-2.14,2.18,2.02,2.23,0.13,0.15,0.09
252.92,-2.05,-2.16,-2.05,-2.16,2.21,2.03,2.23,0.16,0.16,0.11
255.45,-2.05,-2.18,-2.10,-2.22,2.24,2.05,2.23,0.19,0.13,0.13
258.00,-2.19,-2.32,-2.17,-2.31,2.28,2.06,2.23,0.09,0.10,0.13
260.58,-2.28,-2.42,-2.24,-2.38,2.33,2.08,2.23,0.05,0.10,0.14
263.19,-2.28,-2.43,-2.28,-2.42,2.40,2.10,2.22,0.12,0.13,0.15
265.82,-2.28,-2.43,-2.31,-2.46,2.49,2.11,2.22,0.21,0.18,0.15
268.48,-2.33,-2.51,-2.35,-2.52,2.58,2.13,2.21,0.25,0.23,0.18
271.16,-2.46,-2.65,-2.43,-2.62,2.66,2.14,2.20,0.20,0.24,0.19
273.87,-2.51,-2.71,-2.54,-2.75,2.75,2.16,2.20,0.24,0.21,0.20
276.61,-2.64,-2.88,-2.63,-2.87,2.83,2.18,2.19,0.19,0.20,0.24
279.38,-2.72,-2.97,-2.70,-2.95,2.92,2.19,2.18,0.20,0.22,0.25
282.17,-2.74,-3.02,-2.74,-3.02,3.00,2.21,2.17,0.26,0.26,0.28
284.99,-2.74,-3.04,-2.75,-3.05,3.07,2.22,2.15,0.33,0.32,0.30
287.84,-2.74,-3.07,-2.74,-3.07,3.12,2.24,2.14,0.38,0.38,0.33
290.72,-2.74,-3.10,-2.76,-3.12,3.13,2.26,2.13,0.39,0.38,0.36
293.63,-2.74,-3.13,-2.74,-3.13,3.11,2.27,2.12,0.37,0.37,0.39
296.57,-2.74,-3.16,-2.70,-3.11,3.05,2.29,2.11,0.31,0.35,0.42
299.53,-2.56,-3.00,-2.62,-3.06,2.97,2.30,2.10,0.41,0.35,0.44
302.53,-2.50,-2.96,-2.46,-2.92,2.86,2.32,2.09,0.36,0.40,0.46
305.55,-2.28,-2.77,-2.26,-2.74,2.73,2.34,2.08,0.45,0.48,0.49
308.61,-2.01,-2.52,-2.05,-2.56,2.59,2.35,2.07,0.58,0.55,0.51
311.69,-1.84,-2.37,-1.83,-2.37,2.44,2.37,2.07,0.60,0.61,0.53
314.81,-1.68,-2.23,-1.71,-2.25,2.30,2.38,2.06,0.62,0.59,0.55
317.96,-1.61,-2.16,-1.61,-2.16,2.18,2.40,2.06,0.57,0.56,0.55
321.14,-1.59,-2.14,-1.53,-2.08,2.08,2.41,2.05,0.49,0.55,0.55
324.35,-1.42,-1.97,-1.45,-2.01,2.00,2.42,2.05,0.58,0.55,0.55
327.59,-1.37,-1.93,-1.39,-1.95,1.96,2.44,2.05,0.59,0.56,0.56
330.87,-1.37,-1.94,-1.36,-1.92,1.93,2.45,2.05,0.56,0.58,0.57
334.18,-1.37,-1.95,-1.37,-1.94,1.94,2.46,2.05,0.57,0.57,0.58
337.52,-1.37,-1.95,-1.36,-1.95,1.96,2.48,2.05,0.59,0.59,0.58
340.90,-1.37,-1.98,-1.36,-1.96,1.99,2.49,2.06,0.62,0.63,0.61
344.30,-1.37,-1.99,-1.39,-2.01,2.05,2.50,2.06,0.68,0.65,0.62
347.75,-1.43,-2.07,-1.46,-2.09,2.10,2.51,2.07,0.67,0.65,0.64
351.23,-1.56,-2.22,-1.53,-2.19,2.16,2.52,2.08,0.60,0.64,0.66
354.74,-1.60,-2.28,-1.59,-2.27,2.22,2.53,2.09,0.62,0.64,0.68
358.28,-1.60,-2.31,-1.61,-2.32,2.27,2.54,2.10,0.67,0.66,0.71
361.87,-1.60,-2.33,-1.60,-2.33,2.32,2.55,2.12,0.72,0.72,0.73
365.49,-1.60,-2.35,-1.60,-2.35,2.36,2.56,2.13,0.76,0.76,0.75
369.14,-1.60,-2.37,-1.60,-2.38,2.39,2.57,2.15,0.79,0.79,0.77
372.83,-1.60,-2.40,-1.60,-2.40,2.41,2.58,2.17,0.81,0.81,0.80
376.56,-1.60,-2.42,-1.60,-2.42,2.43,2.59,2.19,0.83,0.83,0.82
380.33,-1.60,-2.45,-1.60,-2.45,2.44,2.60,2.21,0.84,0.84,0.85
384.13,-1.60,-2.47,-1.60,-2.46,2.46,2.61,2.23,0.86,0.86,0.87
387.97,-1.60,-2.47,-1.60,-2.48,2.47,2.61,2.25,0.87,0.87,0.87
391.85,-1.60,-2.48,-1.60,-2.48,2.48,2.62,2.28,0.88,0.88,0.88
395.77,-1.60,-2.49,-1.60,-2.49,2.50,2.63,2.31,0.90,0.90,0.89
399.73,-1.60,-2.50,-1.60,-2.50,2.51,2.63,2.33,0.91,0.91,0.90
403.72,-1.60,-2.51,-1.60,-2.51,2.51,2.64,2.36,0.91,0.91,0.91
407.76,-1.60,-2.52,-1.60,-2.52,2.52,2.64,2.39,0.92,0.92,0.92
411.84,-1.60,-2.53,-1.60,-2.53,2.52,2.65,2.42,0.92,0.92,0.93
415.96,-1.60,-2.54,-1.60,-2.53,2.53,2.65,2.45,0.93,0.93,0.94
420.12,-1.60,-2.53,-1.60,-2.53,2.53,2.66,2.48,0.93,0.93,0.93
424.32,-1.60,-2.53,-1.60,-2.53,2.53,2.66,2.51,0.93,0.93,0.93
428.56,-1.60,-2.53,-1.60,-2.53,2.54,2.67,2.54,0.94,0.94,0.93
432.85,-1.60,-2.53,-1.60,-2.53,2.54,2.67,2.57,0.94,0.94,0.93
437.18,-1.60,-2.54,-1.60,-2.54,2.54,2.67,2.60,0.94,0.94,0.94
441.55,-1.60,-2.55,-1.60,-2.54,2.54,2.68,2.63,0.94,0.94,0.95
445.96,-1.60,-2.55,-1.60,-2.55,2.55,2.68,2.66,0.95,0.95,0.95
450.42,-1.60,-2.56,-1.60,-2.56,2.56,2.68,2.68,0.96,0.96,0.96
454.93,-1.60,-2.57,-1.60,-2.56,2.57,2.69,2.71,0.97,0.97,0.97
459.48,-1.60,-2.58,-1.60,-2.58,2.58,2.69,2.73,0.98,0.98,0.98
464.07,-1.60,-2.59,-1.60,-2.59,2.59,2.69,2.76,0.99,0.99,0.99
468.71,-1.60,-2.61,-1.60,-2.61,2.61,2.70,2.78,1.01,1.01,1.01
473.40,-1.60,-2.62,-1.60,-2.63,2.63,2.70,2.79,1.03,1.03,1.02
