frequency,raw,error,smoothed,error_smoothed,equalization,parametric_eq,equalized_raw,equalized_smoothed,target
20,7.82,9.73,7.83,9.74,-9.74,-4.14,-1.91,-1.91,-1.91
21,7.76,9.68,7.76,9.68,-9.68,-4.71,-1.92,-1.92,-1.92
22,7.70,9.63,7.70,9.63,-9.63,-5.34,-1.92,-1.93,-1.93
23,7.64,9.58,7.64,9.57,-9.57,-6.03,-1.93,-1.94,-1.94
24,7.57,9.52,7.57,9.52,-9.52,-6.75,-1.95,-1.95,-1.95
25,7.51,9.47,7.51,9.47,-9.47,-7.51,-1.95,-1.96,-1.96
26,7.44,9.42,7.44,9.42,-9.42,-8.28,-1.97,-1.97,-1.97
27,7.37,9.36,7.37,9.36,-9.36,-9.03,-1.99,-1.99,-1.99
28,7.31,9.32,7.31,9.31,-9.31,-9.73,-2.00,-2.00,-2.00
29,7.24,9.26,7.24,9.26,-9.26,-10.33,-2.02,-2.02,-2.02
30,7.17,9.21,7.17,9.21,-9.21,-10.77,-2.04,-2.04,-2.04
31,7.10,9.16,7.10,9.16,-9.16,-11.03,-2.06,-2.06,-2.06
32,7.03,9.11,7.04,9.11,-9.11,-11.10,-2.08,-2.08,-2.08
33,6.96,9.06,6.97,9.07,-9.07,-11.01,-2.10,-2.10,-2.10
34,6.90,9.02,6.90,9.02,-9.02,-10.80,-2.12,-2.12,-2.12
35,6.83,8.98,6.83,8.97,-8.97,-10.51,-2.14,-2.14,-2.14
36,6.76,8.93,6.76,8.93,-8.93,-10.19,-2.17,-2.17,-2.17
37,6.69,8.89,6.70,8.89,-8.89,-9.86,-2.20,-2.19,-2.19
38,6.63,8.85,6.63,8.85,-8.85,-9.55,-2.22,-2.22,-2.22
39,6.56,8.81,6.57,8.81,-8.81,-9.26,-2.25,-2.25,-2.25
40,6.50,8.78,6.50,8.78,-8.78,-9.01,-2.28,-2.28,-2.28
41,6.43,8.74,6.44,8.75,-8.75,-8.80,-2.31,-2.31,-2.31
42,6.37,8.71,6.38,8.72,-8.72,-8.63,-2.34,-2.34,-2.34
43,6.31,8.69,6.31,8.69,-8.69,-8.49,-2.37,-2.37,-2.37
44,6.24,8.65,6.25,8.66,-8.66,-8.39,-2.42,-2.41,-2.41
45,6.18,8.62,6.19,8.63,-8.63,-8.32,-2.45,-2.44,-2.44
46,6.12,8.60,6.13,8.61,-8.61,-8.29,-2.48,-2.48,-2.48
47,6.06,8.58,6.07,8.58,-8.58,-8.28,-2.52,-2.52,-2.52
48,6.00,8.56,6.00,8.56,-8.56,-8.29,-2.55,-2.55,-2.55
49,5.95,8.55,5.94,8.53,-8.53,-8.33,-2.58,-2.59,-2.59
50,5.92,8.56,5.88,8.51,-8.51,-8.39,-2.59,-2.63,-2.63
51,5.86,8.54,5.81,8.49,-8.49,-8.46,-2.63,-2.68,-2.68
52,5.75,8.47,5.75,8.47,-8.47,-8.54,-2.72,-2.72,-2.72
53,5.63,8.40,5.69,8.45,-8.45,-8.63,-2.82,-2.76,-2.76
54,5.57,8.38,5.62,8.43,-8.43,-8.73,-2.86,-2.81,-2.81
55,5.56,8.42,5.56,8.42,-8.42,-8.82,-2.85,-2.85,-2.85
56,5.53,8.43,5.50,8.40,-8.40,-8.91,-2.87,-2.90,-2.90
57,5.46,8.41,5.45,8.39,-8.39,-8.99,-2.93,-2.95,-2.95
58,5.37,8.37,5.39,8.39,-8.39,-9.06,-3.01,-2.99,-2.99
59,5.30,8.35,5.34,8.38,-8.38,-9.12,-3.08,-3.04,-3.04
60,5.27,8.37,5.29,8.38,-8.38,-9.16,-3.11,-3.09,-3.09
61,5.23,8.38,5.24,8.38,-8.38,-9.18,-3.15,-3.14,-3.14
62,5.20,8.40,5.19,8.38,-8.38,-9.19,-3.18,-3.19,-3.19
63,5.16,8.41,5.14,8.39,-8.39,-9.17,-3.22,-3.24,-3.24
64,5.11,8.41,5.10,8.39,-8.39,-9.14,-3.28,-3.30,-3.30
65,5.06,8.41,5.05,8.40,-8.40,-9.09,-3.34,-3.35,-3.35
66,5.00,8.40,5.01,8.41,-8.41,-9.03,-3.40,-3.40,-3.40
67,4.95,8.41,4.96,8.41,-8.41,-8.96,-3.46,-3.45,-3.45
68,4.90,8.41,4.91,8.42,-8.42,-8.88,-3.52,-3.51,-3.51
69,4.85,8.41,4.87,8.43,-8.43,-8.79,-3.58,-3.56,-3.56
70,4.82,8.44,4.82,8.44,-8.44,-8.69,-3.61,-3.61,-3.61
71,4.77,8.44,4.78,8.44,-8.44,-8.60,-3.67,-3.67,-3.67
72,4.74,8.46,4.73,8.45,-8.45,-8.50,-3.71,-3.72,-3.72
73,4.71,8.49,4.68,8.46,-8.46,-8.41,-3.75,-3.78,-3.78
74,4.66,8.49,4.64,8.47,-8.47,-8.32,-3.80,-3.83,-3.83
75,4.60,8.49,4.59,8.47,-8.47,-8.23,-3.87,-3.88,-3.88
76,4.53,8.47,4.54,8.48,-8.48,-8.15,-3.95,-3.94,-3.94
77,4.47,8.47,4.50,8.49,-8.49,-8.07,-4.02,-3.99,-3.99
78,4.42,8.47,4.45,8.50,-8.50,-8.00,-4.08,-4.05,-4.05
79,4.38,8.48,4.41,8.51,-8.51,-7.94,-4.13,-4.10,-4.10
80,4.35,8.51,4.37,8.52,-8.52,-7.88,-4.17,-4.16,-4.16
81,4.33,8.54,4.32,8.53,-8.53,-7.84,-4.20,-4.21,-4.21
82,4.29,8.56,4.28,8.55,-8.55,-7.80,-4.25,-4.26,-4.26
83,4.25,8.57,4.24,8.56,-8.56,-7.77,-4.31,-4.32,-4.32
84,4.22,8.59,4.21,8.57,-8.57,-7.74,-4.35,-4.37,-4.37
85,4.18,8.60,4.17,8.59,-8.59,-7.73,-4.41,-4.42,-4.42
86,4.13,8.61,4.13,8.60,-8.60,-7.72,-4.47,-4.47,-4.47
87,4.09,8.62,4.09,8.62,-8.62,-7.72,-4.53,-4.52,-4.52
88,4.04,8.62,4.06,8.63,-8.63,-7.73,-4.59,-4.58,-4.58
89,4.00,8.63,4.02,8.65,-8.65,-7.74,-4.65,-4.63,-4.63
90,3.97,8.65,3.99,8.66,-8.66,-7.76,-4.69,-4.68,-4.68
91,3.94,8.67,3.95,8.68,-8.68,-7.79,-4.73,-4.73,-4.73
92,3.91,8.69,3.91,8.69,-8.69,-7.83,-4.78,-4.78,-4.78
93,3.88,8.71,3.88,8.70,-8.70,-7.87,-4.82,-4.82,-4.83
94,3.85,8.73,3.84,8.71,-8.71,-7.91,-4.86,-4.87,-4.88
95,3.82,8.75,3.80,8.72,-8.72,-7.97,-4.90,-4.92,-4.92
96,3.78,8.75,3.76,8.73,-8.73,-8.02,-4.95,-4.97,-4.97
97,3.73,8.75,3.72,8.74,-8.74,-8.08,-5.01,-5.02,-5.02
98,3.69,8.76,3.68,8.75,-8.75,-8.15,-5.06,-5.07,-5.06
99,3.64,8.75,3.64,8.76,-8.76,-8.22,-5.12,-5.12,-5.11
100,3.58,8.74,3.60,8.77,-8.77,-8.29,-5.18,-5.17,-5.16
101,3.54,8.74,3.56,8.78,-8.78,-8.37,-5.23,-5.21,-5.20
102,3.50,8.75,3.52,8.78,-8.78,-8.45,-5.28,-5.26,-5.24
104,3.46,8.79,3.48,8.79,-8.79,-8.61,-5.33,-5.31,-5.33
105,3.44,8.82,3.45,8.80,-8.80,-8.70,-5.36,-5.36,-5.37
106,3.42,8.84,3.41,8.81,-8.81,-8.78,-5.39,-5.40,-5.41
107,3.38,8.84,3.37,8.82,-8.82,-8.87,-5.44,-5.45,-5.46
108,3.35,8.85,3.34,8.83,-8.83,-8.95,-5.48,-5.49,-5.50
109,3.30,8.84,3.30,8.84,-8.84,-9.03,-5.53,-5.53,-5.54
110,3.26,8.84,3.27,8.84,-8.84,-9.12,-5.58,-5.58,-5.58
111,3.22,8.84,3.24,8.85,-8.85,-9.19,-5.63,-5.62,-5.61
112,3.19,8.85,3.20,8.86,-8.86,-9.27,-5.67,-5.66,-5.65
113,3.16,8.85,3.17,8.87,-8.87,-9.34,-5.70,-5.70,-5.69
114,3.14,8.87,3.13,8.87,-8.87,-9.41,-5.73,-5.74,-5.73
115,3.11,8.88,3.10,8.88,-8.88,-9.48,-5.77,-5.78,-5.76
117,3.06,8.90,3.07,8.88,-8.88,-9.59,-5.82,-5.82,-5.83
118,3.04,8.91,3.03,8.89,-8.89,-9.64,-5.85,-5.86,-5.87
119,3.00,8.90,3.00,8.90,-8.90,-9.68,-5.89,-5.90,-5.90
120,2.97,8.91,2.96,8.90,-8.90,-9.72,-5.93,-5.94,-5.93
121,2.93,8.90,2.93,8.91,-8.91,-9.75,-5.97,-5.98,-5.97
123,2.87,8.90,2.89,8.91,-8.91,-9.79,-6.04,-6.02,-6.03
124,2.84,8.91,2.86,8.92,-8.92,-9.79,-6.07,-6.06,-6.06
125,2.81,8.91,2.83,8.92,-8.92,-9.80,-6.11,-6.09,-6.09
126,2.78,8.91,2.79,8.92,-8.92,-9.79,-6.14,-6.13,-6.12
128,2.74,8.92,2.76,8.93,-8.93,-9.77,-6.18,-6.17,-6.18
129,2.72,8.93,2.72,8.93,-8.93,-9.74,-6.20,-6.20,-6.21
130,2.70,8.94,2.69,8.93,-8.93,-9.71,-6.22,-6.24,-6.24
131,2.68,8.95,2.65,8.92,-8.92,-9.68,-6.24,-6.28,-6.26
133,2.62,8.94,2.61,8.92,-8.92,-9.60,-6.30,-6.31,-6.32
134,2.59,8.94,2.57,8.91,-8.91,-9.55,-6.32,-6.34,-6.34
135,2.54,8.91,2.53,8.90,-8.90,-9.50,-6.36,-6.38,-6.37
137,2.47,8.89,2.48,8.90,-8.90,-9.40,-6.42,-6.41,-6.42
138,2.43,8.87,2.44,8.88,-8.88,-9.34,-6.45,-6.44,-6.44
140,2.37,8.86,2.40,8.87,-8.87,-9.22,-6.50,-6.48,-6.49
141,2.33,8.84,2.35,8.86,-8.86,-9.15,-6.53,-6.51,-6.51
142,2.30,8.84,2.31,8.85,-8.85,-9.09,-6.55,-6.54,-6.53
144,2.25,8.83,2.27,8.84,-8.84,-8.96,-6.58,-6.57,-6.58
145,2.23,8.83,2.22,8.83,-8.83,-8.90,-6.59,-6.60,-6.60
147,2.18,8.82,2.18,8.81,-8.81,-8.77,-6.63,-6.63,-6.64
148,2.14,8.80,2.14,8.80,-8.80,-8.71,-6.66,-6.66,-6.66
150,2.09,8.79,2.10,8.79,-8.79,-8.59,-6.70,-6.69,-6.70
151,2.07,8.79,2.06,8.78,-8.78,-8.53,-6.71,-6.72,-6.71
153,2.02,8.77,2.02,8.77,-8.77,-8.42,-6.75,-6.75,-6.75
154,1.99,8.76,1.98,8.76,-8.76,-8.36,-6.76,-6.77,-6.77
156,1.94,8.75,1.94,8.74,-8.74,-8.26,-6.80,-6.80,-6.80
157,1.91,8.73,1.90,8.73,-8.73,-8.21,-6.82,-6.82,-6.82
159,1.85,8.71,1.86,8.71,-8.71,-8.12,-6.86,-6.85,-6.85
160,1.83,8.70,1.83,8.70,-8.70,-8.07,-6.87,-6.87,-6.87
162,1.78,8.68,1.79,8.68,-8.68,-7.99,-6.90,-6.90,-6.90
164,1.73,8.66,1.74,8.67,-8.67,-7.92,-6.93,-6.92,-6.93
165,1.70,8.65,1.70,8.65,-8.65,-7.89,-6.95,-6.95,-6.94
167,1.65,8.62,1.66,8.63,-8.63,-7.83,-6.98,-6.97,-6.97
169,1.61,8.61,1.62,8.61,-8.61,-7.78,-7.00,-6.99,-7.00
170,1.58,8.59,1.58,8.59,-8.59,-7.76,-7.01,-7.01,-7.01
172,1.54,8.58,1.53,8.57,-8.57,-7.72,-7.03,-7.03,-7.04
174,1.49,8.55,1.49,8.54,-8.54,-7.69,-7.05,-7.06,-7.06
175,1.46,8.53,1.44,8.52,-8.52,-7.68,-7.06,-7.08,-7.07
177,1.42,8.52,1.40,8.49,-8.49,-7.66,-7.07,-7.10,-7.09
179,1.36,8.48,1.35,8.47,-8.47,-7.65,-7.10,-7.12,-7.12
181,1.30,8.44,1.30,8.44,-8.44,-7.64,-7.13,-7.14,-7.14
183,1.23,8.39,1.25,8.41,-8.41,-7.65,-7.18,-7.15,-7.16
184,1.19,8.36,1.21,8.38,-8.38,-7.65,-7.19,-7.17,-7.17
186,1.14,8.33,1.16,8.35,-8.35,-7.66,-7.21,-7.19,-7.19
188,1.10,8.31,1.12,8.33,-8.33,-7.68,-7.22,-7.21,-7.21
190,1.05,8.28,1.07,8.30,-8.30,-7.71,-7.25,-7.23,-7.23
192,1.03,8.28,1.03,8.27,-8.27,-7.73,-7.24,-7.24,-7.24
194,0.99,8.25,0.99,8.25,-8.25,-7.77,-7.25,-7.26,-7.26
196,0.96,8.24,0.95,8.22,-8.22,-7.81,-7.26,-7.28,-7.28
198,0.91,8.21,0.91,8.20,-8.20,-7.85,-7.28,-7.29,-7.29
200,0.87,8.18,0.86,8.17,-8.17,-7.90,-7.30,-7.31,-7.31
202,0.82,8.15,0.82,8.15,-8.15,-7.95,-7.32,-7.32,-7.32
204,0.77,8.11,0.78,8.12,-8.12,-8.00,-7.35,-7.34,-7.34
206,0.73,8.08,0.74,8.09,-8.09,-8.05,-7.36,-7.35,-7.35
208,0.69,8.06,0.70,8.06,-8.06,-8.11,-7.37,-7.36,-7.36
210,0.66,8.04,0.65,8.03,-8.03,-8.17,-7.37,-7.38,-7.38
212,0.63,8.02,0.61,8.00,-8.00,-8.22,-7.37,-7.39,-7.39
214,0.58,7.98,0.57,7.97,-7.97,-8.28,-7.39,-7.40,-7.40
216,0.55,7.97,0.52,7.94,-7.94,-8.34,-7.39,-7.41,-7.41
218,0.49,7.92,0.48,7.91,-7.91,-8.40,-7.42,-7.43,-7.42
221,0.42,7.86,0.44,7.88,-7.88,-8.48,-7.46,-7.44,-7.44
223,0.38,7.83,0.40,7.85,-7.85,-8.53,-7.47,-7.45,-7.45
225,0.34,7.80,0.37,7.83,-7.83,-8.58,-7.49,-7.46,-7.46
227,0.31,7.78,0.34,7.81,-7.81,-8.63,-7.49,-7.47,-7.47
229,0.29,7.77,0.31,7.79,-7.79,-8.67,-7.50,-7.48,-7.48
232,0.27,7.77,0.28,7.77,-7.77,-8.72,-7.50,-7.49,-7.49
234,0.25,7.76,0.26,7.76,-7.76,-8.75,-7.51,-7.50,-7.50
236,0.23,7.74,0.24,7.75,-7.75,-8.77,-7.52,-7.51,-7.51
239,0.22,7.75,0.22,7.74,-7.74,-8.80,-7.52,-7.52,-7.52
241,0.20,7.73,0.20,7.73,-7.73,-8.81,-7.53,-7.53,-7.53
244,0.19,7.74,0.19,7.73,-7.73,-8.81,-7.53,-7.54,-7.54
246,0.18,7.73,0.17,7.72,-7.72,-8.81,-7.54,-7.55,-7.55
248,0.16,7.72,0.16,7.71,-7.71,-8.79,-7.55,-7.56,-7.56
251,0.14,7.71,0.14,7.71,-7.71,-8.76,-7.56,-7.57,-7.57
253,0.12,7.70,0.12,7.70,-7.70,-8.73,-7.57,-7.57,-7.57
256,0.11,7.70,0.11,7.69,-7.69,-8.68,-7.57,-7.58,-7.58
259,0.08,7.67,0.08,7.67,-7.67,-8.61,-7.59,-7.59,-7.59
261,0.06,7.66,0.06,7.66,-7.66,-8.56,-7.60,-7.60,-7.60
264,0.04,7.65,0.04,7.64,-7.64,-8.48,-7.60,-7.60,-7.61
266,0.02,7.63,0.01,7.62,-7.62,-8.42,-7.60,-7.61,-7.61
269,-0.02,7.60,-0.01,7.60,-7.60,-8.32,-7.62,-7.62,-7.62
272,-0.05,7.58,-0.04,7.58,-7.58,-8.21,-7.63,-7.63,-7.63
274,-0.07,7.56,-0.08,7.56,-7.56,-8.13,-7.62,-7.63,-7.63
277,-0.11,7.53,-0.11,7.53,-7.53,-8.02,-7.64,-7.64,-7.64
280,-0.15,7.50,-0.14,7.50,-7.50,-7.90,-7.65,-7.64,-7.64
283,-0.19,7.46,-0.18,7.47,-7.47,-7.77,-7.66,-7.65,-7.65
286,-0.23,7.43,-0.22,7.44,-7.44,-7.64,-7.67,-7.66,-7.66
288,-0.25,7.41,-0.26,7.40,-7.40,-7.56,-7.65,-7.66,-7.66
291,-0.30,7.37,-0.30,7.37,-7.37,-7.43,-7.67,-7.67,-7.67
294,-0.34,7.34,-0.34,7.33,-7.33,-7.31,-7.67,-7.67,-7.67
297,-0.38,7.30,-0.38,7.30,-7.30,-7.18,-7.68,-7.68,-7.68
300,-0.43,7.26,-0.42,7.26,-7.26,-7.05,-7.69,-7.68,-7.68
303,-0.47,7.22,-0.47,7.22,-7.22,-6.93,-7.69,-7.69,-7.69
306,-0.51,7.19,-0.51,7.18,-7.18,-6.81,-7.69,-7.69,-7.69
309,-0.55,7.15,-0.55,7.14,-7.14,-6.70,-7.69,-7.70,-7.70
312,-0.60,7.10,-0.60,7.10,-7.10,-6.58,-7.70,-7.70,-7.70
316,-0.65,7.06,-0.65,7.06,-7.06,-6.43,-7.71,-7.71,-7.71
319,-0.70,7.01,-0.69,7.02,-7.02,-6.33,-7.72,-7.71,-7.71
322,-0.74,6.98,-0.74,6.98,-6.98,-6.23,-7.72,-7.71,-7.71
325,-0.78,6.94,-0.78,6.94,-6.94,-6.13,-7.71,-7.72,-7.72
328,-0.82,6.90,-0.83,6.90,-6.90,-6.03,-7.71,-7.72,-7.72
332,-0.87,6.86,-0.87,6.86,-6.86,-5.91,-7.73,-7.73,-7.73
335,-0.91,6.82,-0.91,6.82,-6.82,-5.83,-7.73,-7.73,-7.73
338,-0.95,6.79,-0.95,6.79,-6.79,-5.74,-7.73,-7.73,-7.73
342,-0.99,6.75,-0.98,6.75,-6.75,-5.64,-7.74,-7.74,-7.74
345,-1.03,6.71,-1.01,6.73,-6.73,-5.57,-7.75,-7.74,-7.74
349,-1.07,6.68,-1.05,6.70,-6.70,-5.47,-7.77,-7.74,-7.74
352,-1.11,6.64,-1.07,6.67,-6.67,-5.41,-7.78,-7.75,-7.75
356,-1.14,6.61,-1.10,6.65,-6.65,-5.33,-7.79,-7.75,-7.75
359,-1.17,6.59,-1.13,6.62,-6.62,-5.27,-7.79,-7.75,-7.75
363,-1.20,6.56,-1.16,6.60,-6.60,-5.20,-7.79,-7.76,-7.76
366,-1.22,6.54,-1.20,6.56,-6.56,-5.15,-7.78,-7.76,-7.76
370,-1.25,6.52,-1.24,6.52,-6.52,-5.08,-7.77,-7.76,-7.76
374,-1.26,6.51,-1.29,6.47,-6.47,-5.03,-7.73,-7.77,-7.77
377,-1.28,6.49,-1.35,6.41,-6.41,-4.99,-7.69,-7.77,-7.77
381,-1.31,6.46,-1.43,6.34,-6.34,-4.94,-7.65,-7.77,-7.77
385,-1.38,6.40,-1.51,6.26,-6.26,-4.89,-7.64,-7.78,-7.77
389,-1.49,6.29,-1.60,6.18,-6.18,-4.85,-7.66,-7.78,-7.78
393,-1.63,6.15,-1.70,6.08,-6.08,-4.81,-7.71,-7.78,-7.78
397,-1.81,5.98,-1.80,5.98,-5.98,-4.78,-7.79,-7.78,-7.78
401,-1.99,5.80,-1.91,5.88,-5.88,-4.75,-7.87,-7.79,-7.79
405,-2.13,5.66,-2.00,5.78,-5.78,-4.73,-7.91,-7.79,-7.79
409,-2.25,5.54,-2.10,5.69,-5.69,-4.70,-7.94,-7.79,-7.79
413,-2.30,5.50,-2.19,5.61,-5.61,-4.68,-7.90,-7.79,-7.79
417,-2.33,5.47,-2.26,5.53,-5.53,-4.66,-7.86,-7.80,-7.80
421,-2.35,5.45,-2.33,5.46,-5.46,-4.65,-7.81,-7.80,-7.80
425,-2.37,5.43,-2.39,5.41,-5.41,-4.63,-7.77,-7.80,-7.80
430,-2.41,5.39,-2.44,5.35,-5.35,-4.62,-7.76,-7.80,-7.80
434,-2.46,5.34,-2.49,5.31,-5.31,-4.60,-7.77,-7.80,-7.80
438,-2.51,5.29,-2.53,5.27,-5.27,-4.59,-7.77,-7.80,-7.80
443,-2.56,5.24,-2.57,5.23,-5.23,-4.58,-7.78,-7.79,-7.80
447,-2.60,5.20,-2.61,5.18,-5.18,-4.58,-7.78,-7.79,-7.79
451,-2.63,5.16,-2.65,5.14,-5.14,-4.57,-7.77,-7.79,-7.79
456,-2.67,5.12,-2.69,5.10,-5.10,-4.56,-7.77,-7.78,-7.79
460,-2.70,5.08,-2.73,5.05,-5.05,-4.56,-7.75,-7.78,-7.78
465,-2.75,5.03,-2.77,5.00,-5.00,-4.55,-7.75,-7.77,-7.77
470,-2.82,4.95,-2.82,4.95,-4.95,-4.54,-7.77,-7.77,-7.77
474,-2.88,4.88,-2.87,4.89,-4.89,-4.54,-7.77,-7.76,-7.76
479,-2.96,4.79,-2.91,4.84,-4.84,-4.53,-7.79,-7.75,-7.75
484,-3.01,4.73,-2.97,4.77,-4.77,-4.52,-7.78,-7.74,-7.74
489,-3.05,4.68,-3.02,4.71,-4.71,-4.51,-7.76,-7.73,-7.73
494,-3.08,4.64,-3.07,4.64,-4.64,-4.50,-7.72,-7.72,-7.72
499,-3.10,4.61,-3.13,4.58,-4.58,-4.49,-7.67,-7.70,-7.70
504,-3.14,4.55,-3.18,4.50,-4.50,-4.48,-7.64,-7.69,-7.69
509,-3.19,4.49,-3.24,4.43,-4.43,-4.47,-7.62,-7.67,-7.67
514,-3.25,4.41,-3.30,4.36,-4.36,-4.45,-7.60,-7.66,-7.66
519,-3.33,4.31,-3.36,4.28,-4.28,-4.44,-7.61,-7.64,-7.64
524,-3.42,4.20,-3.41,4.21,-4.21,-4.43,-7.62,-7.62,-7.62
529,-3.49,4.11,-3.47,4.13,-4.13,-4.41,-7.62,-7.60,-7.60
535,-3.56,4.02,-3.52,4.06,-4.06,-4.39,-7.62,-7.58,-7.58
540,-3.62,3.94,-3.56,3.99,-3.99,-4.38,-7.61,-7.56,-7.56
545,-3.65,3.89,-3.61,3.93,-3.93,-4.37,-7.58,-7.53,-7.53
551,-3.66,3.85,-3.64,3.87,-3.87,-4.35,-7.53,-7.51,-7.51
556,-3.68,3.81,-3.67,3.82,-3.82,-4.33,-7.50,-7.49,-7.49
562,-3.70,3.76,-3.69,3.77,-3.77,-4.32,-7.47,-7.46,-7.46
568,-3.71,3.73,-3.71,3.73,-3.73,-4.30,-7.44,-7.44,-7.44
573,-3.71,3.70,-3.72,3.69,-3.69,-4.29,-7.40,-7.41,-7.41
579,-3.72,3.66,-3.72,3.66,-3.66,-4.28,-7.38,-7.38,-7.38
585,-3.73,3.63,-3.73,3.63,-3.63,-4.27,-7.35,-7.35,-7.35
591,-3.72,3.61,-3.72,3.60,-3.60,-4.26,-7.32,-7.32,-7.32
596,-3.71,3.59,-3.72,3.57,-3.57,-4.25,-7.28,-7.30,-7.29
602,-3.70,3.57,-3.72,3.55,-3.55,-4.24,-7.25,-7.26,-7.26
608,-3.69,3.55,-3.71,3.52,-3.52,-4.24,-7.21,-7.23,-7.23
615,-3.68,3.53,-3.70,3.50,-3.50,-4.24,-7.18,-7.20,-7.20
621,-3.68,3.49,-3.69,3.48,-3.48,-4.24,-7.16,-7.17,-7.17
627,-3.68,3.46,-3.67,3.46,-3.46,-4.24,-7.14,-7.14,-7.14
633,-3.68,3.43,-3.66,3.45,-3.45,-4.25,-7.12,-7.10,-7.11
639,-3.67,3.40,-3.64,3.43,-3.43,-4.25,-7.10,-7.07,-7.07
646,-3.64,3.40,-3.61,3.42,-3.42,-4.26,-7.06,-7.04,-7.04
652,-3.61,3.40,-3.59,3.42,-3.42,-4.28,-7.02,-7.00,-7.00
659,-3.56,3.41,-3.55,3.41,-3.41,-4.30,-6.97,-6.97,-6.97
665,-3.51,3.42,-3.52,3.42,-3.42,-4.31,-6.92,-6.93,-6.93
672,-3.46,3.44,-3.48,3.42,-3.42,-4.34,-6.88,-6.90,-6.90
679,-3.42,3.44,-3.43,3.43,-3.43,-4.37,-6.85,-6.86,-6.86
686,-3.38,3.45,-3.38,3.44,-3.44,-4.40,-6.82,-6.82,-6.82
692,-3.34,3.45,-3.33,3.45,-3.45,-4.43,-6.79,-6.79,-6.79
699,-3.30,3.45,-3.28,3.47,-3.47,-4.46,-6.77,-6.75,-6.75
706,-3.24,3.47,-3.22,3.49,-3.49,-4.50,-6.73,-6.71,-6.71
713,-3.18,3.50,-3.16,3.51,-3.51,-4.55,-6.69,-6.67,-6.67
721,-3.10,3.54,-3.10,3.53,-3.53,-4.60,-6.63,-6.64,-6.64
728,-3.03,3.57,-3.04,3.55,-3.55,-4.65,-6.58,-6.60,-6.60
735,-2.96,3.60,-2.98,3.58,-3.58,-4.70,-6.54,-6.56,-6.56
742,-2.90,3.63,-2.92,3.60,-3.60,-4.75,-6.50,-6.52,-6.52
750,-2.83,3.66,-2.85,3.63,-3.63,-4.82,-6.46,-6.49,-6.49
757,-2.79,3.66,-2.79,3.66,-3.66,-4.87,-6.45,-6.45,-6.45
765,-2.73,3.68,-2.72,3.69,-3.69,-4.94,-6.42,-6.41,-6.41
773,-2.67,3.71,-2.65,3.72,-3.72,-5.02,-6.39,-6.38,-6.37
780,-2.61,3.73,-2.58,3.76,-3.76,-5.08,-6.36,-6.34,-6.34
788,-2.53,3.78,-2.51,3.79,-3.79,-5.16,-6.32,-6.30,-6.30
796,-2.45,3.82,-2.43,3.83,-3.83,-5.23,-6.28,-6.27,-6.27
804,-2.36,3.88,-2.36,3.88,-3.88,-5.31,-6.24,-6.23,-6.23
812,-2.27,3.93,-2.28,3.92,-3.92,-5.39,-6.19,-6.20,-6.20
820,-2.19,3.98,-2.19,3.97,-3.97,-5.47,-6.16,-6.17,-6.17
828,-2.11,4.03,-2.11,4.03,-4.03,-5.55,-6.13,-6.14,-6.13
837,-2.01,4.10,-2.02,4.08,-4.08,-5.64,-6.09,-6.10,-6.10
845,-1.93,4.14,-1.93,4.14,-4.14,-5.72,-6.07,-6.07,-6.07
853,-1.84,4.20,-1.84,4.20,-4.20,-5.79,-6.04,-6.04,-6.04
862,-1.75,4.26,-1.75,4.26,-4.26,-5.88,-6.01,-6.01,-6.01
871,-1.65,4.33,-1.65,4.33,-4.33,-5.96,-5.98,-5.98,-5.98
879,-1.56,4.40,-1.55,4.40,-4.40,-6.03,-5.96,-5.95,-5.95
888,-1.46,4.47,-1.45,4.47,-4.47,-6.11,-5.93,-5.92,-5.92
897,-1.36,4.54,-1.35,4.55,-4.55,-6.18,-5.90,-5.90,-5.90
906,-1.24,4.63,-1.24,4.63,-4.63,-6.25,-5.86,-5.87,-5.87
915,-1.14,4.70,-1.13,4.71,-4.71,-6.31,-5.85,-5.84,-5.84
924,-1.03,4.79,-1.02,4.80,-4.80,-6.36,-5.83,-5.81,-5.81
933,-0.92,4.87,-0.90,4.89,-4.89,-6.41,-5.81,-5.79,-5.79
943,-0.79,4.97,-0.78,4.98,-4.98,-6.45,-5.77,-5.76,-5.76
952,-0.67,5.07,-0.65,5.08,-5.08,-6.48,-5.75,-5.73,-5.73
962,-0.52,5.19,-0.53,5.18,-5.18,-6.51,-5.70,-5.71,-5.71
971,-0.39,5.29,-0.40,5.28,-5.28,-6.53,-5.67,-5.68,-5.68
981,-0.25,5.41,-0.27,5.39,-5.39,-6.53,-5.64,-5.66,-5.66
991,-0.12,5.51,-0.13,5.50,-5.50,-6.53,-5.61,-5.63,-5.63
1001,0.01,5.61,0.00,5.61,-5.61,-6.52,-5.59,-5.60,-5.60
1011,0.14,5.72,0.14,5.72,-5.72,-6.50,-5.57,-5.57,-5.58
1021,0.27,5.82,0.28,5.83,-5.83,-6.47,-5.56,-5.55,-5.55
1031,0.39,5.91,0.42,5.94,-5.94,-6.43,-5.55,-5.52,-5.52
1041,0.53,6.03,0.57,6.06,-6.06,-6.38,-5.53,-5.49,-5.49
1052,0.68,6.15,0.71,6.17,-6.17,-6.32,-5.49,-5.46,-5.46
1062,0.82,6.26,0.85,6.29,-6.29,-6.25,-5.46,-5.44,-5.44
1073,0.97,6.38,0.99,6.40,-6.40,-6.18,-5.42,-5.41,-5.41
1084,1.12,6.50,1.12,6.50,-6.50,-6.09,-5.38,-5.38,-5.38
1094,1.25,6.60,1.25,6.60,-6.60,-6.01,-5.35,-5.35,-5.35
1105,1.38,6.70,1.37,6.69,-6.69,-5.91,-5.31,-5.32,-5.32
1116,1.51,6.80,1.49,6.78,-6.78,-5.82,-5.26,-5.29,-5.29
1128,1.63,6.89,1.59,6.85,-6.85,-5.70,-5.22,-5.26,-5.26
1139,1.71,6.94,1.68,6.91,-6.91,-5.60,-5.20,-5.23,-5.23
1150,1.79,6.99,1.76,6.96,-6.96,-5.49,-5.17,-5.20,-5.20
1162,1.85,7.02,1.83,6.99,-6.99,-5.37,-5.14,-5.17,-5.17
1173,1.89,7.03,1.88,7.02,-7.02,-5.26,-5.12,-5.14,-5.14
1185,1.93,7.04,1.92,7.03,-7.03,-5.14,-5.09,-5.10,-5.10
1197,1.95,7.02,1.95,7.03,-7.03,-5.02,-5.07,-5.07,-5.07
1209,1.96,7.00,1.98,7.01,-7.01,-4.91,-5.05,-5.04,-5.04
1221,1.96,6.97,1.99,6.99,-6.99,-4.79,-5.03,-5.01,-5.01
1233,1.95,6.93,1.99,6.96,-6.96,-4.67,-5.01,-4.97,-4.97
1246,1.95,6.89,1.98,6.92,-6.92,-4.55,-4.97,-4.94,-4.94
1258,1.94,6.85,1.96,6.87,-6.87,-4.44,-4.93,-4.91,-4.91
1271,1.94,6.81,1.94,6.81,-6.81,-4.32,-4.87,-4.87,-4.87
1283,1.92,6.76,1.91,6.74,-6.74,-4.22,-4.82,-4.84,-4.84
1296,1.89,6.69,1.86,6.67,-6.67,-4.11,-4.77,-4.80,-4.80
1309,1.84,6.61,1.81,6.58,-6.58,-4.00,-4.74,-4.77,-4.77
1322,1.78,6.51,1.76,6.49,-6.49,-3.89,-4.70,-4.73,-4.73
1335,1.70,6.40,1.69,6.38,-6.38,-3.79,-4.68,-4.70,-4.70
1349,1.60,6.26,1.62,6.27,-6.27,-3.69,-4.67,-4.66,-4.66
1362,1.51,6.13,1.53,6.16,-6.16,-3.59,-4.64,-4.62,-4.62
1376,1.42,6.01,1.44,6.03,-6.03,-3.49,-4.61,-4.58,-4.58
1390,1.33,5.88,1.35,5.90,-5.90,-3.40,-4.56,-4.55,-4.55
1404,1.25,5.76,1.25,5.76,-5.76,-3.31,-4.50,-4.51,-4.51
1418,1.16,5.63,1.14,5.61,-5.61,-3.22,-4.45,-4.47,-4.47
1432,1.06,5.49,1.03,5.46,-5.46,-3.14,-4.40,-4.43,-4.43
1446,0.94,5.34,0.92,5.31,-5.31,-3.06,-4.37,-4.39,-4.39
1461,0.80,5.16,0.80,5.16,-5.16,-2.97,-4.35,-4.35,-4.35
1475,0.67,4.99,0.68,5.00,-5.00,-2.90,-4.33,-4.31,-4.31
1490,0.54,4.82,0.57,4.84,-4.84,-2.82,-4.30,-4.27,-4.27
1505,0.41,4.65,0.45,4.68,-4.68,-2.75,-4.27,-4.23,-4.23
1520,0.30,4.49,0.33,4.52,-4.52,-2.68,-4.22,-4.19,-4.19
1535,0.20,4.35,0.21,4.36,-4.36,-2.61,-4.16,-4.15,-4.15
1550,0.10,4.21,0.10,4.20,-4.20,-2.54,-4.10,-4.11,-4.11
1566,-0.01,4.06,-0.02,4.05,-4.05,-2.48,-4.05,-4.07,-4.07
1582,-0.13,3.90,-0.13,3.89,-3.89,-2.41,-4.02,-4.02,-4.02
1597,-0.23,3.75,-0.25,3.73,-3.73,-2.36,-3.96,-3.98,-3.98
1613,-0.35,3.59,-0.36,3.58,-3.58,-2.30,-3.93,-3.94,-3.94
1629,-0.46,3.43,-0.46,3.43,-3.43,-2.24,-3.88,-3.89,-3.89
1646,-0.57,3.28,-0.57,3.28,-3.28,-2.18,-3.84,-3.85,-3.85
1662,-0.68,3.12,-0.67,3.13,-3.13,-2.13,-3.81,-3.80,-3.80
