frequency,raw
20.00,-1.86
20.20,-1.79
20.40,-1.71
20.61,-1.64
20.81,-1.57
21.02,-1.50
21.23,-1.51
21.44,-1.52
21.66,-1.53
21.87,-1.54
22.09,-1.52
22.31,-1.48
22.54,-1.43
22.76,-1.39
22.99,-1.34
23.22,-1.28
23.45,-1.22
23.69,-1.15
23.92,-1.09
24.16,-1.07
24.40,-1.07
24.65,-1.07
24.89,-1.07
25.14,-1.03
25.39,-0.97
25.65,-0.90
25.91,-0.83
26.16,-0.79
26.43,-0.76
26.69,-0.73
26.96,-0.70
27.23,-0.69
27.50,-0.67
27.77,-0.65
28.05,-0.63
28.33,-0.59
28.62,-0.55
28.90,-0.51
29.19,-0.48
29.48,-0.45
29.78,-0.42
30.08,-0.39
30.38,-0.36
30.68,-0.32
30.99,-0.29
31.30,-0.26
31.61,-0.23
31.93,-0.21
32.24,-0.17
32.57,-0.14
32.89,-0.10
33.22,-0.09
33.55,-0.09
33.89,-0.09
34.23,-0.07
34.57,-0.03
34.92,0.00
35.27,0.04
35.62,0.07
35.97,0.11
36.33,0.14
36.70,0.18
37.06,0.21
37.43,0.21
37.81,0.21
38.19,0.21
38.57,0.21
38.95,0.21
39.34,0.24
39.74,0.28
40.14,0.31
40.54,0.31
40.94,0.31
41.35,0.32
41.76,0.33
42.18,0.37
42.60,0.44
43.03,0.51
43.46,0.51
43.90,0.51
44.33,0.51
44.78,0.51
45.23,0.51
45.68,0.51
46.13,0.51
46.60,0.51
47.06,0.52
47.53,0.56
48.01,0.61
48.49,0.61
48.97,0.61
49.46,0.66
49.96,0.71
50.46,0.71
50.96,0.71
51.47,0.71
51.99,0.71
52.51,0.71
53.03,0.71
53.56,0.71
54.10,0.71
54.64,0.71
55.18,0.71
55.74,0.71
56.29,0.71
56.86,0.71
57.42,0.75
58.00,0.81
58.58,0.81
59.16,0.83
59.76,0.89
60.35,0.91
60.96,0.91
61.57,0.91
62.18,0.91
62.80,0.91
63.43,0.91
64.07,0.91
64.71,0.91
65.35,0.91
66.01,0.91
66.67,0.91
67.33,0.91
68.01,0.91
68.69,0.91
69.37,0.91
70.07,0.92
70.77,0.99
71.48,1.05
72.19,1.09
72.91,1.11
73.64,1.11
74.38,1.11
75.12,1.11
75.87,1.11
76.63,1.11
77.40,1.11
78.17,1.11
78.95,1.11
79.74,1.11
80.54,1.11
81.35,1.11
82.16,1.11
82.98,1.11
83.81,1.11
84.65,1.11
85.50,1.11
86.35,1.11
87.22,1.13
88.09,1.22
88.97,1.22
89.86,1.22
90.76,1.22
91.66,1.22
92.58,1.22
93.51,1.22
94.44,1.22
95.39,1.22
96.34,1.22
97.30,1.21
98.28,1.20
99.26,1.19
100.25,1.17
101.25,1.15
102.27,1.14
103.29,1.13
104.32,1.11
105.37,1.08
106.42,1.06
107.48,1.04
108.56,1.08
109.64,1.09
110.74,1.07
111.85,1.05
112.97,1.04
114.10,1.04
115.24,1.04
116.39,1.04
117.55,1.07
118.73,1.14
119.92,1.15
121.12,1.17
122.33,1.23
123.55,1.28
124.79,1.28
126.03,1.29
127.29,1.30
128.57,1.30
129.85,1.31
131.15,1.32
132.46,1.32
133.79,1.35
135.12,1.45
136.48,1.42
137.84,1.41
139.22,1.49
140.61,1.54
142.02,1.54
143.44,1.54
144.87,1.54
146.32,1.54
147.78,1.54
149.26,1.54
150.75,1.59
152.26,1.69
153.78,1.74
155.32,1.69
156.88,1.64
158.44,1.57
160.03,1.54
161.63,1.50
163.24,1.42
164.88,1.29
166.53,1.19
168.19,1.14
169.87,1.13
171.57,1.04
173.29,1.07
175.02,1.10
176.77,1.17
178.54,1.19
180.32,1.20
182.13,1.26
183.95,1.33
185.79,1.41
187.65,1.44
189.52,1.46
191.42,1.47
193.33,1.48
195.27,1.50
197.22,1.51
199.19,1.52
201.18,1.53
203.19,1.53
205.23,1.52
207.28,1.55
209.35,1.70
211.44,1.75
213.56,1.73
215.69,1.73
217.85,1.72
220.03,1.72
222.23,1.72
224.45,1.72
226.70,1.72
228.96,1.72
231.25,1.73
233.57,1.74
235.90,1.75
238.26,1.77
240.64,1.78
243.05,1.79
245.48,1.82
247.93,1.85
250.41,1.82
252.92,1.74
255.45,1.77
258.00,1.79
260.58,1.80
263.19,1.79
265.82,1.67
268.48,1.71
271.16,1.68
273.87,1.60
276.61,1.59
279.38,1.59
282.17,1.59
284.99,1.52
287.84,1.48
290.72,1.52
293.63,1.44
296.57,1.40
299.53,1.32
302.53,1.17
305.55,1.09
308.61,0.98
311.69,0.95
314.81,0.96
317.96,0.78
321.14,0.59
324.35,0.47
327.59,0.21
330.87,0.05
334.18,0.13
337.52,0.18
340.90,0.04
344.30,-0.13
347.75,-0.39
351.23,-0.56
354.74,-0.60
358.28,-0.68
361.87,-0.89
365.49,-1.04
369.14,-1.25
372.83,-1.53
376.56,-1.63
380.33,-1.85
384.13,-2.09
387.97,-2.30
391.85,-2.56
395.77,-2.94
399.73,-3.26
403.72,-3.43
407.76,-3.53
411.84,-3.90
415.96,-4.34
420.12,-4.65
424.32,-4.85
428.56,-5.24
432.85,-5.67
437.18,-6.01
441.55,-6.20
445.96,-6.30
450.42,-6.48
454.93,-6.72
459.48,-6.61
464.07,-6.13
468.71,-6.06
473.40,-6.11
478.13,-6.15
482.91,-6.36
487.74,-6.75
492.62,-7.05
497.55,-7.17
502.52,-7.23
507.55,-7.35
512.62,-7.44
517.75,-7.56
522.93,-7.64
528.16,-7.66
533.44,-7.68
538.77,-7.71
544.16,-7.75
549.60,-7.79
555.10,-7.84
560.65,-7.76
566.25,-7.44
571.92,-7.27
577.64,-7.07
583.41,-7.17
589.25,-7.31
595.14,-7.56
601.09,-7.38
607.10,-7.32
613.17,-6.96
619.30,-6.65
625.50,-6.53
631.75,-6.30
638.07,-6.05
644.45,-5.79
650.89,-5.38
657.40,-5.02
663.98,-4.80
670.62,-4.62
677.32,-4.24
684.10,-3.85
690.94,-3.53
697.85,-3.06
704.83,-2.85
711.87,-2.66
718.99,-2.59
726.18,-2.50
733.44,-2.31
740.78,-2.19
748.19,-2.07
755.67,-1.91
763.23,-1.82
770.86,-1.77
778.57,-1.66
786.35,-1.53
794.22,-1.41
802.16,-1.34
810.18,-1.23
818.28,-1.10
826.46,-0.98
834.73,-0.89
843.08,-0.82
851.51,-0.69
860.02,-0.67
868.62,-0.65
877.31,-0.51
886.08,-0.49
894.94,-0.50
903.89,-0.51
912.93,-0.39
922.06,-0.32
931.28,-0.32
940.59,-0.24
950.00,-0.21
959.50,-0.21
969.09,-0.18
978.78,-0.11
988.57,-0.08
998.46,-0.01
1008.44,0.05
1018.53,0.08
1028.71,0.10
1039.00,0.13
1049.39,0.17
1059.88,0.20
1070.48,0.25
1081.19,0.27
1092.00,0.25
1102.92,0.30
1113.95,0.37
1125.09,0.43
1136.34,0.50
1147.70,0.61
1159.18,0.75
1170.77,0.87
1182.48,0.97
1194.30,1.07
1206.25,1.18
1218.31,1.29
1230.49,1.29
1242.80,1.36
1255.22,1.44
1267.78,1.46
1280.45,1.50
1293.26,1.52
1306.19,1.53
1319.25,1.58
1332.45,1.60
1345.77,1.60
1359.23,1.66
1372.82,1.68
1386.55,1.72
1400.41,1.80
1414.42,1.82
1428.56,1.77
1442.85,1.74
1457.28,1.74
1471.85,1.72
1486.57,1.68
1501.43,1.62
1516.45,1.48
1531.61,1.36
1546.93,1.28
1562.40,1.24
1578.02,1.17
1593.80,1.09
1609.74,0.95
1625.84,0.81
1642.10,0.69
1658.52,0.53
1675.10,0.37
1691.85,0.20
1708.77,0.00
1725.86,-0.32
1743.12,-0.52
1760.55,-0.62
1778.15,-0.81
1795.94,-0.99
1813.90,-1.09
1832.03,-1.27
1850.36,-1.50
1868.86,-1.59
1887.55,-1.72
1906.42,-1.89
1925.49,-1.99
1944.74,-2.16
1964.19,-2.37
1983.83,-2.53
2003.67,-2.65
2023.71,-2.81
2043.94,-3.00
2064.38,-3.12
2085.03,-3.20
2105.88,-3.33
2126.94,-3.40
2148.20,-3.44
2169.69,-3.58
2191.38,-3.67
2213.30,-3.70
2235.43,-3.77
2257.78,-3.86
2280.36,-3.85
2303.17,-3.87
2326.20,-3.94
2349.46,-3.94
2372.95,-3.99
2396.68,-4.09
2420.65,-4.23
2444.86,-4.25
2469.31,-4.30
2494.00,-4.36
2518.94,-4.34
2544.13,-4.31
2569.57,-4.30
2595.27,-4.30
2621.22,-4.26
2647.43,-4.19
2673.90,-4.13
2700.64,-4.09
2727.65,-4.05
2754.93,-4.02
2782.48,-4.00
2810.30,-3.95
2838.40,-3.95
2866.79,-3.99
2895.46,-4.05
2924.41,-4.08
2953.65,-4.03
2983.19,-4.04
3013.02,-4.00
3043.15,-3.87
3073.58,-3.64
3104.32,-3.47
3135.36,-3.48
3166.72,-3.40
3198.38,-3.26
3230.37,-3.04
3262.67,-2.91
3295.30,-2.74
3328.25,-2.72
3361.53,-2.78
3395.15,-2.88
3429.10,-3.07
3463.39,-3.25
3498.03,-3.34
3533.01,-3.41
3568.34,-3.48
3604.02,-3.52
3640.06,-3.61
3676.46,-3.78
3713.22,-3.95
3750.36,-3.91
3787.86,-3.91
3825.74,-3.92
3864.00,-3.86
3902.64,-3.77
3941.66,-3.58
3981.08,-3.18
4020.89,-2.93
4061.10,-2.64
4101.71,-2.28
4142.73,-2.02
4184.15,-1.92
4226.00,-1.73
4268.26,-1.64
4310.94,-1.57
4354.05,-1.43
4397.59,-1.50
4441.56,-1.59
4485.98,-1.63
4530.84,-1.93
4576.15,-2.25
4621.91,-2.63
4668.13,-3.11
4714.81,-3.15
4761.96,-2.87
4809.58,-2.20
4857.67,-1.76
4906.25,-2.36
4955.31,-2.71
5004.87,-2.80
5054.91,-2.98
5105.46,-3.34
5156.52,-3.67
5208.08,-4.16
5260.16,-4.48
5312.77,-4.82
5365.89,-5.32
5419.55,-5.64
5473.75,-5.93
5528.49,-6.34
5583.77,-6.70
5639.61,-6.94
5696.00,-7.15
5752.96,-7.49
5810.49,-7.42
5868.60,-6.95
5927.28,-7.15
5986.56,-7.37
6046.42,-7.62
6106.89,-7.91
6167.96,-8.10
6229.64,-8.40
6291.93,-8.81
6354.85,-9.19
6418.40,-9.71
6482.58,-10.34
6547.41,-10.98
6612.88,-11.59
6679.01,-12.29
6745.80,-13.16
6813.26,-13.99
6881.39,-14.61
6950.21,-15.29
7019.71,-15.66
7089.91,-15.70
7160.81,-15.62
7232.41,-15.42
7304.74,-15.17
7377.79,-14.93
7451.56,-14.69
7526.08,-14.53
7601.34,-14.38
7677.35,-14.00
7754.13,-13.51
7831.67,-13.13
7909.98,-12.62
7989.08,-11.98
8068.98,-11.44
8149.67,-10.89
8231.16,-10.07
8313.47,-9.53
8396.61,-9.20
8480.57,-8.90
8565.38,-8.35
8651.03,-7.95
8737.54,-7.43
8824.92,-7.81
8913.17,-8.25
9002.30,-8.03
9092.32,-7.80
9183.25,-7.13
9275.08,-6.60
9367.83,-6.82
9461.51,-7.17
9556.12,-7.59
9651.68,-8.29
9748.20,-9.05
9845.68,-9.67
9944.14,-10.31
10043.58,-11.26
10144.02,-12.29
10245.46,-13.17
10347.91,-14.36
10451.39,-15.53
10555.91,-16.09
10661.46,-16.49
10768.08,-16.49
10875.76,-16.13
10984.52,-15.60
11094.36,-14.89
11205.31,-14.25
11317.36,-13.61
11430.53,-13.19
11544.84,-13.22
11660.29,-13.52
11776.89,-13.98
11894.66,-14.32
12013.60,-14.69
12133.74,-14.72
12255.08,-14.53
12377.63,-14.85
12501.41,-15.50
12626.42,-16.15
12752.68,-16.08
12880.21,-16.20
13009.01,-15.96
13139.10,-15.56
13270.49,-15.61
13403.20,-15.32
13537.23,-14.82
13672.60,-15.31
13809.33,-15.85
13947.42,-15.74
14086.90,-14.60
14227.77,-13.48
14370.04,-13.09
14513.74,-13.23
14658.88,-13.36
14805.47,-12.90
14953.52,-11.83
15103.06,-12.65
15254.09,-11.95
15406.63,-9.34
15560.70,-8.65
15716.30,-9.07
15873.47,-9.54
16032.20,-10.38
16192.52,-11.18
16354.45,-12.16
16517.99,-12.72
16683.17,-13.68
16850.01,-14.38
17018.51,-15.21
17188.69,-15.82
17360.58,-16.47
17534.18,-17.35
17709.53,-18.20
17886.62,-18.71
18065.49,-19.56
18246.14,-21.04
18428.60,-22.41
18612.89,-23.11
18799.02,-23.96
18987.01,-23.85
19176.88,-23.84
19368.65,-24.39
19562.33,-25.52
19757.96,-26.53
19955.54,-26.93
