frequency,raw,error,smoothed,error_smoothed,equalization,parametric_eq,equalized_raw,equalized_smoothed,target
20,-22.71,-24.35,-22.67,-24.31,6.00,2.54,-16.71,-16.67,1.64
21,-21.92,-23.56,-21.98,-23.61,6.00,2.92,-15.92,-15.98,1.64
22,-21.28,-22.92,-21.31,-22.94,6.00,3.33,-15.28,-15.31,1.64
23,-20.75,-22.38,-20.66,-22.29,6.00,3.78,-14.75,-14.66,1.63
24,-19.99,-21.62,-20.04,-21.67,6.00,4.26,-13.99,-14.04,1.63
25,-19.39,-21.02,-19.44,-21.07,6.00,4.75,-13.39,-13.44,1.63
26,-18.87,-20.49,-18.87,-20.50,6.00,5.25,-12.87,-12.87,1.62
27,-18.43,-20.05,-18.33,-19.95,6.00,5.72,-12.43,-12.33,1.62
28,-17.75,-19.37,-17.81,-19.43,6.00,6.15,-11.75,-11.81,1.62
29,-17.31,-18.92,-17.31,-18.93,6.00,6.51,-11.31,-11.31,1.61
30,-16.81,-18.42,-16.84,-18.45,6.00,6.78,-10.81,-10.84,1.61
31,-16.38,-17.98,-16.39,-17.99,6.00,6.95,-10.38,-10.39,1.60
32,-15.96,-17.56,-15.96,-17.55,6.00,7.01,-9.96,-9.96,1.60
33,-15.57,-17.16,-15.54,-17.13,6.00,6.99,-9.57,-9.54,1.59
34,-15.20,-16.78,-15.14,-16.73,6.00,6.90,-9.20,-9.14,1.58
35,-14.74,-16.32,-14.76,-16.34,6.00,6.77,-8.74,-8.76,1.58
36,-14.37,-15.94,-14.39,-15.96,6.00,6.61,-8.37,-8.39,1.57
37,-14.02,-15.58,-14.03,-15.59,6.00,6.44,-8.02,-8.03,1.56
38,-13.70,-15.25,-13.68,-15.23,6.00,6.28,-7.70,-7.68,1.55
39,-13.36,-14.90,-13.35,-14.89,6.00,6.13,-7.36,-7.35,1.54
40,-13.03,-14.56,-13.04,-14.56,6.00,6.01,-7.03,-7.04,1.53
41,-12.71,-14.23,-12.73,-14.25,6.00,5.91,-6.71,-6.73,1.52
42,-12.43,-13.94,-12.44,-13.95,6.00,5.83,-6.43,-6.44,1.51
43,-12.18,-13.67,-12.16,-13.66,6.00,5.78,-6.18,-6.16,1.49
44,-11.88,-13.36,-11.90,-13.37,6.00,5.75,-5.88,-5.90,1.48
45,-11.66,-13.12,-11.64,-13.10,6.00,5.75,-5.66,-5.64,1.46
46,-11.39,-12.84,-11.39,-12.84,6.00,5.76,-5.39,-5.39,1.45
47,-11.15,-12.58,-11.14,-12.58,6.00,5.80,-5.15,-5.14,1.43
48,-10.92,-12.34,-10.91,-12.32,6.00,5.85,-4.92,-4.91,1.42
49,-10.67,-12.07,-10.68,-12.07,6.00,5.92,-4.67,-4.68,1.40
50,-10.43,-11.81,-10.45,-11.83,6.00,6.00,-4.43,-4.45,1.38
51,-10.30,-11.66,-10.23,-11.59,6.00,6.10,-4.30,-4.23,1.36
52,-10.02,-11.36,-10.03,-11.37,6.00,6.19,-4.02,-4.03,1.34
53,-9.79,-11.11,-9.83,-11.15,6.00,6.29,-3.79,-3.83,1.32
54,-9.61,-10.90,-9.64,-10.94,6.00,6.39,-3.61,-3.64,1.29
55,-9.48,-10.75,-9.47,-10.74,6.00,6.49,-3.48,-3.47,1.27
56,-9.31,-10.56,-9.31,-10.55,6.00,6.58,-3.31,-3.31,1.25
57,-9.14,-10.36,-9.15,-10.37,6.00,6.66,-3.14,-3.15,1.22
58,-9.02,-10.21,-9.01,-10.20,6.00,6.72,-3.02,-3.01,1.19
59,-8.91,-10.08,-8.87,-10.04,6.00,6.77,-2.91,-2.87,1.17
60,-8.71,-9.85,-8.75,-9.88,6.00,6.81,-2.71,-2.75,1.14
61,-8.61,-9.72,-8.62,-9.73,6.00,6.82,-2.61,-2.62,1.11
62,-8.48,-9.56,-8.50,-9.58,6.00,6.82,-2.48,-2.50,1.08
63,-8.37,-9.42,-8.37,-9.42,6.00,6.80,-2.37,-2.37,1.05
64,-8.31,-9.33,-8.25,-9.27,6.00,6.76,-2.31,-2.25,1.02
65,-8.12,-9.11,-8.12,-9.11,6.00,6.70,-2.12,-2.12,0.99
66,-8.01,-8.96,-7.99,-8.94,6.00,6.63,-2.01,-1.99,0.95
67,-7.88,-8.80,-7.85,-8.77,6.00,6.55,-1.88,-1.85,0.92
68,-7.70,-8.58,-7.72,-8.60,6.00,6.46,-1.70,-1.72,0.88
69,-7.55,-8.40,-7.58,-8.43,6.00,6.35,-1.55,-1.58,0.85
70,-7.46,-8.27,-7.45,-8.26,6.00,6.25,-1.46,-1.45,0.81
71,-7.30,-8.08,-7.32,-8.10,6.00,6.13,-1.30,-1.32,0.78
72,-7.20,-7.94,-7.20,-7.94,6.00,6.02,-1.20,-1.20,0.74
73,-7.11,-7.81,-7.08,-7.78,6.00,5.90,-1.11,-1.08,0.70
74,-6.95,-7.61,-6.97,-7.64,6.00,5.79,-0.95,-0.97,0.66
75,-6.90,-7.52,-6.88,-7.50,6.00,5.68,-0.90,-0.88,0.62
76,-6.72,-7.31,-6.79,-7.37,6.00,5.57,-0.72,-0.79,0.59
77,-6.70,-7.25,-6.71,-7.25,6.00,5.46,-0.70,-0.71,0.55
78,-6.64,-7.15,-6.64,-7.14,6.00,5.36,-0.64,-0.64,0.51
79,-6.60,-7.07,-6.57,-7.03,6.00,5.26,-0.60,-0.57,0.47
80,-6.50,-6.92,-6.50,-6.92,6.00,5.17,-0.50,-0.50,0.42
81,-6.40,-6.78,-6.43,-6.81,6.00,5.08,-0.40,-0.43,0.38
82,-6.38,-6.72,-6.36,-6.70,6.00,5.00,-0.38,-0.36,0.34
83,-6.30,-6.60,-6.28,-6.59,6.00,4.92,-0.30,-0.28,0.30
84,-6.21,-6.47,-6.20,-6.46,6.00,4.85,-0.21,-0.20,0.26
85,-6.14,-6.36,-6.11,-6.33,6.00,4.78,-0.14,-0.11,0.22
86,-6.03,-6.21,-6.02,-6.20,5.97,4.72,-0.06,-0.04,0.18
87,-5.94,-6.08,-5.92,-6.06,5.92,4.67,-0.02,-0.00,0.14
88,-5.81,-5.90,-5.82,-5.92,5.84,4.62,0.03,0.02,0.09
89,-5.70,-5.75,-5.73,-5.78,5.74,4.58,0.04,0.01,0.05
90,-5.59,-5.60,-5.64,-5.65,5.63,4.54,0.04,-0.00,0.01
91,-5.58,-5.55,-5.55,-5.52,5.52,4.50,-0.06,-0.03,-0.03
92,-5.46,-5.39,-5.47,-5.40,5.40,4.47,-0.06,-0.07,-0.07
93,-5.38,-5.27,-5.39,-5.28,5.28,4.45,-0.10,-0.11,-0.11
94,-5.35,-5.20,-5.32,-5.17,5.17,4.42,-0.18,-0.15,-0.15
95,-5.25,-5.05,-5.26,-5.06,5.06,4.41,-0.19,-0.19,-0.20
96,-5.19,-4.95,-5.19,-4.96,4.96,4.39,-0.23,-0.23,-0.24
97,-5.16,-4.88,-5.13,-4.86,4.86,4.38,-0.30,-0.27,-0.28
98,-5.10,-4.78,-5.08,-4.77,4.77,4.37,-0.33,-0.32,-0.32
99,-5.03,-4.67,-5.04,-4.68,4.68,4.37,-0.35,-0.36,-0.36
100,-5.01,-4.62,-5.00,-4.60,4.60,4.36,-0.41,-0.40,-0.39
101,-4.96,-4.53,-4.98,-4.54,4.54,4.36,-0.42,-0.44,-0.43
102,-4.92,-4.45,-4.98,-4.49,4.49,4.36,-0.43,-0.49,-0.47
104,-4.98,-4.43,-4.99,-4.45,4.45,4.37,-0.53,-0.53,-0.55
105,-5.01,-4.43,-5.01,-4.44,4.44,4.38,-0.57,-0.57,-0.58
106,-5.03,-4.41,-5.04,-4.43,4.43,4.39,-0.60,-0.61,-0.62
107,-5.06,-4.41,-5.08,-4.43,4.43,4.39,-0.63,-0.65,-0.65
108,-5.08,-4.39,-5.12,-4.44,4.44,4.40,-0.64,-0.69,-0.69
109,-5.24,-4.52,-5.16,-4.44,4.44,4.41,-0.80,-0.72,-0.72
110,-5.27,-4.52,-5.19,-4.44,4.44,4.42,-0.83,-0.75,-0.75
111,-5.24,-4.46,-5.22,-4.44,4.44,4.43,-0.80,-0.78,-0.78
112,-5.25,-4.44,-5.24,-4.43,4.43,4.43,-0.82,-0.81,-0.81
113,-5.26,-4.42,-5.26,-4.41,4.41,4.44,-0.85,-0.84,-0.84
114,-5.26,-4.39,-5.28,-4.40,4.40,4.44,-0.86,-0.88,-0.87
115,-5.27,-4.37,-5.30,-4.40,4.40,4.45,-0.87,-0.91,-0.90
117,-5.22,-4.27,-5.34,-4.40,4.40,4.45,-0.82,-0.94,-0.95
118,-5.40,-4.42,-5.38,-4.41,4.41,4.45,-0.99,-0.97,-0.98
119,-5.45,-4.45,-5.43,-4.44,4.44,4.45,-1.01,-1.00,-1.00
120,-5.49,-4.47,-5.49,-4.47,4.47,4.44,-1.02,-1.02,-1.02
121,-5.50,-4.46,-5.55,-4.50,4.50,4.44,-1.00,-1.05,-1.04
123,-5.61,-4.52,-5.60,-4.52,4.52,4.42,-1.09,-1.08,-1.09
124,-5.69,-4.58,-5.64,-4.53,4.53,4.41,-1.16,-1.10,-1.11
125,-5.72,-4.60,-5.66,-4.53,4.53,4.39,-1.19,-1.13,-1.12
126,-5.71,-4.57,-5.66,-4.51,4.51,4.38,-1.20,-1.15,-1.14
128,-5.59,-4.41,-5.65,-4.48,4.48,4.34,-1.11,-1.17,-1.18
129,-5.60,-4.40,-5.62,-4.42,4.42,4.32,-1.18,-1.19,-1.20
130,-5.62,-4.41,-5.57,-4.36,4.36,4.29,-1.26,-1.22,-1.21
131,-5.55,-4.32,-5.51,-4.28,4.28,4.27,-1.27,-1.24,-1.23
133,-5.37,-4.11,-5.45,-4.19,4.19,4.21,-1.18,-1.26,-1.26
134,-5.40,-4.12,-5.38,-4.10,4.10,4.18,-1.30,-1.28,-1.28
135,-5.35,-4.06,-5.31,-4.01,4.01,4.15,-1.34,-1.30,-1.29
137,-5.17,-3.84,-5.24,-3.92,3.92,4.08,-1.25,-1.32,-1.33
138,-5.14,-3.80,-5.17,-3.83,3.83,4.05,-1.31,-1.34,-1.34
140,-5.07,-3.70,-5.10,-3.74,3.74,3.98,-1.33,-1.36,-1.37
141,-5.07,-3.69,-5.03,-3.64,3.64,3.95,-1.43,-1.38,-1.38
142,-5.03,-3.63,-4.95,-3.55,3.55,3.91,-1.48,-1.40,-1.40
144,-4.86,-3.43,-4.88,-3.45,3.45,3.84,-1.41,-1.42,-1.43
145,-4.79,-3.35,-4.80,-3.35,3.35,3.80,-1.44,-1.45,-1.44
147,-4.76,-3.29,-4.72,-3.25,3.25,3.73,-1.51,-1.47,-1.47
148,-4.60,-3.12,-4.64,-3.15,3.15,3.70,-1.45,-1.49,-1.48
150,-4.56,-3.05,-4.56,-3.06,3.06,3.63,-1.50,-1.51,-1.51
151,-4.56,-3.04,-4.49,-2.97,2.97,3.59,-1.59,-1.53,-1.52
153,-4.38,-2.83,-4.44,-2.89,2.89,3.53,-1.49,-1.55,-1.55
154,-4.36,-2.80,-4.39,-2.83,2.83,3.50,-1.53,-1.56,-1.56
156,-4.36,-2.77,-4.37,-2.78,2.78,3.43,-1.58,-1.58,-1.59
157,-4.36,-2.76,-4.36,-2.76,2.76,3.40,-1.60,-1.60,-1.60
159,-4.36,-2.74,-4.37,-2.75,2.75,3.35,-1.61,-1.62,-1.62
160,-4.36,-2.73,-4.40,-2.76,2.76,3.32,-1.60,-1.64,-1.63
162,-4.44,-2.79,-4.44,-2.78,2.78,3.27,-1.66,-1.65,-1.65
164,-4.46,-2.79,-4.49,-2.82,2.82,3.22,-1.64,-1.67,-1.67
165,-4.47,-2.79,-4.54,-2.85,2.85,3.20,-1.62,-1.69,-1.68
167,-4.64,-2.94,-4.58,-2.88,2.88,3.15,-1.76,-1.70,-1.70
169,-4.69,-2.97,-4.62,-2.90,2.90,3.11,-1.79,-1.71,-1.72
170,-4.68,-2.96,-4.63,-2.91,2.91,3.10,-1.77,-1.73,-1.72
172,-4.68,-2.94,-4.63,-2.89,2.89,3.06,-1.79,-1.74,-1.74
174,-4.60,-2.85,-4.61,-2.86,2.86,3.03,-1.74,-1.75,-1.75
175,-4.60,-2.85,-4.58,-2.82,2.82,3.02,-1.78,-1.76,-1.75
177,-4.58,-2.82,-4.54,-2.77,2.77,2.99,-1.81,-1.76,-1.76
179,-4.41,-2.64,-4.49,-2.72,2.72,2.97,-1.69,-1.77,-1.77
181,-4.40,-2.62,-4.45,-2.68,2.68,2.95,-1.72,-1.78,-1.78
183,-4.40,-2.62,-4.42,-2.64,2.64,2.93,-1.76,-1.78,-1.78
184,-4.39,-2.61,-4.40,-2.61,2.61,2.92,-1.78,-1.78,-1.78
186,-4.37,-2.58,-4.38,-2.60,2.60,2.91,-1.77,-1.79,-1.79
188,-4.36,-2.57,-4.38,-2.59,2.59,2.90,-1.77,-1.79,-1.79
190,-4.40,-2.61,-4.38,-2.59,2.59,2.89,-1.81,-1.79,-1.79
192,-4.43,-2.64,-4.38,-2.59,2.59,2.89,-1.84,-1.79,-1.79
194,-4.41,-2.62,-4.39,-2.59,2.59,2.88,-1.82,-1.79,-1.79
196,-4.40,-2.60,-4.39,-2.60,2.60,2.88,-1.80,-1.80,-1.80
198,-4.39,-2.59,-4.40,-2.60,2.60,2.88,-1.79,-1.80,-1.80
200,-4.38,-2.58,-4.41,-2.61,2.61,2.88,-1.77,-1.80,-1.80
202,-4.37,-2.57,-4.42,-2.62,2.62,2.89,-1.75,-1.80,-1.80
204,-4.44,-2.64,-4.43,-2.63,2.63,2.89,-1.81,-1.80,-1.80
206,-4.46,-2.66,-4.44,-2.64,2.64,2.89,-1.82,-1.80,-1.80
208,-4.46,-2.66,-4.45,-2.65,2.65,2.90,-1.81,-1.80,-1.80
210,-4.47,-2.67,-4.46,-2.66,2.66,2.91,-1.81,-1.80,-1.80
212,-4.47,-2.67,-4.47,-2.67,2.67,2.91,-1.80,-1.80,-1.80
214,-4.47,-2.67,-4.47,-2.67,2.67,2.92,-1.80,-1.80,-1.80
216,-4.48,-2.68,-4.47,-2.67,2.67,2.93,-1.81,-1.80,-1.80
218,-4.48,-2.68,-4.46,-2.66,2.66,2.94,-1.82,-1.80,-1.80
221,-4.48,-2.68,-4.45,-2.65,2.65,2.95,-1.83,-1.80,-1.80
223,-4.44,-2.64,-4.44,-2.64,2.64,2.95,-1.80,-1.80,-1.80
225,-4.39,-2.59,-4.42,-2.62,2.62,2.96,-1.77,-1.80,-1.80
227,-4.38,-2.58,-4.40,-2.60,2.60,2.96,-1.78,-1.80,-1.80
229,-4.38,-2.59,-4.38,-2.59,2.59,2.96,-1.79,-1.79,-1.79
232,-4.37,-2.58,-4.36,-2.57,2.57,2.97,-1.80,-1.79,-1.79
234,-4.36,-2.57,-4.35,-2.56,2.56,2.97,-1.80,-1.79,-1.79
236,-4.35,-2.57,-4.34,-2.56,2.56,2.96,-1.79,-1.78,-1.78
239,-4.34,-2.56,-4.34,-2.56,2.56,2.96,-1.78,-1.78,-1.78
241,-4.32,-2.55,-4.34,-2.57,2.57,2.95,-1.75,-1.77,-1.77
244,-4.30,-2.53,-4.35,-2.58,2.58,2.94,-1.72,-1.76,-1.77
246,-4.36,-2.60,-4.36,-2.60,2.60,2.93,-1.76,-1.76,-1.76
248,-4.37,-2.62,-4.37,-2.62,2.62,2.92,-1.75,-1.75,-1.75
251,-4.44,-2.70,-4.39,-2.65,2.65,2.90,-1.79,-1.74,-1.74
253,-4.42,-2.69,-4.41,-2.67,2.67,2.89,-1.75,-1.74,-1.73
256,-4.41,-2.68,-4.43,-2.70,2.70,2.86,-1.71,-1.73,-1.73
259,-4.48,-2.76,-4.46,-2.74,2.74,2.83,-1.74,-1.72,-1.72
261,-4.50,-2.79,-4.49,-2.78,2.78,2.81,-1.72,-1.71,-1.71
264,-4.50,-2.79,-4.53,-2.82,2.82,2.78,-1.68,-1.71,-1.71
266,-4.50,-2.80,-4.57,-2.87,2.87,2.75,-1.63,-1.70,-1.70
269,-4.54,-2.85,-4.61,-2.92,2.92,2.72,-1.62,-1.69,-1.69
272,-4.70,-3.02,-4.65,-2.96,2.96,2.67,-1.74,-1.68,-1.68
274,-4.71,-3.03,-4.68,-3.00,3.00,2.65,-1.71,-1.68,-1.68
277,-4.71,-3.04,-4.70,-3.03,3.03,2.60,-1.68,-1.67,-1.67
280,-4.78,-3.12,-4.71,-3.04,3.04,2.56,-1.74,-1.66,-1.66
283,-4.71,-3.05,-4.70,-3.04,3.04,2.51,-1.67,-1.66,-1.66
286,-4.68,-3.03,-4.67,-3.02,3.02,2.47,-1.66,-1.65,-1.65
288,-4.60,-2.96,-4.63,-2.98,2.98,2.44,-1.62,-1.64,-1.64
291,-4.58,-2.94,-4.57,-2.94,2.94,2.39,-1.64,-1.64,-1.64
294,-4.52,-2.89,-4.51,-2.88,2.88,2.34,-1.64,-1.63,-1.63
297,-4.46,-2.83,-4.45,-2.82,2.82,2.30,-1.64,-1.63,-1.63
300,-4.36,-2.74,-4.38,-2.76,2.76,2.25,-1.60,-1.62,-1.62
303,-4.28,-2.66,-4.32,-2.70,2.70,2.20,-1.58,-1.62,-1.62
306,-4.22,-2.61,-4.26,-2.65,2.65,2.16,-1.57,-1.61,-1.61
309,-4.21,-2.61,-4.20,-2.60,2.60,2.11,-1.61,-1.60,-1.60
312,-4.20,-2.60,-4.15,-2.55,2.55,2.07,-1.65,-1.60,-1.60
316,-4.10,-2.51,-4.11,-2.51,2.51,2.01,-1.59,-1.59,-1.59
319,-4.03,-2.44,-4.06,-2.47,2.47,1.97,-1.56,-1.59,-1.59
322,-4.00,-2.42,-4.02,-2.44,2.44,1.93,-1.56,-1.58,-1.58
325,-4.00,-2.42,-3.98,-2.40,2.40,1.89,-1.60,-1.58,-1.58
328,-3.96,-2.39,-3.93,-2.36,2.36,1.86,-1.60,-1.57,-1.57
332,-3.85,-2.28,-3.88,-2.31,2.31,1.81,-1.54,-1.57,-1.57
335,-3.79,-2.22,-3.82,-2.26,2.26,1.77,-1.53,-1.57,-1.57
338,-3.79,-2.23,-3.76,-2.20,2.20,1.74,-1.59,-1.56,-1.56
342,-3.78,-2.22,-3.69,-2.13,2.13,1.70,-1.65,-1.56,-1.56
345,-3.68,-2.12,-3.61,-2.05,2.05,1.67,-1.63,-1.56,-1.56
349,-3.49,-1.94,-3.53,-1.98,1.98,1.63,-1.51,-1.55,-1.55
352,-3.45,-1.90,-3.45,-1.90,1.90,1.60,-1.55,-1.55,-1.55
356,-3.30,-1.75,-3.38,-1.84,1.84,1.56,-1.46,-1.55,-1.55
359,-3.27,-1.72,-3.33,-1.78,1.78,1.53,-1.49,-1.55,-1.55
363,-3.22,-1.68,-3.28,-1.74,1.74,1.50,-1.48,-1.55,-1.54
366,-3.23,-1.69,-3.25,-1.70,1.70,1.48,-1.53,-1.54,-1.54
370,-3.35,-1.81,-3.22,-1.68,1.68,1.45,-1.67,-1.54,-1.54
374,-3.27,-1.73,-3.20,-1.66,1.66,1.42,-1.61,-1.54,-1.54
377,-3.16,-1.62,-3.19,-1.65,1.65,1.40,-1.51,-1.54,-1.54
381,-3.15,-1.61,-3.18,-1.64,1.64,1.37,-1.51,-1.54,-1.54
385,-3.12,-1.59,-3.17,-1.64,1.64,1.35,-1.48,-1.53,-1.53
389,-3.17,-1.64,-3.16,-1.63,1.63,1.33,-1.54,-1.53,-1.53
393,-3.22,-1.70,-3.15,-1.63,1.63,1.30,-1.59,-1.52,-1.52
397,-3.14,-1.63,-3.15,-1.64,1.64,1.28,-1.50,-1.51,-1.51
401,-3.14,-1.64,-3.16,-1.65,1.65,1.26,-1.49,-1.50,-1.50
405,-3.14,-1.65,-3.17,-1.67,1.67,1.25,-1.47,-1.49,-1.49
409,-3.13,-1.65,-3.18,-1.70,1.70,1.23,-1.43,-1.48,-1.48
413,-3.13,-1.67,-3.19,-1.72,1.72,1.21,-1.41,-1.46,-1.46
417,-3.23,-1.79,-3.19,-1.75,1.75,1.20,-1.48,-1.44,-1.44
421,-3.25,-1.83,-3.19,-1.77,1.77,1.18,-1.48,-1.42,-1.42
425,-3.24,-1.84,-3.17,-1.78,1.78,1.17,-1.46,-1.39,-1.40
430,-3.15,-1.78,-3.14,-1.78,1.78,1.15,-1.37,-1.37,-1.37
434,-3.09,-1.75,-3.10,-1.77,1.77,1.14,-1.32,-1.34,-1.34
438,-2.98,-1.68,-3.04,-1.74,1.74,1.12,-1.24,-1.30,-1.30
443,-2.94,-1.67,-2.97,-1.70,1.70,1.11,-1.24,-1.27,-1.27
447,-2.90,-1.67,-2.88,-1.65,1.65,1.10,-1.25,-1.23,-1.23
451,-2.81,-1.62,-2.77,-1.59,1.59,1.09,-1.22,-1.19,-1.19
456,-2.69,-1.54,-2.65,-1.51,1.51,1.07,-1.18,-1.15,-1.15
460,-2.58,-1.47,-2.52,-1.41,1.41,1.06,-1.17,-1.11,-1.11
465,-2.38,-1.31,-2.38,-1.31,1.31,1.05,-1.07,-1.07,-1.07
470,-2.20,-1.17,-2.23,-1.20,1.20,1.03,-1.00,-1.03,-1.03
474,-2.08,-1.09,-2.08,-1.09,1.09,1.02,-0.99,-0.99,-0.99
479,-1.91,-0.96,-1.94,-0.99,0.99,1.01,-0.92,-0.95,-0.95
484,-1.74,-0.82,-1.80,-0.89,0.89,0.99,-0.85,-0.92,-0.92
489,-1.68,-0.80,-1.69,-0.80,0.80,0.98,-0.88,-0.89,-0.88
494,-1.57,-0.71,-1.59,-0.73,0.73,0.97,-0.84,-0.86,-0.86
499,-1.52,-0.69,-1.50,-0.67,0.67,0.95,-0.85,-0.84,-0.83
504,-1.42,-0.61,-1.44,-0.62,0.62,0.94,-0.80,-0.82,-0.81
509,-1.40,-0.60,-1.38,-0.58,0.58,0.93,-0.82,-0.80,-0.80
514,-1.34,-0.55,-1.33,-0.54,0.54,0.91,-0.80,-0.79,-0.79
519,-1.28,-0.50,-1.29,-0.51,0.51,0.90,-0.77,-0.78,-0.78
524,-1.28,-0.50,-1.26,-0.48,0.48,0.88,-0.80,-0.78,-0.78
529,-1.28,-0.50,-1.24,-0.46,0.46,0.87,-0.82,-0.78,-0.78
535,-1.21,-0.42,-1.22,-0.44,0.44,0.85,-0.77,-0.79,-0.79
540,-1.18,-0.38,-1.22,-0.42,0.42,0.83,-0.76,-0.80,-0.80
545,-1.18,-0.38,-1.22,-0.41,0.41,0.82,-0.77,-0.81,-0.80
551,-1.23,-0.41,-1.22,-0.40,0.40,0.80,-0.83,-0.82,-0.82
556,-1.18,-0.35,-1.22,-0.40,0.40,0.79,-0.78,-0.83,-0.83
562,-1.21,-0.37,-1.23,-0.39,0.39,0.77,-0.82,-0.84,-0.84
568,-1.30,-0.45,-1.23,-0.38,0.38,0.75,-0.92,-0.85,-0.85
573,-1.31,-0.45,-1.22,-0.36,0.36,0.74,-0.95,-0.86,-0.86
579,-1.16,-0.30,-1.20,-0.34,0.34,0.72,-0.82,-0.86,-0.86
585,-1.16,-0.29,-1.17,-0.30,0.30,0.70,-0.86,-0.86,-0.87
591,-1.12,-0.25,-1.12,-0.26,0.26,0.68,-0.86,-0.86,-0.87
596,-1.09,-0.23,-1.08,-0.21,0.21,0.67,-0.88,-0.86,-0.86
602,-1.00,-0.14,-1.02,-0.16,0.16,0.65,-0.84,-0.85,-0.86
608,-0.91,-0.07,-0.95,-0.11,0.11,0.63,-0.80,-0.84,-0.84
615,-0.84,-0.01,-0.88,-0.06,0.06,0.61,-0.78,-0.83,-0.83
621,-0.89,-0.08,-0.81,0.00,-0.00,0.60,-0.89,-0.81,-0.81
627,-0.80,-0.01,-0.73,0.06,-0.06,0.58,-0.86,-0.79,-0.79
633,-0.55,0.21,-0.64,0.12,-0.12,0.57,-0.67,-0.76,-0.76
639,-0.59,0.14,-0.55,0.19,-0.19,0.55,-0.78,-0.73,-0.73
646,-0.52,0.18,-0.45,0.25,-0.25,0.53,-0.77,-0.70,-0.70
652,-0.24,0.43,-0.35,0.32,-0.32,0.52,-0.56,-0.67,-0.67
659,-0.22,0.42,-0.24,0.39,-0.39,0.50,-0.61,-0.64,-0.64
665,-0.18,0.42,-0.14,0.46,-0.46,0.49,-0.64,-0.60,-0.60
672,-0.13,0.44,-0.04,0.52,-0.52,0.47,-0.65,-0.57,-0.57
679,-0.08,0.45,0.04,0.57,-0.57,0.45,-0.65,-0.53,-0.53
686,0.07,0.57,0.09,0.59,-0.59,0.44,-0.52,-0.50,-0.50
692,0.16,0.63,0.11,0.58,-0.58,0.43,-0.42,-0.47,-0.47
699,0.19,0.63,0.07,0.51,-0.51,0.41,-0.32,-0.44,-0.44
706,0.12,0.53,-0.03,0.38,-0.38,0.40,-0.26,-0.41,-0.41
713,-0.08,0.30,-0.19,0.20,-0.20,0.38,-0.28,-0.38,-0.38
721,-0.27,0.09,-0.40,-0.04,0.04,0.37,-0.23,-0.36,-0.36
728,-0.58,-0.24,-0.66,-0.32,0.32,0.35,-0.26,-0.34,-0.34
735,-0.91,-0.59,-0.93,-0.62,0.62,0.34,-0.29,-0.32,-0.32
742,-1.18,-0.88,-1.20,-0.90,0.90,0.33,-0.28,-0.30,-0.30
750,-1.64,-1.36,-1.43,-1.15,1.15,0.31,-0.49,-0.28,-0.28
757,-1.84,-1.57,-1.61,-1.34,1.34,0.30,-0.50,-0.27,-0.27
765,-1.96,-1.70,-1.72,-1.46,1.46,0.29,-0.50,-0.26,-0.26
773,-1.88,-1.63,-1.76,-1.51,1.51,0.27,-0.37,-0.25,-0.25
780,-1.69,-1.45,-1.73,-1.50,1.50,0.26,-0.19,-0.24,-0.24
788,-1.54,-1.31,-1.66,-1.43,1.43,0.25,-0.11,-0.23,-0.23
796,-1.41,-1.19,-1.55,-1.33,1.33,0.24,-0.08,-0.22,-0.22
804,-1.32,-1.11,-1.42,-1.21,1.21,0.23,-0.11,-0.21,-0.21
812,-1.30,-1.10,-1.29,-1.08,1.08,0.22,-0.22,-0.20,-0.20
820,-1.20,-1.00,-1.15,-0.96,0.96,0.21,-0.24,-0.20,-0.20
828,-1.10,-0.91,-1.02,-0.83,0.83,0.20,-0.27,-0.19,-0.19
837,-0.94,-0.76,-0.91,-0.72,0.72,0.19,-0.22,-0.18,-0.18
845,-0.78,-0.60,-0.80,-0.62,0.62,0.18,-0.16,-0.18,-0.18
853,-0.57,-0.40,-0.70,-0.53,0.53,0.17,-0.04,-0.17,-0.17
862,-0.49,-0.33,-0.61,-0.45,0.45,0.16,-0.04,-0.16,-0.16
871,-0.50,-0.35,-0.53,-0.38,0.38,0.16,-0.12,-0.15,-0.15
879,-0.58,-0.43,-0.46,-0.31,0.31,0.15,-0.27,-0.15,-0.15
888,-0.60,-0.46,-0.40,-0.26,0.26,0.15,-0.34,-0.14,-0.14
897,-0.31,-0.18,-0.33,-0.21,0.21,0.14,-0.10,-0.13,-0.13
906,-0.13,-0.01,-0.28,-0.16,0.16,0.14,0.03,-0.12,-0.12
915,-0.17,-0.06,-0.22,-0.11,0.11,0.14,-0.06,-0.11,-0.11
924,-0.20,-0.10,-0.17,-0.07,0.07,0.14,-0.13,-0.10,-0.10
933,-0.21,-0.12,-0.12,-0.03,0.03,0.14,-0.18,-0.09,-0.09
943,0.01,0.09,-0.08,0.00,-0.00,0.14,0.01,-0.08,-0.08
952,-0.10,-0.03,-0.03,0.03,-0.03,0.15,-0.13,-0.07,-0.07
962,-0.09,-0.04,0.01,0.06,-0.06,0.15,-0.15,-0.05,-0.05
971,0.14,0.18,0.05,0.09,-0.09,0.16,0.05,-0.04,-0.04
981,0.15,0.17,0.08,0.11,-0.11,0.17,0.04,-0.02,-0.02
991,0.09,0.10,0.11,0.12,-0.12,0.18,-0.03,-0.01,-0.01
1001,-0.01,-0.02,0.13,0.11,-0.11,0.19,-0.12,0.01,0.01
1011,0.15,0.12,0.13,0.10,-0.10,0.20,0.05,0.03,0.03
1021,0.22,0.16,0.12,0.07,-0.07,0.22,0.15,0.06,0.06
1031,0.22,0.14,0.10,0.02,-0.02,0.23,0.20,0.08,0.08
1041,0.11,0.01,0.07,-0.04,0.04,0.25,0.15,0.10,0.10
1052,-0.10,-0.23,0.02,-0.11,0.11,0.27,0.01,0.13,0.13
1062,-0.05,-0.21,-0.02,-0.18,0.18,0.29,0.13,0.16,0.16
1073,-0.08,-0.27,-0.07,-0.26,0.26,0.31,0.18,0.19,0.19
1084,-0.10,-0.32,-0.11,-0.33,0.33,0.34,0.23,0.22,0.22
1094,-0.11,-0.36,-0.15,-0.40,0.40,0.36,0.29,0.25,0.25
1105,-0.14,-0.43,-0.17,-0.45,0.45,0.39,0.31,0.29,0.29
1116,-0.28,-0.60,-0.17,-0.50,0.50,0.42,0.22,0.32,0.32
1128,-0.25,-0.61,-0.17,-0.53,0.53,0.45,0.28,0.36,0.36
1139,-0.14,-0.53,-0.16,-0.55,0.55,0.48,0.41,0.39,0.39
1150,-0.16,-0.58,-0.14,-0.57,0.57,0.51,0.41,0.42,0.42
1162,-0.09,-0.55,-0.13,-0.58,0.58,0.54,0.49,0.46,0.46
1173,0.01,-0.48,-0.11,-0.60,0.60,0.58,0.61,0.49,0.49
1185,-0.12,-0.64,-0.11,-0.63,0.63,0.61,0.51,0.52,0.52
1197,-0.16,-0.71,-0.11,-0.66,0.66,0.65,0.50,0.55,0.55
1209,-0.12,-0.69,-0.13,-0.70,0.70,0.69,0.58,0.57,0.57
1221,-0.15,-0.75,-0.16,-0.75,0.75,0.73,0.60,0.60,0.60
1233,-0.18,-0.80,-0.19,-0.81,0.81,0.77,0.63,0.62,0.62
1246,-0.24,-0.88,-0.23,-0.87,0.87,0.81,0.63,0.64,0.64
1258,-0.24,-0.89,-0.28,-0.93,0.93,0.85,0.69,0.65,0.65
1271,-0.31,-0.98,-0.33,-0.99,0.99,0.90,0.68,0.67,0.67
1283,-0.43,-1.11,-0.38,-1.05,1.05,0.94,0.62,0.68,0.68
1296,-0.48,-1.16,-0.42,-1.10,1.10,0.98,0.62,0.68,0.68
1309,-0.48,-1.17,-0.46,-1.15,1.15,1.03,0.67,0.69,0.69
1322,-0.47,-1.16,-0.50,-1.19,1.19,1.08,0.72,0.69,0.69
1335,-0.50,-1.18,-0.54,-1.22,1.22,1.13,0.72,0.68,0.68
1349,-0.55,-1.23,-0.57,-1.25,1.25,1.18,0.70,0.68,0.68
1362,-0.63,-1.30,-0.61,-1.28,1.28,1.23,0.65,0.67,0.67
1376,-0.66,-1.33,-0.64,-1.31,1.31,1.28,0.65,0.67,0.67
1390,-0.66,-1.32,-0.68,-1.33,1.33,1.33,0.67,0.66,0.66
1404,-0.71,-1.36,-0.71,-1.36,1.36,1.39,0.65,0.65,0.65
1418,-0.72,-1.36,-0.74,-1.38,1.38,1.44,0.66,0.64,0.64
1432,-0.74,-1.37,-0.76,-1.40,1.40,1.50,0.66,0.63,0.63
1446,-0.86,-1.49,-0.79,-1.41,1.41,1.55,0.55,0.63,0.63
1461,-0.84,-1.46,-0.81,-1.43,1.43,1.61,0.59,0.62,0.62
1475,-0.81,-1.43,-0.83,-1.44,1.44,1.67,0.63,0.62,0.62
1490,-0.86,-1.48,-0.85,-1.47,1.47,1.73,0.61,0.62,0.62
1505,-0.91,-1.53,-0.88,-1.50,1.50,1.79,0.59,0.62,0.62
1520,-0.89,-1.51,-0.93,-1.55,1.55,1.86,0.66,0.62,0.62
1535,-0.90,-1.53,-0.99,-1.62,1.62,1.92,0.72,0.63,0.63
1550,-0.94,-1.59,-1.06,-1.71,1.71,1.98,0.77,0.65,0.65
1566,-1.09,-1.76,-1.14,-1.80,1.80,2.05,0.71,0.67,0.67
