frequency,raw,error,smoothed,error_smoothed,equalization,equalized_raw,equalized_smoothed,target
20,-1.158616187455047,-5.27923693806296,-1.1421327212134524,-5.2627717163917085,5.262771716391708,4.10415552893666,4.120638995178255,4.120620750607913
21,-0.7066711205607441,-4.858906265270075,-0.7640129229148112,-4.916237443428419,4.916237443428418,4.2095663228676745,4.152224520513607,4.152235144709332
22,-0.46489215661195127,-4.6453406366354475,-0.4052214211830315,-4.585647839544144,4.585647839544144,4.120755682932193,4.180426418361113,4.180448480023496
23,-0.029923707919713216,-4.235183058241251,-0.0657582160181136,-4.271002904738885,4.271002904738884,4.241079196819171,4.205244688720771,4.205259350321538
24,0.1946892318352056,-4.03197686461903,0.25437669257994333,-3.9723026390126375,3.972302639012636,4.166991870847841,4.22667933159258,4.2266660964542355
25,0.6120128456488971,-3.6326539292569007,0.5536862621040798,-3.691052438630294,3.6910524386302948,4.303065284279192,4.244738700734374,4.244666774905798
26,0.8736999484419523,-3.3855591756083085,0.833990773907477,-3.4254276323339847,3.4254276323339843,4.299127580775936,4.259418406241461,4.259259124050261
27,1.1002405382926006,-3.170268935417941,1.0969162168882507,-3.173793880841231,3.173793880841231,4.274034419133832,4.270710097729482,4.270509473710542
28,1.3265756046870991,-2.951786035898849,1.3446175241551668,-2.9339767770337914,2.9339767770337914,4.26055238172089,4.278594301188958,4.278361640585948
29,1.5516889119001214,-2.7310977796115905,1.5794321507456108,-2.7036038701457583,2.7036038701457588,4.25529278204588,4.28303602089137,4.282786691511712
30,1.7748624773216322,-2.5088752113391624,1.8029467467364593,-2.481036707901305,2.4810367079013056,4.255899185222938,4.283983454637765,4.2837376886607945
31,1.9960536770301494,-2.28509318984473,2.0161644190095553,-2.265200607830362,2.2652006078303617,4.261254284860511,4.281365026839917,4.281146866874879
32,2.2157888166011404,-2.0591354649253244,2.2194264321534085,-2.055663100813201,2.055663100813201,4.271451917414341,4.275089532966609,4.274924281526465
33,2.43475791149513,-1.8302007089130643,2.4126857254879432,-1.852362242897091,1.8523622428970907,4.287120154392221,4.2650479683850335,4.264958620408194
34,2.6534151778817314,-1.5977168780533066,2.5959508944479905,-1.6551664099200742,1.6551664099200736,4.308581587801805,4.251117304368064,4.251132055935038
35,2.8057884917012776,-1.4275260695568583,2.7695804711527288,-1.4635863086548762,1.4635863086548766,4.269374800356154,4.233166779807606,4.233314561258136
36,2.8624158706415694,-1.3489592468617553,2.934451791825009,-1.2766145483512288,1.276614548351229,4.139030418992799,4.211066340176238,4.211375117503325
37,3.0812052029227397,-1.1039870020140823,3.0918756957679427,-1.0928216565951034,1.0928216565951034,4.174026859517843,4.184697352363046,4.185192204936822
38,3.3012245580342205,-0.8534418931052232,3.2433061496521787,-0.9106593231135821,0.9106593231135823,4.211883881147803,4.153965472765761,4.154666451139444
39,3.2956348563130824,-0.8241002335326826,3.38997614011116,-0.7288392565731954,0.7288392565731955,4.024474112886278,4.118815396684355,4.119735089845765
40,3.5210893519572632,-0.5592984099622003,3.5325824158779118,-0.5466647157210136,0.5466647157210135,4.067754067678277,4.079247131598925,4.0803877619194635
41,3.746776642064196,-0.28990826997686714,3.671137323949358,-0.3641958762796689,0.3641958762796688,4.110972518343865,4.035333200229027,4.036684912041063
42,3.753152659029354,-0.2356227689242325,3.8050291766221944,-0.18220682603231989,0.18220682603232,3.935359485061674,3.9872360026545146,3.9887754279535863
43,3.98582805782398,0.04891417244459362,3.933256429120024,-0.0019679713645901955,0.001967971364590204,3.98779602918857,3.935224400484614,3.9369138853793864
44,3.9907603854440454,0.10928428262668621,4.054749355940557,0.17506089916260842,-0.17506089916260842,3.815699486281437,3.8796884567779486,3.881476102817359
45,4.222973791179786,0.400001950680716,4.168673245751471,0.34752203912319957,-0.3475220391231995,3.8754517520565868,3.8211512066282713,3.8229718404990702
46,4.226375914304364,0.4643224791799958,4.274628470224631,0.5143521315053571,-0.5143521315053571,3.712023782799007,3.7602763387192737,3.762053435124368
47,4.456974778424968,0.7574555896979618,4.372706323101119,0.6748355759556712,-0.6748355759556712,3.7821392024692964,3.6978707471454477,3.699519188727006
48,4.459195573463873,0.8228848401602278,4.463407436173574,0.8285263713614054,-0.8285263713614055,3.6306692021024674,3.634881064812168,3.6363107333036453
49,4.461039909722272,0.887536368555645,4.547469657505917,0.9750861474816837,-0.9750861474816834,3.4859537622405887,3.5723835100242334,3.573503541166627
50,4.690250037717997,1.177959883308917,4.62567372098964,1.1141070606028325,-1.1141070606028323,3.576142977115165,3.511566660386808,3.5122901544090803
51,4.690704480551858,1.2367484419483952,4.6986940904918395,1.2449869890845557,-1.2449869890845555,3.4457174914673026,3.453707101407284,3.453956038603463
52,4.690199574918015,1.2903512234395675,4.767040344294639,1.3669020785330548,-1.3669020785330548,3.3232974963849604,3.400138265761584,3.3998483514784477
53,4.91686231200493,1.5655239963696244,4.831098333529928,1.478885169569643,-1.4788851695696439,3.4379771424352867,3.3522131639602843,3.351338315635306
54,4.915346159152344,1.6055678911682714,4.891240196574181,1.579978110262676,-1.5799781102626758,3.335368048889668,3.3112620863115048,3.309778267984073
55,4.914109120121438,1.6376542732588524,4.94794057197303,1.6693938653199194,-1.6693938653199194,3.244715254801519,3.2785467066531107,3.2764548468625856
56,4.913729346680411,1.661189260066883,5.00182652271706,1.7466142050325528,-1.7466142050325535,3.167115141647857,3.2552123176845065,3.2525400866135277
57,5.141182150619507,1.9021397167965537,5.053610512263203,1.8113703571487854,-1.811370357148785,3.329811793470722,3.2422401551144184,3.239042433822953
58,5.141108102433774,1.904348251811446,5.10390442682681,1.8635025210544032,-1.8635025210544036,3.2776055813793707,3.2404019057724067,3.2367598506223283
59,5.1407852514057115,1.8945480356270883,5.152969795434474,1.9027512650860425,-1.9027512650860425,3.238033986319669,3.250218530348432,3.2462372157786232
60,5.140166850166716,1.8724366853146766,5.200500089046061,1.9285746319759332,-1.9285746319759332,3.211592218190783,3.271925457070128,3.26773016485204
61,5.139618207281627,1.8384408844307618,5.245535396281345,1.9400893790979719,-1.9400893790979725,3.1995288281836545,3.3054460171833724,3.301177322850865
62,5.367660553653661,2.0214779679569577,5.286570852165403,1.9361961502297862,-1.9361961502297864,3.431464403423874,3.3503747019356167,3.346182585696703
63,5.368923336924299,1.9669146270411333,5.321850179836219,1.915878744120237,-1.9158787441202372,3.4530445928040616,3.405971435715982,3.4020087098831655
64,5.3713115612683415,1.9037285691030479,5.349763958159052,1.878596359235649,-1.8785963592356494,3.4927152020326924,3.4711675989234028,3.4675829921652936
65,5.374178328201743,1.8326630414630536,5.369231837684762,1.8246478180597774,-1.824647818059777,3.549530510141966,3.5445840196249847,3.541515286738689
66,5.3763753938650956,1.7542473497369802,5.379956575660994,1.755395963250551,-1.7553959632505511,3.620979430614544,3.624560612410443,3.6221280441281154
67,5.376581693726701,1.6690841995034926,5.382489521523826,1.6732927174376633,-1.6732927174376628,3.7032889762890377,3.7091968040861634,3.707497494223208
68,5.373675528433998,1.5781709622994047,5.378116367200466,1.5817149895755183,-1.5817149895755183,3.79196053885848,3.7964013776249477,3.7955045661345936
69,5.367020468962085,1.483126799535801,5.368626273034259,1.4846763557798601,-1.4846763557798601,3.882344113182225,3.883949917254399,3.8838936694262842
70,5.356618059718398,1.3862809787407264,5.356042772649914,1.3864950975588912,-1.386495097558891,3.9701229621595076,3.9695476750910235,3.970337080977672
71,5.343143034800292,1.2906406242121378,5.342369347845375,1.2914739253700023,-1.2914739253700023,4.051669109430289,4.050895422475373,4.052502410588154
72,5.327874629769744,1.199754158201439,5.329358526059452,1.2036028182481144,-1.2036028182481144,4.12427181152163,4.125755707811337,4.128120471568305
73,5.3125039239819944,1.117453056083212,5.318283918560705,1.126266997364467,-1.126266997364467,4.186236926617528,4.192016921196238,4.195050867898782
74,5.2987909228220875,1.0474481954630086,5.309702552835704,1.061949880185455,-1.061949880185455,4.236841042636632,4.247752672650249,4.251342727359079
75,5.288096718135174,0.9928084652098033,5.303238316013241,1.01196409789981,-1.01196409789981,4.276132620235364,4.291274218113431,4.295288252925371
76,5.280907775233521,0.9554406570555027,5.297470027025237,0.9762960150043769,-0.9762960150043771,4.304611760229144,4.32117401202086,4.325467118178018
77,5.276538056036255,0.935757880294604,5.2900316042135875,0.9536726802885538,-0.9536726802885539,4.322865375747702,4.336358923925034,4.340780175741651
78,5.273181526495685,0.9327100710946858,5.277997723331835,0.9419255293465898,-0.9419255293465896,4.331255997149096,4.336072193985245,4.3404714554009995
79,5.268381331430712,0.9442433595834174,5.258535451782327,0.9386317209634845,-0.9386317209634848,4.3297496104672275,4.319903730818843,4.3241379718472945
80,5.259813627779649,0.9680862167214928,5.229683968895451,0.941895194725383,-0.9418951947253832,4.317918433054266,4.2877887741700675,4.291727411058156
81,5.246121014177774,1.002596724462406,5.19103511052114,0.9510398897216,-0.9510398897216004,4.295081124456174,4.23999522079954,4.243524289715368
82,5.227459272245876,1.0473336154467825,5.144075700868477,0.966975543680209,-0.966975543680209,4.260483728565667,4.177100157188268,4.180125656799094
83,5.101983948708657,0.9995761412137378,5.092036159420957,0.9920796267319775,-0.9920796267319774,4.10990432197668,4.09995653268898,4.102407807494919
84,4.954929443088168,0.9434436541175453,5.03924502742465,1.0295933478002033,-1.0295933478002035,3.9253360952879643,4.009651679624447,4.011485788970623
85,4.93420414178602,1.0255364580874828,4.990158480418384,1.0826978715118503,-1.0826978715118505,3.851506270274169,3.9074606089065336,3.908667683698537
86,4.9171530852625835,1.1217473316023674,4.948350491846477,1.1535522113211316,-1.1535522113211314,3.763600873941452,3.7947982805253453,3.795405753660216
87,4.904209715584534,1.2309631962024077,4.915765636844981,1.242590184291657,-1.242590184291657,3.6616195312928768,3.673175452553324,3.673246519382126
88,4.894597262131561,1.3508155232763568,4.892445879663287,1.3482846156015378,-1.3482846156015378,3.546312646530023,3.544161264061749,3.543781738855204
89,4.886833535651379,1.478231479812473,4.876781173369085,1.4674290809732407,-1.4674290809732409,3.419404454678138,3.409352092395844,3.4086020558389056
90,4.879310940554167,1.6100561186793447,4.866162619303851,1.5958211990129216,-1.5958211990129219,3.2834897415412456,3.2703414202909293,3.2692548218748225
91,4.870678902189258,1.7434716207831626,4.857797073180395,1.7291153970450148,-1.7291153970450148,3.1415635051442434,3.12868167613538,3.1272072814060956
92,4.859962339847305,1.87614637387767,4.8494115773426785,1.8635823022138935,-1.8635823022138933,2.996380037633412,2.9858292751287854,2.9838159659696353
93,4.8465446471221005,2.0062418544398732,4.839638828512387,1.996568362983946,-1.996568362983946,2.8499762841381546,2.8430704655284407,2.8403027926822273
94,4.8301846940047435,2.1324466700629996,4.828002866259307,2.1265655198560274,-2.1265655198560274,2.703619174148716,2.7014373464032793,2.697738023941744
95,4.811116831825769,2.2540868952283457,4.814569166262063,2.252932896104096,-2.2529328961040958,2.5581839357216736,2.5616362701579676,2.5570299365974236
96,4.790124633627459,2.371203850103521,4.799435713525408,2.3754174847060208,-2.3754174847060208,2.4147071489214387,2.4240182288193877,2.4189207835239386
97,4.768425893307929,2.484437475082789,4.78228579813123,2.4936689430575028,-2.4936689430575028,2.274756950250426,2.2886168550737276,2.2839884182251398
98,4.747309516508185,2.594656717358041,4.762186724531871,2.6069243776665454,-2.6069243776665454,2.1403851388416397,2.1552623468653254,2.152652799150144
99,4.727644470202474,2.7024579742559576,4.737715038321815,2.71396215910201,-2.71396215910201,2.013682311100464,2.0237528792198045,2.0251864959465165
100,4.709497388218804,2.807769106066928,4.70735599197682,2.813317267238088,-2.8133172672380886,1.896180120980715,1.8940387247387318,1.9017282821518755
101,4.69206434297552,2.9097654311521794,4.670013313292133,2.9036531010047533,-2.9036531010047537,1.7884112419707665,1.766360212287379,1.7822989118233408
102,4.673969697830149,3.007151464995859,4.625419710145686,2.9841325188218817,-2.9841325188218812,1.6898371790082676,1.641287191323805,1.6668182328342898
104,4.653808688229754,3.160650436438009,4.574278510750297,3.0546432553784415,-3.0546432553784406,1.5991654328513132,1.5196352553718562,1.493158251791745
105,4.4908860958760535,3.105947725647531,4.518077744512411,3.115803501264146,-3.1158035012641463,1.3750825946119072,1.4022742432482644,1.3849383702285227
106,4.376763414918177,3.096643655311774,4.458653967595449,3.168770879602631,-3.1687708796026297,1.207992535315547,1.2898830879928194,1.2801197596064027
107,4.348752055154363,3.1703624205016934,4.397684664901217,3.214957675702088,-3.214957675702088,1.133794379452275,1.1827269891991286,1.1783896346526697
108,4.320314635603625,3.240898182290407,4.336308199766978,3.255779293688992,-3.2557792936889918,1.0645353419146328,1.0805289060779861,1.0794164533132178
109,4.293151237932028,3.3102880759168514,4.2750007742762595,3.292522429209256,-3.2925224292092556,1.0006288087227722,0.9824783450670038,0.9828631620151764
110,4.268633336249317,3.3802345047493163,4.213715910332108,3.3263391233771107,-3.3263391233771102,0.9422942128722065,0.8873767869549978,0.8883988315000004
111,4.2401465134917515,3.444437876889615,4.152175046023128,3.3582985228449673,-3.358298522844968,0.8818479906467833,0.7938765231781599,0.7957086366021369
112,4.002233693795622,3.2977315125913034,4.090144095934184,3.3894013404659455,-3.389401340465946,0.6128323533296762,0.7007427554682377,0.7045021812043191
113,3.9884890102718913,3.3739688090182476,4.027564109464797,3.4204979655121517,-3.420497965512151,0.5679910447597405,0.6070661439526464,0.6145202012536437
114,3.9783455167449504,3.4528058194260702,3.9645027165009448,3.4521285855001604,-3.45212858550016,0.5262169312447904,0.5123741310007848,0.5255396973188802
115,3.9718325971773747,3.5344550395929177,3.90100062582294,3.4843753342768293,-3.4843753342768298,0.4874572629005449,0.41662529154611017,0.43737755758445696
117,3.7410256397696733,3.4458456193670264,3.8369432598585043,3.5168353127755103,-3.5168353127755094,0.22419032699416386,0.32010794708299484,0.2951800204026471
118,3.7415244004369446,3.532125449327515,3.7720623481008424,3.5487728496488753,-3.548772849648875,0.19275155078806971,0.22328949845196755,0.20939895110942963
119,3.744824649175934,3.620636647248785,3.706081839612218,3.5794126404595383,-3.579412640459538,0.16541200871639594,0.12666919915268027,0.12418800192714885
120,3.741419486634192,3.7018943995522533,3.638919653946501,3.6082449122300533,-3.6082449122300533,0.13317457440413882,0.030674741716447684,0.0395250870819388
121,3.5292825425163556,3.5738563999503157,3.570802107646265,3.635183128451285,-3.6351831284512857,-0.10590058593493001,-0.06438102080502084,-0.04457385743395981
123,3.5352571520494878,3.7107142071203625,3.5021776278655943,3.6604694595024907,-3.660469459502491,-0.12521230745300338,-0.15829183163689686,-0.17545705507087472
124,3.3537309382177822,3.6106726458270435,3.433420446559982,3.6843432229430513,-3.6843432229430513,-0.33061228472526905,-0.2509227763830695,-0.2569417076092615
125,3.3202535834666365,3.65787293709432,3.364440845606532,3.7066154309479904,-3.706615430947991,-0.3863618474813544,-0.34217458534145884,-0.3376193536276837
126,3.325819292067184,3.7431921203592475,3.294397423400043,3.726361578080379,-3.726361578080378,-0.4005422860131942,-0.431964154680335,-0.4173728282920637
128,3.218024864314676,3.7549209066404723,3.2216912825728095,3.7419143348270927,-3.741914334827094,-0.523889470512418,-0.5202230522542846,-0.5368960423257965
129,3.105841703557494,3.7189419102912478,3.1443093069741668,3.751213041123931,-3.7512130411239317,-0.6453713375664378,-0.606903734149765,-0.6131002067337539
130,3.1079378609370845,3.795927899737638,3.060422026428749,3.7524016272967478,-3.7524016272967486,-0.6444637663596642,-0.6919796008679997,-0.6879900388005535
131,3.070390223493981,3.8318273115306947,2.9690078853893085,3.744438668351151,-3.7444386683511515,-0.6740484448571706,-0.775430782961843,-0.7614370880367138
133,2.881243684723584,3.749017948688772,2.870239254182331,3.7274576152575185,-3.7274576152575194,-0.8462139305339353,-0.8572183610751885,-0.8677742639651878
134,2.7021908986587695,3.6389684180837127,2.765452364042523,3.7027112180039747,-3.7027112180039756,-1.0005203193452061,-0.9372588539614526,-0.9367775194249435
135,2.652612950595941,3.656661929982767,2.656702715925787,3.672115696367116,-3.6721156963671167,-1.0195027457711756,-1.0154129804413294,-1.0040489793868261
137,2.5738788671988804,3.6731469426478616,2.546102024618964,3.637598914677726,-3.6375989146777266,-1.0637200474788462,-1.0914968900587625,-1.0992680754489812
138,2.422903076917631,3.5846811088556523,2.435252649269515,3.6005663064681865,-3.600566306468187,-1.1776632295505558,-1.1653136571986722,-1.161778031938021
140,2.2291469783374476,3.478096808818213,2.3250790373141985,3.561772059845409,-3.5617720598454077,-1.33262508150796,-1.2366930225312092,-1.2489498304807656
141,2.19237814181949,3.499087863665531,2.21620118711271,3.521724400070278,-3.5217244000702785,-1.3293462582507884,-1.3055232129575685,-1.3067097218460408
142,2.191505879629856,3.5541245339745346,2.1097613329954843,3.481523665183871,-3.4815236651838717,-1.2900177855540158,-1.3717623321883874,-1.3626186543446788
144,2.1689468838816977,3.608270258909095,2.008396432672688,3.443822651243102,-3.443822651243102,-1.2748757673614044,-1.4354262185704139,-1.4393233750273977
145,1.987358547921735,3.4780123525113775,1.9169350630781485,3.4134949941565047,-3.4134949941565043,-1.4261364462347692,-1.4965599310783557,-1.4906538045896425
147,1.7370195951614302,3.2972627495522797,1.8424366636365919,3.3976428973906856,-3.3976428973906856,-1.6606233022292554,-1.5552062337540937,-1.5602431543908493
148,1.7373908054426812,3.3445681698661582,1.793371535210233,3.4047556897380895,-3.4047556897380895,-1.6673648842954083,-1.6113841545278564,-1.6071773644234773
150,1.7366579289624715,3.4067418662569984,1.7779980303649523,3.4430827672415374,-3.4430827672415383,-1.7064248382790668,-1.665084736876586,-1.6700839372945269
151,1.7346685054218043,3.4474203429641195,1.802244957476149,3.518527402219944,-3.5185274022199446,-1.7838588967981404,-1.7162824447437957,-1.7127518375423154
153,1.7548854419554365,3.5241976475942645,1.8675817413211133,3.6325353903260287,-3.632535390326029,-1.8776499483705926,-1.7649536490049158,-1.769312205638828
154,1.923195528784925,3.730936141641325,1.9694170494286154,3.7805084176264634,-3.7805084176264634,-1.8573128888415384,-1.811091368197848,-1.8077406128564002
156,2.031823987677559,3.8899806849533696,2.096503235784286,3.9512117224215384,-3.951211722421538,-1.919387734743979,-1.8547084866372519,-1.8581566972758106
157,2.1967598141730758,4.089012911872651,2.231655908044322,4.127483934287023,-4.127483934287022,-1.930724120113946,-1.8958280262426999,-1.8922530976995748
159,2.4018253969181558,4.3384202415951325,2.3538523314633357,4.28831780740329,-4.288317807403289,-1.8864924104851335,-1.9344654759399535,-1.9365948446769763
160,2.457589697410726,4.4237630004698225,2.441480393520253,4.4120922814253385,-4.412092281425338,-1.9545025840146115,-1.9706118879050845,-1.9661733030590969
162,2.6168615012125507,4.621286600429055,2.4762146845691717,4.480440801253179,-4.48044080125318,-1.8635793000406293,-2.0042261166840083,-2.0044250992165047
