frequency,raw,error,smoothed,error_smoothed,equalization,parametric_eq,equalized_raw,equalized_smoothed,target
20,-4.26,-4.19,-4.17,-4.10,4.10,0.72,-0.15,-0.07,-0.07
21,-3.75,-3.67,-3.76,-3.69,3.69,0.85,-0.05,-0.07,-0.07
22,-3.33,-3.25,-3.39,-3.31,3.31,0.98,-0.01,-0.07,-0.07
23,-3.01,-2.93,-3.04,-2.97,2.97,1.12,-0.04,-0.08,-0.08
24,-2.70,-2.62,-2.73,-2.65,2.65,1.28,-0.04,-0.08,-0.08
25,-2.42,-2.33,-2.45,-2.37,2.37,1.44,-0.05,-0.08,-0.08
26,-2.19,-2.10,-2.20,-2.12,2.12,1.59,-0.07,-0.08,-0.09
27,-2.07,-1.98,-1.99,-1.91,1.91,1.74,-0.16,-0.09,-0.09
28,-1.87,-1.77,-1.82,-1.72,1.72,1.88,-0.14,-0.09,-0.09
29,-1.63,-1.53,-1.67,-1.57,1.57,1.99,-0.05,-0.10,-0.10
30,-1.44,-1.33,-1.56,-1.45,1.45,2.07,0.02,-0.10,-0.10
31,-1.33,-1.22,-1.47,-1.36,1.36,2.13,0.04,-0.11,-0.11
32,-1.37,-1.25,-1.41,-1.30,1.30,2.15,-0.07,-0.11,-0.11
33,-1.37,-1.25,-1.37,-1.25,1.25,2.14,-0.11,-0.12,-0.12
34,-1.37,-1.24,-1.35,-1.23,1.23,2.11,-0.14,-0.13,-0.13
35,-1.38,-1.24,-1.35,-1.21,1.21,2.07,-0.16,-0.13,-0.13
36,-1.42,-1.27,-1.36,-1.21,1.21,2.02,-0.20,-0.14,-0.14
37,-1.47,-1.32,-1.37,-1.22,1.22,1.96,-0.25,-0.15,-0.15
38,-1.47,-1.31,-1.39,-1.23,1.23,1.90,-0.23,-0.16,-0.16
39,-1.48,-1.31,-1.41,-1.24,1.24,1.85,-0.23,-0.17,-0.17
40,-1.47,-1.29,-1.44,-1.26,1.26,1.80,-0.21,-0.18,-0.18
41,-1.47,-1.27,-1.46,-1.27,1.27,1.75,-0.19,-0.19,-0.19
42,-1.47,-1.26,-1.49,-1.28,1.28,1.72,-0.18,-0.20,-0.20
43,-1.51,-1.29,-1.51,-1.30,1.30,1.69,-0.21,-0.22,-0.22
44,-1.51,-1.27,-1.54,-1.31,1.31,1.67,-0.20,-0.23,-0.23
45,-1.56,-1.31,-1.56,-1.31,1.31,1.65,-0.24,-0.25,-0.25
46,-1.56,-1.29,-1.58,-1.32,1.32,1.64,-0.23,-0.26,-0.26
47,-1.61,-1.33,-1.61,-1.33,1.33,1.64,-0.28,-0.28,-0.28
48,-1.65,-1.35,-1.63,-1.34,1.34,1.64,-0.31,-0.29,-0.29
49,-1.65,-1.33,-1.65,-1.34,1.34,1.65,-0.30,-0.31,-0.31
50,-1.70,-1.36,-1.68,-1.35,1.35,1.66,-0.35,-0.33,-0.33
51,-1.75,-1.39,-1.70,-1.35,1.35,1.68,-0.40,-0.35,-0.35
52,-1.77,-1.39,-1.73,-1.35,1.35,1.69,-0.41,-0.37,-0.37
53,-1.79,-1.39,-1.75,-1.36,1.36,1.71,-0.43,-0.39,-0.39
54,-1.79,-1.37,-1.78,-1.36,1.36,1.72,-0.42,-0.42,-0.42
55,-1.80,-1.36,-1.81,-1.37,1.37,1.74,-0.43,-0.44,-0.44
56,-1.87,-1.40,-1.85,-1.38,1.38,1.75,-0.48,-0.46,-0.46
57,-1.89,-1.40,-1.89,-1.40,1.40,1.76,-0.49,-0.49,-0.49
58,-1.89,-1.37,-1.94,-1.42,1.42,1.77,-0.46,-0.52,-0.52
59,-1.91,-1.36,-2.00,-1.45,1.45,1.77,-0.45,-0.54,-0.54
60,-1.95,-1.38,-2.06,-1.49,1.49,1.77,-0.46,-0.57,-0.57
61,-2.04,-1.44,-2.12,-1.53,1.53,1.76,-0.51,-0.60,-0.60
62,-2.15,-1.52,-2.19,-1.57,1.57,1.75,-0.58,-0.63,-0.63
63,-2.26,-1.60,-2.26,-1.60,1.60,1.73,-0.65,-0.66,-0.66
64,-2.37,-1.67,-2.33,-1.64,1.64,1.71,-0.73,-0.69,-0.69
65,-2.47,-1.74,-2.39,-1.67,1.67,1.68,-0.80,-0.72,-0.72
66,-2.56,-1.80,-2.45,-1.69,1.69,1.65,-0.87,-0.76,-0.76
67,-2.62,-1.83,-2.49,-1.70,1.70,1.61,-0.92,-0.79,-0.79
68,-2.63,-1.80,-2.52,-1.70,1.70,1.58,-0.93,-0.83,-0.83
69,-2.59,-1.73,-2.55,-1.69,1.69,1.54,-0.90,-0.86,-0.86
70,-2.59,-1.69,-2.56,-1.66,1.66,1.50,-0.93,-0.90,-0.90
71,-2.54,-1.60,-2.56,-1.63,1.63,1.45,-0.91,-0.93,-0.93
72,-2.51,-1.54,-2.56,-1.59,1.59,1.41,-0.92,-0.97,-0.97
73,-2.49,-1.48,-2.55,-1.54,1.54,1.36,-0.95,-1.01,-1.01
74,-2.49,-1.44,-2.53,-1.49,1.49,1.32,-1.00,-1.05,-1.05
75,-2.49,-1.40,-2.52,-1.44,1.44,1.27,-1.05,-1.09,-1.09
76,-2.49,-1.36,-2.51,-1.39,1.39,1.23,-1.10,-1.12,-1.12
77,-2.49,-1.32,-2.50,-1.33,1.33,1.18,-1.15,-1.16,-1.16
78,-2.49,-1.28,-2.49,-1.29,1.29,1.14,-1.20,-1.20,-1.20
79,-2.49,-1.24,-2.48,-1.24,1.24,1.09,-1.25,-1.24,-1.24
80,-2.49,-1.20,-2.48,-1.20,1.20,1.05,-1.29,-1.29,-1.29
81,-2.49,-1.16,-2.48,-1.15,1.15,1.01,-1.33,-1.33,-1.33
82,-2.51,-1.14,-2.48,-1.11,1.11,0.97,-1.40,-1.37,-1.37
83,-2.50,-1.09,-2.48,-1.07,1.07,0.93,-1.43,-1.41,-1.41
84,-2.49,-1.04,-2.48,-1.03,1.03,0.90,-1.46,-1.45,-1.45
85,-2.49,-0.99,-2.48,-0.99,0.99,0.86,-1.50,-1.49,-1.49
86,-2.49,-0.95,-2.48,-0.95,0.95,0.82,-1.54,-1.53,-1.53
87,-2.49,-0.91,-2.49,-0.91,0.91,0.79,-1.57,-1.57,-1.57
88,-2.49,-0.87,-2.49,-0.88,0.88,0.76,-1.61,-1.62,-1.62
89,-2.49,-0.83,-2.50,-0.84,0.84,0.73,-1.65,-1.66,-1.66
90,-2.49,-0.79,-2.51,-0.81,0.81,0.70,-1.68,-1.70,-1.70
91,-2.49,-0.75,-2.52,-0.78,0.78,0.67,-1.71,-1.74,-1.74
92,-2.53,-0.74,-2.53,-0.75,0.75,0.64,-1.78,-1.78,-1.78
93,-2.54,-0.71,-2.54,-0.72,0.72,0.61,-1.81,-1.82,-1.82
94,-2.58,-0.71,-2.56,-0.70,0.70,0.58,-1.88,-1.86,-1.86
95,-2.60,-0.69,-2.58,-0.68,0.68,0.56,-1.92,-1.90,-1.90
96,-2.63,-0.68,-2.60,-0.66,0.66,0.53,-1.97,-1.94,-1.94
97,-2.63,-0.64,-2.62,-0.64,0.64,0.51,-1.99,-1.98,-1.98
98,-2.63,-0.60,-2.65,-0.62,0.62,0.49,-2.01,-2.03,-2.02
99,-2.68,-0.61,-2.67,-0.60,0.60,0.46,-2.08,-2.07,-2.06
100,-2.68,-0.58,-2.69,-0.58,0.58,0.44,-2.09,-2.11,-2.10
101,-2.70,-0.56,-2.72,-0.56,0.56,0.42,-2.13,-2.15,-2.14
102,-2.73,-0.55,-2.74,-0.55,0.55,0.40,-2.18,-2.19,-2.18
104,-2.77,-0.51,-2.76,-0.53,0.53,0.36,-2.24,-2.23,-2.25
105,-2.81,-0.52,-2.78,-0.51,0.51,0.35,-2.30,-2.27,-2.29
106,-2.82,-0.49,-2.80,-0.49,0.49,0.33,-2.32,-2.31,-2.32
107,-2.83,-0.47,-2.82,-0.47,0.47,0.31,-2.35,-2.35,-2.36
108,-2.87,-0.47,-2.84,-0.45,0.45,0.30,-2.41,-2.39,-2.39
109,-2.87,-0.44,-2.86,-0.43,0.43,0.28,-2.43,-2.43,-2.43
110,-2.87,-0.40,-2.87,-0.41,0.41,0.27,-2.45,-2.46,-2.46
111,-2.89,-0.39,-2.89,-0.39,0.39,0.25,-2.50,-2.50,-2.50
112,-2.91,-0.38,-2.90,-0.37,0.37,0.24,-2.54,-2.53,-2.53
113,-2.91,-0.35,-2.91,-0.34,0.34,0.22,-2.56,-2.57,-2.56
114,-2.91,-0.31,-2.92,-0.32,0.32,0.21,-2.59,-2.60,-2.59
115,-2.94,-0.31,-2.93,-0.30,0.30,0.20,-2.64,-2.64,-2.62
117,-2.96,-0.27,-2.94,-0.27,0.27,0.18,-2.69,-2.67,-2.68
118,-2.96,-0.24,-2.95,-0.25,0.25,0.16,-2.71,-2.71,-2.71
119,-2.96,-0.21,-2.96,-0.22,0.22,0.15,-2.73,-2.74,-2.74
120,-2.96,-0.19,-2.97,-0.20,0.20,0.14,-2.76,-2.77,-2.77
121,-2.96,-0.16,-2.98,-0.17,0.17,0.13,-2.78,-2.81,-2.80
123,-3.01,-0.15,-2.99,-0.15,0.15,0.12,-2.85,-2.84,-2.85
124,-3.01,-0.13,-3.00,-0.13,0.13,0.11,-2.88,-2.87,-2.88
125,-3.01,-0.10,-3.01,-0.11,0.11,0.10,-2.90,-2.90,-2.90
126,-3.03,-0.10,-3.02,-0.09,0.09,0.09,-2.94,-2.94,-2.93
128,-3.05,-0.07,-3.03,-0.06,0.06,0.08,-2.98,-2.97,-2.98
129,-3.05,-0.05,-3.04,-0.04,0.04,0.08,-3.00,-3.00,-3.00
130,-3.05,-0.02,-3.05,-0.02,0.02,0.07,-3.02,-3.03,-3.02
131,-3.05,0.00,-3.06,-0.00,0.00,0.06,-3.04,-3.06,-3.05
133,-3.10,-0.01,-3.07,0.01,-0.01,0.05,-3.11,-3.08,-3.09
134,-3.10,0.01,-3.08,0.03,-0.03,0.05,-3.13,-3.11,-3.11
135,-3.10,0.04,-3.09,0.05,-0.05,0.05,-3.15,-3.14,-3.13
137,-3.10,0.08,-3.10,0.06,-0.06,0.04,-3.16,-3.17,-3.17
138,-3.10,0.09,-3.11,0.08,-0.08,0.03,-3.17,-3.19,-3.19
140,-3.10,0.13,-3.13,0.09,-0.09,0.03,-3.19,-3.22,-3.23
141,-3.12,0.13,-3.14,0.10,-0.10,0.02,-3.22,-3.24,-3.25
142,-3.15,0.12,-3.16,0.11,-0.11,0.02,-3.26,-3.27,-3.26
144,-3.19,0.11,-3.17,0.12,-0.12,0.02,-3.31,-3.29,-3.30
145,-3.19,0.13,-3.19,0.13,-0.13,0.01,-3.31,-3.32,-3.31
147,-3.24,0.11,-3.21,0.13,-0.13,0.01,-3.37,-3.34,-3.34
148,-3.24,0.12,-3.22,0.14,-0.14,0.01,-3.38,-3.36,-3.36
150,-3.24,0.15,-3.24,0.15,-0.15,0.00,-3.38,-3.38,-3.39
151,-3.24,0.17,-3.25,0.16,-0.16,0.00,-3.39,-3.41,-3.40
153,-3.29,0.14,-3.26,0.16,-0.16,-0.00,-3.45,-3.43,-3.43
154,-3.29,0.16,-3.27,0.17,-0.17,-0.00,-3.46,-3.45,-3.44
156,-3.29,0.18,-3.28,0.18,-0.18,-0.01,-3.47,-3.47,-3.47
157,-3.29,0.20,-3.29,0.19,-0.19,-0.01,-3.48,-3.49,-3.48
159,-3.29,0.22,-3.30,0.20,-0.20,-0.01,-3.49,-3.50,-3.51
160,-3.29,0.23,-3.31,0.22,-0.22,-0.01,-3.50,-3.52,-3.52
162,-3.32,0.22,-3.31,0.23,-0.23,-0.02,-3.55,-3.54,-3.54
164,-3.33,0.23,-3.31,0.24,-0.24,-0.02,-3.57,-3.56,-3.56
165,-3.33,0.24,-3.32,0.26,-0.26,-0.02,-3.58,-3.57,-3.57
167,-3.33,0.26,-3.32,0.27,-0.27,-0.03,-3.60,-3.59,-3.59
169,-3.33,0.28,-3.32,0.28,-0.28,-0.03,-3.61,-3.60,-3.61
170,-3.33,0.29,-3.32,0.30,-0.30,-0.03,-3.62,-3.62,-3.62
172,-3.33,0.31,-3.33,0.31,-0.31,-0.03,-3.63,-3.63,-3.63
174,-3.33,0.33,-3.33,0.32,-0.32,-0.04,-3.65,-3.65,-3.65
175,-3.33,0.33,-3.33,0.33,-0.33,-0.04,-3.66,-3.66,-3.66
177,-3.33,0.35,-3.34,0.34,-0.34,-0.04,-3.67,-3.68,-3.67
179,-3.33,0.36,-3.34,0.35,-0.35,-0.04,-3.67,-3.69,-3.69
181,-3.33,0.38,-3.35,0.36,-0.36,-0.05,-3.68,-3.70,-3.70
183,-3.38,0.34,-3.35,0.36,-0.36,-0.05,-3.74,-3.72,-3.72
184,-3.38,0.35,-3.36,0.37,-0.37,-0.05,-3.74,-3.73,-3.72
186,-3.38,0.36,-3.37,0.37,-0.37,-0.06,-3.75,-3.74,-3.74
188,-3.38,0.37,-3.38,0.37,-0.37,-0.06,-3.75,-3.75,-3.75
190,-3.38,0.39,-3.39,0.38,-0.38,-0.06,-3.75,-3.76,-3.76
192,-3.38,0.40,-3.39,0.38,-0.38,-0.07,-3.76,-3.77,-3.77
194,-3.42,0.37,-3.40,0.38,-0.38,-0.07,-3.80,-3.79,-3.79
196,-3.43,0.37,-3.41,0.38,-0.38,-0.07,-3.81,-3.80,-3.80
198,-3.43,0.38,-3.42,0.39,-0.39,-0.08,-3.81,-3.81,-3.81
200,-3.43,0.39,-3.43,0.39,-0.39,-0.08,-3.81,-3.82,-3.82
202,-3.44,0.39,-3.44,0.39,-0.39,-0.08,-3.82,-3.83,-3.83
204,-3.47,0.37,-3.45,0.38,-0.38,-0.09,-3.85,-3.83,-3.83
206,-3.47,0.38,-3.46,0.38,-0.38,-0.09,-3.85,-3.84,-3.84
208,-3.47,0.38,-3.47,0.38,-0.38,-0.09,-3.84,-3.85,-3.85
210,-3.47,0.39,-3.48,0.37,-0.37,-0.10,-3.84,-3.86,-3.86
212,-3.47,0.40,-3.50,0.37,-0.37,-0.10,-3.83,-3.86,-3.86
214,-3.52,0.35,-3.51,0.36,-0.36,-0.10,-3.88,-3.87,-3.87
216,-3.52,0.36,-3.52,0.35,-0.35,-0.11,-3.87,-3.88,-3.87
218,-3.57,0.31,-3.54,0.34,-0.34,-0.11,-3.91,-3.88,-3.88
221,-3.57,0.32,-3.55,0.33,-0.33,-0.11,-3.90,-3.88,-3.88
223,-3.57,0.32,-3.57,0.32,-0.32,-0.12,-3.89,-3.89,-3.89
225,-3.58,0.31,-3.58,0.31,-0.31,-0.12,-3.88,-3.89,-3.89
227,-3.59,0.30,-3.59,0.30,-0.30,-0.12,-3.88,-3.89,-3.89
229,-3.61,0.28,-3.60,0.28,-0.28,-0.12,-3.89,-3.89,-3.89
232,-3.61,0.28,-3.62,0.27,-0.27,-0.12,-3.88,-3.89,-3.89
234,-3.61,0.28,-3.63,0.26,-0.26,-0.13,-3.87,-3.88,-3.89
236,-3.66,0.23,-3.63,0.25,-0.25,-0.13,-3.90,-3.88,-3.88
239,-3.66,0.22,-3.64,0.24,-0.24,-0.13,-3.89,-3.88,-3.88
241,-3.66,0.22,-3.65,0.23,-0.23,-0.13,-3.88,-3.87,-3.87
244,-3.66,0.21,-3.65,0.21,-0.21,-0.13,-3.87,-3.87,-3.87
246,-3.66,0.20,-3.65,0.20,-0.20,-0.13,-3.86,-3.86,-3.86
248,-3.66,0.19,-3.66,0.19,-0.19,-0.13,-3.85,-3.85,-3.85
251,-3.66,0.19,-3.66,0.18,-0.18,-0.13,-3.84,-3.84,-3.84
253,-3.66,0.18,-3.66,0.17,-0.17,-0.13,-3.83,-3.83,-3.83
256,-3.66,0.17,-3.66,0.16,-0.16,-0.13,-3.82,-3.82,-3.82
259,-3.66,0.16,-3.66,0.15,-0.15,-0.13,-3.81,-3.81,-3.81
261,-3.66,0.14,-3.66,0.14,-0.14,-0.13,-3.80,-3.80,-3.80
264,-3.66,0.13,-3.66,0.13,-0.13,-0.13,-3.78,-3.79,-3.79
266,-3.66,0.12,-3.66,0.11,-0.11,-0.12,-3.77,-3.77,-3.77
269,-3.66,0.10,-3.66,0.10,-0.10,-0.12,-3.76,-3.76,-3.76
272,-3.66,0.09,-3.66,0.09,-0.09,-0.12,-3.74,-3.74,-3.74
274,-3.66,0.07,-3.66,0.07,-0.07,-0.12,-3.73,-3.73,-3.73
277,-3.66,0.06,-3.66,0.06,-0.06,-0.11,-3.71,-3.71,-3.71
280,-3.66,0.04,-3.66,0.04,-0.04,-0.11,-3.69,-3.70,-3.70
283,-3.67,0.01,-3.66,0.02,-0.02,-0.11,-3.69,-3.68,-3.68
286,-3.68,-0.01,-3.66,0.00,-0.00,-0.10,-3.68,-3.66,-3.66
288,-3.66,-0.01,-3.66,-0.02,0.02,-0.10,-3.64,-3.64,-3.64
291,-3.66,-0.03,-3.66,-0.04,0.04,-0.10,-3.62,-3.62,-3.62
294,-3.66,-0.05,-3.66,-0.06,0.06,-0.09,-3.60,-3.61,-3.61
297,-3.66,-0.07,-3.66,-0.08,0.08,-0.09,-3.58,-3.59,-3.59
300,-3.66,-0.09,-3.67,-0.10,0.10,-0.08,-3.55,-3.57,-3.57
303,-3.66,-0.11,-3.67,-0.12,0.12,-0.08,-3.53,-3.55,-3.55
306,-3.66,-0.13,-3.68,-0.15,0.15,-0.07,-3.51,-3.53,-3.53
309,-3.68,-0.17,-3.68,-0.17,0.17,-0.07,-3.50,-3.51,-3.51
312,-3.69,-0.20,-3.68,-0.20,0.20,-0.06,-3.49,-3.48,-3.49
316,-3.71,-0.24,-3.69,-0.22,0.22,-0.06,-3.48,-3.46,-3.46
319,-3.71,-0.26,-3.69,-0.25,0.25,-0.05,-3.46,-3.44,-3.44
322,-3.71,-0.28,-3.69,-0.27,0.27,-0.05,-3.44,-3.42,-3.42
325,-3.71,-0.30,-3.69,-0.29,0.29,-0.04,-3.42,-3.40,-3.40
328,-3.71,-0.33,-3.69,-0.31,0.31,-0.04,-3.40,-3.38,-3.38
332,-3.71,-0.35,-3.69,-0.33,0.33,-0.03,-3.38,-3.36,-3.36
335,-3.70,-0.36,-3.69,-0.35,0.35,-0.03,-3.35,-3.34,-3.34
338,-3.66,-0.34,-3.69,-0.37,0.37,-0.02,-3.29,-3.32,-3.32
342,-3.66,-0.36,-3.69,-0.39,0.39,-0.02,-3.27,-3.30,-3.30
345,-3.66,-0.38,-3.69,-0.41,0.41,-0.01,-3.25,-3.28,-3.28
349,-3.66,-0.39,-3.69,-0.43,0.43,-0.01,-3.23,-3.26,-3.26
352,-3.71,-0.46,-3.69,-0.45,0.45,-0.00,-3.26,-3.24,-3.24
356,-3.71,-0.48,-3.69,-0.46,0.46,0.00,-3.24,-3.23,-3.23
359,-3.71,-0.50,-3.69,-0.48,0.48,0.01,-3.23,-3.21,-3.21
363,-3.71,-0.51,-3.69,-0.49,0.49,0.01,-3.21,-3.19,-3.19
366,-3.71,-0.53,-3.68,-0.50,0.50,0.02,-3.20,-3.18,-3.18
370,-3.68,-0.51,-3.68,-0.51,0.51,0.02,-3.16,-3.16,-3.16
374,-3.66,-0.51,-3.67,-0.52,0.52,0.03,-3.14,-3.15,-3.15
377,-3.66,-0.52,-3.66,-0.52,0.52,0.03,-3.14,-3.14,-3.14
381,-3.66,-0.53,-3.64,-0.52,0.52,0.04,-3.14,-3.13,-3.12
385,-3.66,-0.54,-3.63,-0.51,0.51,0.04,-3.14,-3.11,-3.11
389,-3.61,-0.50,-3.61,-0.51,0.51,0.05,-3.10,-3.10,-3.10
393,-3.60,-0.50,-3.59,-0.50,0.50,0.05,-3.10,-3.09,-3.09
397,-3.57,-0.48,-3.57,-0.49,0.49,0.06,-3.08,-3.08,-3.08
401,-3.53,-0.45,-3.55,-0.47,0.47,0.06,-3.05,-3.08,-3.07
405,-3.52,-0.45,-3.52,-0.46,0.46,0.07,-3.06,-3.07,-3.07
409,-3.52,-0.46,-3.50,-0.44,0.44,0.07,-3.07,-3.06,-3.06
413,-3.47,-0.41,-3.48,-0.43,0.43,0.08,-3.04,-3.05,-3.05
417,-3.47,-0.42,-3.46,-0.41,0.41,0.08,-3.05,-3.04,-3.04
421,-3.43,-0.39,-3.44,-0.40,0.40,0.08,-3.03,-3.04,-3.04
425,-3.43,-0.40,-3.42,-0.39,0.39,0.09,-3.04,-3.03,-3.03
430,-3.38,-0.35,-3.40,-0.38,0.38,0.09,-3.00,-3.02,-3.02
434,-3.38,-0.36,-3.38,-0.37,0.37,0.09,-3.01,-3.01,-3.01
438,-3.38,-0.37,-3.36,-0.36,0.36,0.10,-3.02,-3.01,-3.01
443,-3.33,-0.33,-3.35,-0.35,0.35,0.10,-2.98,-3.00,-3.00
447,-3.33,-0.34,-3.33,-0.34,0.34,0.10,-2.98,-2.99,-2.99
451,-3.31,-0.33,-3.31,-0.33,0.33,0.10,-2.97,-2.98,-2.98
456,-3.29,-0.32,-3.30,-0.33,0.33,0.10,-2.96,-2.97,-2.97
460,-3.29,-0.33,-3.28,-0.32,0.32,0.10,-2.97,-2.96,-2.96
465,-3.28,-0.33,-3.26,-0.31,0.31,0.10,-2.96,-2.95,-2.95
470,-3.25,-0.31,-3.24,-0.30,0.30,0.09,-2.94,-2.94,-2.94
474,-3.24,-0.31,-3.22,-0.30,0.30,0.09,-2.94,-2.92,-2.92
479,-3.21,-0.30,-3.19,-0.28,0.28,0.09,-2.92,-2.91,-2.91
484,-3.18,-0.28,-3.17,-0.27,0.27,0.08,-2.90,-2.90,-2.90
489,-3.15,-0.27,-3.14,-0.26,0.26,0.08,-2.89,-2.88,-2.88
494,-3.10,-0.23,-3.11,-0.25,0.25,0.07,-2.85,-2.86,-2.87
499,-3.06,-0.21,-3.08,-0.23,0.23,0.06,-2.83,-2.85,-2.85
504,-3.03,-0.19,-3.04,-0.21,0.21,0.05,-2.81,-2.83,-2.83
509,-3.00,-0.18,-3.01,-0.19,0.19,0.04,-2.80,-2.81,-2.81
514,-2.97,-0.17,-2.97,-0.17,0.17,0.03,-2.79,-2.80,-2.80
519,-2.94,-0.16,-2.93,-0.15,0.15,0.02,-2.79,-2.78,-2.78
524,-2.88,-0.12,-2.88,-0.12,0.12,0.01,-2.75,-2.76,-2.76
529,-2.84,-0.10,-2.83,-0.10,0.10,-0.01,-2.74,-2.74,-2.74
535,-2.79,-0.07,-2.78,-0.06,0.06,-0.02,-2.72,-2.72,-2.72
540,-2.74,-0.04,-2.72,-0.02,0.02,-0.04,-2.71,-2.70,-2.70
545,-2.68,0.00,-2.66,0.02,-0.02,-0.05,-2.69,-2.68,-2.68
551,-2.61,0.05,-2.59,0.07,-0.07,-0.07,-2.67,-2.66,-2.66
556,-2.54,0.10,-2.52,0.12,-0.12,-0.09,-2.65,-2.64,-2.64
562,-2.46,0.16,-2.44,0.18,-0.18,-0.11,-2.63,-2.62,-2.62
568,-2.35,0.25,-2.36,0.24,-0.24,-0.13,-2.59,-2.60,-2.60
573,-2.30,0.28,-2.27,0.31,-0.31,-0.15,-2.60,-2.58,-2.58
579,-2.18,0.38,-2.18,0.38,-0.38,-0.17,-2.55,-2.56,-2.56
585,-2.09,0.45,-2.09,0.45,-0.45,-0.20,-2.53,-2.54,-2.54
591,-1.98,0.54,-2.00,0.52,-0.52,-0.22,-2.50,-2.52,-2.52
596,-1.91,0.60,-1.90,0.60,-0.60,-0.24,-2.50,-2.50,-2.50
602,-1.80,0.69,-1.81,0.67,-0.67,-0.27,-2.47,-2.48,-2.48
608,-1.70,0.77,-1.72,0.75,-0.75,-0.29,-2.45,-2.47,-2.47
615,-1.59,0.86,-1.62,0.83,-0.83,-0.32,-2.42,-2.45,-2.45
621,-1.51,0.93,-1.52,0.91,-0.91,-0.35,-2.42,-2.43,-2.43
627,-1.41,1.01,-1.43,0.99,-0.99,-0.37,-2.40,-2.42,-2.42
633,-1.35,1.06,-1.32,1.08,-1.08,-0.40,-2.43,-2.40,-2.40
639,-1.24,1.15,-1.22,1.17,-1.17,-0.43,-2.41,-2.39,-2.39
646,-1.17,1.21,-1.11,1.26,-1.26,-0.46,-2.43,-2.38,-2.38
652,-1.08,1.29,-1.00,1.36,-1.36,-0.48,-2.44,-2.36,-2.36
659,-1.00,1.36,-0.90,1.46,-1.46,-0.52,-2.45,-2.35,-2.35
665,-0.90,1.44,-0.79,1.55,-1.55,-0.54,-2.45,-2.34,-2.34
672,-0.77,1.56,-0.69,1.63,-1.63,-0.58,-2.40,-2.33,-2.33
679,-0.65,1.67,-0.61,1.71,-1.71,-0.61,-2.35,-2.32,-2.32
686,-0.54,1.77,-0.54,1.76,-1.76,-0.64,-2.30,-2.31,-2.31
692,-0.44,1.86,-0.50,1.80,-1.80,-0.67,-2.24,-2.30,-2.30
699,-0.35,1.94,-0.48,1.81,-1.81,-0.71,-2.15,-2.29,-2.29
706,-0.27,2.01,-0.49,1.79,-1.79,-0.74,-2.06,-2.28,-2.28
713,-0.27,2.00,-0.53,1.74,-1.74,-0.77,-2.01,-2.27,-2.27
721,-0.35,1.92,-0.59,1.67,-1.67,-0.81,-2.02,-2.26,-2.26
728,-0.50,1.76,-0.67,1.58,-1.58,-0.85,-2.08,-2.25,-2.25
735,-0.70,1.55,-0.77,1.48,-1.48,-0.88,-2.17,-2.25,-2.25
742,-0.89,1.35,-0.88,1.36,-1.36,-0.92,-2.25,-2.24,-2.24
750,-1.13,1.11,-0.98,1.25,-1.25,-0.96,-2.38,-2.23,-2.23
757,-1.27,0.96,-1.07,1.15,-1.15,-0.99,-2.42,-2.23,-2.23
765,-1.40,0.82,-1.15,1.07,-1.07,-1.03,-2.46,-2.22,-2.22
773,-1.43,0.79,-1.20,1.01,-1.01,-1.07,-2.44,-2.21,-2.21
780,-1.42,0.79,-1.23,0.98,-0.98,-1.11,-2.40,-2.21,-2.21
788,-1.37,0.84,-1.23,0.98,-0.98,-1.15,-2.34,-2.20,-2.20
796,-1.25,0.95,-1.19,1.01,-1.01,-1.19,-2.25,-2.20,-2.20
804,-1.14,1.06,-1.14,1.06,-1.06,-1.23,-2.19,-2.20,-2.20
812,-1.02,1.18,-1.06,1.13,-1.13,-1.27,-2.15,-2.19,-2.19
820,-0.92,1.27,-0.97,1.22,-1.22,-1.31,-2.14,-2.19,-2.19
828,-0.81,1.38,-0.87,1.32,-1.32,-1.35,-2.12,-2.19,-2.18
837,-0.69,1.50,-0.76,1.42,-1.42,-1.39,-2.11,-2.18,-2.18
845,-0.61,1.57,-0.66,1.52,-1.52,-1.43,-2.12,-2.18,-2.18
853,-0.51,1.67,-0.57,1.61,-1.61,-1.46,-2.12,-2.18,-2.18
862,-0.42,1.76,-0.48,1.69,-1.69,-1.50,-2.11,-2.17,-2.17
871,-0.36,1.81,-0.41,1.76,-1.76,-1.54,-2.12,-2.17,-2.17
879,-0.31,1.86,-0.34,1.82,-1.82,-1.58,-2.13,-2.17,-2.17
888,-0.28,1.89,-0.29,1.87,-1.87,-1.61,-2.14,-2.16,-2.16
897,-0.25,1.91,-0.25,1.90,-1.90,-1.65,-2.15,-2.16,-2.16
906,-0.21,1.95,-0.22,1.93,-1.93,-1.68,-2.14,-2.15,-2.15
915,-0.21,1.94,-0.20,1.95,-1.95,-1.71,-2.16,-2.15,-2.15
924,-0.21,1.93,-0.17,1.96,-1.96,-1.74,-2.17,-2.14,-2.14
933,-0.17,1.96,-0.16,1.97,-1.97,-1.76,-2.14,-2.13,-2.13
943,-0.16,1.97,-0.14,1.98,-1.98,-1.79,-2.14,-2.12,-2.12
952,-0.16,1.95,-0.12,1.99,-1.99,-1.81,-2.15,-2.11,-2.11
962,-0.16,1.94,-0.10,2.00,-2.00,-1.83,-2.15,-2.10,-2.10
971,-0.14,1.95,-0.08,2.00,-2.00,-1.85,-2.14,-2.08,-2.08
981,-0.08,1.99,-0.06,2.01,-2.01,-1.86,-2.09,-2.07,-2.07
991,-0.04,2.02,-0.04,2.01,-2.01,-1.87,-2.05,-2.05,-2.05
1001,0.00,2.04,-0.02,2.01,-2.01,-1.88,-2.01,-2.04,-2.04
1011,0.03,2.05,-0.01,2.01,-2.01,-1.89,-1.98,-2.02,-2.02
1021,0.03,2.03,0.01,2.00,-2.00,-1.89,-1.97,-2.00,-2.00
1031,0.03,2.01,0.02,1.99,-1.99,-1.90,-1.96,-1.97,-1.97
1041,0.03,1.98,0.02,1.97,-1.97,-1.90,-1.94,-1.95,-1.95
1052,0.03,1.96,0.02,1.95,-1.95,-1.89,-1.91,-1.93,-1.92
1062,0.03,1.93,0.02,1.91,-1.91,-1.89,-1.88,-1.90,-1.90
1073,0.03,1.90,0.01,1.88,-1.88,-1.88,-1.84,-1.87,-1.87
1084,-0.02,1.83,-0.01,1.84,-1.84,-1.87,-1.85,-1.84,-1.84
1094,-0.02,1.79,-0.02,1.79,-1.79,-1.86,-1.81,-1.81,-1.81
1105,-0.05,1.73,-0.04,1.74,-1.74,-1.84,-1.79,-1.78,-1.78
1116,-0.07,1.68,-0.05,1.69,-1.69,-1.83,-1.76,-1.75,-1.74
1128,-0.09,1.62,-0.07,1.64,-1.64,-1.81,-1.73,-1.71,-1.71
1139,-0.11,1.57,-0.08,1.59,-1.59,-1.80,-1.70,-1.67,-1.67
1150,-0.11,1.53,-0.09,1.54,-1.54,-1.78,-1.65,-1.64,-1.64
1162,-0.11,1.49,-0.10,1.49,-1.49,-1.76,-1.60,-1.60,-1.60
1173,-0.11,1.45,-0.11,1.44,-1.44,-1.74,-1.55,-1.55,-1.55
1185,-0.11,1.40,-0.11,1.40,-1.40,-1.72,-1.50,-1.51,-1.51
1197,-0.11,1.36,-0.12,1.35,-1.35,-1.70,-1.46,-1.47,-1.47
1209,-0.12,1.30,-0.11,1.31,-1.31,-1.68,-1.42,-1.42,-1.42
1221,-0.11,1.26,-0.11,1.26,-1.26,-1.66,-1.37,-1.37,-1.37
1233,-0.11,1.21,-0.10,1.22,-1.22,-1.64,-1.33,-1.32,-1.32
1246,-0.09,1.18,-0.09,1.18,-1.18,-1.63,-1.27,-1.27,-1.27
1258,-0.07,1.15,-0.07,1.14,-1.14,-1.61,-1.21,-1.21,-1.22
1271,-0.06,1.10,-0.05,1.11,-1.11,-1.59,-1.16,-1.16,-1.16
1283,-0.02,1.09,-0.03,1.07,-1.07,-1.58,-1.09,-1.10,-1.10
1296,0.00,1.05,-0.00,1.04,-1.04,-1.56,-1.04,-1.04,-1.04
1309,0.03,1.02,0.03,1.01,-1.01,-1.54,-0.98,-0.98,-0.98
1322,0.07,1.00,0.07,0.99,-0.99,-1.53,-0.91,-0.92,-0.92
1335,0.09,0.95,0.11,0.97,-0.97,-1.52,-0.87,-0.86,-0.86
1349,0.14,0.94,0.15,0.95,-0.95,-1.51,-0.80,-0.80,-0.79
1362,0.19,0.92,0.21,0.94,-0.94,-1.50,-0.74,-0.73,-0.73
1376,0.24,0.91,0.26,0.93,-0.93,-1.49,-0.68,-0.66,-0.66
1390,0.31,0.91,0.33,0.92,-0.92,-1.48,-0.61,-0.59,-0.59
1404,0.39,0.92,0.39,0.92,-0.92,-1.47,-0.53,-0.53,-0.52
1418,0.47,0.93,0.47,0.92,-0.92,-1.47,-0.45,-0.45,-0.45
1432,0.54,0.93,0.54,0.93,-0.93,-1.47,-0.38,-0.38,-0.38
1446,0.61,0.92,0.63,0.94,-0.94,-1.46,-0.32,-0.31,-0.31
1461,0.70,0.94,0.71,0.95,-0.95,-1.46,-0.24,-0.24,-0.23
1475,0.80,0.96,0.80,0.96,-0.96,-1.46,-0.15,-0.16,-0.16
1490,0.89,0.98,0.89,0.97,-0.97,-1.46,-0.08,-0.08,-0.08
1505,1.00,1.01,0.98,0.98,-0.98,-1.46,0.02,-0.00,-0.00
1520,1.08,1.01,1.07,0.99,-0.99,-1.47,0.09,0.08,0.08
1535,1.17,1.02,1.16,1.01,-1.01,-1.47,0.17,0.16,0.16
1550,1.27,1.03,1.26,1.02,-1.02,-1.48,0.26,0.24,0.24
