frequency,raw,smoothed,error,error_smoothed,equalization,parametric_eq,fixed_band_eq,equalized_raw,equalized_smoothed,target
20.00,2.56,2.56,-1.62,-1.62,1.63,-0.22,-0.09,4.19,4.19,4.18
20.20,2.63,2.63,-1.58,-1.58,1.58,-0.22,-0.10,4.21,4.21,4.21
20.40,2.70,2.70,-1.54,-1.54,1.54,-0.22,-0.10,4.24,4.24,4.24
20.61,2.77,2.77,-1.49,-1.49,1.49,-0.23,-0.10,4.26,4.26,4.26
20.81,2.84,2.84,-1.45,-1.45,1.44,-0.23,-0.10,4.28,4.28,4.29
21.02,2.91,2.91,-1.41,-1.40,1.38,-0.23,-0.11,4.29,4.29,4.32
21.23,2.99,2.99,-1.34,-1.34,1.32,-0.24,-0.11,4.31,4.31,4.32
21.44,3.07,3.07,-1.26,-1.26,1.26,-0.24,-0.11,4.33,4.33,4.33
21.66,3.16,3.16,-1.19,-1.18,1.19,-0.24,-0.11,4.35,4.35,4.34
21.87,3.24,3.24,-1.10,-1.11,1.12,-0.25,-0.12,4.36,4.36,4.34
22.09,3.32,3.32,-1.03,-1.03,1.04,-0.25,-0.12,4.36,4.36,4.35
22.31,3.39,3.39,-0.96,-0.96,0.97,-0.25,-0.12,4.36,4.36,4.35
22.54,3.46,3.46,-0.89,-0.89,0.89,-0.26,-0.12,4.35,4.35,4.35
22.76,3.53,3.53,-0.82,-0.82,0.81,-0.26,-0.13,4.34,4.34,4.35
22.99,3.60,3.60,-0.74,-0.74,0.73,-0.27,-0.13,4.33,4.33,4.34
23.22,3.68,3.68,-0.66,-0.66,0.65,-0.27,-0.13,4.33,4.33,4.34
23.45,3.76,3.76,-0.58,-0.57,0.58,-0.27,-0.14,4.34,4.34,4.34
23.69,3.85,3.85,-0.49,-0.49,0.50,-0.28,-0.14,4.35,4.35,4.34
23.92,3.93,3.92,-0.41,-0.42,0.43,-0.28,-0.14,4.36,4.36,4.34
24.16,3.99,3.99,-0.36,-0.35,0.37,-0.29,-0.15,4.36,4.36,4.35
24.40,4.04,4.04,-0.31,-0.30,0.31,-0.29,-0.15,4.35,4.35,4.35
24.65,4.08,4.08,-0.26,-0.26,0.25,-0.30,-0.15,4.33,4.33,4.33
24.89,4.13,4.13,-0.20,-0.20,0.19,-0.30,-0.16,4.32,4.32,4.33
25.14,4.18,4.18,-0.15,-0.15,0.14,-0.31,-0.16,4.32,4.32,4.33
25.39,4.24,4.24,-0.09,-0.09,0.08,-0.31,-0.16,4.32,4.32,4.33
25.65,4.30,4.30,-0.03,-0.03,0.02,-0.32,-0.17,4.32,4.32,4.33
25.91,4.36,4.36,0.04,0.03,-0.03,-0.32,-0.17,4.33,4.32,4.32
26.16,4.41,4.41,0.09,0.09,-0.09,-0.33,-0.18,4.32,4.32,4.32
26.43,4.46,4.46,0.14,0.15,-0.14,-0.33,-0.18,4.32,4.32,4.32
26.69,4.51,4.51,0.19,0.19,-0.18,-0.34,-0.18,4.32,4.33,4.32
26.96,4.56,4.55,0.24,0.23,-0.23,-0.35,-0.19,4.33,4.32,4.31
27.23,4.58,4.58,0.27,0.27,-0.26,-0.35,-0.19,4.32,4.32,4.31
27.50,4.60,4.60,0.29,0.29,-0.29,-0.36,-0.20,4.31,4.31,4.31
27.77,4.62,4.62,0.32,0.31,-0.32,-0.37,-0.20,4.30,4.30,4.30
28.05,4.64,4.64,0.34,0.34,-0.35,-0.37,-0.21,4.29,4.29,4.30
28.33,4.66,4.66,0.37,0.37,-0.38,-0.38,-0.21,4.28,4.28,4.29
28.62,4.69,4.69,0.40,0.40,-0.41,-0.39,-0.22,4.28,4.28,4.29
28.90,4.72,4.72,0.43,0.44,-0.44,-0.40,-0.22,4.28,4.27,4.28
29.19,4.75,4.75,0.48,0.47,-0.47,-0.40,-0.23,4.28,4.28,4.27
29.48,4.78,4.79,0.50,0.51,-0.50,-0.41,-0.23,4.28,4.29,4.28
29.78,4.82,4.81,0.55,0.54,-0.52,-0.42,-0.24,4.30,4.29,4.27
30.08,4.84,4.83,0.57,0.56,-0.55,-0.43,-0.24,4.29,4.28,4.27
30.38,4.83,4.83,0.57,0.57,-0.57,-0.44,-0.25,4.26,4.26,4.26
30.68,4.83,4.83,0.58,0.58,-0.59,-0.45,-0.25,4.23,4.23,4.25
30.99,4.82,4.83,0.58,0.59,-0.62,-0.46,-0.26,4.20,4.22,4.24
31.30,4.86,4.86,0.62,0.62,-0.64,-0.47,-0.26,4.22,4.22,4.24
31.61,4.89,4.89,0.65,0.66,-0.66,-0.48,-0.27,4.23,4.23,4.24
31.93,4.93,4.92,0.70,0.70,-0.67,-0.49,-0.28,4.25,4.25,4.22
32.24,4.94,4.93,0.73,0.72,-0.69,-0.50,-0.28,4.25,4.24,4.21
32.57,4.93,4.93,0.72,0.72,-0.71,-0.51,-0.29,4.22,4.22,4.21
32.89,4.92,4.92,0.71,0.72,-0.72,-0.52,-0.29,4.20,4.20,4.21
33.22,4.92,4.92,0.72,0.72,-0.73,-0.54,-0.30,4.19,4.19,4.19
33.55,4.92,4.92,0.73,0.73,-0.74,-0.55,-0.31,4.18,4.18,4.19
33.89,4.92,4.92,0.74,0.74,-0.74,-0.56,-0.31,4.18,4.18,4.18
34.23,4.92,4.92,0.74,0.75,-0.75,-0.57,-0.32,4.17,4.17,4.18
34.57,4.92,4.92,0.76,0.76,-0.76,-0.59,-0.33,4.16,4.16,4.16
34.92,4.92,4.92,0.77,0.77,-0.76,-0.60,-0.34,4.15,4.15,4.15
35.27,4.92,4.92,0.77,0.78,-0.78,-0.61,-0.34,4.14,4.14,4.15
35.62,4.92,4.92,0.79,0.79,-0.79,-0.63,-0.35,4.13,4.13,4.13
35.97,4.92,4.92,0.80,0.80,-0.80,-0.64,-0.36,4.12,4.12,4.12
36.33,4.92,4.92,0.80,0.81,-0.81,-0.65,-0.37,4.11,4.11,4.12
36.70,4.92,4.92,0.82,0.82,-0.82,-0.67,-0.38,4.10,4.10,4.10
37.06,4.92,4.92,0.83,0.83,-0.83,-0.68,-0.39,4.09,4.09,4.09
37.43,4.92,4.92,0.84,0.84,-0.84,-0.70,-0.40,4.08,4.08,4.08
37.81,4.92,4.92,0.85,0.85,-0.85,-0.71,-0.40,4.07,4.07,4.07
38.19,4.92,4.92,0.86,0.86,-0.86,-0.73,-0.41,4.06,4.06,4.05
38.57,4.92,4.92,0.87,0.87,-0.88,-0.74,-0.42,4.04,4.04,4.05
38.95,4.92,4.92,0.88,0.89,-0.89,-0.75,-0.44,4.03,4.03,4.03
39.34,4.92,4.92,0.90,0.90,-0.90,-0.77,-0.45,4.01,4.01,4.02
39.74,4.92,4.92,0.91,0.91,-0.91,-0.78,-0.46,4.01,4.01,4.00
40.14,4.92,4.92,0.92,0.93,-0.92,-0.79,-0.47,4.00,4.01,4.00
40.54,4.92,4.92,0.94,0.94,-0.91,-0.80,-0.48,4.01,4.01,3.98
40.94,4.92,4.91,0.94,0.93,-0.91,-0.82,-0.49,4.01,4.00,3.98
41.35,4.88,4.88,0.92,0.91,-0.91,-0.83,-0.51,3.97,3.97,3.96
41.76,4.84,4.84,0.88,0.89,-0.90,-0.84,-0.52,3.94,3.94,3.96
42.18,4.81,4.82,0.86,0.88,-0.90,-0.85,-0.53,3.91,3.92,3.95
42.60,4.82,4.81,0.89,0.88,-0.90,-0.86,-0.55,3.92,3.91,3.93
43.03,4.82,4.82,0.89,0.89,-0.90,-0.86,-0.56,3.92,3.91,3.92
43.46,4.82,4.82,0.91,0.92,-0.91,-0.87,-0.57,3.91,3.91,3.91
43.90,4.82,4.82,0.94,0.93,-0.93,-0.88,-0.59,3.89,3.89,3.88
44.33,4.82,4.82,0.96,0.96,-0.95,-0.88,-0.60,3.87,3.87,3.86
44.78,4.82,4.82,0.97,0.98,-0.98,-0.89,-0.62,3.84,3.84,3.84
45.23,4.82,4.82,0.99,0.99,-1.00,-0.89,-0.64,3.82,3.82,3.83
45.68,4.82,4.82,1.01,1.01,-1.02,-0.90,-0.65,3.80,3.80,3.81
46.13,4.82,4.82,1.03,1.03,-1.02,-0.90,-0.67,3.80,3.80,3.79
46.60,4.82,4.82,1.04,1.05,-1.03,-0.91,-0.69,3.79,3.79,3.78
47.06,4.82,4.81,1.06,1.05,-1.02,-0.91,-0.71,3.80,3.78,3.76
47.53,4.78,4.78,1.04,1.04,-1.02,-0.91,-0.72,3.76,3.77,3.74
48.01,4.74,4.73,1.01,1.01,-1.01,-0.91,-0.74,3.73,3.73,3.73
48.49,4.69,4.68,0.99,0.99,-1.01,-0.91,-0.76,3.68,3.68,3.70
48.97,4.63,4.65,0.96,0.98,-1.02,-0.91,-0.78,3.61,3.63,3.67
49.46,4.63,4.63,0.99,0.99,-1.03,-0.92,-0.80,3.60,3.60,3.64
49.96,4.63,4.62,1.02,1.01,-1.04,-0.92,-0.82,3.58,3.57,3.60
50.46,4.63,4.63,1.04,1.04,-1.05,-0.92,-0.84,3.58,3.58,3.59
50.96,4.63,4.67,1.06,1.10,-1.05,-0.92,-0.86,3.58,3.61,3.57
51.47,4.68,4.69,1.14,1.15,-1.06,-0.92,-0.88,3.62,3.63,3.54
51.99,4.73,4.63,1.22,1.12,-1.06,-0.92,-0.91,3.67,3.58,3.51
52.51,4.54,4.54,1.04,1.05,-1.06,-0.93,-0.93,3.48,3.49,3.50
53.03,4.36,4.45,0.88,0.98,-1.05,-0.93,-0.95,3.31,3.40,3.47
53.56,4.41,4.40,0.96,0.94,-1.03,-0.93,-0.97,3.38,3.36,3.45
54.10,4.44,4.41,1.01,0.98,-1.00,-0.94,-0.99,3.44,3.40,3.42
54.64,4.42,4.42,1.02,1.03,-0.97,-0.94,-1.01,3.45,3.45,3.40
55.18,4.39,4.39,1.02,1.02,-0.95,-0.94,-1.03,3.44,3.44,3.37
55.74,4.33,4.32,0.98,0.97,-0.94,-0.95,-1.05,3.39,3.38,3.35
56.29,4.25,4.24,0.92,0.92,-0.94,-0.95,-1.07,3.31,3.30,3.33
56.86,4.15,4.17,0.85,0.87,-0.93,-0.96,-1.09,3.22,3.24,3.30
57.42,4.12,4.13,0.85,0.86,-0.90,-0.96,-1.11,3.22,3.23,3.27
58.00,4.12,4.15,0.87,0.90,-0.87,-0.97,-1.13,3.25,3.28,3.25
58.58,4.18,4.14,0.95,0.91,-0.85,-0.98,-1.15,3.33,3.29,3.23
59.16,4.16,4.08,0.95,0.87,-0.84,-0.98,-1.17,3.32,3.24,3.21
59.76,3.93,4.00,0.74,0.81,-0.83,-0.99,-1.18,3.10,3.17,3.19
60.35,3.88,3.93,0.72,0.77,-0.83,-1.00,-1.20,3.05,3.10,3.16
60.96,3.95,3.91,0.81,0.78,-0.82,-1.01,-1.22,3.13,3.09,3.14
61.57,3.94,3.93,0.85,0.83,-0.81,-1.02,-1.23,3.13,3.12,3.09
62.18,3.91,3.91,0.85,0.85,-0.80,-1.03,-1.25,3.11,3.11,3.06
62.80,3.86,3.86,0.82,0.83,-0.80,-1.04,-1.26,3.05,3.05,3.03
63.43,3.81,3.81,0.81,0.81,-0.81,-1.05,-1.27,3.00,3.00,3.00
64.07,3.76,3.77,0.79,0.80,-0.82,-1.06,-1.29,2.94,2.95,2.97
64.71,3.76,3.76,0.81,0.81,-0.82,-1.07,-1.30,2.93,2.93,2.95
65.35,3.76,3.76,0.84,0.84,-0.83,-1.09,-1.31,2.93,2.93,2.92
66.01,3.76,3.76,0.87,0.87,-0.85,-1.10,-1.32,2.91,2.92,2.89
66.67,3.76,3.73,0.90,0.87,-0.88,-1.11,-1.33,2.88,2.85,2.86
67.33,3.72,3.71,0.89,0.88,-0.92,-1.13,-1.34,2.80,2.79,2.83
68.01,3.65,3.72,0.85,0.92,-0.96,-1.14,-1.35,2.69,2.76,2.80
68.69,3.79,3.77,1.02,1.00,-1.01,-1.16,-1.36,2.78,2.75,2.77
69.37,3.86,3.82,1.12,1.08,-1.06,-1.17,-1.37,2.80,2.76,2.74
70.07,3.86,3.87,1.15,1.16,-1.11,-1.19,-1.37,2.75,2.76,2.71
70.77,3.86,3.87,1.18,1.19,-1.16,-1.20,-1.38,2.70,2.70,2.68
71.48,3.86,3.86,1.21,1.21,-1.21,-1.22,-1.39,2.65,2.65,2.65
72.19,3.86,3.86,1.25,1.25,-1.26,-1.24,-1.40,2.60,2.60,2.61
72.91,3.86,3.86,1.28,1.28,-1.29,-1.25,-1.41,2.57,2.57,2.58
73.64,3.86,3.86,1.32,1.32,-1.32,-1.27,-1.42,2.54,2.54,2.54
74.38,3.86,3.86,1.35,1.35,-1.35,-1.29,-1.43,2.51,2.51,2.51
75.12,3.86,3.86,1.39,1.38,-1.38,-1.31,-1.44,2.48,2.48,2.47
75.87,3.86,3.86,1.42,1.41,-1.41,-1.33,-1.45,2.44,2.44,2.44
76.63,3.86,3.86,1.45,1.45,-1.45,-1.35,-1.47,2.41,2.41,2.41
77.40,3.86,3.86,1.48,1.48,-1.48,-1.37,-1.48,2.38,2.38,2.38
78.17,3.86,3.86,1.52,1.51,-1.51,-1.39,-1.49,2.35,2.35,2.34
78.95,3.86,3.86,1.54,1.54,-1.54,-1.41,-1.51,2.32,2.32,2.32
79.74,3.86,3.86,1.57,1.58,-1.58,-1.44,-1.52,2.28,2.28,2.29
80.54,3.86,3.86,1.61,1.61,-1.61,-1.46,-1.54,2.25,2.25,2.25
81.35,3.86,3.86,1.64,1.64,-1.64,-1.48,-1.56,2.22,2.22,2.22
82.16,3.86,3.86,1.68,1.68,-1.67,-1.51,-1.58,2.19,2.19,2.18
82.98,3.86,3.86,1.71,1.71,-1.71,-1.53,-1.60,2.15,2.15,2.15
83.81,3.86,3.86,1.75,1.75,-1.75,-1.56,-1.62,2.11,2.11,2.11
84.65,3.86,3.86,1.79,1.79,-1.79,-1.58,-1.64,2.07,2.07,2.07
85.50,3.86,3.86,1.82,1.82,-1.84,-1.61,-1.67,2.02,2.01,2.04
86.35,3.86,3.85,1.86,1.85,-1.89,-1.63,-1.69,1.97,1.96,2.00
87.22,3.86,3.87,1.90,1.90,-1.93,-1.66,-1.72,1.93,1.94,1.96
88.09,3.87,3.91,1.95,1.98,-1.96,-1.69,-1.75,1.91,1.95,1.92
88.97,3.96,3.93,2.07,2.05,-1.97,-1.71,-1.78,1.99,1.96,1.89
89.86,3.96,3.91,2.11,2.07,-1.98,-1.74,-1.81,1.98,1.93,1.85
90.76,3.82,3.83,2.02,2.03,-1.99,-1.77,-1.84,1.83,1.84,1.80
91.66,3.71,3.72,1.94,1.96,-2.01,-1.80,-1.87,1.70,1.71,1.76
92.58,3.62,3.64,1.91,1.92,-2.03,-1.83,-1.91,1.58,1.60,1.71
93.51,3.62,3.62,1.94,1.95,-2.05,-1.86,-1.94,1.57,1.57,1.68
94.44,3.66,3.66,2.03,2.03,-2.06,-1.89,-1.98,1.60,1.60,1.63
95.39,3.70,3.72,2.11,2.13,-2.07,-1.92,-2.02,1.63,1.65,1.59
96.34,3.76,3.72,2.23,2.18,-2.07,-1.95,-2.06,1.68,1.65,1.53
97.30,3.70,3.68,2.21,2.19,-2.09,-1.99,-2.10,1.61,1.59,1.49
98.28,3.55,3.57,2.11,2.13,-2.11,-2.02,-2.14,1.44,1.47,1.44
99.26,3.47,3.46,2.07,2.06,-2.12,-2.05,-2.18,1.35,1.34,1.40
100.25,3.35,3.39,2.00,2.03,-2.12,-2.08,-2.23,1.23,1.26,1.35
101.25,3.37,3.37,2.06,2.07,-2.13,-2.12,-2.27,1.24,1.24,1.31
102.27,3.40,3.37,2.14,2.12,-2.14,-2.15,-2.31,1.26,1.23,1.26
103.29,3.39,3.38,2.19,2.17,-2.16,-2.19,-2.36,1.23,1.22,1.20
104.32,3.37,3.38,2.20,2.22,-2.18,-2.22,-2.40,1.19,1.20,1.17
105.37,3.36,3.38,2.24,2.26,-2.21,-2.26,-2.45,1.15,1.17,1.12
106.42,3.39,3.36,2.31,2.28,-2.24,-2.29,-2.49,1.15,1.12,1.07
107.48,3.33,3.30,2.30,2.28,-2.25,-2.33,-2.54,1.08,1.05,1.03
108.56,3.20,3.23,2.23,2.26,-2.26,-2.37,-2.58,0.94,0.97,0.97
109.64,3.15,3.16,2.22,2.23,-2.27,-2.40,-2.63,0.88,0.89,0.93
110.74,3.13,3.12,2.25,2.24,-2.29,-2.44,-2.67,0.84,0.83,0.88
111.85,3.11,3.11,2.27,2.28,-2.31,-2.48,-2.71,0.80,0.80,0.83
112.97,3.11,3.10,2.34,2.33,-2.35,-2.51,-2.75,0.76,0.76,0.77
114.10,3.10,3.10,2.38,2.38,-2.39,-2.55,-2.79,0.71,0.71,0.72
115.24,3.11,3.12,2.44,2.45,-2.44,-2.59,-2.82,0.67,0.68,0.67
116.39,3.13,3.14,2.51,2.53,-2.49,-2.63,-2.86,0.64,0.65,0.61
117.55,3.17,3.13,2.61,2.57,-2.53,-2.67,-2.89,0.64,0.60,0.56
118.73,3.12,3.11,2.61,2.60,-2.57,-2.70,-2.92,0.55,0.54,0.51
119.92,3.03,3.07,2.57,2.61,-2.60,-2.74,-2.94,0.43,0.48,0.46
121.12,3.03,3.03,2.62,2.62,-2.62,-2.78,-2.97,0.40,0.40,0.41
122.33,3.02,2.98,2.66,2.62,-2.65,-2.82,-2.98,0.37,0.33,0.36
123.55,2.95,2.95,2.63,2.64,-2.67,-2.86,-3.00,0.27,0.28,0.32
124.79,2.88,2.94,2.61,2.68,-2.70,-2.90,-3.02,0.18,0.24,0.27
126.03,2.97,2.95,2.75,2.73,-2.73,-2.93,-3.03,0.24,0.22,0.21
127.29,3.00,2.95,2.83,2.79,-2.76,-2.97,-3.03,0.23,0.19,0.16
128.57,2.94,2.95,2.83,2.84,-2.80,-3.01,-3.04,0.14,0.14,0.11
129.85,2.88,2.91,2.82,2.85,-2.85,-3.04,-3.04,0.03,0.06,0.06
131.15,2.89,2.88,2.88,2.87,-2.90,-3.08,-3.04,-0.01,-0.02,0.01
132.46,2.89,2.89,2.93,2.92,-2.95,-3.12,-3.04,-0.06,-0.07,-0.04
133.79,2.90,2.90,2.97,2.98,-3.00,-3.15,-3.03,-0.10,-0.10,-0.08
135.12,2.90,2.90,3.03,3.02,-3.04,-3.19,-3.02,-0.14,-0.14,-0.13
136.48,2.90,2.91,3.07,3.08,-3.06,-3.22,-3.01,-0.16,-0.15,-0.17
137.84,2.91,2.93,3.12,3.15,-3.09,-3.26,-3.00,-0.18,-0.15,-0.21
139.22,2.94,2.90,3.20,3.16,-3.11,-3.29,-2.99,-0.17,-0.20,-0.26
140.61,2.90,2.84,3.21,3.14,-3.12,-3.32,-2.97,-0.22,-0.28,-0.31
142.02,2.70,2.77,3.03,3.11,-3.13,-3.35,-2.96,-0.43,-0.36,-0.33
143.44,2.71,2.71,3.08,3.09,-3.15,-3.38,-2.94,-0.44,-0.43,-0.37
144.87,2.72,2.70,3.13,3.10,-3.17,-3.41,-2.92,-0.45,-0.47,-0.41
146.32,2.72,2.72,3.17,3.17,-3.19,-3.44,-2.91,-0.47,-0.47,-0.45
147.78,2.72,2.72,3.20,3.20,-3.21,-3.47,-2.89,-0.49,-0.50,-0.48
149.26,2.72,2.72,3.24,3.24,-3.24,-3.49,-2.87,-0.52,-0.52,-0.52
150.75,2.72,2.75,3.28,3.30,-3.26,-3.52,-2.86,-0.54,-0.51,-0.56
152.26,2.75,2.74,3.35,3.34,-3.28,-3.54,-2.84,-0.53,-0.53,-0.60
153.78,2.75,2.68,3.38,3.32,-3.28,-3.56,-2.82,-0.53,-0.60,-0.64
155.32,2.58,2.61,3.26,3.28,-3.28,-3.58,-2.81,-0.70,-0.67,-0.68
156.88,2.47,2.52,3.18,3.24,-3.26,-3.60,-2.80,-0.79,-0.74,-0.71
158.44,2.48,2.44,3.24,3.20,-3.25,-3.62,-2.79,-0.77,-0.80,-0.76
160.03,2.43,2.40,3.23,3.20,-3.23,-3.63,-2.78,-0.80,-0.83,-0.80
161.63,2.34,2.39,3.18,3.23,-3.23,-3.65,-2.77,-0.89,-0.84,-0.84
163.24,2.36,2.35,3.24,3.23,-3.24,-3.66,-2.76,-0.88,-0.89,-0.88
164.88,2.38,2.32,3.29,3.24,-3.26,-3.67,-2.76,-0.88,-0.94,-0.91
166.53,2.27,2.33,3.22,3.28,-3.29,-3.68,-2.75,-1.02,-0.96,-0.95
168.19,2.32,2.33,3.31,3.31,-3.31,-3.69,-2.75,-0.99,-0.98,-0.99
169.87,2.36,2.34,3.39,3.37,-3.33,-3.69,-2.76,-0.97,-0.99,-1.03
171.57,2.35,2.34,3.41,3.40,-3.35,-3.69,-2.76,-1.01,-1.01,-1.06
173.29,2.32,2.30,3.42,3.40,-3.38,-3.70,-2.76,-1.06,-1.08,-1.10
175.02,2.21,2.24,3.34,3.38,-3.40,-3.70,-2.77,-1.19,-1.16,-1.14
176.77,2.19,2.20,3.37,3.38,-3.42,-3.70,-2.78,-1.23,-1.22,-1.18
178.54,2.19,2.18,3.41,3.40,-3.44,-3.69,-2.79,-1.25,-1.26,-1.22
180.32,2.19,2.20,3.45,3.46,-3.45,-3.69,-2.81,-1.26,-1.25,-1.26
182.13,2.20,2.20,3.49,3.49,-3.46,-3.68,-2.83,-1.26,-1.26,-1.29
183.95,2.21,2.18,3.54,3.51,-3.47,-3.67,-2.84,-1.26,-1.29,-1.33
185.79,2.14,2.15,3.50,3.51,-3.49,-3.66,-2.86,-1.35,-1.34,-1.36
187.65,2.10,2.11,3.50,3.51,-3.52,-3.64,-2.89,-1.42,-1.41,-1.40
189.52,2.07,2.07,3.50,3.51,-3.54,-3.63,-2.91,-1.48,-1.47,-1.43
191.42,2.07,2.07,3.53,3.53,-3.58,-3.61,-2.94,-1.51,-1.51,-1.46
193.33,2.08,2.08,3.57,3.57,-3.60,-3.60,-2.97,-1.52,-1.53,-1.49
195.27,2.10,2.09,3.62,3.62,-3.63,-3.58,-3.00,-1.53,-1.53,-1.52
197.22,2.11,2.12,3.66,3.68,-3.65,-3.56,-3.03,-1.54,-1.53,-1.55
199.19,2.14,2.14,3.72,3.72,-3.66,-3.53,-3.06,-1.52,-1.52,-1.59
201.18,2.16,2.13,3.76,3.74,-3.67,-3.51,-3.09,-1.51,-1.54,-1.60
203.19,2.09,2.09,3.71,3.71,-3.68,-3.48,-3.13,-1.59,-1.59,-1.62
205.23,2.01,2.02,3.65,3.65,-3.68,-3.46,-3.16,-1.67,-1.66,-1.64
207.28,1.94,1.95,3.59,3.61,-3.67,-3.43,-3.20,-1.74,-1.72,-1.65
209.35,1.92,1.93,3.59,3.60,-3.67,-3.40,-3.24,-1.75,-1.74,-1.67
211.44,1.93,1.93,3.63,3.62,-3.65,-3.37,-3.27,-1.73,-1.72,-1.70
213.56,1.96,1.96,3.66,3.66,-3.64,-3.34,-3.31,-1.68,-1.68,-1.70
215.69,1.97,1.97,3.67,3.67,-3.62,-3.31,-3.34,-1.65,-1.66,-1.70
217.85,1.96,1.94,3.68,3.65,-3.60,-3.27,-3.38,-1.64,-1.66,-1.72
220.03,1.87,1.88,3.60,3.61,-3.58,-3.24,-3.41,-1.71,-1.70,-1.73
222.23,1.79,1.80,3.53,3.54,-3.54,-3.20,-3.44,-1.75,-1.74,-1.74
224.45,1.74,1.73,3.47,3.47,-3.49,-3.17,-3.47,-1.75,-1.77,-1.73
226.70,1.67,1.68,3.40,3.42,-3.44,-3.13,-3.50,-1.77,-1.76,-1.73
228.96,1.64,1.64,3.37,3.37,-3.38,-3.09,-3.52,-1.74,-1.74,-1.73
231.25,1.62,1.61,3.34,3.33,-3.34,-3.05,-3.54,-1.72,-1.73,-1.73
233.57,1.57,1.57,3.29,3.30,-3.30,-3.02,-3.56,-1.73,-1.73,-1.73
235.90,1.54,1.54,3.26,3.26,-3.28,-2.98,-3.57,-1.74,-1.74,-1.73
238.26,1.50,1.51,3.22,3.23,-3.26,-2.94,-3.58,-1.76,-1.75,-1.72
240.64,1.51,1.51,3.22,3.22,-3.24,-2.90,-3.59,-1.73,-1.73,-1.71
243.05,1.52,1.54,3.22,3.24,-3.21,-2.86,-3.59,-1.69,-1.67,-1.70
245.48,1.56,1.55,3.25,3.24,-3.19,-2.82,-3.58,-1.63,-1.64,-1.69
247.93,1.59,1.52,3.27,3.20,-3.17,-2.78,-3.57,-1.58,-1.65,-1.68
250.41,1.42,1.47,3.10,3.14,-3.15,-2.74,-3.56,-1.73,-1.68,-1.68
252.92,1.39,1.42,3.04,3.07,-3.12,-2.70,-3.54,-1.74,-1.71,-1.65
255.45,1.42,1.41,3.05,3.04,-3.09,-2.66,-3.52,-1.67,-1.68,-1.63
258.00,1.44,1.44,3.06,3.06,-3.04,-2.61,-3.49,-1.60,-1.60,-1.62
260.58,1.46,1.44,3.06,3.04,-2.99,-2.57,-3.45,-1.53,-1.55,-1.61
263.19,1.41,1.41,2.99,2.99,-2.95,-2.53,-3.42,-1.54,-1.54,-1.58
265.82,1.34,1.35,2.91,2.91,-2.91,-2.49,-3.37,-1.57,-1.56,-1.57
268.48,1.28,1.28,2.82,2.82,-2.86,-2.45,-3.32,-1.59,-1.59,-1.54
271.16,1.23,1.24,2.75,2.76,-2.81,-2.41,-3.27,-1.58,-1.57,-1.52
273.87,1.22,1.24,2.73,2.75,-2.75,-2.37,-3.22,-1.53,-1.50,-1.51
276.61,1.25,1.23,2.73,2.72,-2.68,-2.33,-3.16,-1.43,-1.45,-1.48
279.38,1.25,1.19,2.72,2.66,-2.62,-2.29,-3.10,-1.37,-1.43,-1.47
282.17,1.09,1.14,2.54,2.59,-2.56,-2.25,-3.04,-1.47,-1.42,-1.45
284.99,1.03,1.06,2.46,2.49,-2.51,-2.21,-2.97,-1.48,-1.45,-1.43
287.84,1.05,0.99,2.46,2.40,-2.45,-2.17,-2.90,-1.40,-1.46,-1.41
290.72,0.94,0.98,2.33,2.37,-2.40,-2.13,-2.83,-1.46,-1.41,-1.39
293.63,0.96,0.97,2.33,2.34,-2.34,-2.09,-2.76,-1.38,-1.36,-1.37
296.57,0.99,0.95,2.33,2.30,-2.28,-2.06,-2.69,-1.29,-1.33,-1.34
299.53,0.94,0.94,2.27,2.27,-2.23,-2.02,-2.61,-1.29,-1.29,-1.33
302.53,0.90,0.90,2.21,2.21,-2.20,-1.98,-2.54,-1.30,-1.30,-1.31
305.55,0.85,0.86,2.13,2.15,-2.17,-1.94,-2.47,-1.32,-1.31,-1.28
308.61,0.85,0.85,2.11,2.10,-2.14,-1.91,-2.39,-1.29,-1.29,-1.26
311.69,0.85,0.85,2.08,2.08,-2.11,-1.87,-2.32,-1.26,-1.26,-1.23
314.81,0.86,0.85,2.06,2.06,-2.07,-1.83,-2.24,-1.21,-1.21,-1.20
317.96,0.86,0.88,2.04,2.06,-2.02,-1.80,-2.17,-1.16,-1.14,-1.18
321.14,0.87,0.88,2.03,2.04,-1.97,-1.76,-2.09,-1.10,-1.10,-1.16
324.35,0.90,0.83,2.05,1.97,-1.93,-1.73,-2.02,-1.03,-1.10,-1.15
327.59,0.73,0.76,1.85,1.88,-1.89,-1.69,-1.95,-1.16,-1.13,-1.12
330.87,0.65,0.69,1.75,1.79,-1.84,-1.66,-1.88,-1.19,-1.15,-1.10
334.18,0.65,0.64,1.73,1.72,-1.79,-1.62,-1.81,-1.14,-1.15,-1.09
337.52,0.66,0.65,1.73,1.72,-1.74,-1.59,-1.74,-1.08,-1.08,-1.07
340.90,0.66,0.66,1.70,1.70,-1.68,-1.56,-1.67,-1.02,-1.02,-1.04
344.30,0.66,0.65,1.68,1.67,-1.63,-1.53,-1.60,-0.97,-0.98,-1.02
347.75,0.61,0.61,1.61,1.62,-1.58,-1.49,-1.54,-0.98,-0.97,-1.00
351.23,0.57,0.56,1.56,1.55,-1.54,-1.46,-1.47,-0.97,-0.98,-0.99
354.74,0.50,0.52,1.47,1.48,-1.50,-1.43,-1.41,-1.00,-0.98,-0.97
358.28,0.47,0.46,1.42,1.41,-1.44,-1.40,-1.35,-0.97,-0.98,-0.95
361.87,0.44,0.42,1.37,1.36,-1.38,-1.37,-1.28,-0.94,-0.96,-0.93
365.49,0.36,0.41,1.28,1.34,-1.32,-1.34,-1.22,-0.96,-0.90,-0.93
369.14,0.40,0.38,1.32,1.30,-1.26,-1.31,-1.16,-0.86,-0.88,-0.92
372.83,0.39,0.32,1.29,1.22,-1.22,-1.28,-1.10,-0.83,-0.89,-0.90
376.56,0.23,0.27,1.12,1.15,-1.18,-1.25,-1.05,-0.95,-0.91,-0.89
380.33,0.18,0.22,1.04,1.09,-1.14,-1.22,-0.99,-0.96,-0.91,-0.86
384.13,0.22,0.20,1.07,1.06,-1.09,-1.19,-0.94,-0.87,-0.89,-0.85
387.97,0.24,0.22,1.08,1.06,-1.04,-1.16,-0.88,-0.80,-0.83,-0.85
391.85,0.20,0.21,1.04,1.04,-0.99,-1.13,-0.83,-0.79,-0.78,-0.84
395.77,0.16,0.16,0.98,0.98,-0.94,-1.10,-0.78,-0.78,-0.78,-0.82
399.73,0.09,0.08,0.90,0.89,-0.88,-1.07,-0.72,-0.79,-0.80,-0.81
403.72,0.01,0.01,0.81,0.81,-0.82,-1.05,-0.67,-0.81,-0.81,-0.80
407.76,-0.09,-0.04,0.70,0.75,-0.76,-1.02,-0.63,-0.85,-0.80,-0.79
411.84,-0.06,-0.10,0.71,0.68,-0.69,-0.99,-0.58,-0.75,-0.79,-0.77
415.96,-0.12,-0.15,0.64,0.61,-0.63,-0.96,-0.53,-0.75,-0.78,-0.77
420.12,-0.24,-0.20,0.52,0.56,-0.57,-0.93,-0.49,-0.81,-0.77,-0.76
424.32,-0.24,-0.23,0.51,0.52,-0.53,-0.91,-0.44,-0.77,-0.76,-0.75
428.56,-0.23,-0.24,0.51,0.50,-0.50,-0.88,-0.40,-0.73,-0.74,-0.74
432.85,-0.22,-0.25,0.51,0.48,-0.48,-0.85,-0.36,-0.70,-0.73,-0.73
437.18,-0.27,-0.27,0.45,0.45,-0.45,-0.82,-0.32,-0.72,-0.72,-0.72
441.55,-0.32,-0.26,0.38,0.44,-0.43,-0.79,-0.28,-0.75,-0.70,-0.70
445.96,-0.23,-0.27,0.46,0.42,-0.41,-0.76,-0.24,-0.64,-0.68,-0.69
450.42,-0.23,-0.25,0.45,0.43,-0.40,-0.73,-0.20,-0.63,-0.65,-0.68
454.93,-0.30,-0.25,0.36,0.41,-0.39,-0.70,-0.17,-0.69,-0.65,-0.66
459.48,-0.23,-0.30,0.42,0.35,-0.39,-0.67,-0.14,-0.62,-0.69,-0.66
464.07,-0.34,-0.30,0.30,0.34,-0.40,-0.64,-0.10,-0.74,-0.70,-0.64
468.71,-0.30,-0.25,0.32,0.37,-0.41,-0.61,-0.08,-0.71,-0.66,-0.62
473.40,-0.16,-0.21,0.45,0.40,-0.40,-0.58,-0.05,-0.56,-0.61,-0.61
478.13,-0.12,-0.14,0.47,0.45,-0.40,-0.54,-0.02,-0.52,-0.54,-0.59
482.91,-0.13,-0.11,0.45,0.47,-0.40,-0.51,0.00,-0.53,-0.50,-0.58
487.74,-0.12,-0.12,0.44,0.44,-0.40,-0.47,0.03,-0.52,-0.52,-0.56
492.62,-0.14,-0.17,0.40,0.37,-0.40,-0.43,0.05,-0.54,-0.57,-0.54
497.55,-0.21,-0.23,0.32,0.30,-0.38,-0.39,0.07,-0.59,-0.60,-0.53
502.52,-0.30,-0.23,0.21,0.29,-0.33,-0.34,0.08,-0.63,-0.56,-0.51
507.55,-0.22,-0.18,0.28,0.32,-0.28,-0.30,0.10,-0.50,-0.46,-0.50
