frequency,raw
20,5.52
21,5.59
22,5.67
23,5.74
24,5.80
25,5.87
26,5.93
27,5.98
28,6.04
29,6.09
30,6.13
31,6.17
32,6.21
33,6.25
34,6.28
35,6.31
36,6.33
37,6.36
38,6.39
39,6.41
40,6.43
41,6.44
42,6.45
43,6.45
44,6.44
45,6.43
46,6.43
47,6.43
48,6.43
49,6.43
50,6.43
51,6.43
52,6.43
53,6.43
54,6.43
55,6.43
56,6.43
57,6.43
58,6.43
59,6.44
60,6.45
61,6.45
62,6.44
63,6.43
64,6.41
65,6.39
66,6.36
67,6.32
68,6.29
69,6.26
70,6.22
71,6.19
72,6.16
73,6.13
74,6.11
75,6.09
76,6.08
77,6.08
78,6.08
79,6.10
80,6.12
81,6.13
82,6.12
83,6.11
84,6.09
85,6.07
86,6.04
87,6.01
88,5.98
89,5.94
90,5.91
91,5.87
92,5.84
93,5.82
94,5.80
95,5.79
96,5.78
97,5.77
98,5.76
99,5.75
100,5.74
101,5.72
102,5.69
104,5.65
105,5.62
106,5.58
107,5.55
108,5.52
109,5.49
110,5.47
111,5.45
112,5.45
113,5.45
114,5.46
115,5.46
117,5.45
118,5.44
119,5.41
120,5.39
121,5.36
123,5.32
124,5.29
125,5.26
126,5.24
128,5.21
129,5.19
130,5.15
131,5.12
133,5.09
134,5.06
135,5.03
137,5.01
138,4.98
140,4.95
141,4.93
142,4.90
144,4.88
145,4.85
147,4.81
148,4.78
150,4.75
151,4.72
153,4.70
154,4.68
156,4.66
157,4.63
159,4.60
160,4.57
162,4.53
164,4.49
165,4.45
167,4.41
169,4.38
170,4.36
172,4.34
174,4.31
175,4.27
177,4.22
179,4.17
181,4.12
183,4.09
184,4.04
186,4.00
188,3.95
190,3.91
192,3.87
194,3.81
196,3.76
198,3.71
200,3.67
202,3.64
204,3.61
206,3.58
208,3.55
210,3.50
212,3.46
214,3.43
216,3.40
218,3.37
221,3.34
223,3.31
225,3.26
227,3.21
229,3.16
232,3.12
234,3.07
236,3.02
239,2.97
241,2.92
244,2.87
246,2.83
248,2.78
251,2.74
253,2.69
256,2.64
259,2.59
261,2.55
264,2.51
266,2.46
269,2.42
272,2.38
274,2.35
277,2.32
280,2.29
283,2.25
286,2.20
288,2.15
291,2.11
294,2.07
297,2.03
300,2.01
303,1.98
306,1.95
309,1.93
312,1.90
316,1.89
319,1.89
322,1.89
325,1.88
328,1.88
332,1.87
335,1.85
338,1.83
342,1.81
345,1.78
349,1.74
352,1.70
356,1.65
359,1.59
363,1.54
366,1.49
370,1.45
374,1.41
377,1.37
381,1.33
385,1.29
389,1.24
393,1.19
397,1.15
401,1.11
405,1.08
409,1.04
413,1.00
417,0.96
421,0.91
425,0.86
430,0.82
434,0.78
438,0.75
443,0.72
447,0.69
451,0.66
456,0.61
460,0.56
465,0.51
470,0.47
474,0.44
479,0.41
484,0.39
489,0.37
494,0.33
499,0.28
504,0.24
509,0.19
514,0.15
519,0.12
524,0.10
529,0.09
535,0.06
540,0.02
545,-0.02
551,-0.07
556,-0.11
562,-0.15
568,-0.19
573,-0.22
579,-0.25
585,-0.28
591,-0.30
596,-0.32
602,-0.34
608,-0.36
615,-0.38
621,-0.41
627,-0.43
633,-0.45
639,-0.47
646,-0.50
652,-0.53
659,-0.56
665,-0.60
672,-0.63
679,-0.66
686,-0.69
692,-0.71
699,-0.72
706,-0.73
713,-0.73
721,-0.72
728,-0.72
735,-0.71
742,-0.71
750,-0.71
757,-0.71
765,-0.71
773,-0.71
780,-0.71
788,-0.71
796,-0.71
804,-0.72
812,-0.73
820,-0.73
828,-0.73
837,-0.71
845,-0.69
853,-0.67
862,-0.64
871,-0.62
879,-0.60
888,-0.57
897,-0.53
906,-0.48
915,-0.43
924,-0.39
933,-0.35
943,-0.30
952,-0.25
962,-0.20
971,-0.16
981,-0.11
991,-0.06
1001,0.01
1011,0.08
1021,0.14
1031,0.20
1041,0.26
1052,0.33
1062,0.38
1073,0.44
1084,0.51
1094,0.58
1105,0.65
1116,0.71
1128,0.77
1139,0.84
1150,0.91
1162,0.99
1173,1.07
1185,1.15
1197,1.23
1209,1.33
1221,1.42
1233,1.50
1246,1.58
1258,1.67
1271,1.77
1283,1.87
1296,1.96
1309,2.07
1322,2.17
1335,2.28
1349,2.39
1362,2.49
1376,2.60
1390,2.71
1404,2.84
1418,2.98
1432,3.10
1446,3.23
1461,3.38
1475,3.52
1490,3.66
1505,3.79
1520,3.94
1535,4.10
1550,4.25
1566,4.39
1582,4.54
1597,4.68
1613,4.84
1629,5.00
1646,5.16
1662,5.31
1679,5.47
1696,5.64
1713,5.80
1730,5.96
1747,6.13
1764,6.28
1782,6.45
1800,6.61
1818,6.75
1836,6.89
1854,7.04
1873,7.19
1892,7.31
1911,7.43
1930,7.55
1949,7.65
1969,7.75
1988,7.83
2008,7.90
2028,7.95
2048,8.01
2069,8.06
2090,8.08
2111,8.10
2132,8.12
2153,8.11
2175,8.09
2196,8.05
2218,7.99
2240,7.94
2263,7.87
2285,7.79
2308,7.69
2331,7.58
2355,7.44
2378,7.29
2402,7.12
2426,6.94
2450,6.75
2475,6.55
2500,6.35
2525,6.15
2550,5.93
2575,5.71
2601,5.50
2627,5.28
2653,5.05
2680,4.80
2707,4.56
2734,4.32
2761,4.07
2789,3.82
2817,3.58
2845,3.34
2873,3.11
2902,2.88
2931,2.65
2960,2.41
2990,2.18
3020,1.96
3050,1.74
3080,1.55
3111,1.36
3142,1.18
3174,1.01
3206,0.84
3238,0.68
3270,0.53
3303,0.39
3336,0.27
3369,0.15
3403,0.07
3437,0.01
3471,-0.04
3506,-0.07
3541,-0.09
3576,-0.09
3612,-0.06
3648,0.00
3685,0.08
3721,0.18
3759,0.31
3796,0.44
3834,0.59
3873,0.76
3911,0.95
3950,1.16
3990,1.38
4030,1.60
4070,1.83
4111,2.06
4152,2.31
4193,2.57
4235,2.80
4278,3.04
4321,3.28
4364,3.52
4407,3.74
4451,3.94
4496,4.14
4541,4.32
4586,4.47
4632,4.61
4679,4.73
4725,4.84
4773,4.92
4820,4.97
4868,4.99
4917,4.98
4966,4.95
5016,4.89
5066,4.81
5117,4.71
5168,4.56
5220,4.38
5272,4.17
5325,3.92
5378,3.64
5432,3.33
5486,3.00
5541,2.64
5596,2.23
5652,1.80
5709,1.33
5766,0.83
5823,0.29
5882,-0.27
5940,-0.86
6000,-1.46
6060,-2.06
6120,-2.67
6182,-3.27
6244,-3.88
6306,-4.49
6369,-5.08
6433,-5.66
6497,-6.21
6562,-6.74
6628,-7.27
6694,-7.79
6761,-8.30
6828,-8.80
6897,-9.30
6966,-9.79
7035,-10.26
7106,-10.71
7177,-11.17
7249,-11.59
7321,-12.00
7394,-12.39
7468,-12.76
7543,-13.11
7618,-13.44
7694,-13.74
7771,-14.03
7849,-14.29
7928,-14.54
8007,-14.78
8087,-15.02
8168,-15.24
8250,-15.44
8332,-15.62
8415,-15.78
8499,-15.94
8584,-16.08
8670,-16.19
8757,-16.27
8845,-16.33
8933,-16.35
9022,-16.34
9113,-16.27
9204,-16.17
9296,-16.01
9389,-15.80
9483,-15.53
9577,-15.18
9673,-14.76
9770,-14.26
9868,-13.68
9966,-13.00
10066,-12.24
10167,-11.42
10268,-10.55
10371,-9.66
10475,-8.73
10579,-7.81
10685,-6.92
10792,-6.07
10900,-5.28
11009,-4.56
11119,-3.92
11230,-3.37
11343,-2.88
11456,-2.48
11571,-2.15
11686,-1.87
11803,-1.66
11921,-1.50
12040,-1.37
12161,-1.26
12282,-1.18
12405,-1.14
12529,-1.14
12655,-1.19
12781,-1.28
12909,-1.43
13038,-1.64
13168,-1.92
13300,-2.26
13433,-2.65
13567,-3.10
13703,-3.58
13840,-4.11
13978,-4.68
14118,-5.32
14259,-6.03
14402,-6.82
14546,-7.72
14692,-8.73
14838,-9.86
14987,-11.13
15137,-12.53
15288,-14.04
15441,-15.65
15595,-17.35
15751,-19.10
15909,-20.87
16068,-22.65
16229,-24.38
16391,-26.05
16555,-27.64
16720,-29.12
16888,-30.49
17056,-31.74
17227,-32.88
17399,-33.93
17573,-34.91
17749,-35.83
17926,-36.69
18106,-37.48
18287,-38.19
18470,-38.84
18654,-39.41
18841,-39.92
19029,-40.35
19220,-40.72
19412,-41.01
19606,-41.24
19802,-41.40
20000,-41.48
