frequency,raw,error,smoothed,error_smoothed,equalization,parametric_eq,fixed_band_eq,equalized_raw,equalized_smoothed,target
20.00,-13.38,-14.37,-13.40,-14.42,6.00,5.67,2.77,-7.38,-7.40,1.00
20.20,-13.31,-14.33,-13.33,-14.36,6.00,5.70,2.85,-7.31,-7.33,1.03
20.40,-13.25,-14.30,-13.25,-14.31,6.00,5.72,2.93,-7.25,-7.25,1.06
20.61,-13.18,-14.25,-13.17,-14.25,6.00,5.74,3.01,-7.18,-7.17,1.07
20.81,-13.11,-14.21,-13.09,-14.18,6.00,5.76,3.10,-7.11,-7.09,1.11
21.02,-13.04,-14.17,-13.01,-14.12,6.00,5.78,3.19,-7.04,-7.01,1.13
21.23,-12.95,-14.09,-12.93,-14.05,6.00,5.80,3.28,-6.95,-6.93,1.14
21.44,-12.86,-14.01,-12.85,-13.98,6.00,5.82,3.37,-6.86,-6.85,1.15
21.66,-12.77,-13.93,-12.76,-13.91,6.00,5.84,3.47,-6.77,-6.76,1.16
21.87,-12.67,-13.83,-12.68,-13.84,6.00,5.86,3.57,-6.67,-6.68,1.16
22.09,-12.59,-13.76,-12.60,-13.76,6.00,5.88,3.67,-6.59,-6.60,1.17
22.31,-12.50,-13.67,-12.51,-13.69,6.00,5.90,3.77,-6.50,-6.51,1.17
22.54,-12.42,-13.59,-12.43,-13.60,6.00,5.91,3.88,-6.42,-6.43,1.17
22.76,-12.34,-13.51,-12.34,-13.51,6.00,5.93,3.99,-6.34,-6.34,1.17
22.99,-12.25,-13.41,-12.25,-13.42,6.00,5.95,4.10,-6.25,-6.25,1.16
23.22,-12.17,-13.33,-12.16,-13.34,6.00,5.96,4.21,-6.17,-6.16,1.16
23.45,-12.09,-13.25,-12.08,-13.25,6.00,5.98,4.33,-6.09,-6.08,1.16
23.69,-12.00,-13.16,-11.99,-13.16,6.00,5.99,4.45,-6.00,-5.99,1.16
23.92,-11.92,-13.08,-11.91,-13.07,6.00,6.01,4.57,-5.92,-5.91,1.16
24.16,-11.83,-13.00,-11.82,-12.99,6.00,6.02,4.70,-5.83,-5.82,1.17
24.40,-11.74,-12.91,-11.74,-12.90,6.00,6.04,4.83,-5.74,-5.74,1.17
24.65,-11.65,-12.81,-11.65,-12.81,6.00,6.05,4.95,-5.65,-5.65,1.16
24.89,-11.56,-12.71,-11.56,-12.72,6.00,6.06,5.09,-5.56,-5.56,1.16
25.14,-11.47,-12.62,-11.47,-12.63,6.00,6.07,5.22,-5.47,-5.47,1.16
25.39,-11.39,-12.54,-11.39,-12.54,6.00,6.08,5.35,-5.39,-5.39,1.16
25.65,-11.30,-12.46,-11.30,-12.46,6.00,6.10,5.49,-5.30,-5.30,1.16
25.91,-11.22,-12.37,-11.22,-12.37,6.00,6.11,5.62,-5.22,-5.22,1.15
26.16,-11.13,-12.27,-11.13,-12.28,6.00,6.12,5.76,-5.13,-5.13,1.15
26.43,-11.05,-12.19,-11.05,-12.19,6.00,6.12,5.89,-5.05,-5.05,1.15
26.69,-10.96,-12.10,-10.96,-12.10,6.00,6.13,6.02,-4.96,-4.96,1.14
26.96,-10.87,-12.01,-10.88,-12.02,6.00,6.14,6.16,-4.87,-4.88,1.14
27.23,-10.79,-11.93,-10.79,-11.93,6.00,6.15,6.29,-4.79,-4.79,1.14
27.50,-10.71,-11.85,-10.70,-11.84,6.00,6.16,6.41,-4.71,-4.70,1.14
27.77,-10.63,-11.76,-10.62,-11.75,6.00,6.16,6.54,-4.63,-4.62,1.13
28.05,-10.54,-11.67,-10.53,-11.66,6.00,6.17,6.66,-4.54,-4.53,1.13
28.33,-10.45,-11.57,-10.44,-11.57,6.00,6.17,6.77,-4.45,-4.44,1.12
28.62,-10.36,-11.48,-10.35,-11.48,6.00,6.18,6.88,-4.36,-4.35,1.12
28.90,-10.27,-11.39,-10.27,-11.39,6.00,6.18,6.98,-4.27,-4.27,1.12
29.19,-10.18,-11.29,-10.18,-11.30,6.00,6.19,7.07,-4.18,-4.18,1.11
29.48,-10.09,-11.20,-10.10,-11.21,6.00,6.19,7.16,-4.09,-4.10,1.12
29.78,-10.00,-11.10,-10.01,-11.11,6.00,6.19,7.23,-4.00,-4.01,1.11
30.08,-9.91,-11.01,-9.92,-11.02,6.00,6.19,7.30,-3.91,-3.92,1.10
30.38,-9.83,-10.92,-9.83,-10.93,6.00,6.20,7.35,-3.83,-3.83,1.09
30.68,-9.75,-10.84,-9.75,-10.84,6.00,6.20,7.40,-3.75,-3.75,1.09
30.99,-9.67,-10.75,-9.66,-10.75,6.00,6.20,7.43,-3.67,-3.66,1.08
31.30,-9.59,-10.67,-9.58,-10.66,6.00,6.20,7.45,-3.59,-3.58,1.08
31.61,-9.50,-10.58,-9.49,-10.56,6.00,6.19,7.46,-3.50,-3.49,1.08
31.93,-9.41,-10.48,-9.40,-10.47,6.00,6.19,7.46,-3.41,-3.40,1.07
32.24,-9.32,-10.37,-9.32,-10.38,6.00,6.19,7.45,-3.32,-3.32,1.06
32.57,-9.23,-10.28,-9.23,-10.29,6.00,6.19,7.42,-3.23,-3.23,1.06
32.89,-9.14,-10.19,-9.14,-10.19,6.00,6.18,7.39,-3.14,-3.14,1.05
33.22,-9.05,-10.09,-9.05,-10.10,6.00,6.18,7.35,-3.05,-3.05,1.04
33.55,-8.97,-10.01,-8.97,-10.00,6.00,6.18,7.30,-2.97,-2.97,1.04
33.89,-8.88,-9.91,-8.88,-9.91,6.00,6.17,7.24,-2.88,-2.88,1.03
34.23,-8.79,-9.82,-8.79,-9.81,6.00,6.16,7.17,-2.79,-2.79,1.03
34.57,-8.70,-9.71,-8.70,-9.71,6.00,6.16,7.10,-2.70,-2.70,1.02
34.92,-8.61,-9.61,-8.61,-9.62,6.00,6.15,7.03,-2.61,-2.61,1.00
35.27,-8.52,-9.52,-8.52,-9.52,6.00,6.14,6.94,-2.52,-2.52,1.00
35.62,-8.43,-9.42,-8.43,-9.42,6.00,6.13,6.86,-2.43,-2.43,0.99
35.97,-8.35,-9.32,-8.35,-9.33,6.00,6.12,6.77,-2.35,-2.35,0.98
36.33,-8.26,-9.23,-8.26,-9.23,6.00,6.11,6.68,-2.26,-2.26,0.98
36.70,-8.17,-9.13,-8.17,-9.13,6.00,6.10,6.59,-2.17,-2.17,0.96
37.06,-8.09,-9.04,-8.08,-9.04,6.00,6.09,6.50,-2.09,-2.08,0.95
37.43,-8.00,-8.94,-8.00,-8.94,6.00,6.08,6.40,-2.00,-2.00,0.95
37.81,-7.91,-8.84,-7.91,-8.84,6.00,6.07,6.31,-1.91,-1.91,0.94
38.19,-7.83,-8.75,-7.82,-8.75,6.00,6.05,6.22,-1.83,-1.82,0.92
38.57,-7.74,-8.66,-7.74,-8.65,6.00,6.04,6.13,-1.74,-1.74,0.92
38.95,-7.65,-8.55,-7.65,-8.56,6.00,6.03,6.05,-1.65,-1.65,0.91
39.34,-7.56,-8.45,-7.56,-8.46,6.00,6.01,5.96,-1.56,-1.56,0.89
39.74,-7.48,-8.36,-7.48,-8.37,6.00,6.00,5.88,-1.48,-1.48,0.88
40.14,-7.39,-8.27,-7.39,-8.27,6.00,5.98,5.80,-1.39,-1.39,0.88
40.54,-7.31,-8.17,-7.30,-8.18,6.00,5.96,5.72,-1.31,-1.30,0.86
40.94,-7.22,-8.08,-7.22,-8.08,6.00,5.94,5.65,-1.22,-1.22,0.86
41.35,-7.14,-7.99,-7.13,-7.98,6.00,5.93,5.58,-1.14,-1.13,0.85
41.76,-7.05,-7.89,-7.05,-7.89,6.00,5.91,5.52,-1.05,-1.05,0.84
42.18,-6.96,-7.80,-6.96,-7.79,6.00,5.89,5.46,-0.96,-0.96,0.84
42.60,-6.88,-7.70,-6.88,-7.70,6.00,5.87,5.40,-0.88,-0.88,0.83
43.03,-6.79,-7.61,-6.79,-7.60,6.00,5.84,5.35,-0.79,-0.79,0.82
43.46,-6.71,-7.51,-6.71,-7.51,6.00,5.82,5.30,-0.71,-0.71,0.81
43.90,-6.63,-7.41,-6.63,-7.41,6.00,5.80,5.25,-0.63,-0.63,0.78
44.33,-6.55,-7.31,-6.54,-7.32,6.00,5.78,5.21,-0.55,-0.54,0.77
44.78,-6.46,-7.21,-6.46,-7.22,6.00,5.75,5.17,-0.46,-0.46,0.75
45.23,-6.38,-7.12,-6.37,-7.12,6.00,5.73,5.14,-0.38,-0.37,0.74
45.68,-6.30,-7.02,-6.29,-7.02,6.00,5.70,5.11,-0.30,-0.29,0.72
46.13,-6.22,-6.92,-6.21,-6.92,6.00,5.67,5.08,-0.22,-0.21,0.71
46.60,-6.13,-6.83,-6.13,-6.82,6.00,5.65,5.06,-0.13,-0.13,0.70
47.06,-6.05,-6.73,-6.05,-6.73,6.00,5.62,5.04,-0.05,-0.05,0.69
47.53,-5.96,-6.63,-5.96,-6.63,6.00,5.59,5.03,0.04,0.04,0.67
48.01,-5.88,-6.54,-5.88,-6.53,6.00,5.56,5.02,0.12,0.12,0.66
48.49,-5.80,-6.43,-5.80,-6.43,6.00,5.53,5.01,0.20,0.20,0.64
48.97,-5.71,-6.32,-5.72,-6.33,6.00,5.50,5.01,0.29,0.28,0.61
49.46,-5.64,-6.22,-5.65,-6.23,5.99,5.47,5.00,0.35,0.34,0.58
49.96,-5.58,-6.13,-5.57,-6.14,5.96,5.44,5.01,0.38,0.40,0.56
50.46,-5.50,-6.05,-5.49,-6.04,5.92,5.41,5.01,0.42,0.43,0.55
50.96,-5.43,-5.96,-5.42,-5.95,5.87,5.37,5.02,0.44,0.45,0.53
51.47,-5.35,-5.85,-5.34,-5.85,5.81,5.34,5.02,0.46,0.46,0.50
51.99,-5.27,-5.75,-5.27,-5.76,5.74,5.30,5.03,0.47,0.47,0.48
52.51,-5.20,-5.67,-5.20,-5.67,5.66,5.27,5.04,0.46,0.46,0.47
53.03,-5.13,-5.58,-5.13,-5.58,5.58,5.23,5.05,0.45,0.45,0.46
53.56,-5.05,-5.48,-5.06,-5.49,5.49,5.19,5.07,0.44,0.43,0.44
54.10,-4.98,-5.39,-4.99,-5.40,5.40,5.16,5.08,0.43,0.41,0.42
54.64,-4.92,-5.31,-4.93,-5.32,5.32,5.12,5.09,0.40,0.40,0.40
55.18,-4.86,-5.23,-4.86,-5.24,5.24,5.08,5.10,0.38,0.38,0.38
55.74,-4.81,-5.16,-4.80,-5.16,5.16,5.04,5.11,0.35,0.36,0.35
56.29,-4.74,-5.08,-4.74,-5.08,5.08,5.00,5.12,0.35,0.34,0.34
56.86,-4.67,-4.99,-4.68,-5.01,5.01,4.96,5.12,0.34,0.33,0.32
57.42,-4.62,-4.92,-4.62,-4.93,4.93,4.91,5.12,0.32,0.31,0.30
58.00,-4.57,-4.86,-4.57,-4.86,4.86,4.87,5.12,0.29,0.29,0.29
58.58,-4.52,-4.79,-4.51,-4.78,4.78,4.83,5.12,0.26,0.27,0.27
59.16,-4.46,-4.72,-4.45,-4.71,4.71,4.78,5.11,0.25,0.25,0.26
59.76,-4.40,-4.65,-4.40,-4.63,4.63,4.74,5.10,0.23,0.23,0.25
60.35,-4.35,-4.57,-4.34,-4.55,4.55,4.69,5.08,0.21,0.22,0.22
60.96,-4.29,-4.50,-4.28,-4.48,4.48,4.65,5.06,0.19,0.20,0.21
61.57,-4.24,-4.41,-4.22,-4.40,4.40,4.60,5.03,0.16,0.18,0.17
62.18,-4.18,-4.33,-4.16,-4.32,4.32,4.55,5.00,0.14,0.16,0.15
62.80,-4.11,-4.24,-4.11,-4.24,4.24,4.50,4.96,0.14,0.14,0.13
63.43,-4.05,-4.15,-4.05,-4.17,4.17,4.45,4.91,0.12,0.12,0.11
64.07,-3.99,-4.08,-4.00,-4.09,4.09,4.40,4.86,0.10,0.10,0.09
64.71,-3.94,-4.01,-3.94,-4.02,4.02,4.35,4.81,0.08,0.07,0.07
65.35,-3.89,-3.94,-3.89,-3.95,3.95,4.30,4.75,0.06,0.05,0.05
66.01,-3.83,-3.86,-3.85,-3.88,3.88,4.25,4.68,0.05,0.03,0.04
66.67,-3.79,-3.80,-3.80,-3.82,3.82,4.20,4.61,0.03,0.01,0.02
67.33,-3.75,-3.74,-3.76,-3.76,3.76,4.14,4.54,0.01,-0.01,-0.00
68.01,-3.71,-3.68,-3.72,-3.70,3.70,4.09,4.46,-0.01,-0.03,-0.02
68.69,-3.68,-3.63,-3.69,-3.64,3.64,4.03,4.38,-0.04,-0.04,-0.04
69.37,-3.65,-3.58,-3.65,-3.59,3.59,3.98,4.29,-0.06,-0.06,-0.07
70.07,-3.63,-3.54,-3.62,-3.53,3.53,3.92,4.20,-0.10,-0.08,-0.09
70.77,-3.60,-3.50,-3.58,-3.48,3.48,3.86,4.11,-0.12,-0.11,-0.10
71.48,-3.57,-3.45,-3.54,-3.42,3.42,3.81,4.01,-0.15,-0.13,-0.12
72.19,-3.54,-3.39,-3.51,-3.36,3.36,3.75,3.92,-0.18,-0.15,-0.15
72.91,-3.49,-3.32,-3.47,-3.30,3.30,3.69,3.82,-0.19,-0.17,-0.17
73.64,-3.45,-3.25,-3.42,-3.23,3.23,3.63,3.72,-0.21,-0.19,-0.19
74.38,-3.40,-3.19,-3.38,-3.17,3.17,3.57,3.62,-0.23,-0.21,-0.21
75.12,-3.35,-3.11,-3.34,-3.11,3.11,3.51,3.52,-0.24,-0.23,-0.24
75.87,-3.32,-3.06,-3.30,-3.05,3.05,3.45,3.42,-0.27,-0.25,-0.25
76.63,-3.27,-3.00,-3.27,-3.00,3.00,3.39,3.32,-0.27,-0.27,-0.27
77.40,-3.22,-2.93,-3.24,-2.95,2.95,3.32,3.22,-0.27,-0.29,-0.29
78.17,-3.19,-2.87,-3.21,-2.90,2.90,3.26,3.12,-0.29,-0.31,-0.32
78.95,-3.16,-2.83,-3.20,-2.87,2.87,3.20,3.02,-0.29,-0.33,-0.33
79.74,-3.16,-2.81,-3.19,-2.84,2.84,3.13,2.92,-0.31,-0.35,-0.34
80.54,-3.16,-2.79,-3.20,-2.83,2.83,3.07,2.82,-0.32,-0.37,-0.36
81.35,-3.17,-2.78,-3.22,-2.83,2.83,3.00,2.72,-0.33,-0.39,-0.39
82.16,-3.21,-2.80,-3.25,-2.84,2.84,2.94,2.63,-0.36,-0.41,-0.41
82.98,-3.25,-2.83,-3.29,-2.86,2.86,2.87,2.53,-0.39,-0.43,-0.42
83.81,-3.30,-2.85,-3.32,-2.88,2.88,2.81,2.44,-0.42,-0.45,-0.45
84.65,-3.34,-2.86,-3.36,-2.89,2.89,2.74,2.35,-0.44,-0.47,-0.47
85.50,-3.39,-2.90,-3.40,-2.91,2.91,2.67,2.26,-0.48,-0.49,-0.49
86.35,-3.45,-2.94,-3.42,-2.91,2.91,2.60,2.17,-0.54,-0.51,-0.51
87.22,-3.49,-2.95,-3.43,-2.90,2.90,2.53,2.08,-0.59,-0.53,-0.54
88.09,-3.53,-2.97,-3.44,-2.88,2.88,2.46,2.00,-0.65,-0.56,-0.56
88.97,-3.55,-2.97,-3.42,-2.84,2.84,2.40,1.91,-0.71,-0.58,-0.58
89.86,-3.50,-2.90,-3.40,-2.79,2.79,2.33,1.83,-0.71,-0.61,-0.60
90.76,-3.43,-2.79,-3.36,-2.73,2.73,2.26,1.75,-0.70,-0.63,-0.64
91.66,-3.35,-2.69,-3.31,-2.65,2.65,2.18,1.67,-0.69,-0.66,-0.65
92.58,-3.26,-2.57,-3.26,-2.57,2.57,2.11,1.59,-0.69,-0.69,-0.69
93.51,-3.16,-2.45,-3.20,-2.48,2.48,2.04,1.51,-0.67,-0.71,-0.71
94.44,-3.07,-2.33,-3.13,-2.39,2.39,1.97,1.43,-0.67,-0.74,-0.74
95.39,-2.98,-2.21,-3.07,-2.30,2.30,1.90,1.36,-0.68,-0.77,-0.76
96.34,-2.92,-2.12,-3.01,-2.21,2.21,1.83,1.29,-0.71,-0.80,-0.80
97.30,-2.87,-2.04,-2.94,-2.12,2.12,1.76,1.21,-0.75,-0.83,-0.83
98.28,-2.85,-1.99,-2.89,-2.03,2.03,1.68,1.14,-0.82,-0.86,-0.86
99.26,-2.81,-1.92,-2.84,-1.95,1.95,1.61,1.07,-0.86,-0.89,-0.89
100.25,-2.80,-1.88,-2.79,-1.87,1.87,1.54,1.00,-0.93,-0.92,-0.92
101.25,-2.77,-1.82,-2.74,-1.80,1.80,1.46,0.94,-0.97,-0.95,-0.95
102.27,-2.75,-1.77,-2.70,-1.72,1.72,1.39,0.87,-1.03,-0.98,-0.98
103.29,-2.70,-1.68,-2.65,-1.64,1.64,1.32,0.81,-1.06,-1.00,-1.02
104.32,-2.64,-1.60,-2.59,-1.56,1.56,1.25,0.74,-1.08,-1.04,-1.03
105.37,-2.58,-1.51,-2.53,-1.47,1.47,1.17,0.68,-1.11,-1.07,-1.06
106.42,-2.51,-1.41,-2.47,-1.37,1.37,1.10,0.62,-1.13,-1.10,-1.09
107.48,-2.42,-1.29,-2.40,-1.27,1.27,1.03,0.56,-1.15,-1.13,-1.12
108.56,-2.32,-1.16,-2.32,-1.16,1.16,0.95,0.50,-1.16,-1.16,-1.16
109.64,-2.23,-1.04,-2.24,-1.05,1.05,0.88,0.44,-1.18,-1.19,-1.19
110.74,-2.15,-0.93,-2.16,-0.93,0.93,0.81,0.39,-1.22,-1.23,-1.22
111.85,-2.05,-0.80,-2.08,-0.82,0.82,0.73,0.33,-1.23,-1.26,-1.25
112.97,-1.97,-0.67,-2.00,-0.70,0.70,0.66,0.28,-1.27,-1.29,-1.30
114.10,-1.90,-0.57,-1.92,-0.59,0.59,0.59,0.23,-1.30,-1.33,-1.33
115.24,-1.85,-0.48,-1.85,-0.49,0.49,0.52,0.18,-1.36,-1.36,-1.36
116.39,-1.78,-0.38,-1.79,-0.39,0.39,0.45,0.13,-1.39,-1.40,-1.40
117.55,-1.72,-0.28,-1.73,-0.30,0.30,0.37,0.08,-1.42,-1.43,-1.44
118.73,-1.67,-0.19,-1.68,-0.21,0.21,0.30,0.03,-1.46,-1.47,-1.48
119.92,-1.62,-0.11,-1.64,-0.13,0.13,0.23,-0.01,-1.49,-1.51,-1.50
121.12,-1.59,-0.05,-1.60,-0.06,0.06,0.16,-0.05,-1.53,-1.54,-1.54
122.33,-1.56,0.02,-1.56,0.02,-0.02,0.09,-0.10,-1.58,-1.58,-1.58
123.55,-1.53,0.08,-1.52,0.09,-0.09,0.02,-0.14,-1.61,-1.61,-1.60
124.79,-1.51,0.13,-1.49,0.15,-0.15,-0.05,-0.18,-1.66,-1.65,-1.64
126.03,-1.47,0.21,-1.46,0.22,-0.22,-0.12,-0.21,-1.69,-1.68,-1.67
127.29,-1.44,0.27,-1.43,0.28,-0.28,-0.18,-0.25,-1.72,-1.71,-1.71
128.57,-1.42,0.33,-1.40,0.35,-0.35,-0.25,-0.29,-1.77,-1.75,-1.75
129.85,-1.38,0.41,-1.37,0.41,-0.41,-0.32,-0.32,-1.79,-1.78,-1.79
131.15,-1.35,0.47,-1.34,0.47,-0.47,-0.38,-0.35,-1.82,-1.81,-1.82
132.46,-1.31,0.54,-1.31,0.54,-0.54,-0.45,-0.38,-1.85,-1.85,-1.85
133.79,-1.28,0.60,-1.27,0.61,-0.61,-0.51,-0.41,-1.88,-1.88,-1.87
135.12,-1.24,0.68,-1.24,0.67,-0.67,-0.58,-0.44,-1.91,-1.91,-1.92
136.48,-1.20,0.74,-1.20,0.74,-0.74,-0.64,-0.47,-1.93,-1.94,-1.94
137.84,-1.17,0.80,-1.17,0.80,-0.80,-0.70,-0.50,-1.97,-1.97,-1.97
139.22,-1.14,0.87,-1.13,0.86,-0.86,-0.77,-0.53,-2.00,-2.00,-2.01
140.61,-1.10,0.94,-1.10,0.93,-0.93,-0.83,-0.56,-2.02,-2.02,-2.04
142.02,-1.07,0.98,-1.06,0.99,-0.99,-0.89,-0.58,-2.05,-2.05,-2.04
143.44,-1.03,1.04,-1.03,1.04,-1.04,-0.94,-0.61,-2.07,-2.07,-2.07
144.87,-0.99,1.11,-1.00,1.10,-1.10,-1.00,-0.63,-2.09,-2.10,-2.10
146.32,-0.96,1.17,-0.97,1.15,-1.15,-1.06,-0.66,-2.11,-2.12,-2.13
147.78,-0.94,1.20,-0.94,1.21,-1.21,-1.11,-0.69,-2.15,-2.15,-2.14
149.26,-0.92,1.25,-0.91,1.26,-1.26,-1.17,-0.71,-2.18,-2.18,-2.17
150.75,-0.89,1.31,-0.89,1.31,-1.31,-1.22,-0.74,-2.20,-2.20,-2.20
152.26,-0.87,1.36,-0.87,1.36,-1.36,-1.27,-0.77,-2.23,-2.23,-2.23
153.78,-0.84,1.41,-0.85,1.41,-1.41,-1.33,-0.79,-2.25,-2.26,-2.25
155.32,-0.83,1.46,-0.83,1.46,-1.46,-1.37,-0.82,-2.28,-2.28,-2.28
156.88,-0.82,1.49,-0.81,1.50,-1.50,-1.42,-0.85,-2.32,-2.31,-2.31
158.44,-0.79,1.55,-0.79,1.55,-1.55,-1.47,-0.88,-2.34,-2.34,-2.34
160.03,-0.78,1.59,-0.77,1.59,-1.59,-1.52,-0.91,-2.37,-2.37,-2.37
161.63,-0.77,1.63,-0.76,1.64,-1.64,-1.56,-0.94,-2.40,-2.39,-2.40
163.24,-0.75,1.68,-0.75,1.68,-1.68,-1.61,-0.97,-2.43,-2.42,-2.43
164.88,-0.73,1.72,-0.73,1.72,-1.72,-1.65,-1.00,-2.45,-2.45,-2.45
166.53,-0.73,1.75,-0.72,1.76,-1.76,-1.69,-1.03,-2.49,-2.48,-2.48
168.19,-0.72,1.79,-0.71,1.80,-1.80,-1.73,-1.07,-2.51,-2.51,-2.51
169.87,-0.69,1.85,-0.71,1.83,-1.83,-1.77,-1.10,-2.52,-2.54,-2.54
171.57,-0.69,1.88,-0.70,1.87,-1.87,-1.80,-1.14,-2.56,-2.57,-2.56
173.29,-0.69,1.90,-0.69,1.90,-1.90,-1.84,-1.17,-2.59,-2.60,-2.59
175.02,-0.69,1.93,-0.69,1.94,-1.94,-1.88,-1.21,-2.63,-2.63,-2.62
176.77,-0.69,1.97,-0.69,1.97,-1.97,-1.91,-1.25,-2.66,-2.66,-2.65
178.54,-0.69,2.00,-0.68,2.00,-2.00,-1.94,-1.29,-2.69,-2.68,-2.69
180.32,-0.69,2.03,-0.68,2.03,-2.03,-1.97,-1.33,-2.72,-2.71,-2.72
182.13,-0.69,2.05,-0.69,2.06,-2.06,-2.00,-1.37,-2.75,-2.74,-2.74
183.95,-0.69,2.09,-0.69,2.08,-2.08,-2.03,-1.41,-2.77,-2.77,-2.77
185.79,-0.69,2.11,-0.69,2.11,-2.11,-2.05,-1.46,-2.80,-2.80,-2.80
187.65,-0.69,2.14,-0.69,2.14,-2.14,-2.08,-1.50,-2.83,-2.83,-2.83
189.52,-0.69,2.17,-0.69,2.16,-2.16,-2.10,-1.55,-2.85,-2.85,-2.85
191.42,-0.69,2.19,-0.69,2.19,-2.19,-2.12,-1.60,-2.88,-2.88,-2.88
193.33,-0.69,2.21,-0.69,2.22,-2.22,-2.14,-1.64,-2.90,-2.90,-2.90
195.27,-0.69,2.23,-0.68,2.24,-2.24,-2.16,-1.69,-2.93,-2.92,-2.92
197.22,-0.69,2.25,-0.68,2.26,-2.26,-2.18,-1.74,-2.95,-2.94,-2.94
199.19,-0.69,2.28,-0.68,2.28,-2.28,-2.20,-1.79,-2.97,-2.96,-2.97
201.18,-0.69,2.30,-0.67,2.31,-2.31,-2.21,-1.84,-2.99,-2.98,-2.98
203.19,-0.67,2.33,-0.67,2.33,-2.33,-2.23,-1.89,-2.99,-3.00,-2.99
205.23,-0.65,2.37,-0.66,2.35,-2.35,-2.24,-1.94,-2.99,-3.01,-3.01
207.28,-0.65,2.36,-0.66,2.37,-2.37,-2.25,-1.99,-3.01,-3.02,-3.01
209.35,-0.65,2.38,-0.65,2.38,-2.38,-2.26,-2.04,-3.03,-3.03,-3.03
211.44,-0.65,2.40,-0.65,2.39,-2.39,-2.27,-2.09,-3.04,-3.04,-3.05
213.56,-0.65,2.40,-0.64,2.41,-2.41,-2.28,-2.14,-3.05,-3.05,-3.05
215.69,-0.65,2.40,-0.64,2.41,-2.41,-2.29,-2.19,-3.06,-3.05,-3.05
217.85,-0.65,2.41,-0.64,2.42,-2.42,-2.30,-2.23,-3.07,-3.06,-3.06
220.03,-0.63,2.44,-0.63,2.43,-2.43,-2.30,-2.28,-3.05,-3.06,-3.06
222.23,-0.62,2.45,-0.63,2.43,-2.43,-2.30,-2.32,-3.04,-3.06,-3.07
224.45,-0.62,2.44,-0.63,2.42,-2.42,-2.31,-2.36,-3.04,-3.06,-3.06
226.70,-0.64,2.42,-0.63,2.42,-2.42,-2.31,-2.40,-3.06,-3.06,-3.05
228.96,-0.65,2.40,-0.64,2.41,-2.41,-2.31,-2.44,-3.06,-3.05,-3.05
231.25,-0.65,2.39,-0.64,2.41,-2.41,-2.31,-2.47,-3.05,-3.05,-3.04
233.57,-0.65,2.39,-0.64,2.40,-2.40,-2.31,-2.50,-3.04,-3.04,-3.03
235.90,-0.65,2.38,-0.65,2.38,-2.38,-2.31,-2.53,-3.03,-3.03,-3.03
238.26,-0.65,2.38,-0.65,2.37,-2.37,-2.30,-2.56,-3.01,-3.02,-3.03
240.64,-0.65,2.36,-0.66,2.35,-2.35,-2.30,-2.58,-3.00,-3.01,-3.01
243.05,-0.68,2.32,-0.67,2.33,-2.33,-2.29,-2.59,-3.00,-3.00,-3.00
245.48,-0.69,2.29,-0.68,2.30,-2.30,-2.29,-2.61,-2.99,-2.98,-2.98
247.93,-0.69,2.28,-0.69,2.27,-2.27,-2.28,-2.62,-2.96,-2.97,-2.97
250.41,-0.69,2.27,-0.70,2.25,-2.25,-2.28,-2.62,-2.94,-2.95,-2.96
252.92,-0.73,2.21,-0.72,2.22,-2.22,-2.27,-2.62,-2.95,-2.93,-2.94
255.45,-0.73,2.18,-0.73,2.19,-2.19,-2.26,-2.62,-2.91,-2.92,-2.91
258.00,-0.74,2.16,-0.75,2.15,-2.15,-2.25,-2.61,-2.89,-2.90,-2.89
260.58,-0.77,2.11,-0.76,2.12,-2.12,-2.24,-2.60,-2.88,-2.88,-2.88
263.19,-0.78,2.08,-0.78,2.08,-2.08,-2.23,-2.58,-2.86,-2.85,-2.85
265.82,-0.78,2.06,-0.79,2.04,-2.04,-2.22,-2.57,-2.82,-2.83,-2.84
268.48,-0.81,2.00,-0.80,2.01,-2.01,-2.21,-2.54,-2.82,-2.81,-2.81
271.16,-0.82,1.97,-0.82,1.97,-1.97,-2.20,-2.52,-2.79,-2.79,-2.78
273.87,-0.82,1.95,-0.83,1.94,-1.94,-2.18,-2.49,-2.76,-2.77,-2.77
276.61,-0.85,1.89,-0.84,1.91,-1.91,-2.17,-2.46,-2.76,-2.75,-2.74
279.38,-0.86,1.87,-0.85,1.88,-1.88,-2.16,-2.43,-2.73,-2.72,-2.72
282.17,-0.86,1.85,-0.85,1.85,-1.85,-2.14,-2.39,-2.71,-2.70,-2.71
284.99,-0.86,1.82,-0.86,1.83,-1.83,-2.13,-2.36,-2.68,-2.68,-2.68
287.84,-0.86,1.80,-0.86,1.80,-1.80,-2.11,-2.32,-2.66,-2.66,-2.66
290.72,-0.86,1.78,-0.86,1.78,-1.78,-2.10,-2.28,-2.64,-2.64,-2.63
293.63,-0.86,1.76,-0.85,1.76,-1.76,-2.08,-2.24,-2.62,-2.61,-2.62
296.57,-0.86,1.73,-0.85,1.74,-1.74,-2.07,-2.19,-2.60,-2.59,-2.59
299.53,-0.86,1.71,-0.84,1.73,-1.73,-2.05,-2.15,-2.58,-2.57,-2.57
302.53,-0.83,1.73,-0.83,1.71,-1.71,-2.03,-2.11,-2.54,-2.54,-2.55
305.55,-0.82,1.70,-0.82,1.70,-1.70,-2.02,-2.07,-2.52,-2.52,-2.52
308.61,-0.82,1.68,-0.81,1.69,-1.69,-2.00,-2.02,-2.50,-2.49,-2.50
311.69,-0.78,1.69,-0.80,1.67,-1.67,-1.98,-1.98,-2.45,-2.47,-2.47
314.81,-0.78,1.66,-0.79,1.66,-1.66,-1.96,-1.94,-2.44,-2.45,-2.43
317.96,-0.78,1.64,-0.78,1.65,-1.65,-1.95,-1.90,-2.43,-2.42,-2.41
321.14,-0.77,1.63,-0.76,1.64,-1.64,-1.93,-1.86,-2.40,-2.40,-2.40
324.35,-0.74,1.64,-0.75,1.62,-1.62,-1.91,-1.82,-2.36,-2.38,-2.38
327.59,-0.73,1.62,-0.74,1.61,-1.61,-1.89,-1.78,-2.34,-2.35,-2.35
330.87,-0.73,1.60,-0.73,1.60,-1.60,-1.87,-1.74,-2.33,-2.33,-2.33
334.18,-0.73,1.59,-0.72,1.59,-1.59,-1.86,-1.70,-2.31,-2.31,-2.31
337.52,-0.73,1.57,-0.72,1.57,-1.57,-1.84,-1.67,-2.30,-2.29,-2.29
340.90,-0.73,1.54,-0.71,1.56,-1.56,-1.82,-1.63,-2.28,-2.27,-2.27
344.30,-0.71,1.54,-0.71,1.54,-1.54,-1.80,-1.60,-2.25,-2.25,-2.25
347.75,-0.70,1.53,-0.70,1.53,-1.53,-1.78,-1.56,-2.22,-2.23,-2.23
351.23,-0.69,1.52,-0.70,1.51,-1.51,-1.76,-1.53,-2.20,-2.21,-2.21
354.74,-0.69,1.50,-0.69,1.50,-1.50,-1.74,-1.50,-2.19,-2.19,-2.19
358.28,-0.69,1.48,-0.69,1.48,-1.48,-1.73,-1.47,-2.17,-2.17,-2.17
361.87,-0.69,1.47,-0.69,1.47,-1.47,-1.71,-1.44,-2.15,-2.16,-2.15
365.49,-0.69,1.45,-0.69,1.45,-1.45,-1.69,-1.42,-2.14,-2.14,-2.13
369.14,-0.69,1.44,-0.68,1.44,-1.44,-1.67,-1.39,-2.13,-2.12,-2.13
372.83,-0.69,1.42,-0.68,1.43,-1.43,-1.65,-1.37,-2.12,-2.11,-2.11
376.56,-0.69,1.41,-0.68,1.42,-1.42,-1.63,-1.34,-2.10,-2.09,-2.10
380.33,-0.67,1.40,-0.67,1.40,-1.40,-1.61,-1.32,-2.07,-2.08,-2.07
384.13,-0.67,1.39,-0.67,1.39,-1.39,-1.59,-1.30,-2.06,-2.06,-2.06
387.97,-0.67,1.38,-0.67,1.38,-1.38,-1.58,-1.28,-2.05,-2.05,-2.05
391.85,-0.67,1.37,-0.67,1.37,-1.37,-1.56,-1.26,-2.03,-2.04,-2.04
395.77,-0.67,1.35,-0.67,1.36,-1.36,-1.54,-1.24,-2.02,-2.02,-2.02
399.73,-0.67,1.34,-0.67,1.35,-1.35,-1.52,-1.23,-2.01,-2.01,-2.01
403.72,-0.67,1.34,-0.67,1.34,-1.34,-1.50,-1.21,-2.00,-2.00,-2.00
407.76,-0.67,1.33,-0.67,1.32,-1.32,-1.48,-1.19,-1.99,-1.99,-1.99
411.84,-0.67,1.31,-0.67,1.31,-1.31,-1.47,-1.18,-1.98,-1.98,-1.97
415.96,-0.67,1.30,-0.67,1.30,-1.30,-1.45,-1.17,-1.97,-1.97,-1.97
420.12,-0.67,1.29,-0.67,1.29,-1.29,-1.43,-1.15,-1.95,-1.96,-1.96
424.32,-0.67,1.28,-0.68,1.27,-1.27,-1.41,-1.14,-1.94,-1.95,-1.95
428.56,-0.67,1.27,-0.68,1.26,-1.26,-1.40,-1.13,-1.93,-1.94,-1.94
432.85,-0.67,1.26,-0.68,1.25,-1.25,-1.38,-1.12,-1.91,-1.92,-1.93
437.18,-0.69,1.23,-0.68,1.23,-1.23,-1.36,-1.11,-1.92,-1.91,-1.92
