frequency,raw,error,smoothed,error_smoothed,equalization,parametric_eq,equalized_raw,equalized_smoothed,target
20,-12.77,-14.42,-12.81,-14.46,6.00,5.15,-6.77,-6.81,1.65
21,-12.10,-13.75,-12.07,-13.72,6.00,5.51,-6.10,-6.07,1.65
22,-11.41,-13.05,-11.37,-13.01,6.00,5.84,-5.41,-5.37,1.65
23,-10.70,-12.34,-10.70,-12.35,6.00,6.14,-4.70,-4.70,1.65
24,-10.03,-11.68,-10.07,-11.71,6.00,6.39,-4.03,-4.07,1.65
25,-9.42,-11.07,-9.47,-11.12,6.00,6.58,-3.42,-3.47,1.65
26,-8.84,-10.49,-8.92,-10.56,6.00,6.71,-2.84,-2.92,1.65
27,-8.31,-9.95,-8.39,-10.04,6.00,6.78,-2.31,-2.39,1.65
28,-8.04,-9.68,-7.89,-9.53,6.00,6.78,-2.04,-1.89,1.65
29,-7.57,-9.21,-7.40,-9.05,6.00,6.71,-1.57,-1.40,1.65
30,-6.91,-8.56,-6.93,-8.58,6.00,6.60,-0.91,-0.93,1.65
31,-6.51,-8.16,-6.48,-8.13,6.00,6.44,-0.51,-0.48,1.65
32,-5.99,-7.64,-6.04,-7.69,6.00,6.24,0.01,-0.04,1.65
33,-5.56,-7.21,-5.62,-7.27,6.00,6.02,0.44,0.38,1.65
34,-5.10,-6.74,-5.22,-6.87,6.00,5.77,0.90,0.78,1.65
35,-4.95,-6.59,-4.84,-6.49,5.94,5.51,0.99,1.09,1.65
36,-4.44,-6.09,-4.48,-6.13,5.80,5.25,1.36,1.32,1.65
37,-4.18,-5.83,-4.14,-5.78,5.60,4.98,1.42,1.47,1.64
38,-3.72,-5.36,-3.80,-5.45,5.36,4.71,1.64,1.56,1.64
39,-3.54,-5.19,-3.48,-5.12,5.09,4.45,1.55,1.62,1.64
40,-3.29,-4.93,-3.16,-4.80,4.80,4.19,1.51,1.64,1.64
41,-2.86,-4.51,-2.85,-4.49,4.49,3.94,1.62,1.64,1.64
42,-2.46,-4.10,-2.54,-4.18,4.18,3.69,1.73,1.64,1.64
43,-2.17,-3.81,-2.24,-3.88,3.88,3.45,1.71,1.64,1.64
44,-1.94,-3.58,-1.96,-3.60,3.60,3.22,1.66,1.64,1.64
45,-1.70,-3.34,-1.68,-3.32,3.32,2.99,1.61,1.64,1.64
46,-1.41,-3.05,-1.42,-3.05,3.05,2.78,1.64,1.64,1.64
47,-1.24,-2.88,-1.16,-2.80,2.80,2.57,1.56,1.63,1.63
48,-0.97,-2.60,-0.92,-2.55,2.55,2.36,1.58,1.63,1.63
49,-0.65,-2.28,-0.69,-2.31,2.31,2.17,1.66,1.63,1.63
50,-0.33,-1.95,-0.46,-2.08,2.08,1.98,1.76,1.63,1.63
51,-0.28,-1.90,-0.24,-1.86,1.86,1.80,1.58,1.62,1.62
52,0.00,-1.62,-0.02,-1.64,1.64,1.62,1.64,1.62,1.62
53,0.13,-1.49,0.19,-1.42,1.42,1.45,1.55,1.62,1.62
54,0.35,-1.26,0.40,-1.21,1.21,1.28,1.57,1.61,1.61
55,0.58,-1.03,0.60,-1.00,1.00,1.12,1.58,1.61,1.61
56,0.81,-0.79,0.80,-0.80,0.80,0.96,1.61,1.60,1.60
57,1.04,-0.56,0.99,-0.61,0.61,0.81,1.64,1.60,1.60
58,1.26,-0.33,1.17,-0.42,0.42,0.66,1.68,1.59,1.59
59,1.26,-0.32,1.34,-0.24,0.24,0.51,1.51,1.58,1.58
60,1.48,-0.09,1.50,-0.08,0.08,0.37,1.56,1.58,1.58
61,1.72,0.15,1.65,0.08,-0.08,0.23,1.64,1.57,1.57
62,1.72,0.16,1.79,0.23,-0.23,0.10,1.49,1.56,1.56
63,1.95,0.40,1.92,0.37,-0.37,-0.03,1.58,1.55,1.55
64,2.05,0.51,2.04,0.50,-0.50,-0.16,1.55,1.54,1.54
65,2.18,0.65,2.16,0.63,-0.63,-0.29,1.55,1.53,1.53
66,2.18,0.67,2.27,0.76,-0.76,-0.41,1.43,1.51,1.51
67,2.41,0.91,2.38,0.88,-0.88,-0.53,1.53,1.50,1.50
68,2.51,1.02,2.49,1.00,-1.00,-0.65,1.50,1.49,1.49
69,2.63,1.16,2.59,1.12,-1.12,-0.76,1.51,1.47,1.47
70,2.62,1.17,2.69,1.24,-1.24,-0.87,1.38,1.45,1.45
71,2.83,1.40,2.79,1.36,-1.36,-0.99,1.48,1.44,1.44
72,2.83,1.41,2.89,1.47,-1.47,-1.09,1.36,1.42,1.42
73,3.03,1.64,2.97,1.58,-1.58,-1.20,1.45,1.40,1.40
74,3.02,1.64,3.06,1.68,-1.68,-1.31,1.33,1.37,1.37
75,3.18,1.83,3.13,1.78,-1.78,-1.41,1.39,1.35,1.35
76,3.23,1.90,3.20,1.88,-1.88,-1.51,1.35,1.32,1.32
77,3.22,1.93,3.26,1.97,-1.97,-1.61,1.26,1.30,1.30
78,3.28,2.01,3.32,2.05,-2.05,-1.71,1.23,1.27,1.27
79,3.44,2.20,3.37,2.13,-2.13,-1.81,1.31,1.24,1.24
80,3.43,2.23,3.42,2.21,-2.21,-1.90,1.22,1.21,1.21
81,3.42,2.25,3.46,2.28,-2.28,-1.99,1.14,1.17,1.17
82,3.40,2.26,3.49,2.35,-2.35,-2.09,1.05,1.14,1.14
83,3.48,2.38,3.51,2.41,-2.41,-2.18,1.07,1.10,1.10
84,3.59,2.52,3.52,2.46,-2.46,-2.27,1.13,1.06,1.06
85,3.56,2.54,3.51,2.49,-2.49,-2.35,1.07,1.02,1.02
86,3.55,2.57,3.49,2.51,-2.51,-2.44,1.03,0.98,0.98
87,3.53,2.60,3.46,2.53,-2.53,-2.52,1.01,0.94,0.94
88,3.48,2.59,3.42,2.53,-2.53,-2.61,0.94,0.89,0.89
89,3.29,2.45,3.38,2.54,-2.54,-2.69,0.75,0.84,0.84
90,3.28,2.49,3.35,2.56,-2.56,-2.77,0.73,0.79,0.80
91,3.27,2.53,3.33,2.58,-2.58,-2.85,0.69,0.74,0.74
92,3.26,2.57,3.32,2.62,-2.62,-2.92,0.64,0.69,0.69
93,3.25,2.61,3.32,2.68,-2.68,-3.00,0.57,0.64,0.64
94,3.42,2.84,3.33,2.75,-2.75,-3.08,0.67,0.59,0.58
95,3.44,2.91,3.35,2.82,-2.82,-3.15,0.62,0.53,0.53
96,3.42,2.95,3.38,2.91,-2.91,-3.22,0.51,0.47,0.47
97,3.40,2.99,3.41,2.99,-2.99,-3.29,0.41,0.41,0.41
98,3.38,3.02,3.43,3.08,-3.08,-3.36,0.30,0.35,0.35
99,3.36,3.07,3.46,3.17,-3.17,-3.43,0.19,0.29,0.29
100,3.56,3.33,3.48,3.26,-3.26,-3.50,0.30,0.22,0.23
101,3.55,3.38,3.51,3.35,-3.35,-3.56,0.20,0.15,0.17
102,3.53,3.42,3.53,3.45,-3.45,-3.62,0.09,0.08,0.11
104,3.51,3.53,3.55,3.54,-3.54,-3.75,-0.03,0.01,-0.01
105,3.49,3.57,3.57,3.63,-3.63,-3.81,-0.14,-0.06,-0.08
106,3.62,3.76,3.59,3.72,-3.72,-3.87,-0.09,-0.13,-0.14
107,3.66,3.86,3.60,3.79,-3.79,-3.92,-0.13,-0.20,-0.20
108,3.63,3.89,3.60,3.86,-3.86,-3.98,-0.23,-0.26,-0.26
109,3.61,3.93,3.60,3.92,-3.92,-4.03,-0.31,-0.32,-0.32
110,3.58,3.96,3.59,3.97,-3.97,-4.08,-0.38,-0.38,-0.38
111,3.56,4.00,3.57,4.01,-4.01,-4.14,-0.45,-0.44,-0.44
112,3.54,4.04,3.56,4.05,-4.05,-4.19,-0.51,-0.50,-0.49
113,3.53,4.08,3.54,4.10,-4.10,-4.23,-0.57,-0.56,-0.55
114,3.52,4.12,3.53,4.14,-4.14,-4.28,-0.62,-0.61,-0.60
115,3.51,4.17,3.52,4.20,-4.20,-4.33,-0.68,-0.67,-0.65
117,3.51,4.27,3.52,4.25,-4.25,-4.41,-0.74,-0.73,-0.76
118,3.51,4.32,3.52,4.31,-4.31,-4.46,-0.80,-0.79,-0.81
119,3.51,4.37,3.52,4.38,-4.38,-4.50,-0.86,-0.85,-0.85
120,3.52,4.42,3.53,4.44,-4.44,-4.54,-0.92,-0.91,-0.90
121,3.53,4.47,3.53,4.49,-4.49,-4.57,-0.97,-0.96,-0.94
123,3.53,4.57,3.53,4.54,-4.54,-4.64,-1.01,-1.01,-1.03
124,3.54,4.61,3.52,4.58,-4.58,-4.68,-1.04,-1.06,-1.07
125,3.55,4.65,3.50,4.61,-4.61,-4.71,-1.06,-1.11,-1.11
126,3.55,4.70,3.47,4.63,-4.63,-4.74,-1.08,-1.16,-1.14
128,3.44,4.66,3.44,4.64,-4.64,-4.80,-1.20,-1.20,-1.22
129,3.33,4.58,3.41,4.65,-4.65,-4.82,-1.32,-1.24,-1.25
130,3.33,4.61,3.38,4.67,-4.67,-4.85,-1.33,-1.28,-1.28
131,3.33,4.64,3.36,4.68,-4.68,-4.87,-1.35,-1.32,-1.31
133,3.34,4.71,3.34,4.70,-4.70,-4.91,-1.37,-1.36,-1.37
134,3.33,4.73,3.33,4.73,-4.73,-4.93,-1.39,-1.40,-1.40
135,3.33,4.76,3.32,4.76,-4.76,-4.95,-1.42,-1.44,-1.42
137,3.33,4.81,3.32,4.79,-4.79,-4.99,-1.46,-1.47,-1.48
138,3.33,4.83,3.33,4.83,-4.83,-5.00,-1.50,-1.51,-1.50
140,3.33,4.88,3.33,4.87,-4.87,-5.03,-1.54,-1.54,-1.55
141,3.33,4.90,3.34,4.91,-4.91,-5.04,-1.58,-1.57,-1.57
142,3.33,4.92,3.34,4.94,-4.94,-5.05,-1.61,-1.60,-1.59
144,3.33,4.96,3.34,4.97,-4.97,-5.07,-1.64,-1.63,-1.63
145,3.33,4.98,3.34,5.00,-5.00,-5.08,-1.67,-1.66,-1.65
147,3.33,5.02,3.33,5.02,-5.02,-5.09,-1.69,-1.69,-1.69
148,3.33,5.04,3.32,5.03,-5.03,-5.09,-1.70,-1.71,-1.71
150,3.33,5.07,3.30,5.03,-5.03,-5.10,-1.70,-1.74,-1.74
151,3.33,5.09,3.27,5.03,-5.03,-5.10,-1.70,-1.76,-1.76
153,3.30,5.09,3.23,5.01,-5.01,-5.10,-1.71,-1.78,-1.79
154,3.13,4.93,3.19,5.00,-5.00,-5.10,-1.87,-1.81,-1.80
156,3.09,4.92,3.16,4.99,-4.99,-5.09,-1.89,-1.83,-1.83
157,3.09,4.93,3.13,4.98,-4.98,-5.09,-1.89,-1.85,-1.84
159,3.08,4.95,3.10,4.97,-4.97,-5.08,-1.89,-1.87,-1.87
160,3.08,4.96,3.08,4.97,-4.97,-5.07,-1.89,-1.88,-1.88
162,3.07,4.97,3.07,4.97,-4.97,-5.06,-1.90,-1.90,-1.90
164,3.06,4.98,3.05,4.96,-4.96,-5.04,-1.90,-1.92,-1.92
165,3.05,4.98,3.03,4.96,-4.96,-5.03,-1.90,-1.93,-1.93
167,3.04,4.99,3.00,4.94,-4.94,-5.01,-1.90,-1.94,-1.94
169,3.04,4.99,2.96,4.92,-4.92,-4.99,-1.88,-1.95,-1.96
170,2.97,4.93,2.92,4.89,-4.89,-4.98,-1.92,-1.96,-1.96
172,2.80,4.77,2.89,4.86,-4.86,-4.95,-2.06,-1.97,-1.97
174,2.80,4.78,2.85,4.83,-4.83,-4.93,-2.04,-1.98,-1.98
175,2.79,4.78,2.83,4.81,-4.81,-4.91,-2.02,-1.99,-1.98
177,2.79,4.78,2.81,4.80,-4.80,-4.88,-2.01,-1.99,-1.99
179,2.80,4.79,2.80,4.80,-4.80,-4.85,-2.00,-1.99,-1.99
181,2.80,4.80,2.80,4.80,-4.80,-4.82,-2.00,-2.00,-2.00
183,2.80,4.80,2.80,4.80,-4.80,-4.78,-2.00,-2.00,-2.00
184,2.81,4.81,2.80,4.80,-4.80,-4.77,-1.99,-2.00,-2.00
186,2.82,4.82,2.80,4.79,-4.79,-4.73,-1.97,-2.00,-2.00
188,2.83,4.82,2.79,4.78,-4.78,-4.69,-1.95,-1.99,-1.99
190,2.84,4.83,2.77,4.76,-4.76,-4.66,-1.92,-1.99,-1.99
192,2.77,4.76,2.74,4.73,-4.73,-4.62,-1.96,-1.99,-1.99
194,2.63,4.61,2.71,4.70,-4.70,-4.58,-2.07,-1.99,-1.99
196,2.63,4.61,2.69,4.67,-4.67,-4.54,-2.04,-1.98,-1.98
198,2.63,4.61,2.67,4.65,-4.65,-4.50,-2.01,-1.98,-1.98
200,2.63,4.61,2.65,4.62,-4.62,-4.46,-1.99,-1.98,-1.98
202,2.63,4.60,2.63,4.60,-4.60,-4.42,-1.97,-1.97,-1.97
204,2.63,4.60,2.61,4.58,-4.58,-4.38,-1.95,-1.97,-1.97
206,2.62,4.59,2.59,4.55,-4.55,-4.34,-1.93,-1.97,-1.97
208,2.62,4.58,2.56,4.52,-4.52,-4.30,-1.90,-1.96,-1.96
210,2.62,4.58,2.53,4.49,-4.49,-4.25,-1.87,-1.96,-1.96
212,2.44,4.39,2.50,4.45,-4.45,-4.21,-2.01,-1.95,-1.95
214,2.39,4.34,2.46,4.41,-4.41,-4.17,-2.03,-1.95,-1.95
216,2.38,4.33,2.43,4.38,-4.38,-4.13,-1.99,-1.95,-1.95
218,2.38,4.32,2.40,4.34,-4.34,-4.09,-1.96,-1.94,-1.94
221,2.37,4.31,2.36,4.30,-4.30,-4.03,-1.93,-1.94,-1.94
223,2.36,4.30,2.33,4.27,-4.27,-3.98,-1.91,-1.93,-1.93
225,2.35,4.28,2.30,4.23,-4.23,-3.94,-1.87,-1.93,-1.93
227,2.35,4.27,2.27,4.19,-4.19,-3.90,-1.84,-1.92,-1.92
229,2.19,4.11,2.23,4.15,-4.15,-3.86,-1.96,-1.92,-1.92
232,2.12,4.03,2.19,4.10,-4.10,-3.80,-1.98,-1.91,-1.91
234,2.12,4.02,2.15,4.05,-4.05,-3.76,-1.94,-1.90,-1.90
236,2.12,4.01,2.12,4.01,-4.01,-3.72,-1.89,-1.89,-1.89
239,2.12,4.01,2.08,3.96,-3.96,-3.66,-1.84,-1.88,-1.89
241,2.13,4.01,2.04,3.92,-3.92,-3.62,-1.79,-1.88,-1.88
244,1.91,3.78,2.01,3.88,-3.88,-3.56,-1.96,-1.87,-1.87
246,1.93,3.79,1.98,3.83,-3.83,-3.53,-1.91,-1.86,-1.86
248,1.95,3.79,1.94,3.79,-3.79,-3.49,-1.84,-1.85,-1.85
251,1.96,3.80,1.91,3.74,-3.74,-3.43,-1.78,-1.84,-1.84
253,1.93,3.76,1.86,3.69,-3.69,-3.39,-1.76,-1.83,-1.83
256,1.76,3.57,1.82,3.63,-3.63,-3.34,-1.88,-1.81,-1.81
259,1.76,3.57,1.77,3.58,-3.58,-3.29,-1.81,-1.80,-1.80
261,1.76,3.56,1.72,3.51,-3.51,-3.25,-1.75,-1.79,-1.79
264,1.73,3.52,1.67,3.45,-3.45,-3.20,-1.72,-1.78,-1.78
266,1.53,3.30,1.62,3.39,-3.39,-3.16,-1.87,-1.77,-1.77
269,1.51,3.28,1.57,3.33,-3.33,-3.11,-1.82,-1.76,-1.76
272,1.51,3.26,1.52,3.28,-3.28,-3.06,-1.77,-1.75,-1.75
274,1.50,3.25,1.48,3.22,-3.22,-3.03,-1.72,-1.75,-1.74
277,1.50,3.23,1.43,3.17,-3.17,-2.98,-1.67,-1.74,-1.74
280,1.50,3.22,1.39,3.11,-3.11,-2.93,-1.62,-1.73,-1.73
283,1.26,2.98,1.35,3.07,-3.07,-2.89,-1.80,-1.72,-1.72
286,1.26,2.97,1.31,3.02,-3.02,-2.84,-1.76,-1.71,-1.71
288,1.26,2.96,1.29,2.99,-2.99,-2.81,-1.73,-1.70,-1.70
291,1.25,2.95,1.26,2.96,-2.96,-2.77,-1.71,-1.69,-1.69
294,1.25,2.93,1.25,2.94,-2.94,-2.72,-1.69,-1.69,-1.69
297,1.24,2.92,1.24,2.92,-2.92,-2.68,-1.68,-1.68,-1.68
300,1.23,2.90,1.23,2.90,-2.90,-2.64,-1.67,-1.67,-1.67
303,1.22,2.89,1.22,2.88,-2.88,-2.60,-1.66,-1.66,-1.66
306,1.21,2.87,1.20,2.86,-2.86,-2.56,-1.64,-1.66,-1.66
309,1.21,2.86,1.17,2.82,-2.82,-2.52,-1.62,-1.65,-1.65
312,1.20,2.84,1.14,2.78,-2.78,-2.48,-1.58,-1.64,-1.64
316,1.19,2.82,1.09,2.73,-2.73,-2.43,-1.54,-1.64,-1.64
319,0.95,2.58,1.04,2.67,-2.67,-2.39,-1.72,-1.63,-1.63
322,0.93,2.56,1.00,2.62,-2.62,-2.35,-1.69,-1.62,-1.62
325,0.91,2.53,0.95,2.57,-2.57,-2.32,-1.66,-1.62,-1.62
328,0.89,2.50,0.91,2.52,-2.52,-2.28,-1.63,-1.61,-1.61
332,0.87,2.47,0.87,2.48,-2.48,-2.24,-1.61,-1.61,-1.61
335,0.84,2.44,0.83,2.43,-2.43,-2.20,-1.59,-1.60,-1.60
338,0.82,2.41,0.79,2.39,-2.39,-2.17,-1.57,-1.60,-1.60
342,0.80,2.39,0.75,2.34,-2.34,-2.13,-1.54,-1.59,-1.59
345,0.78,2.36,0.70,2.29,-2.29,-2.09,-1.51,-1.59,-1.59
349,0.68,2.26,0.65,2.24,-2.24,-2.05,-1.55,-1.58,-1.58
352,0.52,2.10,0.61,2.19,-2.19,-2.02,-1.66,-1.58,-1.58
356,0.51,2.08,0.56,2.14,-2.14,-1.98,-1.63,-1.58,-1.58
359,0.50,2.07,0.53,2.10,-2.10,-1.95,-1.61,-1.57,-1.57
363,0.48,2.05,0.50,2.07,-2.07,-1.92,-1.59,-1.57,-1.57
366,0.47,2.04,0.48,2.05,-2.05,-1.89,-1.57,-1.57,-1.57
370,0.46,2.03,0.46,2.03,-2.03,-1.85,-1.56,-1.57,-1.57
374,0.46,2.02,0.44,2.00,-2.00,-1.82,-1.55,-1.56,-1.56
377,0.45,2.01,0.42,1.98,-1.98,-1.79,-1.52,-1.56,-1.56
381,0.45,2.01,0.39,1.94,-1.94,-1.76,-1.49,-1.56,-1.56
385,0.45,2.00,0.35,1.90,-1.90,-1.72,-1.46,-1.55,-1.55
389,0.24,1.79,0.31,1.86,-1.86,-1.69,-1.62,-1.55,-1.55
393,0.21,1.75,0.27,1.81,-1.81,-1.66,-1.61,-1.54,-1.54
397,0.20,1.73,0.24,1.77,-1.77,-1.63,-1.57,-1.53,-1.53
401,0.18,1.71,0.21,1.73,-1.73,-1.60,-1.54,-1.52,-1.52
405,0.17,1.68,0.18,1.69,-1.69,-1.57,-1.51,-1.51,-1.51
409,0.16,1.66,0.15,1.65,-1.65,-1.54,-1.48,-1.49,-1.50
413,0.15,1.63,0.13,1.60,-1.60,-1.51,-1.45,-1.48,-1.48
417,0.14,1.60,0.10,1.56,-1.56,-1.48,-1.41,-1.46,-1.46
421,0.14,1.57,0.07,1.51,-1.51,-1.45,-1.37,-1.43,-1.44
425,0.11,1.52,0.05,1.46,-1.46,-1.43,-1.34,-1.41,-1.41
430,-0.08,1.30,0.03,1.41,-1.41,-1.39,-1.49,-1.38,-1.38
434,-0.06,1.29,0.02,1.36,-1.36,-1.37,-1.42,-1.35,-1.35
438,-0.04,1.28,0.01,1.33,-1.33,-1.34,-1.36,-1.31,-1.32
443,-0.00,1.28,0.02,1.30,-1.30,-1.31,-1.30,-1.28,-1.28
447,0.04,1.28,0.03,1.27,-1.27,-1.29,-1.23,-1.24,-1.24
451,0.08,1.28,0.05,1.25,-1.25,-1.26,-1.17,-1.20,-1.20
456,0.13,1.29,0.07,1.23,-1.23,-1.23,-1.10,-1.16,-1.16
460,0.18,1.29,0.09,1.20,-1.20,-1.21,-1.03,-1.12,-1.12
465,0.11,1.19,0.10,1.18,-1.18,-1.18,-1.07,-1.08,-1.08
470,0.05,1.08,0.12,1.16,-1.16,-1.15,-1.11,-1.04,-1.03
474,0.09,1.09,0.14,1.13,-1.13,-1.13,-1.04,-1.00,-1.00
479,0.14,1.09,0.15,1.11,-1.11,-1.10,-0.98,-0.96,-0.96
484,0.17,1.10,0.18,1.10,-1.10,-1.08,-0.93,-0.92,-0.92
489,0.20,1.10,0.20,1.09,-1.09,-1.05,-0.89,-0.89,-0.89
494,0.23,1.09,0.22,1.09,-1.09,-1.03,-0.86,-0.87,-0.86
499,0.24,1.08,0.24,1.09,-1.09,-1.00,-0.84,-0.84,-0.84
504,0.25,1.07,0.26,1.08,-1.08,-0.98,-0.83,-0.82,-0.82
509,0.25,1.06,0.26,1.07,-1.07,-0.95,-0.81,-0.81,-0.81
514,0.25,1.05,0.24,1.04,-1.04,-0.93,-0.79,-0.80,-0.80
519,0.24,1.03,0.21,1.00,-1.00,-0.90,-0.76,-0.79,-0.79
524,0.22,1.01,0.16,0.95,-0.95,-0.88,-0.73,-0.79,-0.79
529,0.19,0.98,0.10,0.89,-0.89,-0.85,-0.70,-0.79,-0.79
535,-0.01,0.79,0.02,0.82,-0.82,-0.83,-0.82,-0.79,-0.79
540,-0.13,0.67,-0.06,0.74,-0.74,-0.80,-0.87,-0.80,-0.80
545,-0.19,0.63,-0.15,0.66,-0.66,-0.78,-0.85,-0.81,-0.81
551,-0.25,0.57,-0.23,0.59,-0.59,-0.75,-0.84,-0.82,-0.82
556,-0.32,0.52,-0.31,0.52,-0.52,-0.73,-0.83,-0.83,-0.83
562,-0.38,0.46,-0.38,0.46,-0.46,-0.70,-0.84,-0.84,-0.84
568,-0.44,0.41,-0.45,0.41,-0.41,-0.67,-0.85,-0.85,-0.85
573,-0.50,0.36,-0.50,0.36,-0.36,-0.65,-0.86,-0.86,-0.86
579,-0.54,0.32,-0.54,0.32,-0.32,-0.62,-0.87,-0.87,-0.87
585,-0.58,0.29,-0.58,0.29,-0.29,-0.59,-0.87,-0.87,-0.87
591,-0.61,0.26,-0.61,0.26,-0.26,-0.56,-0.87,-0.87,-0.87
596,-0.63,0.23,-0.63,0.23,-0.23,-0.54,-0.87,-0.87,-0.87
602,-0.65,0.21,-0.64,0.21,-0.21,-0.51,-0.86,-0.86,-0.86
608,-0.65,0.20,-0.65,0.19,-0.19,-0.48,-0.85,-0.85,-0.85
615,-0.65,0.18,-0.65,0.18,-0.18,-0.45,-0.83,-0.83,-0.83
621,-0.65,0.17,-0.65,0.16,-0.16,-0.42,-0.81,-0.81,-0.81
627,-0.63,0.16,-0.64,0.15,-0.15,-0.39,-0.79,-0.79,-0.79
633,-0.62,0.15,-0.62,0.14,-0.14,-0.36,-0.76,-0.76,-0.76
639,-0.60,0.14,-0.60,0.14,-0.14,-0.33,-0.74,-0.74,-0.74
646,-0.57,0.13,-0.57,0.14,-0.14,-0.29,-0.71,-0.71,-0.71
652,-0.54,0.13,-0.53,0.14,-0.14,-0.26,-0.68,-0.67,-0.67
659,-0.51,0.13,-0.50,0.14,-0.14,-0.22,-0.65,-0.64,-0.64
665,-0.46,0.14,-0.46,0.15,-0.15,-0.19,-0.61,-0.61,-0.60
672,-0.42,0.15,-0.41,0.16,-0.16,-0.15,-0.57,-0.57,-0.57
679,-0.37,0.16,-0.37,0.16,-0.16,-0.12,-0.53,-0.54,-0.54
686,-0.33,0.17,-0.34,0.17,-0.17,-0.08,-0.50,-0.50,-0.50
692,-0.30,0.17,-0.31,0.16,-0.16,-0.05,-0.46,-0.47,-0.47
699,-0.28,0.16,-0.29,0.15,-0.15,-0.01,-0.43,-0.44,-0.44
706,-0.27,0.14,-0.28,0.13,-0.13,0.02,-0.40,-0.41,-0.41
713,-0.27,0.11,-0.28,0.10,-0.10,0.06,-0.37,-0.39,-0.39
721,-0.29,0.07,-0.30,0.06,-0.06,0.09,-0.35,-0.36,-0.36
728,-0.32,0.02,-0.32,0.02,-0.02,0.12,-0.34,-0.34,-0.34
735,-0.35,-0.03,-0.35,-0.03,0.03,0.15,-0.32,-0.32,-0.32
742,-0.38,-0.08,-0.38,-0.08,0.08,0.17,-0.30,-0.30,-0.30
750,-0.42,-0.13,-0.42,-0.13,0.13,0.20,-0.29,-0.29,-0.28
757,-0.45,-0.18,-0.45,-0.18,0.18,0.22,-0.27,-0.27,-0.27
765,-0.48,-0.22,-0.48,-0.22,0.22,0.24,-0.26,-0.26,-0.26
773,-0.50,-0.26,-0.50,-0.26,0.26,0.25,-0.25,-0.25,-0.25
780,-0.52,-0.28,-0.51,-0.28,0.28,0.26,-0.24,-0.24,-0.24
788,-0.52,-0.30,-0.51,-0.28,0.28,0.26,-0.24,-0.23,-0.23
796,-0.53,-0.31,-0.49,-0.27,0.27,0.26,-0.25,-0.22,-0.22
804,-0.52,-0.31,-0.47,-0.25,0.25,0.26,-0.27,-0.21,-0.21
812,-0.52,-0.32,-0.43,-0.22,0.22,0.25,-0.30,-0.20,-0.20
820,-0.29,-0.09,-0.39,-0.19,0.19,0.24,-0.10,-0.20,-0.20
828,-0.28,-0.09,-0.34,-0.15,0.15,0.23,-0.13,-0.19,-0.19
837,-0.28,-0.09,-0.31,-0.12,0.12,0.21,-0.15,-0.18,-0.18
845,-0.27,-0.09,-0.27,-0.10,0.10,0.19,-0.17,-0.18,-0.18
853,-0.25,-0.08,-0.25,-0.08,0.08,0.17,-0.17,-0.17,-0.17
862,-0.24,-0.08,-0.23,-0.07,0.07,0.15,-0.17,-0.16,-0.16
871,-0.23,-0.08,-0.23,-0.07,0.07,0.13,-0.16,-0.15,-0.15
879,-0.22,-0.08,-0.23,-0.08,0.08,0.10,-0.15,-0.15,-0.15
888,-0.22,-0.08,-0.23,-0.09,0.09,0.08,-0.13,-0.14,-0.14
897,-0.22,-0.09,-0.23,-0.10,0.10,0.06,-0.12,-0.13,-0.13
906,-0.22,-0.10,-0.23,-0.11,0.11,0.03,-0.11,-0.12,-0.12
915,-0.22,-0.11,-0.22,-0.11,0.11,0.01,-0.11,-0.11,-0.11
924,-0.22,-0.12,-0.21,-0.10,0.10,-0.01,-0.12,-0.10,-0.10
933,-0.23,-0.13,-0.19,-0.09,0.09,-0.04,-0.13,-0.09,-0.09
943,-0.23,-0.15,-0.16,-0.08,0.08,-0.06,-0.15,-0.08,-0.08
952,-0.17,-0.10,-0.13,-0.06,0.06,-0.08,-0.11,-0.07,-0.07
962,-0.01,0.05,-0.10,-0.04,0.04,-0.10,0.04,-0.05,-0.05
971,-0.01,0.03,-0.07,-0.03,0.03,-0.12,0.02,-0.04,-0.04
981,-0.01,0.02,-0.04,-0.02,0.02,-0.14,0.01,-0.02,-0.02
991,-0.01,0.00,-0.02,-0.01,0.01,-0.16,0.00,-0.01,-0.01
1001,0.00,-0.01,0.01,-0.01,0.01,-0.18,0.01,0.01,0.01
1011,0.01,-0.02,0.03,-0.00,0.00,-0.20,0.01,0.03,0.03
1021,0.02,-0.03,0.06,0.00,-0.00,-0.22,0.02,0.06,0.05
1031,0.04,-0.04,0.09,0.01,-0.01,-0.23,0.03,0.08,0.08
1041,0.05,-0.05,0.13,0.03,-0.03,-0.25,0.03,0.10,0.10
1052,0.25,0.12,0.18,0.04,-0.04,-0.27,0.21,0.13,0.13
1062,0.30,0.14,0.22,0.06,-0.06,-0.28,0.24,0.16,0.16
1073,0.31,0.12,0.28,0.08,-0.08,-0.30,0.22,0.19,0.19
1084,0.32,0.10,0.33,0.11,-0.11,-0.31,0.21,0.22,0.22
1094,0.33,0.07,0.38,0.13,-0.13,-0.33,0.20,0.25,0.25
1105,0.34,0.06,0.43,0.14,-0.14,-0.35,0.20,0.29,0.29
1116,0.50,0.18,0.48,0.16,-0.16,-0.36,0.34,0.32,0.32
1128,0.61,0.25,0.53,0.18,-0.18,-0.38,0.43,0.36,0.36
1139,0.62,0.23,0.58,0.19,-0.19,-0.39,0.43,0.39,0.39
1150,0.64,0.22,0.63,0.21,-0.21,-0.41,0.43,0.42,0.42
1162,0.65,0.20,0.68,0.22,-0.22,-0.43,0.43,0.46,0.46
1173,0.66,0.17,0.73,0.24,-0.24,-0.44,0.42,0.49,0.49
1185,0.79,0.27,0.78,0.26,-0.26,-0.46,0.53,0.52,0.52
1197,0.89,0.34,0.83,0.28,-0.28,-0.48,0.61,0.55,0.55
1209,0.89,0.32,0.88,0.31,-0.31,-0.50,0.58,0.57,0.57
1221,0.90,0.30,0.94,0.34,-0.34,-0.52,0.55,0.60,0.60
1233,0.94,0.32,1.00,0.38,-0.38,-0.54,0.55,0.62,0.62
1246,1.14,0.50,1.06,0.43,-0.43,-0.56,0.71,0.64,0.64
1258,1.15,0.50,1.13,0.47,-0.47,-0.58,0.68,0.65,0.65
1271,1.16,0.50,1.19,0.52,-0.52,-0.60,0.64,0.67,0.67
1283,1.17,0.50,1.25,0.57,-0.57,-0.62,0.60,0.68,0.68
1296,1.39,0.71,1.31,0.63,-0.63,-0.64,0.76,0.68,0.68
1309,1.42,0.73,1.36,0.68,-0.68,-0.67,0.74,0.69,0.69
1322,1.43,0.75,1.42,0.73,-0.73,-0.70,0.70,0.69,0.69
1335,1.45,0.76,1.48,0.79,-0.79,-0.72,0.65,0.68,0.68
1349,1.46,0.78,1.54,0.86,-0.86,-0.75,0.60,0.68,0.68
1362,1.61,0.94,1.60,0.93,-0.93,-0.78,0.69,0.67,0.67
1376,1.70,1.03,1.67,1.00,-1.00,-0.81,0.70,0.67,0.67
1390,1.70,1.05,1.75,1.09,-1.09,-0.85,0.61,0.66,0.66
1404,1.93,1.28,1.84,1.19,-1.19,-0.88,0.74,0.65,0.65
1418,1.93,1.29,1.93,1.29,-1.29,-0.92,0.63,0.64,0.64
1432,1.93,1.29,2.04,1.41,-1.41,-0.96,0.52,0.63,0.63
1446,2.05,1.43,2.15,1.52,-1.52,-1.00,0.53,0.63,0.63
1461,2.32,1.70,2.26,1.64,-1.64,-1.05,0.69,0.62,0.62
1475,2.38,1.77,2.36,1.75,-1.75,-1.09,0.63,0.62,0.62
1490,2.61,1.99,2.47,1.85,-1.85,-1.14,0.76,0.62,0.61
1505,2.61,1.99,2.56,1.95,-1.95,-1.20,0.66,0.62,0.62
1520,2.61,1.98,2.66,2.04,-2.04,-1.25,0.57,0.62,0.62
1535,2.71,2.08,2.75,2.12,-2.12,-1.31,0.59,0.63,0.63
1550,2.84,2.19,2.84,2.19,-2.19,-1.37,0.64,0.65,0.65
1566,2.85,2.18,2.94,2.27,-2.27,-1.44,0.58,0.67,0.67
1582,3.08,2.39,3.03,2.34,-2.34,-1.52,0.74,0.69,0.69
1597,3.12,2.40,3.14,2.42,-2.42,-1.59,0.70,0.72,0.72
1613,3.36,2.61,3.25,2.50,-2.50,-1.67,0.87,0.76,0.75
1629,3.39,2.59,3.37,2.58,-2.58,-1.76,0.81,0.80,0.79
1646,3.40,2.56,3.50,2.66,-2.66,-1.85,0.74,0.84,0.84
1662,3.56,2.67,3.64,2.74,-2.74,-1.95,0.82,0.89,0.89
1679,3.84,2.89,3.78,2.83,-2.83,-2.05,1.01,0.95,0.95
1696,3.90,2.89,3.93,2.92,-2.92,-2.16,0.98,1.01,1.01
1713,4.14,3.06,4.08,3.01,-3.01,-2.28,1.14,1.08,1.08
1730,4.22,3.07,4.24,3.09,-3.09,-2.40,1.13,1.15,1.15
1747,4.39,3.17,4.39,3.17,-3.17,-2.53,1.22,1.23,1.23
1764,4.51,3.21,4.55,3.24,-3.24,-2.66,1.27,1.31,1.31
1782,4.77,3.38,4.69,3.30,-3.30,-2.81,1.47,1.39,1.39
1800,4.83,3.35,4.84,3.36,-3.36,-2.96,1.47,1.48,1.48
1818,5.04,3.47,4.98,3.41,-3.41,-3.11,1.64,1.57,1.57
