frequency,raw,error,smoothed,error_smoothed,equalization,parametric_eq,equalized_raw,equalized_smoothed,target
20,-13.89,-14.41,-13.93,-14.45,6.00,4.89,-7.89,-7.93,0.52
21,-13.22,-13.74,-13.18,-13.71,6.00,5.23,-7.22,-7.18,0.52
22,-12.52,-13.04,-12.48,-13.00,6.00,5.54,-6.52,-6.48,0.52
23,-11.80,-12.33,-11.81,-12.33,6.00,5.83,-5.80,-5.81,0.53
24,-11.14,-11.67,-11.17,-11.70,6.00,6.07,-5.14,-5.17,0.53
25,-10.52,-11.05,-10.58,-11.11,6.00,6.26,-4.52,-4.58,0.53
26,-9.94,-10.47,-10.02,-10.55,6.00,6.41,-3.94,-4.02,0.53
27,-9.41,-9.94,-9.49,-10.02,6.00,6.50,-3.41,-3.49,0.53
28,-9.13,-9.66,-8.98,-9.51,6.00,6.53,-3.13,-2.98,0.53
29,-8.66,-9.19,-8.49,-9.03,6.00,6.52,-2.66,-2.49,0.53
30,-8.00,-8.53,-8.02,-8.55,6.00,6.45,-2.00,-2.02,0.53
31,-7.59,-8.12,-7.56,-8.09,6.00,6.33,-1.59,-1.56,0.53
32,-7.07,-7.60,-7.11,-7.64,6.00,6.18,-1.07,-1.11,0.53
33,-6.63,-7.16,-6.69,-7.22,6.00,6.00,-0.63,-0.69,0.53
34,-6.15,-6.68,-6.28,-6.80,6.00,5.78,-0.15,-0.28,0.53
35,-5.99,-6.52,-5.89,-6.41,5.92,5.55,-0.07,0.04,0.52
36,-5.48,-6.00,-5.52,-6.04,5.77,5.31,0.29,0.25,0.52
37,-5.21,-5.73,-5.16,-5.68,5.54,5.05,0.32,0.37,0.51
38,-4.74,-5.25,-4.82,-5.33,5.27,4.79,0.53,0.44,0.51
39,-4.56,-5.06,-4.49,-5.00,4.98,4.52,0.42,0.48,0.50
40,-4.30,-4.79,-4.17,-4.67,4.67,4.26,0.37,0.49,0.49
41,-3.88,-4.36,-3.86,-4.35,4.35,3.99,0.47,0.48,0.48
42,-3.47,-3.95,-3.56,-4.03,4.03,3.73,0.56,0.47,0.47
43,-3.19,-3.65,-3.26,-3.73,3.73,3.47,0.54,0.46,0.46
44,-2.96,-3.41,-2.98,-3.43,3.43,3.22,0.47,0.45,0.45
45,-2.74,-3.17,-2.71,-3.15,3.15,2.97,0.41,0.44,0.44
46,-2.44,-2.86,-2.45,-2.87,2.87,2.73,0.43,0.42,0.42
47,-2.28,-2.68,-2.20,-2.60,2.60,2.49,0.32,0.40,0.40
48,-2.01,-2.39,-1.96,-2.34,2.34,2.26,0.34,0.39,0.39
49,-1.69,-2.06,-1.73,-2.09,2.09,2.03,0.40,0.37,0.37
50,-1.37,-1.71,-1.50,-1.84,1.84,1.81,0.48,0.35,0.35
51,-1.32,-1.65,-1.28,-1.60,1.60,1.60,0.28,0.33,0.33
52,-1.04,-1.34,-1.06,-1.36,1.36,1.39,0.32,0.30,0.30
53,-0.91,-1.19,-0.85,-1.13,1.13,1.19,0.21,0.28,0.28
54,-0.68,-0.94,-0.64,-0.89,0.89,1.00,0.21,0.26,0.26
55,-0.46,-0.69,-0.43,-0.67,0.67,0.81,0.21,0.23,0.23
56,-0.23,-0.43,-0.24,-0.44,0.44,0.62,0.21,0.21,0.21
57,-0.00,-0.18,-0.05,-0.22,0.22,0.44,0.22,0.18,0.18
58,0.23,0.08,0.14,-0.02,0.02,0.27,0.24,0.15,0.15
59,0.23,0.10,0.31,0.18,-0.18,0.10,0.05,0.12,0.12
60,0.45,0.35,0.46,0.37,-0.37,-0.07,0.08,0.10,0.10
61,0.68,0.62,0.61,0.54,-0.54,-0.23,0.14,0.07,0.07
62,0.68,0.64,0.75,0.71,-0.71,-0.39,-0.03,0.04,0.04
63,0.91,0.90,0.88,0.87,-0.87,-0.54,0.05,0.01,0.01
64,1.01,1.03,1.00,1.02,-1.02,-0.69,-0.01,-0.02,-0.02
65,1.14,1.19,1.12,1.16,-1.16,-0.83,-0.02,-0.05,-0.05
66,1.14,1.22,1.23,1.31,-1.31,-0.98,-0.17,-0.08,-0.08
67,1.37,1.47,1.34,1.45,-1.45,-1.11,-0.08,-0.11,-0.11
68,1.47,1.60,1.45,1.59,-1.59,-1.25,-0.13,-0.14,-0.14
69,1.60,1.76,1.56,1.73,-1.73,-1.38,-0.14,-0.17,-0.17
70,1.60,1.79,1.68,1.87,-1.87,-1.50,-0.28,-0.20,-0.20
71,1.82,2.05,1.78,2.01,-2.01,-1.63,-0.19,-0.23,-0.23
72,1.83,2.09,1.89,2.14,-2.14,-1.75,-0.31,-0.26,-0.26
73,2.05,2.34,1.99,2.27,-2.27,-1.87,-0.22,-0.28,-0.29
74,2.05,2.37,2.08,2.40,-2.40,-1.98,-0.35,-0.31,-0.31
75,2.22,2.57,2.17,2.51,-2.51,-2.09,-0.29,-0.34,-0.34
76,2.28,2.65,2.25,2.62,-2.62,-2.20,-0.34,-0.37,-0.37
77,2.28,2.68,2.32,2.72,-2.72,-2.31,-0.44,-0.40,-0.40
78,2.34,2.77,2.38,2.81,-2.81,-2.41,-0.47,-0.43,-0.43
79,2.51,2.97,2.44,2.90,-2.90,-2.51,-0.40,-0.46,-0.46
80,2.51,3.00,2.50,2.99,-2.99,-2.61,-0.48,-0.49,-0.49
81,2.51,3.03,2.55,3.07,-3.07,-2.70,-0.56,-0.52,-0.52
82,2.51,3.05,2.60,3.15,-3.15,-2.79,-0.64,-0.55,-0.55
83,2.61,3.19,2.64,3.22,-3.22,-2.88,-0.60,-0.58,-0.58
84,2.74,3.34,2.67,3.27,-3.27,-2.97,-0.53,-0.60,-0.60
85,2.74,3.37,2.68,3.31,-3.31,-3.06,-0.57,-0.63,-0.63
86,2.74,3.40,2.67,3.33,-3.33,-3.14,-0.60,-0.66,-0.66
87,2.74,3.42,2.66,3.34,-3.34,-3.22,-0.61,-0.69,-0.69
88,2.69,3.40,2.63,3.34,-3.34,-3.30,-0.66,-0.71,-0.71
89,2.51,3.25,2.60,3.34,-3.34,-3.37,-0.84,-0.74,-0.74
90,2.51,3.27,2.58,3.34,-3.34,-3.45,-0.84,-0.77,-0.77
91,2.51,3.30,2.57,3.36,-3.36,-3.52,-0.85,-0.79,-0.79
92,2.51,3.32,2.57,3.38,-3.38,-3.59,-0.88,-0.82,-0.82
93,2.51,3.35,2.58,3.42,-3.42,-3.65,-0.92,-0.84,-0.84
94,2.70,3.56,2.61,3.47,-3.47,-3.72,-0.78,-0.86,-0.86
95,2.74,3.62,2.65,3.53,-3.53,-3.78,-0.80,-0.88,-0.89
96,2.74,3.64,2.69,3.60,-3.60,-3.84,-0.86,-0.91,-0.91
97,2.74,3.66,2.74,3.66,-3.66,-3.90,-0.93,-0.93,-0.93
98,2.74,3.68,2.78,3.73,-3.73,-3.96,-1.00,-0.95,-0.95
99,2.74,3.70,2.83,3.80,-3.80,-4.01,-1.06,-0.97,-0.97
100,2.96,3.94,2.87,3.86,-3.86,-4.06,-0.91,-0.99,-0.99
101,2.96,3.97,2.92,3.93,-3.93,-4.11,-0.97,-1.01,-1.00
102,2.96,3.98,2.96,4.00,-4.00,-4.16,-1.04,-1.04,-1.02
104,2.96,4.04,3.01,4.07,-4.07,-4.26,-1.10,-1.06,-1.07
105,2.96,4.05,3.05,4.13,-4.13,-4.30,-1.17,-1.08,-1.09
106,3.12,4.23,3.09,4.19,-4.19,-4.34,-1.07,-1.10,-1.11
107,3.19,4.31,3.13,4.25,-4.25,-4.38,-1.06,-1.12,-1.12
108,3.19,4.33,3.16,4.30,-4.30,-4.42,-1.11,-1.14,-1.14
109,3.19,4.34,3.18,4.33,-4.33,-4.46,-1.14,-1.15,-1.15
110,3.19,4.36,3.19,4.36,-4.36,-4.49,-1.17,-1.17,-1.17
111,3.19,4.38,3.20,4.39,-4.39,-4.52,-1.20,-1.19,-1.19
112,3.19,4.39,3.20,4.41,-4.41,-4.56,-1.21,-1.21,-1.20
113,3.19,4.41,3.20,4.42,-4.42,-4.59,-1.23,-1.22,-1.22
114,3.19,4.43,3.20,4.44,-4.44,-4.61,-1.25,-1.24,-1.24
115,3.19,4.45,3.20,4.46,-4.46,-4.64,-1.27,-1.27,-1.26
117,3.19,4.50,3.20,4.49,-4.49,-4.69,-1.30,-1.29,-1.30
118,3.19,4.51,3.20,4.51,-4.51,-4.72,-1.32,-1.31,-1.32
119,3.19,4.53,3.20,4.54,-4.54,-4.74,-1.35,-1.34,-1.34
120,3.19,4.55,3.20,4.57,-4.57,-4.76,-1.38,-1.37,-1.36
121,3.19,4.57,3.20,4.59,-4.59,-4.78,-1.40,-1.39,-1.38
123,3.19,4.62,3.19,4.60,-4.60,-4.81,-1.41,-1.42,-1.43
124,3.19,4.64,3.17,4.61,-4.61,-4.83,-1.42,-1.44,-1.45
125,3.19,4.66,3.14,4.61,-4.61,-4.84,-1.42,-1.47,-1.47
126,3.19,4.68,3.11,4.61,-4.61,-4.85,-1.41,-1.49,-1.48
128,3.08,4.61,3.08,4.60,-4.60,-4.88,-1.52,-1.52,-1.53
129,2.96,4.51,3.04,4.59,-4.59,-4.89,-1.62,-1.54,-1.55
130,2.96,4.53,3.01,4.58,-4.58,-4.89,-1.62,-1.57,-1.57
131,2.96,4.55,2.98,4.58,-4.58,-4.90,-1.61,-1.59,-1.58
133,2.96,4.59,2.97,4.58,-4.58,-4.91,-1.62,-1.62,-1.62
134,2.96,4.60,2.96,4.60,-4.60,-4.92,-1.63,-1.64,-1.64
135,2.96,4.62,2.95,4.62,-4.62,-4.92,-1.65,-1.66,-1.66
137,2.96,4.66,2.95,4.64,-4.64,-4.93,-1.68,-1.69,-1.69
138,2.96,4.67,2.96,4.67,-4.67,-4.93,-1.70,-1.71,-1.71
140,2.96,4.70,2.96,4.69,-4.69,-4.93,-1.73,-1.73,-1.74
141,2.96,4.72,2.97,4.72,-4.72,-4.93,-1.76,-1.75,-1.75
142,2.96,4.73,2.97,4.75,-4.75,-4.93,-1.78,-1.77,-1.77
144,2.96,4.76,2.97,4.77,-4.77,-4.92,-1.81,-1.79,-1.80
145,2.96,4.77,2.97,4.79,-4.79,-4.92,-1.82,-1.81,-1.81
147,2.96,4.80,2.97,4.80,-4.80,-4.91,-1.83,-1.83,-1.84
148,2.96,4.81,2.95,4.80,-4.80,-4.90,-1.84,-1.85,-1.85
150,2.96,4.83,2.93,4.80,-4.80,-4.89,-1.83,-1.87,-1.87
151,2.96,4.84,2.90,4.78,-4.78,-4.88,-1.82,-1.88,-1.88
153,2.94,4.84,2.87,4.77,-4.77,-4.86,-1.83,-1.90,-1.90
154,2.77,4.68,2.83,4.75,-4.75,-4.85,-1.98,-1.91,-1.91
156,2.74,4.67,2.80,4.73,-4.73,-4.83,-2.00,-1.93,-1.93
157,2.74,4.67,2.78,4.72,-4.72,-4.82,-1.98,-1.94,-1.94
159,2.74,4.69,2.76,4.71,-4.71,-4.80,-1.98,-1.96,-1.96
160,2.74,4.70,2.74,4.71,-4.71,-4.79,-1.98,-1.97,-1.97
162,2.74,4.72,2.73,4.72,-4.72,-4.77,-1.98,-1.98,-1.98
164,2.74,4.73,2.72,4.72,-4.72,-4.74,-1.98,-2.00,-2.00
165,2.74,4.74,2.71,4.72,-4.72,-4.73,-1.98,-2.01,-2.00
167,2.74,4.75,2.69,4.71,-4.71,-4.70,-1.97,-2.02,-2.02
169,2.74,4.77,2.66,4.69,-4.69,-4.67,-1.95,-2.03,-2.03
170,2.67,4.71,2.63,4.67,-4.67,-4.66,-1.99,-2.04,-2.04
172,2.51,4.56,2.59,4.64,-4.64,-4.62,-2.14,-2.05,-2.05
174,2.51,4.57,2.56,4.62,-4.62,-4.59,-2.11,-2.06,-2.06
175,2.51,4.57,2.54,4.61,-4.61,-4.58,-2.10,-2.07,-2.06
177,2.51,4.58,2.52,4.60,-4.60,-4.55,-2.09,-2.07,-2.07
179,2.51,4.59,2.51,4.59,-4.59,-4.51,-2.09,-2.08,-2.08
181,2.51,4.60,2.51,4.60,-4.60,-4.48,-2.09,-2.09,-2.09
183,2.51,4.60,2.50,4.60,-4.60,-4.45,-2.09,-2.09,-2.10
184,2.51,4.60,2.50,4.60,-4.60,-4.43,-2.09,-2.10,-2.10
186,2.51,4.61,2.48,4.59,-4.59,-4.39,-2.08,-2.10,-2.10
188,2.51,4.62,2.46,4.57,-4.57,-4.36,-2.06,-2.11,-2.11
190,2.51,4.62,2.43,4.55,-4.55,-4.32,-2.04,-2.11,-2.11
192,2.43,4.55,2.40,4.52,-4.52,-4.29,-2.09,-2.12,-2.12
194,2.28,4.40,2.37,4.49,-4.49,-4.25,-2.21,-2.12,-2.12
196,2.28,4.40,2.34,4.46,-4.46,-4.21,-2.18,-2.12,-2.12
198,2.28,4.40,2.32,4.44,-4.44,-4.18,-2.16,-2.12,-2.12
200,2.28,4.41,2.30,4.42,-4.42,-4.14,-2.14,-2.13,-2.13
202,2.28,4.41,2.28,4.40,-4.40,-4.11,-2.13,-2.13,-2.13
204,2.28,4.41,2.26,4.39,-4.39,-4.07,-2.11,-2.13,-2.13
206,2.28,4.41,2.24,4.37,-4.37,-4.03,-2.09,-2.13,-2.13
208,2.28,4.41,2.22,4.35,-4.35,-4.00,-2.07,-2.13,-2.13
210,2.28,4.41,2.19,4.32,-4.32,-3.96,-2.04,-2.13,-2.13
212,2.10,4.23,2.16,4.29,-4.29,-3.92,-2.19,-2.13,-2.13
214,2.05,4.18,2.13,4.26,-4.26,-3.89,-2.21,-2.13,-2.13
216,2.05,4.18,2.10,4.23,-4.23,-3.85,-2.18,-2.13,-2.12
218,2.05,4.17,2.07,4.20,-4.20,-3.82,-2.15,-2.12,-2.12
221,2.05,4.18,2.05,4.17,-4.17,-3.76,-2.12,-2.12,-2.12
223,2.05,4.17,2.02,4.14,-4.14,-3.73,-2.09,-2.12,-2.12
225,2.05,4.17,2.00,4.12,-4.12,-3.69,-2.07,-2.12,-2.12
227,2.05,4.17,1.97,4.09,-4.09,-3.66,-2.03,-2.12,-2.12
229,1.89,4.01,1.93,4.05,-4.05,-3.62,-2.16,-2.12,-2.12
232,1.82,3.94,1.90,4.01,-4.01,-3.57,-2.19,-2.12,-2.12
234,1.82,3.94,1.86,3.97,-3.97,-3.54,-2.15,-2.11,-2.11
236,1.82,3.93,1.82,3.93,-3.93,-3.50,-2.11,-2.11,-2.11
239,1.82,3.93,1.78,3.88,-3.88,-3.45,-2.06,-2.11,-2.11
241,1.82,3.93,1.73,3.84,-3.84,-3.42,-2.01,-2.11,-2.11
244,1.60,3.70,1.69,3.79,-3.79,-3.37,-2.19,-2.10,-2.10
246,1.60,3.70,1.64,3.74,-3.74,-3.34,-2.15,-2.10,-2.10
248,1.60,3.69,1.59,3.69,-3.69,-3.30,-2.09,-2.10,-2.10
251,1.60,3.69,1.54,3.64,-3.64,-3.26,-2.04,-2.09,-2.09
253,1.55,3.64,1.49,3.58,-3.58,-3.22,-2.03,-2.09,-2.09
256,1.37,3.45,1.44,3.52,-3.52,-3.18,-2.15,-2.09,-2.09
259,1.37,3.45,1.38,3.46,-3.46,-3.13,-2.10,-2.08,-2.08
261,1.37,3.44,1.33,3.41,-3.41,-3.10,-2.04,-2.08,-2.08
264,1.34,3.41,1.28,3.35,-3.35,-3.06,-2.01,-2.07,-2.07
266,1.14,3.21,1.24,3.30,-3.30,-3.03,-2.16,-2.07,-2.07
269,1.14,3.20,1.19,3.25,-3.25,-2.98,-2.11,-2.06,-2.06
272,1.14,3.19,1.15,3.20,-3.20,-2.94,-2.06,-2.05,-2.05
274,1.14,3.18,1.11,3.15,-3.15,-2.91,-2.01,-2.05,-2.04
277,1.14,3.18,1.07,3.11,-3.11,-2.87,-1.97,-2.04,-2.04
280,1.14,3.17,1.03,3.06,-3.06,-2.83,-1.92,-2.03,-2.03
283,0.91,2.93,1.00,3.01,-3.01,-2.79,-2.10,-2.02,-2.02
286,0.91,2.92,0.97,2.97,-2.97,-2.75,-2.06,-2.01,-2.01
288,0.91,2.91,0.94,2.94,-2.94,-2.72,-2.03,-1.99,-1.99
291,0.91,2.89,0.93,2.91,-2.91,-2.68,-2.00,-1.98,-1.98
294,0.91,2.88,0.92,2.89,-2.89,-2.64,-1.97,-1.97,-1.97
297,0.91,2.87,0.91,2.87,-2.87,-2.61,-1.96,-1.95,-1.95
300,0.91,2.85,0.91,2.85,-2.85,-2.57,-1.94,-1.94,-1.94
303,0.91,2.83,0.91,2.83,-2.83,-2.53,-1.92,-1.92,-1.92
306,0.91,2.82,0.89,2.80,-2.80,-2.50,-1.89,-1.91,-1.91
309,0.91,2.80,0.88,2.76,-2.76,-2.46,-1.85,-1.89,-1.89
312,0.91,2.78,0.85,2.72,-2.72,-2.43,-1.81,-1.87,-1.87
316,0.91,2.76,0.82,2.67,-2.67,-2.38,-1.76,-1.85,-1.85
319,0.69,2.52,0.79,2.62,-2.62,-2.35,-1.93,-1.83,-1.83
322,0.68,2.50,0.75,2.57,-2.57,-2.31,-1.88,-1.81,-1.81
325,0.68,2.48,0.73,2.52,-2.52,-2.28,-1.84,-1.79,-1.79
328,0.68,2.45,0.71,2.48,-2.48,-2.25,-1.79,-1.77,-1.77
332,0.68,2.43,0.69,2.44,-2.44,-2.21,-1.76,-1.75,-1.75
335,0.68,2.41,0.67,2.40,-2.40,-2.18,-1.72,-1.73,-1.73
338,0.68,2.39,0.65,2.36,-2.36,-2.15,-1.68,-1.71,-1.71
342,0.68,2.37,0.63,2.32,-2.32,-2.11,-1.64,-1.69,-1.69
345,0.68,2.35,0.60,2.27,-2.27,-2.08,-1.59,-1.67,-1.67
349,0.60,2.25,0.57,2.22,-2.22,-2.04,-1.62,-1.65,-1.65
352,0.46,2.09,0.54,2.17,-2.17,-2.01,-1.72,-1.63,-1.63
356,0.46,2.07,0.51,2.13,-2.13,-1.98,-1.67,-1.61,-1.61
359,0.46,2.05,0.49,2.09,-2.09,-1.95,-1.63,-1.59,-1.59
363,0.46,2.03,0.47,2.05,-2.05,-1.91,-1.59,-1.58,-1.58
366,0.46,2.02,0.46,2.02,-2.02,-1.89,-1.57,-1.56,-1.56
370,0.46,2.00,0.45,1.99,-1.99,-1.85,-1.54,-1.54,-1.54
374,0.46,1.99,0.44,1.96,-1.96,-1.82,-1.51,-1.53,-1.53
377,0.46,1.97,0.42,1.93,-1.93,-1.80,-1.48,-1.51,-1.51
381,0.46,1.96,0.39,1.89,-1.89,-1.76,-1.44,-1.50,-1.50
385,0.46,1.94,0.36,1.85,-1.85,-1.73,-1.39,-1.49,-1.49
389,0.25,1.73,0.33,1.81,-1.81,-1.70,-1.55,-1.48,-1.48
393,0.23,1.69,0.30,1.76,-1.76,-1.67,-1.54,-1.46,-1.46
397,0.23,1.68,0.27,1.73,-1.73,-1.64,-1.50,-1.45,-1.45
401,0.23,1.67,0.25,1.69,-1.69,-1.61,-1.47,-1.44,-1.44
405,0.23,1.66,0.24,1.67,-1.67,-1.58,-1.44,-1.43,-1.43
409,0.23,1.65,0.22,1.64,-1.64,-1.56,-1.41,-1.42,-1.42
413,0.23,1.64,0.20,1.62,-1.62,-1.53,-1.39,-1.41,-1.41
417,0.23,1.63,0.18,1.59,-1.59,-1.50,-1.36,-1.40,-1.40
421,0.23,1.62,0.16,1.55,-1.55,-1.47,-1.33,-1.40,-1.40
425,0.20,1.59,0.13,1.52,-1.52,-1.45,-1.31,-1.39,-1.39
430,-0.00,1.38,0.10,1.48,-1.48,-1.42,-1.48,-1.38,-1.38
434,0.00,1.37,0.07,1.44,-1.44,-1.39,-1.44,-1.37,-1.37
438,-0.00,1.36,0.04,1.40,-1.40,-1.37,-1.40,-1.36,-1.36
443,-0.00,1.35,0.02,1.37,-1.37,-1.33,-1.37,-1.35,-1.35
447,-0.00,1.34,-0.01,1.34,-1.34,-1.31,-1.34,-1.34,-1.34
451,0.00,1.33,-0.03,1.30,-1.30,-1.29,-1.30,-1.33,-1.33
456,-0.00,1.32,-0.06,1.27,-1.27,-1.26,-1.27,-1.32,-1.32
460,-0.00,1.31,-0.09,1.23,-1.23,-1.23,-1.23,-1.31,-1.31
465,-0.12,1.19,-0.12,1.18,-1.18,-1.21,-1.30,-1.30,-1.30
470,-0.23,1.06,-0.15,1.14,-1.14,-1.18,-1.37,-1.29,-1.29
474,-0.23,1.05,-0.18,1.10,-1.10,-1.16,-1.33,-1.28,-1.28
479,-0.23,1.04,-0.21,1.06,-1.06,-1.13,-1.29,-1.27,-1.27
484,-0.23,1.03,-0.22,1.03,-1.03,-1.10,-1.26,-1.25,-1.25
489,-0.23,1.01,-0.23,1.01,-1.01,-1.07,-1.24,-1.24,-1.24
494,-0.23,1.00,-0.23,0.99,-0.99,-1.05,-1.22,-1.22,-1.22
499,-0.23,0.98,-0.23,0.98,-0.98,-1.02,-1.21,-1.21,-1.21
504,-0.23,0.96,-0.23,0.96,-0.96,-1.00,-1.19,-1.19,-1.19
509,-0.23,0.94,-0.23,0.95,-0.95,-0.97,-1.17,-1.17,-1.17
514,-0.23,0.93,-0.24,0.92,-0.92,-0.95,-1.15,-1.15,-1.15
519,-0.23,0.91,-0.25,0.88,-0.88,-0.92,-1.11,-1.13,-1.13
524,-0.23,0.89,-0.28,0.83,-0.83,-0.89,-1.06,-1.11,-1.11
529,-0.23,0.86,-0.31,0.78,-0.78,-0.87,-1.01,-1.09,-1.09
535,-0.39,0.68,-0.35,0.72,-0.72,-0.84,-1.11,-1.07,-1.07
540,-0.46,0.59,-0.38,0.66,-0.66,-0.81,-1.12,-1.05,-1.05
545,-0.46,0.57,-0.41,0.61,-0.61,-0.79,-1.07,-1.02,-1.02
551,-0.46,0.54,-0.44,0.56,-0.56,-0.76,-1.02,-1.00,-1.00
556,-0.46,0.52,-0.46,0.52,-0.52,-0.73,-0.98,-0.98,-0.98
562,-0.46,0.50,-0.46,0.49,-0.49,-0.70,-0.94,-0.95,-0.95
568,-0.46,0.47,-0.47,0.46,-0.46,-0.67,-0.92,-0.93,-0.93
573,-0.46,0.45,-0.47,0.44,-0.44,-0.65,-0.89,-0.90,-0.90
579,-0.46,0.42,-0.46,0.42,-0.42,-0.62,-0.87,-0.88,-0.88
585,-0.46,0.40,-0.46,0.39,-0.39,-0.59,-0.85,-0.85,-0.85
591,-0.46,0.37,-0.46,0.37,-0.37,-0.56,-0.83,-0.83,-0.83
596,-0.46,0.35,-0.46,0.35,-0.35,-0.53,-0.81,-0.80,-0.80
602,-0.46,0.33,-0.45,0.33,-0.33,-0.50,-0.78,-0.78,-0.78
608,-0.46,0.30,-0.45,0.30,-0.30,-0.47,-0.76,-0.76,-0.76
615,-0.46,0.28,-0.46,0.28,-0.28,-0.43,-0.74,-0.74,-0.74
621,-0.46,0.26,-0.46,0.26,-0.26,-0.40,-0.71,-0.71,-0.71
627,-0.46,0.24,-0.46,0.24,-0.24,-0.36,-0.69,-0.69,-0.69
633,-0.46,0.21,-0.46,0.21,-0.21,-0.33,-0.67,-0.67,-0.67
639,-0.46,0.19,-0.46,0.19,-0.19,-0.30,-0.65,-0.65,-0.65
646,-0.46,0.17,-0.46,0.17,-0.17,-0.26,-0.63,-0.63,-0.63
652,-0.46,0.15,-0.46,0.15,-0.15,-0.23,-0.61,-0.61,-0.61
659,-0.46,0.13,-0.46,0.13,-0.13,-0.19,-0.59,-0.59,-0.59
665,-0.46,0.11,-0.46,0.11,-0.11,-0.15,-0.57,-0.57,-0.57
672,-0.46,0.10,-0.46,0.10,-0.10,-0.11,-0.55,-0.55,-0.55
679,-0.46,0.08,-0.46,0.08,-0.08,-0.08,-0.53,-0.53,-0.53
686,-0.46,0.06,-0.46,0.06,-0.06,-0.04,-0.51,-0.51,-0.51
692,-0.46,0.04,-0.46,0.04,-0.04,-0.01,-0.49,-0.49,-0.49
699,-0.46,0.02,-0.46,0.02,-0.02,0.03,-0.47,-0.47,-0.47
706,-0.46,-0.00,-0.46,-0.00,0.00,0.06,-0.45,-0.45,-0.45
713,-0.46,-0.02,-0.46,-0.02,0.02,0.10,-0.43,-0.43,-0.43
721,-0.46,-0.04,-0.45,-0.04,0.04,0.13,-0.41,-0.41,-0.41
728,-0.46,-0.06,-0.46,-0.06,0.06,0.16,-0.39,-0.39,-0.39
735,-0.46,-0.08,-0.46,-0.08,0.08,0.18,-0.37,-0.37,-0.37
742,-0.46,-0.10,-0.46,-0.11,0.11,0.20,-0.35,-0.35,-0.35
750,-0.46,-0.12,-0.46,-0.13,0.13,0.22,-0.33,-0.33,-0.33
757,-0.46,-0.14,-0.47,-0.15,0.15,0.24,-0.30,-0.31,-0.31
765,-0.46,-0.16,-0.47,-0.17,0.17,0.25,-0.28,-0.29,-0.29
773,-0.46,-0.18,-0.47,-0.19,0.19,0.26,-0.26,-0.27,-0.27
780,-0.46,-0.20,-0.46,-0.20,0.20,0.26,-0.25,-0.26,-0.26
788,-0.46,-0.22,-0.45,-0.21,0.21,0.26,-0.25,-0.24,-0.24
796,-0.46,-0.23,-0.42,-0.20,0.20,0.25,-0.25,-0.22,-0.22
804,-0.46,-0.25,-0.39,-0.19,0.19,0.25,-0.27,-0.21,-0.21
812,-0.46,-0.26,-0.36,-0.17,0.17,0.23,-0.29,-0.19,-0.19
820,-0.23,-0.05,-0.32,-0.14,0.14,0.22,-0.08,-0.18,-0.18
828,-0.23,-0.06,-0.29,-0.12,0.12,0.20,-0.11,-0.17,-0.17
837,-0.23,-0.07,-0.26,-0.10,0.10,0.19,-0.12,-0.16,-0.16
845,-0.23,-0.08,-0.24,-0.09,0.09,0.17,-0.14,-0.15,-0.14
853,-0.23,-0.09,-0.22,-0.09,0.09,0.15,-0.14,-0.14,-0.14
862,-0.23,-0.10,-0.22,-0.09,0.09,0.12,-0.14,-0.13,-0.13
871,-0.23,-0.11,-0.22,-0.10,0.10,0.10,-0.13,-0.12,-0.12
879,-0.23,-0.11,-0.23,-0.11,0.11,0.08,-0.12,-0.11,-0.11
888,-0.23,-0.12,-0.23,-0.12,0.12,0.05,-0.10,-0.11,-0.11
897,-0.23,-0.13,-0.24,-0.13,0.13,0.03,-0.09,-0.10,-0.10
906,-0.23,-0.13,-0.24,-0.14,0.14,0.01,-0.09,-0.10,-0.10
915,-0.23,-0.14,-0.23,-0.14,0.14,-0.01,-0.09,-0.09,-0.09
924,-0.23,-0.14,-0.21,-0.13,0.13,-0.04,-0.10,-0.08,-0.08
933,-0.23,-0.15,-0.19,-0.11,0.11,-0.06,-0.12,-0.08,-0.08
943,-0.23,-0.16,-0.16,-0.09,0.09,-0.08,-0.14,-0.07,-0.07
952,-0.17,-0.10,-0.12,-0.06,0.06,-0.10,-0.11,-0.06,-0.06
962,-0.00,0.06,-0.09,-0.04,0.04,-0.12,0.04,-0.06,-0.06
971,0.00,0.05,-0.06,-0.01,0.01,-0.14,0.01,-0.05,-0.05
981,-0.00,0.04,-0.04,0.00,-0.00,-0.16,-0.00,-0.04,-0.04
991,-0.00,0.03,-0.02,0.01,-0.01,-0.18,-0.01,-0.03,-0.03
1001,0.00,0.01,0.00,0.01,-0.01,-0.19,-0.01,-0.01,-0.01
1011,-0.00,0.00,0.02,0.02,-0.02,-0.21,-0.02,-0.00,-0.00
1021,-0.00,-0.01,0.03,0.02,-0.02,-0.23,-0.02,0.01,0.01
1031,-0.00,-0.03,0.06,0.03,-0.03,-0.24,-0.03,0.03,0.03
1041,-0.00,-0.05,0.08,0.04,-0.04,-0.26,-0.04,0.05,0.05
1052,0.18,0.12,0.12,0.05,-0.05,-0.28,0.13,0.07,0.06
1062,0.23,0.14,0.15,0.07,-0.07,-0.29,0.16,0.08,0.08
1073,0.23,0.12,0.19,0.09,-0.09,-0.31,0.14,0.11,0.10
1084,0.23,0.10,0.23,0.11,-0.11,-0.32,0.12,0.13,0.13
1094,0.23,0.08,0.27,0.12,-0.12,-0.34,0.10,0.15,0.15
1105,0.23,0.06,0.31,0.14,-0.14,-0.35,0.09,0.17,0.17
1116,0.37,0.18,0.35,0.15,-0.15,-0.37,0.22,0.19,0.19
1128,0.46,0.24,0.38,0.16,-0.16,-0.39,0.29,0.22,0.22
1139,0.46,0.22,0.42,0.18,-0.18,-0.40,0.28,0.24,0.24
1150,0.46,0.19,0.45,0.19,-0.19,-0.42,0.26,0.26,0.26
1162,0.46,0.17,0.49,0.21,-0.21,-0.43,0.25,0.28,0.29
1173,0.46,0.15,0.53,0.23,-0.23,-0.45,0.23,0.31,0.31
1185,0.58,0.26,0.58,0.25,-0.25,-0.47,0.33,0.33,0.33
1197,0.68,0.34,0.62,0.28,-0.28,-0.48,0.41,0.34,0.34
1209,0.68,0.32,0.67,0.31,-0.31,-0.50,0.37,0.36,0.36
1221,0.68,0.31,0.72,0.35,-0.35,-0.52,0.33,0.37,0.37
1233,0.72,0.33,0.78,0.39,-0.39,-0.54,0.33,0.39,0.39
1246,0.91,0.52,0.83,0.44,-0.44,-0.56,0.47,0.40,0.40
1258,0.91,0.51,0.89,0.48,-0.48,-0.58,0.43,0.40,0.40
1271,0.91,0.50,0.94,0.53,-0.53,-0.60,0.38,0.41,0.41
1283,0.91,0.50,0.99,0.58,-0.58,-0.62,0.33,0.41,0.41
1296,1.12,0.71,1.03,0.63,-0.63,-0.64,0.49,0.41,0.41
1309,1.14,0.73,1.08,0.67,-0.67,-0.67,0.47,0.41,0.41
1322,1.14,0.74,1.12,0.72,-0.72,-0.69,0.42,0.40,0.40
1335,1.14,0.75,1.17,0.78,-0.78,-0.72,0.36,0.39,0.39
1349,1.14,0.76,1.22,0.84,-0.84,-0.75,0.30,0.38,0.38
1362,1.29,0.91,1.28,0.90,-0.90,-0.78,0.38,0.37,0.37
1376,1.37,1.01,1.34,0.98,-0.98,-0.81,0.39,0.36,0.36
1390,1.37,1.02,1.42,1.07,-1.07,-0.84,0.30,0.35,0.35
1404,1.60,1.26,1.50,1.17,-1.17,-0.88,0.43,0.33,0.33
1418,1.60,1.28,1.60,1.28,-1.28,-0.91,0.32,0.32,0.32
1432,1.60,1.29,1.70,1.40,-1.40,-0.95,0.20,0.31,0.31
1446,1.72,1.43,1.81,1.52,-1.52,-0.99,0.20,0.29,0.29
1461,1.99,1.71,1.93,1.64,-1.64,-1.04,0.35,0.28,0.28
1475,2.05,1.78,2.04,1.76,-1.76,-1.08,0.29,0.27,0.27
1490,2.28,2.01,2.14,1.87,-1.87,-1.13,0.41,0.27,0.27
1505,2.28,2.02,2.24,1.98,-1.98,-1.18,0.30,0.26,0.26
1520,2.28,2.02,2.33,2.07,-2.07,-1.24,0.21,0.26,0.26
1535,2.38,2.12,2.42,2.15,-2.15,-1.30,0.23,0.26,0.26
1550,2.51,2.24,2.50,2.23,-2.23,-1.36,0.28,0.27,0.27
1566,2.51,2.23,2.59,2.30,-2.30,-1.43,0.20,0.28,0.28
1582,2.72,2.42,2.67,2.37,-2.37,-1.50,0.35,0.30,0.30
1597,2.74,2.42,2.76,2.44,-2.44,-1.57,0.30,0.32,0.32
1613,2.96,2.62,2.85,2.51,-2.51,-1.65,0.45,0.35,0.34
1629,2.96,2.59,2.96,2.58,-2.58,-1.74,0.38,0.38,0.38
1646,2.96,2.55,3.07,2.65,-2.65,-1.83,0.31,0.42,0.41
1662,3.11,2.65,3.18,2.72,-2.72,-1.93,0.38,0.46,0.46
1679,3.38,2.87,3.31,2.80,-2.80,-2.03,0.57,0.51,0.51
1696,3.42,2.86,3.44,2.88,-2.88,-2.15,0.54,0.56,0.56
1713,3.65,3.03,3.59,2.96,-2.96,-2.26,0.68,0.62,0.62
1730,3.71,3.02,3.73,3.05,-3.05,-2.38,0.66,0.69,0.69
1747,3.87,3.12,3.89,3.13,-3.13,-2.51,0.75,0.76,0.76
