frequency,raw,error,smoothed,error_smoothed,equalization,parametric_eq,fixed_band_eq,equalized_raw,equalized_smoothed,target
20.00,-15.18,-13.43,-15.18,-13.46,6.00,5.82,2.76,-9.18,-9.18,-1.74
20.20,-15.07,-13.41,-15.07,-13.42,6.00,5.83,2.84,-9.07,-9.07,-1.65
20.40,-14.96,-13.38,-14.95,-13.39,6.00,5.84,2.92,-8.96,-8.95,-1.57
20.61,-14.84,-13.34,-14.84,-13.35,6.00,5.85,3.00,-8.84,-8.84,-1.51
20.81,-14.73,-13.31,-14.73,-13.30,6.00,5.87,3.08,-8.73,-8.73,-1.41
21.02,-14.62,-13.28,-14.62,-13.26,6.00,5.88,3.17,-8.62,-8.62,-1.33
21.23,-14.51,-13.23,-14.51,-13.21,6.00,5.89,3.26,-8.51,-8.51,-1.27
21.44,-14.40,-13.18,-14.40,-13.16,6.00,5.90,3.35,-8.40,-8.40,-1.21
21.66,-14.29,-13.12,-14.29,-13.11,6.00,5.91,3.44,-8.29,-8.29,-1.17
21.87,-14.17,-13.05,-14.17,-13.05,6.00,5.92,3.54,-8.17,-8.17,-1.11
22.09,-14.06,-12.99,-14.06,-12.99,6.00,5.93,3.64,-8.06,-8.06,-1.07
22.31,-13.95,-12.93,-13.95,-12.93,6.00,5.94,3.74,-7.95,-7.95,-1.02
22.54,-13.84,-12.86,-13.84,-12.86,6.00,5.95,3.85,-7.84,-7.84,-0.98
22.76,-13.73,-12.79,-13.72,-12.79,6.00,5.96,3.95,-7.73,-7.72,-0.94
22.99,-13.62,-12.71,-13.61,-12.72,6.00,5.96,4.06,-7.62,-7.61,-0.91
23.22,-13.50,-12.63,-13.50,-12.64,6.00,5.97,4.18,-7.50,-7.50,-0.87
23.45,-13.39,-12.56,-13.38,-12.57,6.00,5.98,4.29,-7.39,-7.38,-0.83
23.69,-13.27,-12.48,-13.27,-12.49,6.00,5.99,4.41,-7.27,-7.27,-0.79
23.92,-13.16,-12.41,-13.16,-12.41,6.00,5.99,4.53,-7.16,-7.16,-0.75
24.16,-13.04,-12.34,-13.05,-12.34,6.00,6.00,4.65,-7.04,-7.05,-0.70
24.40,-12.93,-12.26,-12.93,-12.26,6.00,6.01,4.77,-6.93,-6.93,-0.67
24.65,-12.82,-12.18,-12.82,-12.18,6.00,6.02,4.90,-6.82,-6.82,-0.64
24.89,-12.71,-12.10,-12.71,-12.10,6.00,6.02,5.02,-6.71,-6.71,-0.61
25.14,-12.60,-12.03,-12.60,-12.02,6.00,6.03,5.15,-6.60,-6.60,-0.57
25.39,-12.49,-11.95,-12.49,-11.95,6.00,6.03,5.28,-6.49,-6.49,-0.54
25.65,-12.38,-11.88,-12.38,-11.87,6.00,6.04,5.41,-6.38,-6.38,-0.50
25.91,-12.27,-11.79,-12.27,-11.79,6.00,6.04,5.54,-6.27,-6.27,-0.48
26.16,-12.16,-11.70,-12.16,-11.71,6.00,6.05,5.67,-6.16,-6.16,-0.45
26.43,-12.05,-11.64,-12.05,-11.63,6.00,6.05,5.80,-6.05,-6.05,-0.41
26.69,-11.94,-11.55,-11.94,-11.55,6.00,6.06,5.93,-5.94,-5.94,-0.38
26.96,-11.83,-11.47,-11.83,-11.47,6.00,6.06,6.05,-5.83,-5.83,-0.36
27.23,-11.72,-11.40,-11.72,-11.39,6.00,6.06,6.18,-5.72,-5.72,-0.32
27.50,-11.61,-11.32,-11.61,-11.32,6.00,6.07,6.30,-5.61,-5.61,-0.29
27.77,-11.50,-11.23,-11.50,-11.24,6.00,6.07,6.42,-5.50,-5.50,-0.27
28.05,-11.39,-11.16,-11.39,-11.16,6.00,6.07,6.53,-5.39,-5.39,-0.23
28.33,-11.29,-11.08,-11.29,-11.08,6.00,6.07,6.64,-5.29,-5.29,-0.21
28.62,-11.18,-11.00,-11.18,-11.01,6.00,6.08,6.74,-5.18,-5.18,-0.18
28.90,-11.08,-10.94,-11.08,-10.94,6.00,6.08,6.84,-5.08,-5.08,-0.14
29.19,-10.97,-10.85,-10.97,-10.86,6.00,6.08,6.93,-4.97,-4.97,-0.12
29.48,-10.87,-10.80,-10.87,-10.79,6.00,6.08,7.01,-4.87,-4.87,-0.07
29.78,-10.77,-10.72,-10.77,-10.72,6.00,6.08,7.08,-4.77,-4.77,-0.05
30.08,-10.67,-10.65,-10.67,-10.64,6.00,6.08,7.15,-4.67,-4.67,-0.02
30.38,-10.57,-10.57,-10.57,-10.57,6.00,6.08,7.20,-4.57,-4.57,0.00
30.68,-10.48,-10.51,-10.48,-10.51,6.00,6.08,7.25,-4.48,-4.48,0.03
30.99,-10.38,-10.43,-10.38,-10.44,6.00,6.08,7.28,-4.38,-4.38,0.05
31.30,-10.29,-10.37,-10.29,-10.37,6.00,6.08,7.31,-4.29,-4.29,0.08
31.61,-10.20,-10.31,-10.19,-10.30,6.00,6.08,7.33,-4.20,-4.19,0.11
31.93,-10.10,-10.23,-10.10,-10.23,6.00,6.08,7.33,-4.10,-4.10,0.13
32.24,-10.01,-10.15,-10.01,-10.17,6.00,6.08,7.33,-4.01,-4.01,0.15
32.57,-9.92,-10.09,-9.92,-10.10,6.00,6.08,7.31,-3.92,-3.92,0.18
32.89,-9.83,-10.03,-9.83,-10.03,6.00,6.07,7.29,-3.83,-3.83,0.20
33.22,-9.74,-9.96,-9.74,-9.96,6.00,6.07,7.26,-3.74,-3.74,0.22
33.55,-9.66,-9.90,-9.65,-9.89,6.00,6.07,7.22,-3.66,-3.65,0.24
33.89,-9.57,-9.82,-9.57,-9.82,6.00,6.07,7.18,-3.57,-3.57,0.25
34.23,-9.48,-9.76,-9.48,-9.75,6.00,6.06,7.13,-3.48,-3.48,0.28
34.57,-9.40,-9.68,-9.40,-9.68,6.00,6.06,7.07,-3.40,-3.40,0.29
34.92,-9.31,-9.60,-9.31,-9.61,6.00,6.06,7.01,-3.31,-3.31,0.29
35.27,-9.23,-9.54,-9.23,-9.54,6.00,6.05,6.95,-3.23,-3.23,0.31
35.62,-9.15,-9.46,-9.15,-9.47,6.00,6.05,6.88,-3.15,-3.15,0.31
35.97,-9.07,-9.39,-9.07,-9.39,6.00,6.04,6.81,-3.07,-3.07,0.32
36.33,-8.99,-9.32,-8.99,-9.32,6.00,6.04,6.73,-2.99,-2.99,0.34
36.70,-8.91,-9.24,-8.91,-9.25,6.00,6.03,6.66,-2.91,-2.91,0.33
37.06,-8.84,-9.17,-8.84,-9.17,6.00,6.03,6.59,-2.84,-2.84,0.33
37.43,-8.77,-9.11,-8.76,-9.10,6.00,6.02,6.51,-2.77,-2.76,0.34
37.81,-8.70,-9.04,-8.69,-9.03,6.00,6.02,6.44,-2.70,-2.69,0.34
38.19,-8.62,-8.95,-8.62,-8.96,6.00,6.01,6.37,-2.62,-2.62,0.33
38.57,-8.55,-8.89,-8.55,-8.88,6.00,6.00,6.30,-2.55,-2.55,0.34
38.95,-8.48,-8.82,-8.48,-8.81,6.00,5.99,6.23,-2.48,-2.48,0.34
39.34,-8.41,-8.73,-8.41,-8.74,6.00,5.99,6.16,-2.41,-2.41,0.33
39.74,-8.34,-8.66,-8.34,-8.67,6.00,5.98,6.10,-2.34,-2.34,0.32
40.14,-8.28,-8.60,-8.28,-8.60,6.00,5.97,6.04,-2.28,-2.28,0.32
40.54,-8.21,-8.52,-8.21,-8.53,6.00,5.96,5.99,-2.21,-2.21,0.32
40.94,-8.15,-8.46,-8.15,-8.46,6.00,5.95,5.93,-2.15,-2.15,0.31
41.35,-8.09,-8.40,-8.08,-8.39,6.00,5.95,5.88,-2.09,-2.08,0.31
41.76,-8.02,-8.32,-8.02,-8.32,6.00,5.94,5.84,-2.02,-2.02,0.30
42.18,-7.96,-8.26,-7.96,-8.25,6.00,5.93,5.79,-1.96,-1.96,0.30
42.60,-7.90,-8.18,-7.90,-8.19,6.00,5.92,5.76,-1.90,-1.90,0.29
43.03,-7.85,-8.14,-7.84,-8.12,6.00,5.91,5.72,-1.85,-1.84,0.29
43.46,-7.79,-8.07,-7.78,-8.05,6.00,5.90,5.69,-1.79,-1.78,0.28
43.90,-7.72,-7.98,-7.73,-7.99,6.00,5.89,5.67,-1.72,-1.73,0.26
44.33,-7.67,-7.92,-7.67,-7.93,6.00,5.87,5.65,-1.67,-1.67,0.25
44.78,-7.62,-7.86,-7.62,-7.87,6.00,5.86,5.63,-1.62,-1.62,0.24
45.23,-7.56,-7.79,-7.57,-7.81,6.00,5.85,5.62,-1.56,-1.57,0.23
45.68,-7.52,-7.74,-7.52,-7.75,6.00,5.84,5.61,-1.52,-1.52,0.22
46.13,-7.47,-7.69,-7.46,-7.69,6.00,5.83,5.60,-1.47,-1.46,0.22
46.60,-7.41,-7.63,-7.41,-7.63,6.00,5.81,5.60,-1.41,-1.41,0.22
47.06,-7.36,-7.57,-7.37,-7.58,6.00,5.80,5.60,-1.36,-1.37,0.22
47.53,-7.32,-7.53,-7.32,-7.52,6.00,5.79,5.61,-1.32,-1.32,0.21
48.01,-7.28,-7.49,-7.27,-7.47,6.00,5.77,5.62,-1.28,-1.27,0.21
48.49,-7.23,-7.44,-7.22,-7.42,6.00,5.76,5.64,-1.23,-1.22,0.21
48.97,-7.18,-7.38,-7.18,-7.38,6.00,5.75,5.66,-1.18,-1.18,0.20
49.46,-7.13,-7.31,-7.13,-7.33,6.00,5.73,5.68,-1.13,-1.13,0.18
49.96,-7.08,-7.25,-7.08,-7.28,6.00,5.72,5.70,-1.08,-1.08,0.18
50.46,-7.03,-7.22,-7.03,-7.23,6.00,5.70,5.73,-1.03,-1.03,0.19
50.96,-6.98,-7.18,-6.99,-7.18,6.00,5.68,5.76,-0.98,-0.99,0.20
51.47,-6.94,-7.13,-6.94,-7.13,6.00,5.67,5.79,-0.94,-0.94,0.19
51.99,-6.90,-7.09,-6.89,-7.09,6.00,5.65,5.82,-0.90,-0.89,0.19
52.51,-6.85,-7.05,-6.84,-7.04,6.00,5.64,5.85,-0.85,-0.84,0.21
53.03,-6.80,-7.00,-6.79,-6.99,6.00,5.62,5.89,-0.80,-0.79,0.21
53.56,-6.74,-6.95,-6.74,-6.94,6.00,5.60,5.92,-0.74,-0.74,0.21
54.10,-6.68,-6.89,-6.69,-6.88,6.00,5.58,5.96,-0.68,-0.69,0.21
54.64,-6.63,-6.83,-6.64,-6.83,6.00,5.57,5.99,-0.63,-0.64,0.20
55.18,-6.58,-6.77,-6.58,-6.78,6.00,5.55,6.03,-0.58,-0.58,0.20
55.74,-6.53,-6.71,-6.53,-6.72,6.00,5.53,6.06,-0.53,-0.53,0.19
56.29,-6.48,-6.66,-6.48,-6.66,6.00,5.51,6.09,-0.48,-0.48,0.18
56.86,-6.43,-6.60,-6.42,-6.60,6.00,5.49,6.12,-0.43,-0.42,0.17
57.42,-6.38,-6.54,-6.37,-6.54,6.00,5.47,6.14,-0.38,-0.37,0.16
58.00,-6.32,-6.48,-6.31,-6.47,6.00,5.45,6.17,-0.32,-0.31,0.16
58.58,-6.26,-6.40,-6.26,-6.40,6.00,5.43,6.18,-0.26,-0.26,0.15
59.16,-6.21,-6.35,-6.21,-6.33,6.00,5.41,6.20,-0.21,-0.21,0.14
59.76,-6.15,-6.28,-6.15,-6.27,6.00,5.39,6.20,-0.15,-0.15,0.13
60.35,-6.10,-6.20,-6.10,-6.20,5.99,5.37,6.21,-0.11,-0.10,0.10
60.96,-6.05,-6.15,-6.04,-6.12,5.98,5.35,6.20,-0.07,-0.07,0.10
61.57,-5.99,-6.05,-5.99,-6.05,5.95,5.33,6.19,-0.04,-0.04,0.07
62.18,-5.93,-5.97,-5.93,-5.99,5.92,5.30,6.18,-0.01,-0.02,0.04
62.80,-5.87,-5.90,-5.88,-5.92,5.88,5.28,6.15,0.01,-0.00,0.03
63.43,-5.82,-5.83,-5.82,-5.85,5.83,5.26,6.13,0.01,0.00,0.01
64.07,-5.77,-5.77,-5.77,-5.78,5.78,5.24,6.09,0.01,0.01,0.00
64.71,-5.72,-5.71,-5.72,-5.72,5.72,5.21,6.05,0.00,0.00,-0.01
65.35,-5.67,-5.65,-5.66,-5.66,5.66,5.19,6.00,-0.01,-0.00,-0.01
66.01,-5.62,-5.61,-5.61,-5.60,5.60,5.17,5.95,-0.02,-0.01,-0.01
66.67,-5.57,-5.56,-5.56,-5.55,5.55,5.14,5.89,-0.02,-0.01,-0.01
67.33,-5.51,-5.50,-5.51,-5.49,5.49,5.12,5.83,-0.02,-0.01,-0.01
68.01,-5.46,-5.45,-5.46,-5.44,5.44,5.09,5.77,-0.02,-0.01,-0.01
68.69,-5.40,-5.39,-5.41,-5.40,5.40,5.07,5.70,-0.00,-0.01,-0.01
69.37,-5.35,-5.34,-5.36,-5.35,5.35,5.04,5.62,0.00,-0.01,-0.00
70.07,-5.30,-5.29,-5.31,-5.30,5.30,5.01,5.54,0.00,-0.00,-0.01
70.77,-5.25,-5.26,-5.26,-5.26,5.26,4.99,5.46,0.01,-0.00,0.01
71.48,-5.21,-5.22,-5.21,-5.21,5.21,4.96,5.38,-0.00,0.00,0.01
72.19,-5.17,-5.17,-5.16,-5.16,5.16,4.93,5.30,-0.01,0.00,0.00
72.91,-5.13,-5.14,-5.11,-5.12,5.12,4.91,5.22,-0.01,0.00,0.01
73.64,-5.07,-5.07,-5.07,-5.07,5.07,4.88,5.13,0.00,0.00,0.01
74.38,-5.03,-5.04,-5.03,-5.03,5.03,4.85,5.05,0.00,0.00,0.01
75.12,-4.98,-4.98,-4.98,-4.99,4.99,4.82,4.96,0.01,0.01,0.00
75.87,-4.94,-4.95,-4.94,-4.95,4.95,4.80,4.88,0.01,0.01,0.01
76.63,-4.89,-4.90,-4.90,-4.91,4.91,4.77,4.79,0.02,0.01,0.01
77.40,-4.85,-4.85,-4.86,-4.87,4.87,4.74,4.71,0.02,0.01,0.00
78.17,-4.82,-4.81,-4.82,-4.83,4.83,4.71,4.63,0.01,0.01,-0.01
78.95,-4.79,-4.80,-4.78,-4.80,4.80,4.68,4.55,0.01,0.01,0.02
79.74,-4.76,-4.77,-4.75,-4.76,4.76,4.65,4.48,0.01,0.02,0.02
80.54,-4.72,-4.73,-4.71,-4.73,4.73,4.62,4.40,0.01,0.02,0.02
81.35,-4.68,-4.70,-4.67,-4.71,4.71,4.59,4.33,0.03,0.03,0.03
82.16,-4.64,-4.67,-4.64,-4.68,4.68,4.56,4.26,0.04,0.04,0.03
82.98,-4.60,-4.65,-4.60,-4.66,4.66,4.53,4.19,0.06,0.05,0.05
83.81,-4.57,-4.63,-4.57,-4.64,4.64,4.49,4.13,0.07,0.07,0.06
84.65,-4.53,-4.60,-4.53,-4.61,4.61,4.46,4.07,0.08,0.08,0.07
85.50,-4.50,-4.59,-4.50,-4.59,4.59,4.43,4.01,0.09,0.09,0.09
86.35,-4.46,-4.57,-4.46,-4.57,4.57,4.40,3.95,0.11,0.11,0.11
87.22,-4.42,-4.53,-4.42,-4.54,4.54,4.37,3.90,0.12,0.12,0.12
88.09,-4.39,-4.52,-4.38,-4.51,4.51,4.33,3.85,0.12,0.13,0.13
88.97,-4.35,-4.49,-4.34,-4.48,4.48,4.30,3.80,0.13,0.14,0.14
89.86,-4.32,-4.47,-4.31,-4.45,4.45,4.27,3.76,0.13,0.14,0.15
90.76,-4.28,-4.42,-4.27,-4.41,4.41,4.23,3.72,0.13,0.14,0.14
91.66,-4.24,-4.38,-4.23,-4.37,4.37,4.20,3.68,0.14,0.14,0.15
92.58,-4.19,-4.32,-4.20,-4.33,4.33,4.17,3.64,0.14,0.13,0.13
93.51,-4.14,-4.27,-4.16,-4.28,4.28,4.13,3.61,0.14,0.12,0.13
94.44,-4.11,-4.22,-4.12,-4.23,4.23,4.10,3.58,0.12,0.10,0.11
95.39,-4.08,-4.18,-4.08,-4.17,4.17,4.06,3.55,0.09,0.08,0.10
96.34,-4.05,-4.12,-4.04,-4.10,4.10,4.03,3.53,0.06,0.06,0.07
97.30,-4.02,-4.05,-4.01,-4.04,4.04,3.99,3.50,0.02,0.03,0.03
98.28,-3.99,-3.99,-3.98,-3.97,3.97,3.96,3.48,-0.01,-0.00,0.00
99.26,-3.96,-3.92,-3.94,-3.91,3.91,3.92,3.46,-0.05,-0.04,-0.04
100.25,-3.91,-3.83,-3.91,-3.84,3.84,3.89,3.45,-0.07,-0.07,-0.08
101.25,-3.87,-3.75,-3.88,-3.77,3.77,3.85,3.43,-0.10,-0.11,-0.12
102.27,-3.82,-3.66,-3.85,-3.70,3.70,3.82,3.42,-0.12,-0.15,-0.15
103.29,-3.80,-3.59,-3.82,-3.62,3.62,3.78,3.41,-0.17,-0.19,-0.20
104.32,-3.78,-3.54,-3.79,-3.55,3.55,3.74,3.40,-0.23,-0.24,-0.23
105.37,-3.76,-3.48,-3.75,-3.47,3.47,3.71,3.39,-0.29,-0.28,-0.28
106.42,-3.74,-3.42,-3.71,-3.39,3.39,3.67,3.38,-0.35,-0.32,-0.32
107.48,-3.72,-3.36,-3.68,-3.32,3.32,3.63,3.37,-0.40,-0.36,-0.36
108.56,-3.67,-3.27,-3.64,-3.24,3.24,3.60,3.36,-0.43,-0.40,-0.40
109.64,-3.62,-3.18,-3.61,-3.17,3.17,3.56,3.35,-0.45,-0.44,-0.44
110.74,-3.57,-3.10,-3.57,-3.10,3.10,3.52,3.34,-0.47,-0.47,-0.47
111.85,-3.53,-3.03,-3.54,-3.03,3.03,3.48,3.34,-0.50,-0.51,-0.50
112.97,-3.47,-2.92,-3.50,-2.96,2.96,3.44,3.33,-0.50,-0.54,-0.55
114.10,-3.44,-2.87,-3.47,-2.90,2.90,3.41,3.31,-0.54,-0.57,-0.57
115.24,-3.41,-2.80,-3.43,-2.84,2.84,3.37,3.30,-0.57,-0.60,-0.60
116.39,-3.40,-2.77,-3.40,-2.78,2.78,3.33,3.29,-0.62,-0.62,-0.63
117.55,-3.38,-2.73,-3.37,-2.73,2.73,3.29,3.27,-0.65,-0.64,-0.65
118.73,-3.35,-2.67,-3.34,-2.68,2.68,3.25,3.26,-0.67,-0.66,-0.68
119.92,-3.32,-2.63,-3.31,-2.63,2.63,3.21,3.24,-0.69,-0.68,-0.68
121.12,-3.29,-2.59,-3.29,-2.59,2.59,3.18,3.21,-0.70,-0.70,-0.70
122.33,-3.27,-2.55,-3.26,-2.55,2.55,3.14,3.19,-0.72,-0.71,-0.72
123.55,-3.24,-2.52,-3.24,-2.51,2.51,3.10,3.16,-0.73,-0.73,-0.72
124.79,-3.21,-2.47,-3.21,-2.47,2.47,3.06,3.13,-0.74,-0.74,-0.74
126.03,-3.18,-2.44,-3.18,-2.43,2.43,3.02,3.10,-0.75,-0.75,-0.74
127.29,-3.17,-2.41,-3.16,-2.39,2.39,2.98,3.06,-0.78,-0.76,-0.76
128.57,-3.15,-2.37,-3.13,-2.35,2.35,2.94,3.02,-0.80,-0.78,-0.78
129.85,-3.11,-2.32,-3.10,-2.31,2.31,2.90,2.98,-0.80,-0.79,-0.79
131.15,-3.07,-2.27,-3.07,-2.27,2.27,2.86,2.94,-0.80,-0.80,-0.80
132.46,-3.05,-2.23,-3.04,-2.23,2.23,2.82,2.89,-0.82,-0.82,-0.82
133.79,-3.02,-2.20,-3.02,-2.19,2.19,2.79,2.84,-0.83,-0.83,-0.82
135.12,-2.98,-2.13,-3.00,-2.15,2.15,2.75,2.79,-0.83,-0.85,-0.84
136.48,-2.97,-2.11,-2.98,-2.12,2.12,2.71,2.73,-0.85,-0.86,-0.86
137.84,-2.94,-2.06,-2.96,-2.08,2.08,2.67,2.68,-0.86,-0.88,-0.88
139.22,-2.93,-2.02,-2.95,-2.05,2.05,2.63,2.62,-0.88,-0.90,-0.91
140.61,-2.92,-1.99,-2.94,-2.02,2.02,2.59,2.56,-0.90,-0.92,-0.92
142.02,-2.92,-1.99,-2.92,-1.99,1.99,2.55,2.50,-0.93,-0.94,-0.93
143.44,-2.93,-1.98,-2.92,-1.96,1.96,2.51,2.44,-0.97,-0.96,-0.95
144.87,-2.93,-1.95,-2.91,-1.93,1.93,2.47,2.37,-0.99,-0.98,-0.98
146.32,-2.94,-1.93,-2.91,-1.91,1.91,2.43,2.31,-1.03,-1.00,-1.00
147.78,-2.93,-1.91,-2.91,-1.89,1.89,2.40,2.25,-1.04,-1.03,-1.02
149.26,-2.93,-1.88,-2.91,-1.86,1.86,2.36,2.18,-1.07,-1.05,-1.05
150.75,-2.92,-1.84,-2.92,-1.84,1.84,2.32,2.12,-1.08,-1.08,-1.08
152.26,-2.92,-1.81,-2.93,-1.82,1.82,2.28,2.05,-1.10,-1.11,-1.11
153.78,-2.92,-1.79,-2.93,-1.80,1.80,2.24,1.99,-1.12,-1.14,-1.13
155.32,-2.93,-1.77,-2.95,-1.78,1.78,2.21,1.92,-1.15,-1.17,-1.16
156.88,-2.95,-1.76,-2.96,-1.76,1.76,2.17,1.86,-1.19,-1.20,-1.19
158.44,-2.97,-1.74,-2.98,-1.75,1.75,2.13,1.79,-1.22,-1.23,-1.23
160.03,-3.01,-1.75,-3.00,-1.74,1.74,2.10,1.73,-1.27,-1.26,-1.26
161.63,-3.03,-1.73,-3.02,-1.73,1.73,2.06,1.67,-1.30,-1.29,-1.30
163.24,-3.04,-1.71,-3.05,-1.72,1.72,2.03,1.61,-1.31,-1.32,-1.33
164.88,-3.08,-1.72,-3.08,-1.72,1.72,1.99,1.55,-1.35,-1.36,-1.36
166.53,-3.11,-1.72,-3.12,-1.73,1.73,1.96,1.48,-1.38,-1.39,-1.39
168.19,-3.14,-1.72,-3.16,-1.74,1.74,1.93,1.42,-1.40,-1.42,-1.42
169.87,-3.20,-1.75,-3.20,-1.75,1.75,1.90,1.37,-1.45,-1.45,-1.45
171.57,-3.25,-1.77,-3.24,-1.76,1.76,1.87,1.31,-1.49,-1.48,-1.47
173.29,-3.29,-1.79,-3.28,-1.78,1.78,1.84,1.25,-1.51,-1.50,-1.50
175.02,-3.34,-1.81,-3.33,-1.80,1.80,1.81,1.19,-1.54,-1.53,-1.53
176.77,-3.38,-1.82,-3.38,-1.83,1.83,1.78,1.14,-1.55,-1.55,-1.55
178.54,-3.43,-1.85,-3.43,-1.86,1.86,1.76,1.08,-1.57,-1.57,-1.58
180.32,-3.47,-1.87,-3.48,-1.90,1.90,1.74,1.03,-1.57,-1.59,-1.59
182.13,-3.51,-1.90,-3.53,-1.93,1.93,1.72,0.98,-1.58,-1.61,-1.61
183.95,-3.58,-1.96,-3.58,-1.96,1.96,1.70,0.93,-1.61,-1.62,-1.62
185.79,-3.63,-1.99,-3.63,-2.00,2.00,1.68,0.87,-1.63,-1.63,-1.64
187.65,-3.68,-2.03,-3.68,-2.03,2.03,1.67,0.82,-1.65,-1.65,-1.65
189.52,-3.74,-2.09,-3.72,-2.06,2.06,1.67,0.77,-1.67,-1.66,-1.65
191.42,-3.78,-2.11,-3.76,-2.10,2.10,1.66,0.73,-1.68,-1.66,-1.67
193.33,-3.82,-2.15,-3.80,-2.12,2.12,1.66,0.68,-1.69,-1.67,-1.67
195.27,-3.85,-2.18,-3.83,-2.15,2.15,1.67,0.63,-1.70,-1.68,-1.67
197.22,-3.87,-2.19,-3.86,-2.17,2.17,1.68,0.58,-1.70,-1.69,-1.68
199.19,-3.88,-2.18,-3.88,-2.19,2.19,1.70,0.54,-1.69,-1.69,-1.70
201.18,-3.90,-2.20,-3.90,-2.21,2.21,1.72,0.49,-1.69,-1.70,-1.70
203.19,-3.92,-2.22,-3.92,-2.22,2.22,1.75,0.44,-1.70,-1.71,-1.70
205.23,-3.93,-2.22,-3.94,-2.22,2.22,1.79,0.40,-1.70,-1.71,-1.71
207.28,-3.93,-2.22,-3.95,-2.23,2.23,1.84,0.36,-1.70,-1.72,-1.71
209.35,-3.94,-2.22,-3.95,-2.23,2.23,1.89,0.31,-1.71,-1.73,-1.72
211.44,-3.94,-2.20,-3.96,-2.23,2.23,1.95,0.27,-1.71,-1.73,-1.74
213.56,-3.94,-2.20,-3.96,-2.22,2.22,2.01,0.23,-1.72,-1.74,-1.74
215.69,-3.94,-2.20,-3.95,-2.21,2.21,2.07,0.18,-1.73,-1.75,-1.74
217.85,-3.94,-2.18,-3.94,-2.19,2.19,2.13,0.14,-1.75,-1.75,-1.75
220.03,-3.93,-2.17,-3.93,-2.17,2.17,2.18,0.10,-1.76,-1.76,-1.76
222.23,-3.92,-2.14,-3.90,-2.14,2.14,2.22,0.06,-1.78,-1.77,-1.78
224.45,-3.89,-2.11,-3.87,-2.09,2.09,2.24,0.02,-1.80,-1.78,-1.78
226.70,-3.85,-2.06,-3.83,-2.04,2.04,2.24,-0.02,-1.81,-1.79,-1.78
228.96,-3.78,-1.99,-3.77,-1.97,1.97,2.20,-0.06,-1.81,-1.80,-1.79
231.25,-3.73,-1.93,-3.71,-1.89,1.89,2.14,-0.10,-1.83,-1.81,-1.80
233.57,-3.65,-1.84,-3.63,-1.81,1.81,2.03,-0.14,-1.84,-1.82,-1.81
235.90,-3.53,-1.70,-3.54,-1.71,1.71,1.90,-0.18,-1.82,-1.83,-1.83
238.26,-3.45,-1.60,-3.44,-1.60,1.60,1.74,-0.22,-1.85,-1.84,-1.84
240.64,-3.32,-1.46,-3.33,-1.47,1.47,1.56,-0.25,-1.85,-1.85,-1.86
243.05,-3.21,-1.34,-3.20,-1.34,1.34,1.37,-0.29,-1.87,-1.86,-1.87
245.48,-3.07,-1.20,-3.06,-1.20,1.20,1.16,-0.33,-1.87,-1.87,-1.87
247.93,-2.88,-1.00,-2.91,-1.04,1.04,0.95,-0.37,-1.84,-1.87,-1.88
250.41,-2.75,-0.86,-2.75,-0.88,0.88,0.75,-0.41,-1.87,-1.87,-1.89
252.92,-2.55,-0.67,-2.57,-0.70,0.70,0.54,-0.44,-1.85,-1.87,-1.88
255.45,-2.40,-0.53,-2.39,-0.52,0.52,0.34,-0.48,-1.88,-1.87,-1.87
258.00,-2.24,-0.37,-2.19,-0.33,0.33,0.14,-0.52,-1.91,-1.86,-1.86
260.58,-2.01,-0.15,-1.98,-0.13,0.13,-0.05,-0.56,-1.88,-1.85,-1.86
263.19,-1.81,0.03,-1.77,0.07,-0.07,-0.24,-0.59,-1.88,-1.84,-1.84
265.82,-1.53,0.31,-1.54,0.29,-0.29,-0.42,-0.63,-1.82,-1.83,-1.84
268.48,-1.31,0.50,-1.30,0.51,-0.51,-0.59,-0.67,-1.82,-1.81,-1.81
271.16,-1.09,0.70,-1.05,0.74,-0.74,-0.76,-0.71,-1.83,-1.80,-1.79
273.87,-0.78,1.00,-0.80,0.98,-0.98,-0.93,-0.75,-1.76,-1.78,-1.78
276.61,-0.53,1.22,-0.55,1.21,-1.21,-1.09,-0.79,-1.74,-1.76,-1.75
279.38,-0.29,1.45,-0.29,1.46,-1.46,-1.25,-0.83,-1.74,-1.75,-1.74
282.17,-0.05,1.68,-0.03,1.70,-1.70,-1.41,-0.87,-1.75,-1.73,-1.73
284.99,0.19,1.90,0.23,1.94,-1.94,-1.57,-0.91,-1.75,-1.71,-1.71
287.84,0.52,2.21,0.49,2.18,-2.18,-1.73,-0.95,-1.66,-1.69,-1.69
290.72,0.77,2.44,0.74,2.41,-2.41,-1.89,-0.99,-1.63,-1.67,-1.66
293.63,1.00,2.66,0.98,2.63,-2.63,-2.04,-1.03,-1.63,-1.65,-1.66
296.57,1.23,2.86,1.21,2.84,-2.84,-2.20,-1.07,-1.61,-1.63,-1.63
299.53,1.45,3.06,1.44,3.05,-3.05,-2.35,-1.12,-1.60,-1.61,-1.61
302.53,1.67,3.28,1.66,3.25,-3.25,-2.51,-1.16,-1.58,-1.59,-1.60
305.55,1.88,3.45,1.87,3.43,-3.43,-2.67,-1.21,-1.55,-1.57,-1.57
308.61,2.08,3.63,2.07,3.61,-3.61,-2.83,-1.26,-1.53,-1.54,-1.55
311.69,2.27,3.79,2.26,3.78,-3.78,-2.99,-1.31,-1.51,-1.52,-1.52
314.81,2.41,3.89,2.44,3.94,-3.94,-3.15,-1.36,-1.52,-1.50,-1.48
317.96,2.58,4.05,2.61,4.08,-4.08,-3.31,-1.41,-1.50,-1.47,-1.46
321.14,2.76,4.21,2.76,4.21,-4.21,-3.47,-1.46,-1.45,-1.45,-1.45
324.35,2.94,4.37,2.92,4.34,-4.34,-3.63,-1.51,-1.40,-1.43,-1.43
327.59,3.08,4.48,3.06,4.46,-4.46,-3.79,-1.57,-1.38,-1.40,-1.40
330.87,3.19,4.57,3.20,4.58,-4.58,-3.95,-1.63,-1.38,-1.38,-1.38
334.18,3.32,4.67,3.33,4.68,-4.68,-4.11,-1.68,-1.36,-1.35,-1.35
337.52,3.44,4.78,3.45,4.77,-4.77,-4.27,-1.74,-1.33,-1.33,-1.33
340.90,3.55,4.86,3.56,4.86,-4.86,-4.42,-1.80,-1.31,-1.30,-1.31
344.30,3.66,4.94,3.66,4.94,-4.94,-4.57,-1.87,-1.28,-1.28,-1.28
347.75,3.75,5.01,3.76,5.01,-5.01,-4.72,-1.93,-1.26,-1.25,-1.26
351.23,3.85,5.08,3.84,5.07,-5.07,-4.87,-2.00,-1.22,-1.23,-1.23
354.74,3.92,5.12,3.92,5.12,-5.12,-5.00,-2.06,-1.20,-1.20,-1.20
358.28,4.00,5.18,3.98,5.16,-5.16,-5.14,-2.13,-1.16,-1.18,-1.18
361.87,4.05,5.20,4.04,5.20,-5.20,-5.26,-2.21,-1.14,-1.15,-1.15
365.49,4.10,5.23,4.10,5.22,-5.22,-5.37,-2.28,-1.12,-1.13,-1.12
369.14,4.14,5.26,4.14,5.24,-5.24,-5.48,-2.35,-1.10,-1.10,-1.11
372.83,4.16,5.25,4.17,5.26,-5.26,-5.57,-2.43,-1.09,-1.08,-1.09
376.56,4.20,5.27,4.20,5.26,-5.26,-5.65,-2.50,-1.06,-1.06,-1.07
380.33,4.21,5.24,4.22,5.26,-5.26,-5.72,-2.58,-1.05,-1.04,-1.03
384.13,4.23,5.25,4.24,5.26,-5.26,-5.77,-2.66,-1.03,-1.02,-1.02
387.97,4.24,5.24,4.25,5.25,-5.25,-5.81,-2.74,-1.01,-1.00,-1.00
391.85,4.25,5.24,4.25,5.23,-5.23,-5.84,-2.83,-0.98,-0.99,-0.99
395.77,4.24,5.20,4.25,5.22,-5.22,-5.85,-2.91,-0.98,-0.97,-0.96
399.73,4.22,5.17,4.24,5.20,-5.20,-5.85,-2.99,-0.97,-0.96,-0.95
403.72,4.20,5.15,4.22,5.17,-5.17,-5.83,-3.08,-0.97,-0.95,-0.95
407.76,4.18,5.12,4.20,5.14,-5.14,-5.80,-3.16,-0.96,-0.94,-0.94
411.84,4.16,5.10,4.17,5.11,-5.11,-5.76,-3.25,-0.94,-0.94,-0.93
415.96,4.13,5.07,4.13,5.06,-5.06,-5.70,-3.33,-0.93,-0.94,-0.93
420.12,4.09,5.03,4.07,5.01,-5.01,-5.64,-3.42,-0.92,-0.94,-0.94
424.32,4.03,4.97,4.02,4.95,-4.95,-5.56,-3.50,-0.92,-0.94,-0.94
428.56,3.97,4.91,3.95,4.89,-4.89,-5.47,-3.58,-0.91,-0.94,-0.94
432.85,3.89,4.84,3.87,4.81,-4.81,-5.38,-3.66,-0.92,-0.94,-0.95
437.18,3.79,4.74,3.78,4.72,-4.72,-5.28,-3.74,-0.93,-0.95,-0.95
441.55,3.69,4.64,3.68,4.63,-4.63,-5.17,-3.81,-0.93,-0.95,-0.95
445.96,3.58,4.54,3.57,4.52,-4.52,-5.06,-3.89,-0.94,-0.95,-0.96
