frequency,raw,error,smoothed,error_smoothed,equalization,parametric_eq,equalized_raw,equalized_smoothed,target
20,-8.58,-10.50,-8.66,-10.57,6.00,2.72,-2.58,-2.66,1.92
21,-8.34,-10.26,-8.36,-10.27,6.00,3.12,-2.34,-2.36,1.92
22,-8.09,-10.01,-8.07,-9.97,6.00,3.57,-2.09,-2.07,1.92
23,-7.84,-9.75,-7.79,-9.69,6.00,4.05,-1.84,-1.79,1.92
24,-7.57,-9.48,-7.51,-9.41,6.00,4.56,-1.57,-1.51,1.92
25,-7.29,-9.20,-7.24,-9.14,6.00,5.08,-1.29,-1.24,1.91
26,-7.03,-8.94,-6.99,-8.88,6.00,5.61,-1.03,-0.99,1.91
27,-6.77,-8.67,-6.74,-8.63,6.00,6.12,-0.77,-0.74,1.91
28,-6.51,-8.41,-6.50,-8.39,6.00,6.57,-0.51,-0.50,1.90
29,-6.26,-8.15,-6.27,-8.15,6.00,6.94,-0.26,-0.27,1.90
30,-6.02,-7.91,-6.05,-7.93,6.00,7.20,-0.02,-0.05,1.89
31,-5.79,-7.67,-5.83,-7.71,6.00,7.34,0.21,0.17,1.89
32,-5.60,-7.48,-5.62,-7.50,6.00,7.36,0.40,0.38,1.88
33,-5.42,-7.29,-5.42,-7.30,6.00,7.27,0.58,0.58,1.88
34,-5.25,-7.11,-5.23,-7.11,6.00,7.10,0.75,0.77,1.87
35,-5.07,-6.93,-5.06,-6.92,6.00,6.87,0.93,0.94,1.86
36,-4.91,-6.76,-4.90,-6.75,6.00,6.62,1.09,1.10,1.85
37,-4.75,-6.59,-4.75,-6.59,6.00,6.35,1.25,1.25,1.84
38,-4.60,-6.43,-4.61,-6.44,6.00,6.08,1.40,1.39,1.84
39,-4.47,-6.29,-4.48,-6.30,6.00,5.83,1.53,1.52,1.83
40,-4.36,-6.17,-4.35,-6.16,5.98,5.60,1.62,1.62,1.81
41,-4.24,-6.04,-4.23,-6.03,5.93,5.40,1.69,1.69,1.80
42,-4.13,-5.92,-4.12,-5.91,5.85,5.21,1.73,1.73,1.79
43,-4.02,-5.79,-4.02,-5.79,5.77,5.05,1.75,1.75,1.78
44,-3.93,-5.69,-3.92,-5.68,5.67,4.92,1.75,1.76,1.76
45,-3.83,-5.58,-3.82,-5.57,5.57,4.81,1.75,1.75,1.75
46,-3.74,-5.47,-3.74,-5.47,5.47,4.72,1.73,1.73,1.73
47,-3.66,-5.37,-3.65,-5.37,5.37,4.64,1.71,1.72,1.72
48,-3.57,-5.27,-3.57,-5.27,5.27,4.59,1.70,1.70,1.70
49,-3.49,-5.17,-3.49,-5.17,5.17,4.54,1.69,1.68,1.68
50,-3.42,-5.08,-3.42,-5.08,5.08,4.52,1.66,1.66,1.66
51,-3.35,-4.99,-3.34,-4.99,4.99,4.50,1.64,1.64,1.64
52,-3.28,-4.90,-3.27,-4.89,4.89,4.48,1.62,1.62,1.62
53,-3.21,-4.81,-3.20,-4.80,4.80,4.48,1.59,1.60,1.60
54,-3.14,-4.72,-3.13,-4.71,4.71,4.47,1.57,1.57,1.58
55,-3.07,-4.62,-3.06,-4.61,4.61,4.47,1.55,1.55,1.56
56,-3.00,-4.53,-2.99,-4.52,4.52,4.46,1.52,1.52,1.53
57,-2.93,-4.43,-2.92,-4.42,4.42,4.45,1.49,1.50,1.51
58,-2.86,-4.34,-2.85,-4.32,4.32,4.43,1.46,1.47,1.48
59,-2.79,-4.24,-2.77,-4.22,4.22,4.41,1.43,1.45,1.45
60,-2.73,-4.15,-2.70,-4.12,4.12,4.37,1.40,1.42,1.42
61,-2.65,-4.04,-2.63,-4.02,4.02,4.33,1.38,1.39,1.40
62,-2.57,-3.93,-2.56,-3.92,3.92,4.28,1.36,1.36,1.37
63,-2.49,-3.82,-2.50,-3.83,3.83,4.21,1.34,1.33,1.34
64,-2.41,-3.71,-2.44,-3.73,3.73,4.14,1.33,1.30,1.30
65,-2.35,-3.62,-2.38,-3.64,3.64,4.06,1.30,1.27,1.27
66,-2.30,-3.53,-2.32,-3.56,3.56,3.97,1.26,1.23,1.24
67,-2.26,-3.46,-2.27,-3.47,3.47,3.88,1.21,1.20,1.20
68,-2.22,-3.39,-2.22,-3.39,3.39,3.77,1.17,1.17,1.17
69,-2.19,-3.32,-2.18,-3.31,3.31,3.66,1.12,1.13,1.13
70,-2.16,-3.25,-2.13,-3.23,3.23,3.55,1.07,1.09,1.10
71,-2.12,-3.18,-2.09,-3.15,3.15,3.44,1.03,1.06,1.06
72,-2.08,-3.10,-2.06,-3.07,3.07,3.32,1.00,1.02,1.03
73,-2.03,-3.01,-2.02,-3.00,3.00,3.21,0.97,0.98,0.99
74,-1.98,-2.92,-1.98,-2.92,2.92,3.09,0.95,0.94,0.95
75,-1.93,-2.84,-1.94,-2.85,2.85,2.97,0.92,0.90,0.91
76,-1.90,-2.77,-1.91,-2.77,2.77,2.86,0.87,0.87,0.87
77,-1.87,-2.70,-1.87,-2.69,2.69,2.74,0.83,0.83,0.83
78,-1.84,-2.63,-1.83,-2.62,2.62,2.63,0.78,0.79,0.79
79,-1.80,-2.55,-1.79,-2.54,2.54,2.52,0.74,0.75,0.75
80,-1.76,-2.47,-1.75,-2.46,2.46,2.41,0.71,0.71,0.71
81,-1.72,-2.38,-1.72,-2.39,2.39,2.31,0.67,0.67,0.67
82,-1.69,-2.31,-1.69,-2.31,2.31,2.21,0.63,0.63,0.63
83,-1.65,-2.23,-1.65,-2.24,2.24,2.11,0.59,0.59,0.59
84,-1.62,-2.16,-1.62,-2.17,2.17,2.01,0.55,0.54,0.54
85,-1.59,-2.09,-1.59,-2.09,2.09,1.92,0.51,0.50,0.50
86,-1.57,-2.03,-1.56,-2.02,2.02,1.83,0.46,0.46,0.46
87,-1.54,-1.96,-1.53,-1.95,1.95,1.74,0.42,0.42,0.42
88,-1.52,-1.89,-1.50,-1.88,1.88,1.65,0.37,0.38,0.38
89,-1.48,-1.81,-1.48,-1.81,1.81,1.57,0.33,0.33,0.34
90,-1.45,-1.74,-1.45,-1.74,1.74,1.49,0.29,0.29,0.30
91,-1.43,-1.68,-1.42,-1.67,1.67,1.41,0.25,0.25,0.25
92,-1.40,-1.61,-1.39,-1.60,1.60,1.33,0.21,0.21,0.21
93,-1.37,-1.54,-1.36,-1.54,1.54,1.26,0.17,0.17,0.17
94,-1.34,-1.47,-1.34,-1.47,1.47,1.19,0.13,0.13,0.13
95,-1.32,-1.41,-1.31,-1.40,1.40,1.11,0.09,0.09,0.09
96,-1.29,-1.34,-1.29,-1.34,1.34,1.05,0.05,0.05,0.05
97,-1.25,-1.26,-1.27,-1.27,1.27,0.98,0.03,0.01,0.01
98,-1.23,-1.20,-1.24,-1.21,1.21,0.92,-0.02,-0.03,-0.03
99,-1.22,-1.15,-1.22,-1.15,1.15,0.85,-0.07,-0.08,-0.07
100,-1.20,-1.09,-1.20,-1.08,1.08,0.79,-0.11,-0.12,-0.11
101,-1.19,-1.04,-1.18,-1.02,1.02,0.73,-0.16,-0.16,-0.14
102,-1.19,-1.00,-1.16,-0.96,0.96,0.68,-0.23,-0.20,-0.18
104,-1.16,-0.90,-1.14,-0.90,0.90,0.57,-0.26,-0.24,-0.26
105,-1.14,-0.84,-1.12,-0.84,0.84,0.51,-0.30,-0.28,-0.29
106,-1.12,-0.79,-1.10,-0.78,0.78,0.46,-0.34,-0.32,-0.33
107,-1.09,-0.72,-1.08,-0.72,0.72,0.41,-0.36,-0.36,-0.36
108,-1.06,-0.66,-1.06,-0.66,0.66,0.36,-0.39,-0.40,-0.40
109,-1.03,-0.59,-1.04,-0.61,0.61,0.32,-0.42,-0.43,-0.43
110,-1.01,-0.54,-1.02,-0.55,0.55,0.27,-0.45,-0.47,-0.47
111,-0.99,-0.49,-1.01,-0.50,0.50,0.23,-0.49,-0.51,-0.50
112,-0.99,-0.45,-0.99,-0.45,0.45,0.19,-0.54,-0.54,-0.53
113,-0.97,-0.40,-0.98,-0.40,0.40,0.15,-0.57,-0.58,-0.57
114,-0.97,-0.37,-0.96,-0.35,0.35,0.11,-0.62,-0.61,-0.60
115,-0.95,-0.32,-0.94,-0.30,0.30,0.08,-0.65,-0.65,-0.63
117,-0.94,-0.25,-0.93,-0.25,0.25,0.01,-0.69,-0.68,-0.69
118,-0.94,-0.22,-0.91,-0.20,0.20,-0.02,-0.74,-0.72,-0.72
119,-0.93,-0.18,-0.90,-0.15,0.15,-0.05,-0.78,-0.75,-0.75
120,-0.91,-0.13,-0.88,-0.10,0.10,-0.08,-0.81,-0.78,-0.77
121,-0.89,-0.08,-0.87,-0.05,0.05,-0.11,-0.83,-0.82,-0.80
123,-0.84,0.02,-0.86,-0.00,0.00,-0.16,-0.83,-0.85,-0.86
124,-0.81,0.08,-0.85,0.04,-0.04,-0.18,-0.85,-0.89,-0.88
125,-0.81,0.10,-0.84,0.08,-0.08,-0.20,-0.89,-0.92,-0.91
126,-0.80,0.14,-0.83,0.13,-0.13,-0.22,-0.92,-0.95,-0.93
128,-0.80,0.19,-0.81,0.17,-0.17,-0.25,-0.96,-0.98,-0.98
129,-0.82,0.19,-0.80,0.21,-0.21,-0.27,-1.02,-1.01,-1.01
130,-0.83,0.20,-0.79,0.24,-0.24,-0.28,-1.07,-1.04,-1.03
131,-0.83,0.22,-0.79,0.28,-0.28,-0.30,-1.11,-1.06,-1.05
133,-0.82,0.28,-0.78,0.31,-0.31,-0.32,-1.13,-1.10,-1.09
134,-0.79,0.33,-0.78,0.35,-0.35,-0.33,-1.13,-1.13,-1.12
135,-0.77,0.37,-0.78,0.38,-0.38,-0.34,-1.15,-1.16,-1.14
137,-0.74,0.44,-0.77,0.41,-0.41,-0.35,-1.15,-1.19,-1.18
138,-0.74,0.46,-0.77,0.45,-0.45,-0.36,-1.18,-1.21,-1.20
140,-0.74,0.50,-0.76,0.48,-0.48,-0.37,-1.22,-1.24,-1.23
141,-0.75,0.50,-0.75,0.51,-0.51,-0.38,-1.26,-1.26,-1.25
142,-0.76,0.51,-0.74,0.54,-0.54,-0.38,-1.30,-1.28,-1.27
144,-0.76,0.55,-0.73,0.57,-0.57,-0.39,-1.33,-1.30,-1.30
145,-0.76,0.56,-0.72,0.60,-0.60,-0.39,-1.36,-1.32,-1.32
147,-0.74,0.61,-0.72,0.63,-0.63,-0.40,-1.37,-1.35,-1.35
148,-0.72,0.65,-0.72,0.65,-0.65,-0.40,-1.37,-1.38,-1.36
150,-0.70,0.70,-0.72,0.68,-0.68,-0.41,-1.37,-1.40,-1.39
151,-0.69,0.72,-0.73,0.70,-0.70,-0.41,-1.38,-1.42,-1.41
153,-0.70,0.74,-0.73,0.72,-0.72,-0.41,-1.41,-1.44,-1.44
154,-0.71,0.74,-0.73,0.74,-0.74,-0.42,-1.44,-1.46,-1.45
156,-0.74,0.74,-0.73,0.75,-0.75,-0.42,-1.49,-1.48,-1.47
157,-0.75,0.74,-0.73,0.77,-0.77,-0.42,-1.52,-1.50,-1.49
159,-0.77,0.74,-0.73,0.79,-0.79,-0.42,-1.55,-1.52,-1.51
160,-0.77,0.76,-0.73,0.80,-0.80,-0.43,-1.57,-1.53,-1.52
162,-0.76,0.79,-0.74,0.81,-0.81,-0.43,-1.57,-1.55,-1.54
164,-0.75,0.82,-0.75,0.82,-0.82,-0.43,-1.57,-1.57,-1.57
165,-0.75,0.83,-0.76,0.83,-0.83,-0.44,-1.57,-1.59,-1.58
167,-0.74,0.86,-0.77,0.84,-0.84,-0.44,-1.57,-1.60,-1.59
169,-0.76,0.86,-0.78,0.84,-0.84,-0.45,-1.60,-1.62,-1.61
170,-0.77,0.86,-0.79,0.85,-0.85,-0.45,-1.61,-1.63,-1.62
172,-0.79,0.85,-0.80,0.85,-0.85,-0.45,-1.64,-1.65,-1.64
174,-0.82,0.84,-0.81,0.85,-0.85,-0.46,-1.67,-1.66,-1.66
175,-0.82,0.85,-0.82,0.85,-0.85,-0.46,-1.67,-1.67,-1.66
177,-0.85,0.83,-0.84,0.85,-0.85,-0.47,-1.70,-1.69,-1.68
179,-0.88,0.82,-0.85,0.85,-0.85,-0.48,-1.73,-1.70,-1.70
181,-0.90,0.81,-0.87,0.85,-0.85,-0.49,-1.74,-1.72,-1.71
183,-0.91,0.82,-0.88,0.84,-0.84,-0.50,-1.75,-1.73,-1.72
184,-0.92,0.81,-0.90,0.84,-0.84,-0.50,-1.75,-1.74,-1.73
186,-0.92,0.83,-0.92,0.83,-0.83,-0.51,-1.75,-1.75,-1.74
188,-0.92,0.84,-0.94,0.82,-0.82,-0.52,-1.74,-1.76,-1.75
190,-0.93,0.84,-0.96,0.81,-0.81,-0.53,-1.74,-1.77,-1.77
192,-0.96,0.82,-0.98,0.80,-0.80,-0.54,-1.76,-1.78,-1.78
194,-0.98,0.81,-1.00,0.79,-0.79,-0.55,-1.77,-1.79,-1.79
196,-1.02,0.78,-1.03,0.78,-0.78,-0.56,-1.79,-1.80,-1.80
198,-1.06,0.75,-1.05,0.76,-0.76,-0.57,-1.82,-1.81,-1.81
200,-1.09,0.73,-1.07,0.75,-0.75,-0.58,-1.84,-1.82,-1.82
202,-1.12,0.71,-1.10,0.74,-0.74,-0.60,-1.85,-1.83,-1.82
204,-1.14,0.70,-1.12,0.73,-0.73,-0.61,-1.86,-1.84,-1.83
206,-1.15,0.70,-1.14,0.71,-0.71,-0.62,-1.86,-1.85,-1.84
208,-1.18,0.67,-1.15,0.70,-0.70,-0.63,-1.88,-1.86,-1.85
210,-1.18,0.68,-1.17,0.70,-0.70,-0.64,-1.87,-1.86,-1.86
212,-1.19,0.68,-1.18,0.69,-0.69,-0.65,-1.88,-1.87,-1.86
214,-1.19,0.68,-1.19,0.69,-0.69,-0.67,-1.87,-1.88,-1.87
216,-1.19,0.69,-1.20,0.68,-0.68,-0.68,-1.87,-1.88,-1.88
218,-1.19,0.70,-1.21,0.68,-0.68,-0.69,-1.87,-1.89,-1.88
221,-1.20,0.70,-1.22,0.68,-0.68,-0.70,-1.87,-1.89,-1.89
223,-1.22,0.68,-1.23,0.67,-0.67,-0.71,-1.89,-1.90,-1.90
225,-1.24,0.67,-1.24,0.67,-0.67,-0.72,-1.90,-1.91,-1.90
227,-1.25,0.66,-1.25,0.67,-0.67,-0.73,-1.91,-1.91,-1.91
229,-1.27,0.65,-1.26,0.66,-0.66,-0.74,-1.93,-1.92,-1.91
232,-1.29,0.64,-1.26,0.66,-0.66,-0.75,-1.95,-1.93,-1.92
234,-1.30,0.63,-1.27,0.66,-0.66,-0.76,-1.95,-1.93,-1.93
236,-1.29,0.64,-1.28,0.66,-0.66,-0.77,-1.94,-1.94,-1.93
239,-1.29,0.65,-1.29,0.66,-0.66,-0.78,-1.94,-1.94,-1.94
241,-1.29,0.65,-1.29,0.66,-0.66,-0.78,-1.94,-1.95,-1.94
244,-1.29,0.66,-1.29,0.66,-0.66,-0.79,-1.94,-1.95,-1.95
246,-1.29,0.66,-1.29,0.66,-0.66,-0.79,-1.94,-1.95,-1.95
248,-1.29,0.67,-1.30,0.66,-0.66,-0.79,-1.95,-1.96,-1.95
251,-1.30,0.66,-1.30,0.66,-0.66,-0.80,-1.96,-1.96,-1.96
253,-1.30,0.67,-1.30,0.67,-0.67,-0.80,-1.96,-1.96,-1.96
256,-1.30,0.67,-1.30,0.67,-0.67,-0.80,-1.96,-1.96,-1.97
259,-1.31,0.66,-1.30,0.67,-0.67,-0.80,-1.97,-1.97,-1.97
261,-1.31,0.67,-1.30,0.67,-0.67,-0.80,-1.98,-1.97,-1.97
264,-1.31,0.67,-1.31,0.67,-0.67,-0.80,-1.98,-1.98,-1.98
266,-1.31,0.67,-1.31,0.67,-0.67,-0.79,-1.98,-1.98,-1.98
269,-1.32,0.67,-1.31,0.67,-0.67,-0.79,-1.99,-1.98,-1.98
272,-1.32,0.67,-1.32,0.67,-0.67,-0.78,-1.99,-1.99,-1.99
274,-1.32,0.67,-1.32,0.67,-0.67,-0.78,-1.99,-1.99,-1.99
277,-1.33,0.67,-1.32,0.67,-0.67,-0.78,-1.99,-1.99,-1.99
280,-1.33,0.67,-1.33,0.67,-0.67,-0.77,-1.99,-1.99,-1.99
283,-1.34,0.66,-1.33,0.66,-0.66,-0.76,-2.00,-2.00,-2.00
286,-1.34,0.66,-1.34,0.66,-0.66,-0.76,-2.00,-2.00,-2.00
288,-1.35,0.66,-1.34,0.66,-0.66,-0.75,-2.00,-2.00,-2.00
291,-1.35,0.66,-1.35,0.65,-0.65,-0.74,-2.00,-2.01,-2.00
294,-1.36,0.65,-1.36,0.65,-0.65,-0.74,-2.01,-2.01,-2.01
297,-1.37,0.64,-1.36,0.65,-0.65,-0.73,-2.01,-2.01,-2.01
300,-1.38,0.64,-1.37,0.64,-0.64,-0.72,-2.02,-2.01,-2.01
303,-1.38,0.64,-1.38,0.64,-0.64,-0.71,-2.01,-2.01,-2.01
306,-1.39,0.63,-1.38,0.63,-0.63,-0.71,-2.02,-2.02,-2.02
309,-1.40,0.62,-1.39,0.63,-0.63,-0.70,-2.02,-2.02,-2.02
312,-1.40,0.62,-1.40,0.62,-0.62,-0.69,-2.01,-2.02,-2.02
316,-1.41,0.62,-1.41,0.61,-0.61,-0.69,-2.02,-2.02,-2.02
319,-1.42,0.61,-1.42,0.60,-0.60,-0.68,-2.02,-2.02,-2.02
322,-1.43,0.60,-1.43,0.60,-0.60,-0.68,-2.02,-2.02,-2.02
325,-1.44,0.59,-1.44,0.59,-0.59,-0.67,-2.02,-2.03,-2.03
328,-1.45,0.58,-1.45,0.58,-0.58,-0.67,-2.03,-2.03,-2.03
332,-1.46,0.57,-1.46,0.57,-0.57,-0.66,-2.03,-2.03,-2.03
335,-1.47,0.56,-1.47,0.56,-0.56,-0.66,-2.03,-2.03,-2.03
338,-1.48,0.56,-1.48,0.55,-0.55,-0.65,-2.03,-2.03,-2.03
342,-1.49,0.55,-1.49,0.55,-0.55,-0.65,-2.03,-2.03,-2.03
345,-1.50,0.54,-1.50,0.54,-0.54,-0.65,-2.03,-2.04,-2.03
349,-1.51,0.53,-1.51,0.53,-0.53,-0.65,-2.04,-2.04,-2.04
352,-1.52,0.52,-1.51,0.52,-0.52,-0.65,-2.04,-2.04,-2.04
356,-1.53,0.51,-1.52,0.52,-0.52,-0.65,-2.05,-2.04,-2.04
359,-1.53,0.51,-1.52,0.51,-0.51,-0.65,-2.04,-2.04,-2.04
363,-1.53,0.51,-1.53,0.51,-0.51,-0.65,-2.04,-2.04,-2.04
366,-1.54,0.50,-1.53,0.51,-0.51,-0.65,-2.05,-2.04,-2.04
370,-1.54,0.51,-1.53,0.51,-0.51,-0.65,-2.05,-2.04,-2.04
374,-1.54,0.51,-1.53,0.51,-0.51,-0.65,-2.05,-2.04,-2.04
377,-1.53,0.52,-1.53,0.51,-0.51,-0.65,-2.04,-2.04,-2.04
381,-1.53,0.52,-1.53,0.52,-0.52,-0.66,-2.04,-2.05,-2.04
385,-1.53,0.52,-1.52,0.52,-0.52,-0.66,-2.05,-2.05,-2.05
389,-1.52,0.53,-1.52,0.53,-0.53,-0.66,-2.04,-2.05,-2.05
393,-1.52,0.53,-1.51,0.54,-0.54,-0.67,-2.05,-2.05,-2.05
397,-1.51,0.54,-1.50,0.54,-0.54,-0.67,-2.05,-2.05,-2.05
401,-1.50,0.55,-1.50,0.55,-0.55,-0.68,-2.05,-2.05,-2.05
405,-1.49,0.56,-1.48,0.56,-0.56,-0.68,-2.05,-2.05,-2.05
409,-1.48,0.57,-1.47,0.58,-0.58,-0.69,-2.05,-2.05,-2.05
413,-1.47,0.58,-1.46,0.59,-0.59,-0.69,-2.05,-2.05,-2.05
417,-1.45,0.61,-1.45,0.60,-0.60,-0.70,-2.05,-2.05,-2.05
421,-1.44,0.62,-1.44,0.62,-0.62,-0.70,-2.05,-2.06,-2.05
425,-1.43,0.63,-1.43,0.63,-0.63,-0.71,-2.06,-2.06,-2.05
430,-1.41,0.65,-1.42,0.65,-0.65,-0.71,-2.05,-2.06,-2.06
434,-1.40,0.66,-1.40,0.66,-0.66,-0.72,-2.06,-2.06,-2.06
438,-1.39,0.67,-1.38,0.68,-0.68,-0.72,-2.07,-2.06,-2.06
443,-1.37,0.69,-1.36,0.70,-0.70,-0.73,-2.07,-2.06,-2.06
447,-1.37,0.69,-1.34,0.72,-0.72,-0.73,-2.08,-2.06,-2.05
451,-1.36,0.69,-1.32,0.73,-0.73,-0.73,-2.09,-2.05,-2.05
456,-1.33,0.72,-1.30,0.75,-0.75,-0.74,-2.08,-2.04,-2.04
460,-1.30,0.74,-1.28,0.76,-0.76,-0.74,-2.06,-2.04,-2.04
465,-1.25,0.78,-1.26,0.77,-0.77,-0.74,-2.02,-2.03,-2.03
470,-1.21,0.81,-1.25,0.78,-0.78,-0.74,-1.98,-2.03,-2.02
474,-1.19,0.82,-1.24,0.78,-0.78,-0.74,-1.97,-2.02,-2.01
479,-1.18,0.82,-1.23,0.78,-0.78,-0.74,-1.96,-2.01,-2.00
484,-1.19,0.80,-1.22,0.78,-0.78,-0.74,-1.96,-2.00,-1.99
489,-1.21,0.77,-1.21,0.77,-0.77,-0.73,-1.97,-1.98,-1.97
494,-1.23,0.73,-1.21,0.76,-0.76,-0.73,-1.98,-1.97,-1.96
499,-1.24,0.71,-1.20,0.75,-0.75,-0.72,-1.98,-1.95,-1.94
504,-1.25,0.68,-1.20,0.74,-0.74,-0.71,-1.98,-1.94,-1.93
509,-1.24,0.68,-1.20,0.73,-0.73,-0.70,-1.96,-1.93,-1.91
514,-1.22,0.68,-1.20,0.71,-0.71,-0.70,-1.93,-1.91,-1.89
519,-1.19,0.69,-1.19,0.70,-0.70,-0.68,-1.89,-1.89,-1.88
524,-1.18,0.68,-1.18,0.69,-0.69,-0.67,-1.87,-1.87,-1.86
529,-1.16,0.68,-1.16,0.69,-0.69,-0.66,-1.84,-1.85,-1.84
535,-1.13,0.69,-1.15,0.68,-0.68,-0.65,-1.81,-1.83,-1.82
540,-1.12,0.68,-1.13,0.67,-0.67,-0.63,-1.79,-1.80,-1.80
545,-1.10,0.68,-1.11,0.67,-0.67,-0.62,-1.76,-1.77,-1.78
551,-1.09,0.67,-1.09,0.66,-0.66,-0.60,-1.75,-1.75,-1.75
556,-1.07,0.66,-1.07,0.65,-0.65,-0.58,-1.72,-1.72,-1.73
562,-1.06,0.64,-1.05,0.64,-0.64,-0.56,-1.70,-1.70,-1.70
568,-1.04,0.64,-1.04,0.63,-0.63,-0.54,-1.67,-1.67,-1.67
573,-1.03,0.62,-1.02,0.62,-0.62,-0.52,-1.65,-1.64,-1.64
579,-1.01,0.61,-1.00,0.61,-0.61,-0.50,-1.62,-1.62,-1.61
585,-0.99,0.60,-0.99,0.60,-0.60,-0.48,-1.59,-1.59,-1.58
591,-0.98,0.58,-0.97,0.59,-0.59,-0.46,-1.56,-1.56,-1.55
596,-0.96,0.57,-0.96,0.57,-0.57,-0.44,-1.53,-1.53,-1.52
602,-0.95,0.54,-0.94,0.56,-0.56,-0.42,-1.51,-1.50,-1.49
608,-0.93,0.53,-0.92,0.55,-0.55,-0.40,-1.47,-1.46,-1.46
615,-0.91,0.52,-0.90,0.53,-0.53,-0.37,-1.44,-1.43,-1.43
621,-0.90,0.50,-0.89,0.51,-0.51,-0.35,-1.41,-1.40,-1.40
627,-0.88,0.49,-0.87,0.49,-0.49,-0.32,-1.37,-1.37,-1.36
633,-0.87,0.47,-0.87,0.47,-0.47,-0.30,-1.33,-1.33,-1.33
639,-0.86,0.44,-0.86,0.44,-0.44,-0.28,-1.29,-1.30,-1.30
646,-0.85,0.42,-0.86,0.40,-0.40,-0.25,-1.25,-1.26,-1.27
652,-0.85,0.39,-0.86,0.36,-0.36,-0.23,-1.21,-1.23,-1.23
659,-0.85,0.35,-0.87,0.32,-0.32,-0.21,-1.16,-1.19,-1.20
665,-0.87,0.30,-0.89,0.27,-0.27,-0.19,-1.13,-1.16,-1.16
672,-0.90,0.23,-0.91,0.22,-0.22,-0.16,-1.11,-1.13,-1.13
679,-0.92,0.18,-0.93,0.16,-0.16,-0.14,-1.08,-1.09,-1.09
686,-0.95,0.11,-0.95,0.11,-0.11,-0.11,-1.05,-1.06,-1.05
692,-0.98,0.04,-0.97,0.06,-0.06,-0.09,-1.03,-1.03,-1.02
699,-1.01,-0.03,-0.99,0.00,-0.00,-0.07,-1.01,-0.99,-0.98
706,-1.02,-0.08,-1.00,-0.04,0.04,-0.04,-0.97,-0.96,-0.94
713,-1.04,-0.14,-1.00,-0.09,0.09,-0.02,-0.95,-0.92,-0.90
721,-1.05,-0.18,-1.00,-0.12,0.12,0.01,-0.92,-0.88,-0.86
728,-1.03,-0.20,-0.99,-0.15,0.15,0.03,-0.87,-0.84,-0.82
735,-1.01,-0.22,-0.97,-0.18,0.18,0.05,-0.83,-0.80,-0.78
742,-0.97,-0.22,-0.95,-0.20,0.20,0.08,-0.77,-0.76,-0.74
750,-0.92,-0.21,-0.92,-0.21,0.21,0.10,-0.71,-0.71,-0.70
757,-0.88,-0.21,-0.89,-0.22,0.22,0.12,-0.65,-0.67,-0.67
765,-0.84,-0.21,-0.86,-0.24,0.24,0.15,-0.60,-0.63,-0.63
773,-0.80,-0.21,-0.84,-0.25,0.25,0.17,-0.55,-0.59,-0.59
780,-0.79,-0.23,-0.81,-0.26,0.26,0.19,-0.53,-0.55,-0.55
788,-0.76,-0.24,-0.79,-0.27,0.27,0.22,-0.49,-0.52,-0.52
796,-0.75,-0.26,-0.77,-0.28,0.28,0.24,-0.46,-0.48,-0.48
804,-0.75,-0.30,-0.75,-0.30,0.30,0.26,-0.45,-0.45,-0.45
812,-0.73,-0.31,-0.73,-0.31,0.31,0.28,-0.41,-0.42,-0.42
820,-0.73,-0.34,-0.72,-0.32,0.32,0.31,-0.40,-0.39,-0.38
828,-0.73,-0.37,-0.70,-0.34,0.34,0.33,-0.39,-0.36,-0.35
837,-0.71,-0.39,-0.68,-0.35,0.35,0.35,-0.36,-0.33,-0.32
845,-0.69,-0.40,-0.66,-0.36,0.36,0.37,-0.33,-0.30,-0.29
853,-0.66,-0.40,-0.63,-0.37,0.37,0.39,-0.29,-0.27,-0.26
862,-0.61,-0.38,-0.60,-0.37,0.37,0.41,-0.24,-0.24,-0.23
871,-0.56,-0.36,-0.57,-0.37,0.37,0.43,-0.19,-0.21,-0.20
879,-0.53,-0.36,-0.54,-0.36,0.36,0.44,-0.16,-0.18,-0.17
888,-0.49,-0.34,-0.51,-0.36,0.36,0.46,-0.13,-0.15,-0.14
897,-0.46,-0.34,-0.47,-0.35,0.35,0.47,-0.11,-0.12,-0.11
906,-0.42,-0.33,-0.43,-0.34,0.34,0.49,-0.08,-0.09,-0.09
915,-0.39,-0.33,-0.39,-0.33,0.33,0.50,-0.06,-0.06,-0.06
924,-0.36,-0.32,-0.35,-0.31,0.31,0.51,-0.05,-0.04,-0.03
933,-0.33,-0.32,-0.31,-0.29,0.29,0.52,-0.03,-0.01,-0.01
943,-0.29,-0.31,-0.26,-0.28,0.28,0.53,-0.01,0.02,0.02
952,-0.24,-0.28,-0.22,-0.26,0.26,0.54,0.02,0.04,0.05
962,-0.20,-0.27,-0.17,-0.24,0.24,0.54,0.05,0.07,0.07
971,-0.15,-0.24,-0.13,-0.23,0.23,0.54,0.08,0.10,0.10
981,-0.09,-0.21,-0.09,-0.22,0.22,0.55,0.13,0.12,0.12
991,-0.04,-0.19,-0.05,-0.21,0.21,0.55,0.17,0.15,0.15
1001,0.00,-0.17,-0.02,-0.20,0.20,0.54,0.21,0.18,0.18
1011,0.05,-0.15,0.01,-0.20,0.20,0.54,0.25,0.21,0.20
1021,0.06,-0.17,0.03,-0.20,0.20,0.53,0.27,0.24,0.23
1031,0.08,-0.17,0.05,-0.21,0.21,0.52,0.30,0.27,0.26
1041,0.07,-0.21,0.07,-0.23,0.23,0.51,0.30,0.29,0.29
1052,0.07,-0.24,0.08,-0.24,0.24,0.50,0.31,0.32,0.31
1062,0.07,-0.27,0.09,-0.26,0.26,0.49,0.33,0.35,0.34
1073,0.08,-0.29,0.09,-0.28,0.28,0.47,0.36,0.37,0.37
1084,0.09,-0.31,0.10,-0.29,0.29,0.45,0.39,0.39,0.40
1094,0.10,-0.33,0.11,-0.31,0.31,0.44,0.41,0.42,0.43
1105,0.12,-0.34,0.13,-0.32,0.32,0.42,0.44,0.44,0.46
1116,0.14,-0.35,0.15,-0.32,0.32,0.40,0.46,0.47,0.49
1128,0.17,-0.35,0.19,-0.32,0.32,0.37,0.49,0.50,0.52
1139,0.21,-0.34,0.23,-0.31,0.31,0.35,0.52,0.54,0.56
1150,0.25,-0.33,0.28,-0.29,0.29,0.32,0.55,0.57,0.59
1162,0.31,-0.31,0.33,-0.27,0.27,0.30,0.59,0.60,0.62
1173,0.37,-0.28,0.40,-0.24,0.24,0.27,0.62,0.64,0.65
1185,0.45,-0.23,0.46,-0.21,0.21,0.24,0.66,0.67,0.68
1197,0.53,-0.18,0.54,-0.17,0.17,0.21,0.70,0.70,0.72
1209,0.62,-0.12,0.61,-0.13,0.13,0.18,0.75,0.74,0.75
1221,0.70,-0.07,0.69,-0.08,0.08,0.15,0.79,0.77,0.78
1233,0.77,-0.04,0.77,-0.04,0.04,0.12,0.81,0.81,0.81
1246,0.85,0.01,0.85,-0.00,0.00,0.09,0.85,0.85,0.84
1258,0.91,0.04,0.92,0.04,-0.04,0.06,0.88,0.88,0.88
1271,0.99,0.08,0.99,0.07,-0.07,0.02,0.93,0.92,0.91
1283,1.06,0.12,1.05,0.09,-0.09,-0.01,0.97,0.96,0.94
1296,1.11,0.13,1.10,0.11,-0.11,-0.04,1.00,0.99,0.98
1309,1.16,0.15,1.15,0.12,-0.12,-0.07,1.04,1.02,1.02
1322,1.20,0.15,1.18,0.13,-0.13,-0.11,1.08,1.06,1.05
1335,1.23,0.14,1.21,0.12,-0.12,-0.14,1.11,1.09,1.09
1349,1.25,0.13,1.24,0.11,-0.11,-0.18,1.15,1.13,1.13
1362,1.25,0.09,1.26,0.09,-0.09,-0.21,1.17,1.17,1.16
1376,1.26,0.06,1.27,0.06,-0.06,-0.25,1.21,1.21,1.20
1390,1.26,0.02,1.27,0.03,-0.03,-0.28,1.24,1.25,1.24
1404,1.26,-0.01,1.27,-0.01,0.01,-0.32,1.27,1.28,1.28
1418,1.26,-0.05,1.27,-0.05,0.05,-0.36,1.31,1.32,1.32
1432,1.28,-0.07,1.27,-0.09,0.09,-0.39,1.37,1.35,1.35
1446,1.28,-0.11,1.26,-0.12,0.12,-0.43,1.41,1.39,1.39
1461,1.27,-0.16,1.26,-0.16,0.16,-0.47,1.43,1.42,1.43
1475,1.27,-0.20,1.27,-0.19,0.19,-0.50,1.46,1.46,1.47
1490,1.27,-0.24,1.28,-0.21,0.21,-0.54,1.49,1.49,1.51
1505,1.28,-0.27,1.30,-0.23,0.23,-0.58,1.52,1.53,1.55
1520,1.29,-0.30,1.32,-0.24,0.24,-0.62,1.54,1.57,1.59
1535,1.33,-0.30,1.36,-0.25,0.25,-0.66,1.58,1.60,1.63
1550,1.37,-0.30,1.40,-0.24,0.24,-0.69,1.61,1.64,1.68
1566,1.43,-0.29,1.45,-0.23,0.23,-0.73,1.66,1.68,1.72
1582,1.50,-0.26,1.52,-0.21,0.21,-0.77,1.71,1.72,1.76
1597,1.58,-0.23,1.59,-0.18,0.18,-0.81,1.76,1.77,1.81
1613,1.66,-0.19,1.67,-0.15,0.15,-0.85,1.81,1.82,1.86
1629,1.75,-0.15,1.75,-0.11,0.11,-0.88,1.86,1.86,1.90
1646,1.85,-0.09,1.84,-0.07,0.07,-0.92,1.92,1.91,1.95
1662,1.94,-0.05,1.93,-0.03,0.03,-0.96,1.97,1.96,1.99
