frequency,raw,error,smoothed,error_smoothed,equalization,parametric_eq,equalized_raw,equalized_smoothed,target
20,6.35,-1.31,6.37,-1.29,1.29,0.14,7.64,7.66,7.66
21,6.50,-1.16,6.50,-1.15,1.15,0.16,7.65,7.65,7.65
22,6.63,-1.02,6.62,-1.02,1.02,0.19,7.65,7.64,7.64
23,6.75,-0.89,6.73,-0.90,0.90,0.22,7.65,7.63,7.63
24,6.85,-0.77,6.83,-0.79,0.79,0.25,7.64,7.62,7.62
25,6.95,-0.66,6.93,-0.68,0.68,0.28,7.63,7.61,7.61
26,7.03,-0.57,7.01,-0.59,0.59,0.31,7.61,7.60,7.60
27,7.10,-0.48,7.08,-0.50,0.50,0.34,7.60,7.58,7.58
28,7.16,-0.41,7.15,-0.42,0.42,0.36,7.58,7.57,7.57
29,7.21,-0.34,7.20,-0.35,0.35,0.37,7.55,7.55,7.55
30,7.25,-0.28,7.25,-0.28,0.28,0.38,7.53,7.53,7.53
31,7.29,-0.23,7.29,-0.22,0.22,0.37,7.51,7.51,7.51
32,7.32,-0.18,7.33,-0.17,0.17,0.36,7.49,7.49,7.49
33,7.35,-0.12,7.35,-0.12,0.12,0.33,7.47,7.47,7.47
34,7.37,-0.08,7.37,-0.08,0.08,0.30,7.44,7.45,7.45
35,7.39,-0.04,7.39,-0.04,0.04,0.27,7.42,7.43,7.43
36,7.40,-0.00,7.40,0.00,-0.00,0.23,7.40,7.40,7.40
37,7.41,0.03,7.41,0.04,-0.04,0.18,7.37,7.38,7.38
38,7.42,0.07,7.42,0.07,-0.07,0.14,7.35,7.35,7.35
39,7.43,0.11,7.42,0.10,-0.10,0.09,7.33,7.32,7.32
40,7.43,0.14,7.43,0.13,-0.13,0.05,7.30,7.29,7.29
41,7.42,0.16,7.42,0.16,-0.16,0.00,7.26,7.26,7.26
42,7.42,0.19,7.42,0.19,-0.19,-0.04,7.23,7.23,7.23
43,7.41,0.21,7.41,0.22,-0.22,-0.09,7.19,7.20,7.20
44,7.40,0.23,7.41,0.24,-0.24,-0.13,7.16,7.16,7.16
45,7.39,0.26,7.40,0.27,-0.27,-0.17,7.12,7.13,7.13
46,7.38,0.29,7.38,0.29,-0.29,-0.22,7.09,7.09,7.09
47,7.36,0.30,7.36,0.31,-0.31,-0.26,7.05,7.05,7.05
48,7.35,0.33,7.35,0.33,-0.33,-0.30,7.02,7.02,7.02
49,7.34,0.36,7.32,0.35,-0.35,-0.34,6.99,6.98,6.98
50,7.34,0.40,7.30,0.36,-0.36,-0.38,6.97,6.94,6.94
51,7.33,0.43,7.27,0.38,-0.38,-0.42,6.95,6.89,6.89
52,7.25,0.40,7.24,0.39,-0.39,-0.46,6.86,6.85,6.85
53,7.16,0.35,7.21,0.41,-0.41,-0.49,6.75,6.81,6.81
54,7.14,0.37,7.18,0.42,-0.42,-0.53,6.72,6.76,6.76
55,7.15,0.43,7.15,0.43,-0.43,-0.56,6.72,6.72,6.72
56,7.15,0.48,7.12,0.45,-0.45,-0.59,6.70,6.67,6.67
57,7.10,0.47,7.09,0.46,-0.46,-0.62,6.64,6.62,6.62
58,7.04,0.46,7.06,0.48,-0.48,-0.65,6.56,6.58,6.58
59,6.99,0.46,7.03,0.50,-0.50,-0.67,6.49,6.53,6.53
60,6.98,0.50,7.00,0.52,-0.52,-0.69,6.46,6.48,6.48
61,6.97,0.54,6.97,0.54,-0.54,-0.71,6.43,6.43,6.43
62,6.96,0.58,6.94,0.56,-0.56,-0.73,6.39,6.38,6.38
63,6.94,0.61,6.91,0.59,-0.59,-0.74,6.35,6.33,6.33
64,6.90,0.62,6.89,0.61,-0.61,-0.75,6.29,6.27,6.27
65,6.87,0.65,6.86,0.64,-0.64,-0.76,6.23,6.22,6.22
66,6.83,0.66,6.83,0.66,-0.66,-0.77,6.17,6.17,6.17
67,6.80,0.68,6.80,0.68,-0.68,-0.77,6.11,6.12,6.12
68,6.76,0.69,6.77,0.71,-0.71,-0.78,6.05,6.06,6.06
69,6.73,0.72,6.74,0.73,-0.73,-0.78,6.00,6.01,6.01
70,6.70,0.74,6.70,0.75,-0.75,-0.78,5.95,5.96,5.96
71,6.67,0.77,6.67,0.77,-0.77,-0.78,5.90,5.90,5.90
72,6.65,0.80,6.63,0.78,-0.78,-0.78,5.86,5.85,5.85
73,6.63,0.83,6.60,0.80,-0.80,-0.78,5.83,5.79,5.79
74,6.59,0.85,6.56,0.82,-0.82,-0.79,5.77,5.74,5.74
75,6.53,0.84,6.52,0.83,-0.83,-0.79,5.70,5.69,5.69
76,6.47,0.84,6.48,0.85,-0.85,-0.79,5.62,5.63,5.63
77,6.42,0.84,6.44,0.86,-0.86,-0.79,5.56,5.58,5.58
78,6.37,0.84,6.40,0.88,-0.88,-0.79,5.49,5.52,5.52
79,6.33,0.86,6.36,0.89,-0.89,-0.80,5.44,5.47,5.47
80,6.32,0.90,6.32,0.91,-0.91,-0.80,5.41,5.42,5.42
81,6.29,0.93,6.29,0.92,-0.92,-0.81,5.36,5.36,5.36
82,6.26,0.95,6.25,0.94,-0.94,-0.81,5.32,5.31,5.31
83,6.23,0.97,6.21,0.96,-0.96,-0.82,5.27,5.26,5.26
84,6.20,1.00,6.18,0.98,-0.98,-0.83,5.22,5.20,5.20
85,6.16,1.01,6.14,0.99,-0.99,-0.84,5.16,5.15,5.15
86,6.11,1.01,6.11,1.01,-1.01,-0.85,5.10,5.10,5.10
87,6.07,1.02,6.07,1.03,-1.03,-0.86,5.04,5.05,5.05
88,6.03,1.03,6.04,1.05,-1.05,-0.87,4.98,4.99,4.99
89,5.99,1.04,6.01,1.06,-1.06,-0.88,4.93,4.94,4.94
90,5.96,1.07,5.97,1.08,-1.08,-0.90,4.88,4.89,4.89
91,5.93,1.09,5.93,1.09,-1.09,-0.91,4.84,4.84,4.84
92,5.90,1.11,5.90,1.10,-1.10,-0.92,4.80,4.79,4.79
93,5.87,1.12,5.86,1.11,-1.11,-0.94,4.75,4.75,4.74
94,5.83,1.13,5.82,1.12,-1.12,-0.96,4.71,4.70,4.70
95,5.80,1.15,5.78,1.13,-1.13,-0.97,4.67,4.65,4.65
96,5.76,1.16,5.74,1.14,-1.14,-0.99,4.62,4.60,4.60
97,5.71,1.16,5.69,1.14,-1.14,-1.01,4.56,4.55,4.55
98,5.66,1.15,5.65,1.15,-1.15,-1.02,4.51,4.50,4.51
99,5.61,1.15,5.61,1.15,-1.15,-1.04,4.46,4.45,4.46
100,5.55,1.13,5.56,1.16,-1.16,-1.06,4.39,4.40,4.41
101,5.50,1.13,5.52,1.16,-1.16,-1.08,4.34,4.36,4.37
102,5.46,1.13,5.47,1.16,-1.16,-1.09,4.29,4.31,4.33
104,5.41,1.17,5.43,1.17,-1.17,-1.13,4.24,4.26,4.24
105,5.38,1.18,5.38,1.17,-1.17,-1.15,4.21,4.21,4.20
106,5.35,1.19,5.34,1.17,-1.17,-1.16,4.18,4.17,4.16
107,5.31,1.19,5.30,1.18,-1.18,-1.18,4.13,4.12,4.11
108,5.27,1.19,5.26,1.18,-1.18,-1.20,4.09,4.08,4.07
109,5.22,1.18,5.22,1.18,-1.18,-1.21,4.04,4.04,4.03
110,5.17,1.17,5.18,1.18,-1.18,-1.23,3.98,3.99,3.99
111,5.13,1.17,5.14,1.18,-1.18,-1.24,3.94,3.95,3.96
112,5.09,1.17,5.10,1.19,-1.19,-1.25,3.90,3.91,3.92
113,5.06,1.18,5.06,1.19,-1.19,-1.26,3.87,3.87,3.88
114,5.03,1.18,5.02,1.19,-1.19,-1.27,3.84,3.83,3.84
115,5.00,1.19,4.98,1.19,-1.19,-1.28,3.81,3.79,3.81
117,4.94,1.20,4.94,1.18,-1.18,-1.30,3.75,3.75,3.74
118,4.90,1.20,4.89,1.18,-1.18,-1.30,3.71,3.71,3.70
119,4.86,1.19,4.85,1.18,-1.18,-1.31,3.68,3.67,3.67
120,4.82,1.18,4.81,1.18,-1.18,-1.31,3.64,3.63,3.64
121,4.78,1.18,4.77,1.18,-1.18,-1.31,3.60,3.59,3.60
123,4.70,1.16,4.72,1.17,-1.17,-1.31,3.53,3.55,3.54
124,4.66,1.15,4.68,1.17,-1.17,-1.30,3.49,3.51,3.51
125,4.63,1.15,4.64,1.16,-1.16,-1.30,3.47,3.48,3.48
126,4.59,1.14,4.59,1.16,-1.16,-1.29,3.43,3.44,3.45
128,4.53,1.14,4.55,1.15,-1.15,-1.27,3.38,3.40,3.39
129,4.51,1.15,4.50,1.14,-1.14,-1.26,3.37,3.37,3.36
130,4.48,1.14,4.46,1.13,-1.13,-1.25,3.35,3.33,3.33
131,4.45,1.14,4.41,1.12,-1.12,-1.24,3.33,3.29,3.31
133,4.37,1.11,4.36,1.10,-1.10,-1.21,3.27,3.26,3.25
134,4.33,1.10,4.31,1.08,-1.08,-1.19,3.24,3.23,3.23
135,4.28,1.08,4.26,1.07,-1.07,-1.17,3.21,3.19,3.20
137,4.19,1.04,4.20,1.05,-1.05,-1.14,3.14,3.16,3.15
138,4.15,1.02,4.15,1.02,-1.02,-1.12,3.12,3.13,3.13
140,4.07,0.99,4.10,1.00,-1.00,-1.08,3.07,3.09,3.08
141,4.03,0.97,4.04,0.98,-0.98,-1.05,3.05,3.06,3.06
142,3.99,0.95,3.99,0.96,-0.96,-1.03,3.03,3.03,3.04
144,3.92,0.92,3.93,0.93,-0.93,-0.99,2.99,3.00,2.99
145,3.89,0.91,3.88,0.91,-0.91,-0.97,2.98,2.97,2.97
147,3.82,0.89,3.82,0.89,-0.89,-0.92,2.93,2.94,2.93
148,3.78,0.86,3.77,0.86,-0.86,-0.90,2.92,2.91,2.91
150,3.71,0.83,3.72,0.84,-0.84,-0.85,2.87,2.88,2.87
151,3.68,0.82,3.67,0.82,-0.82,-0.82,2.86,2.85,2.86
153,3.62,0.80,3.62,0.79,-0.79,-0.78,2.83,2.83,2.82
154,3.58,0.78,3.57,0.77,-0.77,-0.75,2.81,2.80,2.80
156,3.51,0.74,3.52,0.75,-0.75,-0.71,2.76,2.77,2.77
157,3.47,0.72,3.47,0.72,-0.72,-0.68,2.75,2.75,2.75
159,3.41,0.69,3.42,0.70,-0.70,-0.64,2.71,2.72,2.72
160,3.38,0.68,3.37,0.67,-0.67,-0.62,2.71,2.70,2.70
162,3.32,0.65,3.32,0.65,-0.65,-0.57,2.67,2.67,2.67
164,3.26,0.62,3.27,0.62,-0.62,-0.53,2.64,2.65,2.64
165,3.23,0.60,3.22,0.60,-0.60,-0.51,2.63,2.62,2.63
167,3.17,0.57,3.17,0.57,-0.57,-0.46,2.60,2.60,2.60
169,3.11,0.53,3.12,0.54,-0.54,-0.42,2.57,2.58,2.57
170,3.08,0.52,3.07,0.51,-0.51,-0.40,2.56,2.56,2.56
172,3.03,0.49,3.02,0.48,-0.48,-0.36,2.54,2.54,2.54
174,2.97,0.46,2.97,0.45,-0.45,-0.32,2.51,2.51,2.51
175,2.94,0.44,2.92,0.42,-0.42,-0.30,2.52,2.49,2.50
177,2.89,0.41,2.86,0.39,-0.39,-0.26,2.50,2.47,2.48
179,2.82,0.36,2.81,0.36,-0.36,-0.22,2.46,2.45,2.45
181,2.76,0.33,2.76,0.32,-0.32,-0.19,2.44,2.43,2.43
183,2.68,0.27,2.70,0.29,-0.29,-0.15,2.39,2.42,2.41
184,2.65,0.25,2.65,0.26,-0.26,-0.13,2.39,2.40,2.40
186,2.59,0.21,2.60,0.22,-0.22,-0.10,2.36,2.38,2.38
188,2.54,0.18,2.55,0.19,-0.19,-0.06,2.34,2.36,2.36
190,2.49,0.14,2.51,0.16,-0.16,-0.03,2.32,2.34,2.34
192,2.46,0.13,2.46,0.14,-0.14,0.01,2.32,2.33,2.33
194,2.42,0.11,2.42,0.11,-0.11,0.04,2.31,2.31,2.31
196,2.39,0.09,2.37,0.08,-0.08,0.07,2.31,2.29,2.29
198,2.34,0.06,2.33,0.05,-0.05,0.10,2.29,2.28,2.28
200,2.30,0.04,2.29,0.03,-0.03,0.13,2.27,2.26,2.26
202,2.25,0.00,2.24,-0.00,0.00,0.16,2.25,2.25,2.25
204,2.20,-0.04,2.20,-0.03,0.03,0.19,2.23,2.23,2.23
206,2.15,-0.07,2.15,-0.06,0.06,0.22,2.21,2.22,2.22
208,2.11,-0.10,2.11,-0.10,0.10,0.25,2.21,2.21,2.21
210,2.07,-0.13,2.06,-0.13,0.13,0.28,2.20,2.19,2.19
212,2.03,-0.15,2.01,-0.17,0.17,0.31,2.20,2.18,2.18
214,1.98,-0.19,1.96,-0.21,0.21,0.34,2.19,2.17,2.17
216,1.94,-0.22,1.91,-0.25,0.25,0.37,2.18,2.16,2.16
218,1.87,-0.28,1.86,-0.29,0.29,0.40,2.15,2.14,2.15
221,1.79,-0.34,1.81,-0.33,0.33,0.44,2.11,2.13,2.13
223,1.73,-0.39,1.76,-0.36,0.36,0.47,2.09,2.12,2.12
225,1.68,-0.43,1.71,-0.40,0.40,0.49,2.08,2.11,2.11
227,1.64,-0.46,1.66,-0.44,0.44,0.52,2.08,2.10,2.10
229,1.61,-0.48,1.61,-0.48,0.48,0.55,2.08,2.09,2.09
232,1.56,-0.52,1.57,-0.51,0.51,0.58,2.07,2.08,2.08
234,1.53,-0.54,1.52,-0.55,0.55,0.61,2.08,2.07,2.07
236,1.49,-0.57,1.48,-0.58,0.58,0.64,2.07,2.06,2.06
239,1.44,-0.61,1.43,-0.62,0.62,0.67,2.05,2.05,2.05
241,1.40,-0.64,1.39,-0.65,0.65,0.70,2.05,2.04,2.04
244,1.34,-0.69,1.34,-0.69,0.69,0.74,2.02,2.03,2.03
246,1.31,-0.71,1.30,-0.72,0.72,0.76,2.03,2.02,2.02
248,1.26,-0.76,1.25,-0.76,0.76,0.79,2.02,2.01,2.01
251,1.21,-0.80,1.20,-0.80,0.80,0.82,2.01,2.00,2.00
253,1.16,-0.84,1.15,-0.84,0.84,0.85,2.00,2.00,2.00
256,1.11,-0.88,1.10,-0.88,0.88,0.88,1.99,1.99,1.99
259,1.05,-0.93,1.05,-0.93,0.93,0.92,1.98,1.98,1.98
261,1.01,-0.97,1.00,-0.97,0.97,0.94,1.98,1.97,1.97
264,0.94,-1.03,0.95,-1.02,1.02,0.98,1.96,1.97,1.97
266,0.90,-1.06,0.89,-1.06,1.06,1.00,1.96,1.96,1.96
269,0.84,-1.11,0.84,-1.11,1.11,1.04,1.95,1.95,1.95
272,0.78,-1.17,0.79,-1.16,1.16,1.07,1.94,1.95,1.94
274,0.74,-1.20,0.73,-1.21,1.21,1.10,1.95,1.94,1.94
277,0.68,-1.25,0.68,-1.26,1.26,1.14,1.93,1.93,1.93
280,0.62,-1.31,0.62,-1.30,1.30,1.17,1.92,1.93,1.93
283,0.56,-1.36,0.57,-1.35,1.35,1.21,1.91,1.92,1.92
286,0.51,-1.41,0.51,-1.40,1.40,1.25,1.91,1.91,1.91
288,0.47,-1.44,0.46,-1.45,1.45,1.27,1.92,1.91,1.91
291,0.41,-1.50,0.40,-1.50,1.50,1.31,1.91,1.90,1.90
294,0.35,-1.55,0.35,-1.55,1.55,1.35,1.90,1.90,1.90
297,0.30,-1.59,0.29,-1.60,1.60,1.39,1.90,1.89,1.89
300,0.24,-1.65,0.24,-1.65,1.65,1.43,1.89,1.89,1.89
303,0.18,-1.70,0.18,-1.70,1.70,1.47,1.88,1.88,1.88
306,0.13,-1.75,0.13,-1.75,1.75,1.52,1.88,1.88,1.88
309,0.07,-1.81,0.07,-1.80,1.80,1.56,1.87,1.87,1.87
312,0.02,-1.85,0.01,-1.86,1.86,1.60,1.87,1.87,1.87
316,-0.05,-1.92,-0.04,-1.91,1.91,1.66,1.85,1.86,1.86
319,-0.10,-1.96,-0.10,-1.96,1.96,1.71,1.86,1.86,1.86
322,-0.15,-2.01,-0.16,-2.01,2.01,1.75,1.86,1.86,1.86
325,-0.21,-2.06,-0.21,-2.06,2.06,1.80,1.85,1.85,1.85
328,-0.26,-2.11,-0.27,-2.12,2.12,1.85,1.85,1.85,1.85
332,-0.33,-2.18,-0.33,-2.17,2.17,1.92,1.84,1.84,1.84
335,-0.38,-2.22,-0.38,-2.22,2.22,1.97,1.84,1.84,1.84
338,-0.43,-2.27,-0.44,-2.28,2.28,2.02,1.84,1.84,1.84
342,-0.50,-2.34,-0.50,-2.33,2.33,2.09,1.83,1.83,1.83
345,-0.55,-2.38,-0.55,-2.39,2.39,2.14,1.83,1.83,1.83
349,-0.61,-2.44,-0.61,-2.44,2.44,2.21,1.83,1.83,1.83
352,-0.66,-2.49,-0.67,-2.49,2.49,2.27,1.83,1.82,1.82
356,-0.73,-2.55,-0.73,-2.55,2.55,2.34,1.82,1.82,1.82
359,-0.78,-2.60,-0.79,-2.60,2.60,2.40,1.82,1.82,1.82
363,-0.84,-2.66,-0.84,-2.66,2.66,2.48,1.81,1.81,1.81
366,-0.89,-2.70,-0.90,-2.71,2.71,2.54,1.82,1.81,1.81
370,-0.95,-2.76,-0.95,-2.76,2.76,2.62,1.81,1.81,1.81
374,-1.01,-2.82,-1.01,-2.81,2.81,2.70,1.80,1.80,1.80
377,-1.05,-2.85,-1.06,-2.86,2.86,2.76,1.81,1.80,1.80
381,-1.11,-2.91,-1.11,-2.91,2.91,2.84,1.80,1.80,1.80
385,-1.16,-2.96,-1.16,-2.95,2.95,2.93,1.79,1.80,1.80
389,-1.21,-3.00,-1.20,-2.99,2.99,3.01,1.78,1.79,1.79
393,-1.25,-3.04,-1.24,-3.03,3.03,3.09,1.78,1.79,1.79
397,-1.29,-3.08,-1.28,-3.07,3.07,3.18,1.78,1.79,1.79
401,-1.33,-3.12,-1.32,-3.10,3.10,3.26,1.77,1.78,1.78
405,-1.36,-3.14,-1.35,-3.13,3.13,3.35,1.77,1.78,1.78
409,-1.39,-3.17,-1.38,-3.16,3.16,3.43,1.77,1.78,1.78
413,-1.41,-3.19,-1.41,-3.19,3.19,3.52,1.77,1.78,1.78
417,-1.43,-3.21,-1.43,-3.21,3.21,3.60,1.78,1.78,1.78
421,-1.45,-3.23,-1.46,-3.23,3.23,3.68,1.78,1.77,1.77
425,-1.47,-3.25,-1.48,-3.26,3.26,3.76,1.78,1.77,1.77
430,-1.50,-3.27,-1.51,-3.28,3.28,3.86,1.78,1.77,1.77
434,-1.52,-3.30,-1.53,-3.30,3.30,3.94,1.78,1.77,1.77
438,-1.55,-3.33,-1.55,-3.33,3.33,4.01,1.78,1.77,1.77
443,-1.58,-3.36,-1.58,-3.35,3.35,4.10,1.77,1.78,1.78
447,-1.60,-3.38,-1.60,-3.38,3.38,4.17,1.78,1.78,1.78
451,-1.63,-3.41,-1.63,-3.41,3.41,4.24,1.78,1.78,1.78
456,-1.66,-3.45,-1.66,-3.45,3.45,4.32,1.79,1.79,1.79
460,-1.69,-3.48,-1.70,-3.49,3.49,4.37,1.79,1.79,1.79
465,-1.73,-3.53,-1.73,-3.53,3.53,4.44,1.80,1.80,1.80
470,-1.77,-3.58,-1.77,-3.57,3.57,4.50,1.80,1.80,1.80
474,-1.80,-3.61,-1.81,-3.62,3.62,4.55,1.82,1.81,1.81
479,-1.85,-3.67,-1.85,-3.67,3.67,4.60,1.82,1.82,1.82
484,-1.89,-3.72,-1.90,-3.73,3.73,4.64,1.84,1.83,1.83
489,-1.94,-3.78,-1.95,-3.79,3.79,4.68,1.85,1.84,1.84
494,-1.98,-3.84,-2.00,-3.86,3.86,4.71,1.87,1.85,1.85
499,-2.03,-3.90,-2.06,-3.92,3.92,4.74,1.89,1.87,1.87
504,-2.09,-3.97,-2.11,-3.99,3.99,4.75,1.90,1.88,1.88
509,-2.15,-4.05,-2.17,-4.06,4.06,4.77,1.91,1.90,1.90
514,-2.21,-4.13,-2.22,-4.14,4.14,4.77,1.92,1.91,1.91
519,-2.28,-4.21,-2.27,-4.21,4.21,4.77,1.92,1.93,1.93
524,-2.34,-4.29,-2.32,-4.27,4.27,4.77,1.93,1.95,1.95
529,-2.40,-4.37,-2.37,-4.34,4.34,4.76,1.94,1.97,1.97
535,-2.44,-4.43,-2.41,-4.40,4.40,4.74,1.96,1.99,1.99
540,-2.48,-4.49,-2.45,-4.46,4.46,4.72,1.98,2.01,2.01
545,-2.49,-4.53,-2.48,-4.51,4.51,4.70,2.02,2.04,2.04
551,-2.50,-4.56,-2.50,-4.56,4.56,4.67,2.06,2.06,2.06
556,-2.51,-4.60,-2.52,-4.60,4.60,4.65,2.09,2.08,2.08
562,-2.53,-4.64,-2.53,-4.64,4.64,4.61,2.11,2.11,2.11
568,-2.54,-4.68,-2.54,-4.68,4.68,4.57,2.14,2.13,2.13
573,-2.54,-4.70,-2.55,-4.71,4.71,4.54,2.17,2.16,2.16
579,-2.55,-4.74,-2.55,-4.74,4.74,4.50,2.19,2.19,2.19
585,-2.56,-4.78,-2.55,-4.77,4.77,4.46,2.20,2.22,2.22
591,-2.55,-4.80,-2.55,-4.79,4.79,4.42,2.24,2.25,2.25
596,-2.54,-4.82,-2.54,-4.82,4.82,4.39,2.28,2.28,2.28
602,-2.53,-4.84,-2.54,-4.84,4.84,4.35,2.31,2.31,2.31
608,-2.51,-4.85,-2.53,-4.87,4.87,4.31,2.36,2.34,2.34
615,-2.50,-4.87,-2.53,-4.90,4.90,4.27,2.39,2.37,2.37
621,-2.51,-4.91,-2.52,-4.92,4.92,4.23,2.41,2.40,2.40
627,-2.51,-4.94,-2.52,-4.95,4.95,4.20,2.44,2.43,2.43
633,-2.52,-4.99,-2.51,-4.98,4.98,4.17,2.46,2.47,2.47
639,-2.53,-5.03,-2.51,-5.01,5.01,4.14,2.48,2.50,2.50
646,-2.52,-5.06,-2.51,-5.04,5.04,4.11,2.52,2.53,2.53
652,-2.51,-5.08,-2.50,-5.07,5.07,4.09,2.56,2.57,2.57
659,-2.49,-5.09,-2.49,-5.10,5.10,4.06,2.61,2.60,2.60
665,-2.47,-5.11,-2.49,-5.13,5.13,4.05,2.66,2.64,2.64
672,-2.46,-5.14,-2.48,-5.16,5.16,4.03,2.69,2.67,2.67
679,-2.45,-5.16,-2.47,-5.19,5.19,4.01,2.73,2.71,2.71
686,-2.46,-5.21,-2.47,-5.21,5.21,4.00,2.75,2.75,2.75
692,-2.46,-5.25,-2.46,-5.24,5.24,4.00,2.78,2.79,2.78
699,-2.46,-5.28,-2.44,-5.27,5.27,3.99,2.80,2.82,2.82
706,-2.45,-5.31,-2.43,-5.29,5.29,3.99,2.84,2.86,2.86
713,-2.43,-5.33,-2.42,-5.31,5.31,3.99,2.88,2.90,2.90
721,-2.40,-5.34,-2.40,-5.34,5.34,4.00,2.93,2.94,2.93
728,-2.37,-5.34,-2.38,-5.35,5.35,4.00,2.98,2.97,2.97
735,-2.34,-5.35,-2.36,-5.37,5.37,4.01,3.03,3.01,3.01
742,-2.31,-5.36,-2.34,-5.38,5.38,4.03,3.07,3.05,3.05
750,-2.29,-5.38,-2.31,-5.40,5.40,4.05,3.10,3.09,3.09
757,-2.27,-5.39,-2.28,-5.40,5.40,4.07,3.13,3.12,3.12
765,-2.25,-5.41,-2.24,-5.40,5.40,4.09,3.15,3.16,3.16
773,-2.22,-5.42,-2.20,-5.40,5.40,4.12,3.18,3.20,3.20
780,-2.18,-5.41,-2.16,-5.39,5.39,4.14,3.21,3.23,3.23
788,-2.13,-5.40,-2.11,-5.38,5.38,4.17,3.24,3.27,3.27
796,-2.07,-5.37,-2.05,-5.36,5.36,4.20,3.28,3.30,3.30
804,-1.99,-5.33,-1.99,-5.33,5.33,4.24,3.34,3.34,3.34
812,-1.93,-5.30,-1.93,-5.30,5.30,4.27,3.36,3.37,3.37
820,-1.85,-5.26,-1.85,-5.26,5.26,4.31,3.41,3.40,3.40
828,-1.78,-5.22,-1.78,-5.21,5.21,4.35,3.43,3.44,3.44
837,-1.69,-5.16,-1.69,-5.16,5.16,4.39,3.47,3.47,3.47
845,-1.61,-5.11,-1.61,-5.11,5.11,4.43,3.49,3.50,3.50
853,-1.52,-5.05,-1.52,-5.05,5.05,4.46,3.53,3.53,3.53
862,-1.42,-4.98,-1.43,-4.98,4.98,4.50,3.56,3.56,3.56
871,-1.32,-4.91,-1.33,-4.92,4.92,4.54,3.60,3.59,3.59
879,-1.24,-4.86,-1.23,-4.85,4.85,4.57,3.61,3.62,3.62
888,-1.13,-4.78,-1.13,-4.78,4.78,4.61,3.65,3.65,3.65
897,-1.03,-4.71,-1.03,-4.71,4.71,4.64,3.68,3.67,3.67
906,-0.93,-4.63,-0.94,-4.64,4.64,4.66,3.71,3.70,3.70
915,-0.83,-4.56,-0.84,-4.57,4.57,4.69,3.74,3.73,3.73
924,-0.74,-4.50,-0.74,-4.50,4.50,4.71,3.76,3.76,3.76
933,-0.65,-4.43,-0.65,-4.43,4.43,4.72,3.78,3.78,3.78
943,-0.55,-4.36,-0.56,-4.37,4.37,4.73,3.82,3.81,3.81
952,-0.45,-4.29,-0.47,-4.31,4.31,4.73,3.85,3.84,3.84
962,-0.34,-4.20,-0.38,-4.24,4.24,4.73,3.90,3.86,3.86
971,-0.25,-4.14,-0.29,-4.18,4.18,4.72,3.93,3.89,3.89
981,-0.15,-4.07,-0.20,-4.12,4.12,4.71,3.97,3.92,3.92
991,-0.07,-4.01,-0.11,-4.05,4.05,4.68,3.98,3.94,3.94
1001,0.01,-3.96,-0.01,-3.98,3.98,4.65,3.99,3.97,3.97
1011,0.08,-3.92,0.09,-3.90,3.90,4.62,3.98,4.00,4.00
1021,0.16,-3.86,0.21,-3.81,3.81,4.57,3.97,4.02,4.02
1031,0.23,-3.82,0.33,-3.72,3.72,4.52,3.94,4.05,4.05
1041,0.34,-3.74,0.47,-3.61,3.61,4.47,3.95,4.08,4.08
1052,0.50,-3.61,0.62,-3.49,3.49,4.40,3.99,4.11,4.11
1062,0.66,-3.48,0.77,-3.36,3.36,4.33,4.02,4.13,4.13
1073,0.89,-3.27,0.93,-3.24,3.24,4.25,4.12,4.16,4.16
1084,1.11,-3.08,1.09,-3.10,3.10,4.17,4.21,4.19,4.19
1094,1.31,-2.91,1.24,-2.98,2.98,4.09,4.28,4.22,4.22
1105,1.51,-2.74,1.40,-2.85,2.85,3.99,4.36,4.25,4.25
1116,1.66,-2.62,1.54,-2.74,2.74,3.90,4.40,4.28,4.28
1128,1.80,-2.51,1.67,-2.64,2.64,3.79,4.44,4.31,4.31
1139,1.89,-2.45,1.79,-2.55,2.55,3.69,4.44,4.34,4.34
1150,1.95,-2.42,1.90,-2.48,2.48,3.58,4.42,4.37,4.37
1162,2.01,-2.40,1.99,-2.41,2.41,3.47,4.42,4.40,4.40
1173,2.06,-2.38,2.08,-2.36,2.36,3.36,4.41,4.43,4.43
1185,2.12,-2.35,2.16,-2.31,2.31,3.25,4.43,4.47,4.47
1197,2.18,-2.32,2.23,-2.27,2.27,3.13,4.45,4.50,4.50
1209,2.25,-2.28,2.30,-2.23,2.23,3.02,4.48,4.53,4.53
1221,2.32,-2.25,2.37,-2.19,2.19,2.90,4.51,4.56,4.56
1233,2.39,-2.21,2.45,-2.15,2.15,2.79,4.54,4.60,4.60
1246,2.49,-2.14,2.52,-2.11,2.11,2.66,4.60,4.63,4.63
1258,2.58,-2.09,2.60,-2.06,2.06,2.55,4.64,4.66,4.66
1271,2.70,-2.00,2.68,-2.01,2.01,2.43,4.71,4.70,4.70
1283,2.79,-1.95,2.77,-1.96,1.96,2.32,4.75,4.73,4.73
1296,2.90,-1.87,2.86,-1.91,1.91,2.20,4.81,4.77,4.77
1309,2.99,-1.82,2.95,-1.86,1.86,2.09,4.85,4.80,4.80
1322,3.07,-1.77,3.04,-1.80,1.80,1.97,4.87,4.84,4.84
1335,3.13,-1.75,3.13,-1.75,1.75,1.86,4.88,4.88,4.88
1349,3.20,-1.71,3.21,-1.70,1.70,1.75,4.90,4.91,4.91
1362,3.28,-1.67,3.30,-1.65,1.65,1.64,4.92,4.95,4.95
1376,3.37,-1.62,3.39,-1.59,1.59,1.52,4.96,4.99,4.99
1390,3.47,-1.56,3.48,-1.54,1.54,1.41,5.01,5.02,5.02
1404,3.58,-1.48,3.57,-1.49,1.49,1.30,5.07,5.06,5.06
1418,3.68,-1.42,3.66,-1.44,1.44,1.20,5.12,5.10,5.10
1432,3.78,-1.36,3.75,-1.39,1.39,1.09,5.17,5.14,5.14
1446,3.86,-1.32,3.84,-1.34,1.34,0.99,5.19,5.18,5.18
1461,3.95,-1.27,3.94,-1.28,1.28,0.88,5.23,5.22,5.22
1475,4.02,-1.24,4.03,-1.22,1.22,0.78,5.24,5.26,5.26
1490,4.11,-1.19,4.13,-1.16,1.16,0.68,5.27,5.30,5.30
1505,4.21,-1.13,4.24,-1.10,1.10,0.58,5.31,5.34,5.34
1520,4.32,-1.06,4.34,-1.04,1.04,0.47,5.35,5.38,5.38
1535,4.45,-0.97,4.45,-0.97,0.97,0.38,5.41,5.42,5.42
1550,4.57,-0.90,4.57,-0.90,0.90,0.28,5.46,5.46,5.46
1566,4.70,-0.81,4.68,-0.82,0.82,0.18,5.52,5.51,5.51
1582,4.83,-0.72,4.81,-0.74,0.74,0.08,5.57,5.55,5.55
1597,4.95,-0.64,4.93,-0.66,0.66,-0.01,5.61,5.59,5.59
1613,5.06,-0.58,5.06,-0.58,0.58,-0.11,5.64,5.63,5.63
1629,5.19,-0.49,5.19,-0.49,0.49,-0.20,5.68,5.68,5.68
1646,5.33,-0.40,5.32,-0.40,0.40,-0.30,5.73,5.72,5.72
1662,5.45,-0.32,5.46,-0.31,0.31,-0.39,5.76,5.77,5.77
1679,5.59,-0.23,5.60,-0.21,0.21,-0.48,5.80,5.81,5.81
1696,5.74,-0.12,5.74,-0.12,0.12,-0.57,5.85,5.86,5.86
1713,5.88,-0.03,5.89,-0.01,0.01,-0.66,5.89,5.91,5.91
1730,6.03,0.07,6.05,0.09,-0.09,-0.75,5.94,5.95,5.96
1747,6.20,0.19,6.20,0.20,-0.20,-0.84,6.00,6.00,6.00
1764,6.36,0.30,6.36,0.31,-0.31,-0.92,6.05,6.05,6.05
1782,6.53,0.42,6.53,0.42,-0.42,-1.00,6.10,6.10,6.10
1800,6.70,0.54,6.69,0.54,-0.54,-1.09,6.16,6.15,6.16
1818,6.88,0.67,6.86,0.65,-0.65,-1.17,6.22,6.21,6.21
1836,7.05,0.78,7.03,0.77,-0.77,-1.25,6.28,6.26,6.27
1854,7.21,0.89,7.20,0.88,-0.88,-1.32,6.32,6.32,6.32
1873,7.39,1.00,7.38,1.00,-1.00,-1.40,6.39,6.38,6.38
1892,7.57,1.12,7.56,1.11,-1.11,-1.47,6.46,6.44,6.45
1911,7.75,1.24,7.74,1.22,-1.22,-1.54,6.52,6.51,6.51
1930,7.93,1.34,7.92,1.34,-1.34,-1.61,6.59,6.58,6.58
1949,8.11,1.45,8.10,1.45,-1.45,-1.68,6.66,6.66,6.66
1969,8.29,1.55,8.29,1.55,-1.55,-1.74,6.73,6.74,6.74
1988,8.47,1.64,8.49,1.66,-1.66,-1.80,6.81,6.83,6.82
2008,8.67,1.75,8.69,1.77,-1.77,-1.86,6.90,6.92,6.92
2028,8.87,1.85,8.89,1.87,-1.87,-1.92,6.99,7.02,7.01
2048,9.09,1.97,9.10,1.98,-1.98,-1.98,7.11,7.12,7.12
2069,9.31,2.08,9.32,2.08,-2.08,-2.03,7.23,7.24,7.23
