frequency,raw,error,smoothed,error_smoothed,equalization,parametric_eq,equalized_raw,equalized_smoothed,target
20.00,6.35,-1.28,6.35,-1.28,1.28,0.20,7.63,7.63,7.63
20.20,6.38,-1.25,6.38,-1.25,1.25,0.21,7.63,7.63,7.63
20.40,6.41,-1.22,6.41,-1.22,1.22,0.21,7.63,7.63,7.63
20.61,6.44,-1.19,6.44,-1.19,1.19,0.22,7.62,7.63,7.63
20.81,6.47,-1.16,6.47,-1.15,1.15,0.23,7.62,7.63,7.63
21.02,6.50,-1.12,6.50,-1.12,1.12,0.23,7.62,7.62,7.62
21.23,6.53,-1.09,6.53,-1.09,1.09,0.24,7.62,7.62,7.62
21.44,6.56,-1.06,6.56,-1.06,1.06,0.25,7.62,7.62,7.62
21.66,6.59,-1.03,6.59,-1.03,1.03,0.25,7.62,7.62,7.62
21.87,6.61,-1.01,6.61,-1.00,1.00,0.26,7.61,7.62,7.62
22.09,6.64,-0.98,6.64,-0.98,0.98,0.27,7.61,7.62,7.62
22.31,6.67,-0.95,6.67,-0.95,0.95,0.27,7.62,7.61,7.61
22.54,6.70,-0.91,6.69,-0.92,0.92,0.28,7.62,7.61,7.61
22.76,6.72,-0.89,6.72,-0.89,0.89,0.29,7.61,7.61,7.61
22.99,6.75,-0.86,6.75,-0.86,0.86,0.30,7.61,7.61,7.61
23.22,6.77,-0.84,6.77,-0.84,0.84,0.31,7.60,7.61,7.61
23.45,6.80,-0.81,6.80,-0.81,0.81,0.31,7.61,7.61,7.61
23.69,6.82,-0.78,6.82,-0.78,0.78,0.32,7.60,7.60,7.60
23.92,6.84,-0.76,6.85,-0.76,0.76,0.33,7.60,7.60,7.60
24.16,6.87,-0.73,6.87,-0.73,0.73,0.34,7.60,7.60,7.60
24.40,6.89,-0.71,6.89,-0.71,0.71,0.35,7.60,7.60,7.60
24.65,6.92,-0.68,6.91,-0.68,0.68,0.36,7.60,7.60,7.60
24.89,6.94,-0.65,6.94,-0.66,0.66,0.36,7.60,7.59,7.59
25.14,6.96,-0.63,6.96,-0.63,0.63,0.37,7.59,7.59,7.59
25.39,6.98,-0.61,6.98,-0.61,0.61,0.38,7.59,7.59,7.59
25.65,7.00,-0.59,7.00,-0.59,0.59,0.39,7.58,7.59,7.59
25.91,7.02,-0.56,7.02,-0.56,0.56,0.40,7.58,7.58,7.58
26.16,7.04,-0.54,7.04,-0.54,0.54,0.41,7.58,7.58,7.58
26.43,7.06,-0.52,7.06,-0.52,0.52,0.42,7.58,7.58,7.58
26.69,7.08,-0.50,7.08,-0.50,0.50,0.42,7.58,7.58,7.58
26.96,7.10,-0.47,7.10,-0.48,0.48,0.43,7.58,7.57,7.57
27.23,7.11,-0.46,7.11,-0.46,0.46,0.44,7.57,7.57,7.57
27.50,7.13,-0.44,7.13,-0.44,0.44,0.45,7.57,7.57,7.57
27.77,7.15,-0.42,7.15,-0.42,0.42,0.45,7.57,7.56,7.56
28.05,7.16,-0.40,7.16,-0.40,0.40,0.46,7.56,7.56,7.56
28.33,7.18,-0.38,7.18,-0.38,0.38,0.46,7.56,7.56,7.56
28.62,7.19,-0.37,7.19,-0.36,0.36,0.47,7.55,7.55,7.55
28.90,7.21,-0.34,7.20,-0.35,0.35,0.47,7.56,7.55,7.55
29.19,7.22,-0.33,7.22,-0.33,0.33,0.47,7.55,7.55,7.55
29.48,7.23,-0.32,7.23,-0.31,0.31,0.48,7.54,7.54,7.54
29.78,7.24,-0.30,7.24,-0.30,0.30,0.48,7.54,7.54,7.54
30.08,7.25,-0.29,7.26,-0.28,0.28,0.48,7.53,7.54,7.54
30.38,7.27,-0.26,7.27,-0.27,0.27,0.48,7.53,7.53,7.53
30.68,7.28,-0.25,7.28,-0.25,0.25,0.48,7.53,7.53,7.53
30.99,7.29,-0.24,7.29,-0.24,0.24,0.47,7.52,7.52,7.53
31.30,7.30,-0.22,7.30,-0.22,0.22,0.47,7.52,7.52,7.52
31.61,7.31,-0.21,7.31,-0.21,0.21,0.47,7.52,7.52,7.52
31.93,7.32,-0.19,7.32,-0.19,0.19,0.46,7.51,7.51,7.51
32.24,7.33,-0.18,7.33,-0.18,0.18,0.45,7.51,7.51,7.51
32.57,7.34,-0.16,7.34,-0.17,0.17,0.45,7.50,7.50,7.50
32.89,7.35,-0.15,7.35,-0.15,0.15,0.44,7.50,7.50,7.50
33.22,7.35,-0.14,7.35,-0.14,0.14,0.43,7.49,7.49,7.49
33.55,7.36,-0.13,7.36,-0.13,0.13,0.42,7.49,7.49,7.49
33.89,7.37,-0.11,7.37,-0.12,0.12,0.41,7.48,7.48,7.48
34.23,7.37,-0.11,7.37,-0.10,0.10,0.40,7.47,7.48,7.48
34.57,7.38,-0.09,7.38,-0.09,0.09,0.39,7.47,7.47,7.47
34.92,7.39,-0.08,7.38,-0.08,0.08,0.37,7.47,7.47,7.47
35.27,7.39,-0.07,7.39,-0.07,0.07,0.36,7.46,7.46,7.46
35.62,7.40,-0.06,7.39,-0.06,0.06,0.35,7.46,7.45,7.45
35.97,7.40,-0.05,7.40,-0.05,0.05,0.33,7.45,7.45,7.45
36.33,7.40,-0.04,7.40,-0.04,0.04,0.32,7.44,7.44,7.44
36.70,7.41,-0.03,7.41,-0.03,0.03,0.30,7.43,7.43,7.43
37.06,7.41,-0.02,7.41,-0.01,0.01,0.29,7.42,7.43,7.43
37.43,7.41,-0.01,7.42,-0.00,0.00,0.27,7.41,7.42,7.42
37.81,7.42,0.01,7.42,0.01,-0.01,0.26,7.41,7.41,7.41
38.19,7.42,0.01,7.42,0.02,-0.02,0.24,7.40,7.41,7.41
38.57,7.43,0.03,7.42,0.03,-0.03,0.23,7.40,7.40,7.40
38.95,7.43,0.04,7.42,0.03,-0.03,0.21,7.39,7.39,7.39
39.34,7.43,0.05,7.43,0.04,-0.04,0.19,7.39,7.38,7.38
39.74,7.43,0.05,7.43,0.05,-0.05,0.18,7.38,7.37,7.37
40.14,7.43,0.06,7.43,0.06,-0.06,0.16,7.37,7.37,7.37
40.54,7.42,0.06,7.42,0.07,-0.07,0.14,7.35,7.36,7.36
40.94,7.42,0.07,7.42,0.08,-0.08,0.13,7.34,7.35,7.35
41.35,7.42,0.08,7.42,0.08,-0.08,0.11,7.34,7.34,7.34
41.76,7.42,0.09,7.42,0.09,-0.09,0.10,7.33,7.33,7.33
42.18,7.42,0.10,7.42,0.10,-0.10,0.08,7.32,7.32,7.32
42.60,7.41,0.10,7.41,0.10,-0.10,0.06,7.31,7.31,7.31
43.03,7.41,0.11,7.41,0.11,-0.11,0.05,7.30,7.30,7.30
43.46,7.41,0.12,7.40,0.12,-0.12,0.03,7.29,7.29,7.29
43.90,7.40,0.12,7.40,0.12,-0.12,0.01,7.27,7.28,7.28
44.33,7.40,0.13,7.40,0.13,-0.13,-0.00,7.27,7.26,7.27
44.78,7.39,0.14,7.39,0.14,-0.14,-0.02,7.25,7.25,7.25
45.23,7.39,0.15,7.38,0.15,-0.15,-0.03,7.24,7.24,7.24
45.68,7.38,0.15,7.38,0.16,-0.16,-0.05,7.22,7.22,7.23
46.13,7.38,0.16,7.38,0.17,-0.17,-0.07,7.21,7.21,7.22
46.60,7.37,0.17,7.37,0.18,-0.18,-0.08,7.19,7.20,7.20
47.06,7.36,0.17,7.37,0.18,-0.18,-0.10,7.17,7.19,7.19
47.53,7.35,0.17,7.37,0.19,-0.19,-0.11,7.16,7.18,7.18
48.01,7.35,0.19,7.36,0.20,-0.20,-0.13,7.15,7.16,7.16
48.49,7.35,0.20,7.35,0.21,-0.21,-0.15,7.14,7.15,7.15
48.97,7.34,0.21,7.34,0.21,-0.21,-0.16,7.13,7.13,7.13
49.46,7.34,0.22,7.33,0.22,-0.22,-0.18,7.12,7.11,7.12
49.96,7.34,0.24,7.31,0.22,-0.22,-0.19,7.12,7.09,7.10
50.46,7.34,0.25,7.30,0.22,-0.22,-0.21,7.12,7.07,7.09
50.96,7.33,0.26,7.28,0.22,-0.22,-0.23,7.10,7.06,7.07
51.47,7.29,0.24,7.27,0.23,-0.23,-0.24,7.06,7.04,7.05
51.99,7.25,0.22,7.25,0.23,-0.23,-0.26,7.02,7.02,7.03
52.51,7.20,0.18,7.23,0.23,-0.23,-0.27,6.97,7.01,7.02
53.03,7.16,0.16,7.22,0.22,-0.22,-0.29,6.93,6.99,7.00
53.56,7.15,0.17,7.20,0.22,-0.22,-0.30,6.93,6.97,6.98
54.10,7.14,0.18,7.17,0.22,-0.22,-0.32,6.92,6.95,6.96
54.64,7.15,0.21,7.15,0.22,-0.22,-0.33,6.92,6.93,6.94
55.18,7.15,0.23,7.13,0.22,-0.22,-0.34,6.92,6.91,6.92
55.74,7.15,0.25,7.11,0.23,-0.23,-0.36,6.92,6.88,6.90
56.29,7.14,0.26,7.09,0.23,-0.23,-0.37,6.91,6.86,6.88
56.86,7.11,0.26,7.08,0.24,-0.24,-0.38,6.87,6.84,6.85
57.42,7.07,0.24,7.06,0.24,-0.24,-0.40,6.83,6.82,6.83
58.00,7.04,0.23,7.05,0.25,-0.25,-0.41,6.79,6.80,6.81
58.58,7.01,0.22,7.04,0.26,-0.26,-0.42,6.75,6.78,6.78
59.16,6.99,0.23,7.02,0.27,-0.27,-0.43,6.72,6.76,6.76
59.76,6.98,0.24,7.01,0.28,-0.28,-0.44,6.70,6.73,6.74
60.35,6.98,0.27,6.99,0.29,-0.29,-0.45,6.69,6.70,6.71
60.96,6.97,0.29,6.97,0.29,-0.29,-0.46,6.67,6.68,6.68
61.57,6.96,0.30,6.95,0.30,-0.30,-0.47,6.65,6.65,6.66
62.18,6.96,0.33,6.94,0.31,-0.31,-0.48,6.64,6.62,6.63
62.80,6.94,0.34,6.92,0.33,-0.33,-0.49,6.61,6.60,6.60
63.43,6.92,0.35,6.91,0.34,-0.34,-0.50,6.58,6.57,6.57
64.07,6.90,0.35,6.89,0.35,-0.35,-0.50,6.55,6.54,6.54
64.71,6.88,0.36,6.87,0.36,-0.36,-0.51,6.52,6.51,6.51
65.35,6.86,0.37,6.85,0.37,-0.37,-0.52,6.49,6.48,6.48
66.01,6.83,0.38,6.83,0.38,-0.38,-0.52,6.45,6.45,6.45
66.67,6.81,0.39,6.81,0.40,-0.40,-0.53,6.41,6.42,6.42
67.33,6.79,0.40,6.79,0.41,-0.41,-0.53,6.38,6.38,6.39
68.01,6.76,0.40,6.77,0.42,-0.42,-0.54,6.34,6.35,6.36
68.69,6.74,0.42,6.75,0.43,-0.43,-0.54,6.31,6.32,6.32
69.37,6.72,0.43,6.73,0.44,-0.44,-0.55,6.27,6.29,6.29
70.07,6.70,0.44,6.71,0.46,-0.46,-0.55,6.24,6.25,6.25
70.77,6.68,0.46,6.68,0.47,-0.47,-0.55,6.21,6.22,6.22
71.48,6.66,0.48,6.66,0.48,-0.48,-0.56,6.18,6.18,6.18
72.19,6.65,0.50,6.63,0.49,-0.49,-0.56,6.16,6.14,6.15
72.91,6.63,0.52,6.60,0.50,-0.50,-0.57,6.13,6.10,6.11
73.64,6.60,0.53,6.57,0.51,-0.51,-0.57,6.09,6.07,6.07
74.38,6.57,0.54,6.54,0.52,-0.52,-0.57,6.05,6.03,6.03
75.12,6.52,0.52,6.51,0.53,-0.53,-0.58,5.99,5.99,5.99
75.87,6.48,0.52,6.48,0.53,-0.53,-0.58,5.94,5.95,5.95
76.63,6.44,0.52,6.45,0.54,-0.54,-0.59,5.89,5.91,5.91
77.40,6.40,0.53,6.42,0.56,-0.56,-0.59,5.84,5.87,5.87
78.17,6.36,0.53,6.39,0.57,-0.57,-0.60,5.79,5.83,5.83
78.95,6.33,0.54,6.36,0.58,-0.58,-0.60,5.75,5.78,5.79
79.74,6.32,0.57,6.33,0.59,-0.59,-0.61,5.73,5.74,5.75
80.54,6.30,0.59,6.30,0.60,-0.60,-0.62,5.70,5.70,5.71
81.35,6.28,0.62,6.27,0.62,-0.62,-0.62,5.66,5.65,5.66
82.16,6.26,0.64,6.24,0.63,-0.63,-0.63,5.63,5.61,5.62
82.98,6.23,0.65,6.21,0.65,-0.65,-0.64,5.58,5.57,5.57
83.81,6.21,0.68,6.19,0.66,-0.66,-0.65,5.55,5.52,5.53
84.65,6.17,0.68,6.16,0.68,-0.68,-0.66,5.49,5.48,5.48
85.50,6.14,0.70,6.13,0.69,-0.69,-0.67,5.44,5.44,5.44
86.35,6.10,0.71,6.10,0.71,-0.71,-0.68,5.39,5.39,5.39
87.22,6.06,0.71,6.07,0.73,-0.73,-0.69,5.33,5.34,5.35
88.09,6.03,0.73,6.04,0.74,-0.74,-0.70,5.28,5.30,5.30
88.97,5.99,0.74,6.01,0.76,-0.76,-0.71,5.23,5.25,5.25
89.86,5.96,0.75,5.98,0.78,-0.78,-0.73,5.18,5.20,5.21
90.76,5.94,0.78,5.94,0.79,-0.79,-0.74,5.15,5.16,5.16
91.66,5.91,0.80,5.91,0.80,-0.80,-0.75,5.11,5.11,5.11
92.58,5.88,0.82,5.87,0.82,-0.82,-0.77,5.06,5.06,5.06
93.51,5.85,0.84,5.84,0.83,-0.83,-0.78,5.02,5.01,5.01
94.44,5.82,0.85,5.80,0.84,-0.84,-0.80,4.98,4.96,4.97
95.39,5.78,0.86,5.76,0.85,-0.85,-0.82,4.93,4.91,4.92
96.34,5.74,0.87,5.72,0.86,-0.86,-0.83,4.88,4.86,4.87
97.30,5.69,0.87,5.68,0.87,-0.87,-0.85,4.82,4.81,4.82
98.28,5.65,0.88,5.64,0.88,-0.88,-0.87,4.77,4.77,4.77
99.26,5.59,0.87,5.60,0.88,-0.88,-0.88,4.70,4.72,4.72
100.25,5.54,0.87,5.56,0.89,-0.89,-0.90,4.65,4.67,4.67
101.25,5.49,0.87,5.52,0.90,-0.90,-0.92,4.59,4.62,4.62
102.27,5.45,0.87,5.48,0.91,-0.91,-0.94,4.54,4.57,4.57
103.29,5.43,0.90,5.43,0.91,-0.91,-0.96,4.52,4.52,4.53
104.32,5.40,0.92,5.39,0.92,-0.92,-0.97,4.48,4.47,4.48
105.37,5.37,0.94,5.35,0.93,-0.93,-0.99,4.44,4.42,4.43
106.42,5.33,0.95,5.31,0.94,-0.94,-1.01,4.39,4.37,4.38
107.48,5.29,0.96,5.27,0.94,-0.94,-1.03,4.34,4.33,4.33
108.56,5.24,0.96,5.23,0.95,-0.95,-1.04,4.29,4.28,4.28
109.64,5.19,0.95,5.19,0.96,-0.96,-1.06,4.23,4.23,4.24
110.74,5.14,0.95,5.16,0.97,-0.97,-1.07,4.17,4.19,4.19
111.85,5.10,0.96,5.12,0.97,-0.97,-1.09,4.12,4.14,4.14
112.97,5.06,0.97,5.08,0.98,-0.98,-1.10,4.08,4.09,4.09
114.10,5.03,0.98,5.03,0.99,-0.99,-1.11,4.04,4.05,4.05
115.24,4.99,0.99,4.99,0.99,-0.99,-1.12,4.00,4.00,4.00
116.39,4.96,1.01,4.94,1.00,-1.00,-1.13,3.96,3.95,3.95
117.55,4.92,1.01,4.90,1.00,-1.00,-1.14,3.92,3.90,3.91
118.73,4.87,1.01,4.86,1.00,-1.00,-1.14,3.87,3.86,3.86
119.92,4.82,1.00,4.82,1.01,-1.01,-1.15,3.81,3.81,3.82
121.12,4.78,1.01,4.78,1.01,-1.01,-1.15,3.77,3.77,3.77
122.33,4.73,1.00,4.74,1.01,-1.01,-1.15,3.72,3.73,3.73
123.55,4.68,0.99,4.69,1.01,-1.01,-1.14,3.67,3.68,3.69
124.79,4.64,1.00,4.65,1.01,-1.01,-1.14,3.63,3.64,3.64
126.03,4.59,0.99,4.61,1.01,-1.01,-1.13,3.58,3.60,3.60
127.29,4.55,0.99,4.56,1.01,-1.01,-1.12,3.54,3.56,3.56
128.57,4.52,1.00,4.51,1.00,-1.00,-1.11,3.52,3.51,3.52
129.85,4.48,1.00,4.47,0.99,-0.99,-1.10,3.48,3.47,3.48
131.15,4.44,1.00,4.42,0.99,-0.99,-1.09,3.45,3.43,3.44
132.46,4.39,0.99,4.37,0.98,-0.98,-1.07,3.41,3.39,3.40
133.79,4.34,0.98,4.32,0.97,-0.97,-1.05,3.37,3.35,3.36
135.12,4.27,0.95,4.27,0.95,-0.95,-1.03,3.32,3.31,3.32
136.48,4.21,0.93,4.22,0.94,-0.94,-1.01,3.27,3.28,3.28
137.84,4.16,0.92,4.16,0.92,-0.92,-0.98,3.24,3.24,3.24
139.22,4.10,0.89,4.11,0.91,-0.91,-0.96,3.19,3.20,3.20
140.61,4.05,0.88,4.06,0.89,-0.89,-0.93,3.16,3.17,3.17
142.02,3.99,0.86,4.00,0.87,-0.87,-0.91,3.12,3.13,3.13
143.44,3.94,0.84,3.95,0.85,-0.85,-0.88,3.09,3.09,3.10
144.87,3.89,0.83,3.89,0.83,-0.83,-0.85,3.06,3.06,3.06
146.32,3.84,0.81,3.84,0.81,-0.81,-0.82,3.03,3.03,3.03
147.78,3.79,0.79,3.79,0.79,-0.79,-0.79,3.00,2.99,3.00
149.26,3.74,0.77,3.73,0.77,-0.77,-0.76,2.97,2.96,2.96
150.75,3.69,0.76,3.68,0.75,-0.75,-0.73,2.94,2.93,2.93
152.26,3.64,0.74,3.63,0.73,-0.73,-0.70,2.91,2.90,2.90
153.78,3.59,0.72,3.58,0.71,-0.71,-0.66,2.88,2.87,2.87
155.32,3.53,0.69,3.53,0.69,-0.69,-0.63,2.84,2.84,2.84
156.88,3.47,0.66,3.48,0.67,-0.67,-0.60,2.80,2.81,2.81
158.44,3.43,0.65,3.43,0.65,-0.65,-0.57,2.78,2.78,2.78
160.03,3.38,0.63,3.38,0.63,-0.63,-0.53,2.75,2.75,2.75
161.63,3.33,0.60,3.33,0.61,-0.61,-0.50,2.72,2.72,2.73
163.24,3.28,0.58,3.28,0.58,-0.58,-0.47,2.69,2.70,2.70
164.88,3.23,0.56,3.23,0.56,-0.56,-0.44,2.67,2.67,2.67
166.53,3.18,0.53,3.18,0.54,-0.54,-0.41,2.64,2.65,2.65
168.19,3.13,0.51,3.13,0.51,-0.51,-0.37,2.62,2.62,2.62
169.87,3.08,0.48,3.08,0.49,-0.49,-0.34,2.59,2.60,2.60
171.57,3.04,0.47,3.03,0.46,-0.46,-0.31,2.58,2.57,2.57
173.29,2.99,0.44,2.98,0.43,-0.43,-0.28,2.56,2.55,2.55
175.02,2.94,0.41,2.93,0.40,-0.40,-0.25,2.54,2.52,2.53
176.77,2.90,0.39,2.87,0.37,-0.37,-0.22,2.53,2.50,2.50
178.54,2.84,0.36,2.82,0.34,-0.34,-0.19,2.50,2.48,2.48
180.32,2.78,0.32,2.77,0.31,-0.31,-0.16,2.47,2.46,2.46
182.13,2.71,0.27,2.72,0.28,-0.28,-0.13,2.43,2.43,2.44
183.95,2.65,0.23,2.67,0.25,-0.25,-0.10,2.40,2.41,2.42
185.79,2.60,0.20,2.62,0.22,-0.22,-0.07,2.37,2.40,2.40
187.65,2.55,0.17,2.57,0.20,-0.20,-0.04,2.35,2.38,2.38
189.52,2.50,0.14,2.52,0.17,-0.17,-0.01,2.33,2.36,2.36
191.42,2.47,0.12,2.48,0.14,-0.14,0.01,2.33,2.34,2.34
193.33,2.43,0.10,2.43,0.11,-0.11,0.04,2.32,2.32,2.33
195.27,2.40,0.09,2.39,0.08,-0.08,0.07,2.32,2.30,2.31
197.22,2.36,0.07,2.34,0.06,-0.06,0.10,2.30,2.29,2.29
199.19,2.32,0.04,2.30,0.03,-0.03,0.13,2.29,2.27,2.28
201.18,2.27,0.01,2.26,0.00,-0.00,0.16,2.27,2.26,2.26
203.19,2.22,-0.03,2.22,-0.03,0.03,0.18,2.25,2.25,2.24
205.23,2.17,-0.06,2.17,-0.06,0.06,0.21,2.23,2.23,2.23
207.28,2.12,-0.10,2.13,-0.09,0.09,0.24,2.21,2.22,2.21
209.35,2.08,-0.12,2.08,-0.12,0.12,0.27,2.20,2.20,2.20
211.44,2.04,-0.15,2.03,-0.16,0.16,0.29,2.20,2.19,2.19
213.56,1.99,-0.18,1.97,-0.20,0.20,0.32,2.18,2.17,2.17
215.69,1.95,-0.21,1.92,-0.23,0.23,0.35,2.18,2.15,2.16
217.85,1.88,-0.27,1.87,-0.27,0.27,0.38,2.15,2.14,2.15
220.03,1.82,-0.32,1.82,-0.31,0.31,0.40,2.13,2.13,2.13
222.23,1.75,-0.37,1.77,-0.35,0.35,0.43,2.10,2.12,2.12
224.45,1.69,-0.42,1.72,-0.38,0.38,0.46,2.07,2.10,2.11
226.70,1.65,-0.45,1.67,-0.42,0.42,0.49,2.07,2.09,2.10
228.96,1.61,-0.48,1.62,-0.46,0.46,0.52,2.07,2.08,2.09
231.25,1.57,-0.51,1.58,-0.49,0.49,0.54,2.06,2.07,2.08
233.57,1.54,-0.53,1.53,-0.53,0.53,0.57,2.07,2.06,2.07
235.90,1.49,-0.57,1.48,-0.56,0.56,0.60,2.05,2.05,2.06
238.26,1.45,-0.60,1.44,-0.60,0.60,0.63,2.05,2.04,2.05
240.64,1.41,-0.63,1.40,-0.64,0.64,0.66,2.04,2.03,2.04
243.05,1.36,-0.67,1.35,-0.67,0.67,0.69,2.03,2.02,2.03
245.48,1.32,-0.70,1.31,-0.71,0.71,0.71,2.03,2.02,2.02
247.93,1.26,-0.75,1.26,-0.75,0.75,0.74,2.01,2.01,2.01
250.41,1.22,-0.78,1.22,-0.79,0.79,0.77,2.01,2.00,2.00
252.92,1.16,-0.83,1.17,-0.83,0.83,0.80,1.99,1.99,1.99
255.45,1.12,-0.86,1.12,-0.87,0.87,0.83,1.99,1.98,1.98
258.00,1.07,-0.91,1.06,-0.91,0.91,0.86,1.98,1.97,1.98
260.58,1.02,-0.95,1.01,-0.95,0.95,0.89,1.97,1.97,1.97
263.19,0.96,-1.00,0.96,-1.00,1.00,0.92,1.96,1.96,1.96
265.82,0.90,-1.05,0.91,-1.05,1.05,0.96,1.95,1.95,1.95
268.48,0.85,-1.10,0.85,-1.09,1.09,0.99,1.94,1.94,1.95
271.16,0.80,-1.14,0.80,-1.14,1.14,1.02,1.94,1.94,1.94
273.87,0.74,-1.19,0.74,-1.19,1.19,1.05,1.93,1.93,1.93
276.61,0.69,-1.24,0.69,-1.24,1.24,1.09,1.92,1.92,1.93
279.38,0.63,-1.29,0.63,-1.28,1.28,1.12,1.91,1.92,1.92
282.17,0.58,-1.33,0.58,-1.33,1.33,1.16,1.91,1.91,1.91
284.99,0.53,-1.38,0.52,-1.38,1.38,1.20,1.91,1.91,1.91
287.84,0.47,-1.43,0.47,-1.43,1.43,1.23,1.90,1.90,1.90
290.72,0.42,-1.48,0.41,-1.48,1.48,1.27,1.90,1.89,1.90
293.63,0.36,-1.53,0.36,-1.53,1.53,1.31,1.89,1.89,1.89
296.57,0.31,-1.58,0.31,-1.58,1.58,1.35,1.89,1.88,1.88
299.53,0.25,-1.63,0.25,-1.63,1.63,1.39,1.88,1.88,1.88
302.53,0.19,-1.69,0.19,-1.68,1.68,1.43,1.87,1.87,1.87
305.55,0.14,-1.73,0.14,-1.73,1.73,1.48,1.87,1.87,1.87
308.61,0.08,-1.79,0.08,-1.78,1.78,1.52,1.86,1.86,1.86
311.69,0.03,-1.83,0.03,-1.83,1.83,1.57,1.86,1.86,1.86
314.81,-0.03,-1.89,-0.03,-1.88,1.88,1.61,1.85,1.85,1.86
317.96,-0.08,-1.93,-0.09,-1.94,1.94,1.66,1.86,1.85,1.85
321.14,-0.14,-1.99,-0.14,-1.99,1.99,1.71,1.85,1.85,1.85
324.35,-0.20,-2.04,-0.20,-2.04,2.04,1.77,1.84,1.84,1.84
327.59,-0.25,-2.09,-0.25,-2.09,2.09,1.82,1.84,1.84,1.84
330.87,-0.31,-2.15,-0.31,-2.15,2.15,1.87,1.83,1.83,1.83
334.18,-0.37,-2.20,-0.37,-2.20,2.20,1.93,1.83,1.83,1.83
337.52,-0.42,-2.25,-0.42,-2.25,2.25,1.99,1.83,1.83,1.83
340.90,-0.48,-2.30,-0.48,-2.31,2.31,2.05,1.82,1.82,1.82
344.30,-0.54,-2.36,-0.54,-2.36,2.36,2.11,1.82,1.82,1.82
347.75,-0.59,-2.41,-0.60,-2.41,2.41,2.17,1.82,1.82,1.82
351.23,-0.65,-2.46,-0.65,-2.47,2.47,2.24,1.82,1.81,1.81
354.74,-0.71,-2.52,-0.71,-2.52,2.52,2.30,1.81,1.81,1.81
358.28,-0.77,-2.58,-0.77,-2.58,2.58,2.37,1.81,1.81,1.81
361.87,-0.82,-2.63,-0.83,-2.63,2.63,2.44,1.81,1.81,1.80
365.49,-0.88,-2.68,-0.88,-2.69,2.69,2.51,1.80,1.80,1.80
369.14,-0.94,-2.74,-0.94,-2.74,2.74,2.59,1.80,1.80,1.80
372.83,-0.99,-2.79,-0.99,-2.79,2.79,2.66,1.80,1.79,1.80
376.56,-1.04,-2.83,-1.05,-2.84,2.84,2.74,1.80,1.79,1.79
380.33,-1.10,-2.89,-1.10,-2.88,2.88,2.82,1.78,1.79,1.79
384.13,-1.15,-2.94,-1.15,-2.93,2.93,2.90,1.78,1.78,1.79
387.97,-1.20,-2.99,-1.19,-2.97,2.97,2.98,1.77,1.78,1.79
391.85,-1.24,-3.02,-1.23,-3.01,3.01,3.06,1.77,1.78,1.78
395.77,-1.28,-3.06,-1.27,-3.05,3.05,3.15,1.77,1.77,1.78
399.73,-1.32,-3.10,-1.31,-3.08,3.08,3.23,1.76,1.77,1.78
403.72,-1.35,-3.13,-1.34,-3.11,3.11,3.32,1.76,1.77,1.78
407.76,-1.38,-3.15,-1.37,-3.14,3.14,3.40,1.76,1.77,1.77
411.84,-1.40,-3.17,-1.40,-3.16,3.16,3.49,1.76,1.76,1.77
415.96,-1.42,-3.19,-1.43,-3.19,3.19,3.57,1.77,1.76,1.77
420.12,-1.45,-3.22,-1.45,-3.21,3.21,3.66,1.76,1.76,1.77
424.32,-1.47,-3.23,-1.47,-3.23,3.23,3.75,1.76,1.76,1.76
428.56,-1.49,-3.25,-1.50,-3.26,3.26,3.83,1.77,1.76,1.76
432.85,-1.51,-3.27,-1.52,-3.28,3.28,3.91,1.77,1.76,1.76
437.18,-1.54,-3.30,-1.54,-3.30,3.30,4.00,1.76,1.76,1.76
441.55,-1.57,-3.33,-1.57,-3.33,3.33,4.08,1.76,1.76,1.76
445.96,-1.59,-3.35,-1.60,-3.36,3.36,4.15,1.77,1.76,1.76
450.42,-1.63,-3.39,-1.63,-3.39,3.39,4.23,1.76,1.76,1.76
454.93,-1.65,-3.42,-1.66,-3.42,3.42,4.30,1.77,1.77,1.77
459.48,-1.69,-3.46,-1.69,-3.46,3.46,4.37,1.77,1.77,1.77
464.07,-1.72,-3.50,-1.72,-3.50,3.50,4.43,1.78,1.78,1.78
468.71,-1.76,-3.54,-1.76,-3.55,3.55,4.49,1.78,1.79,1.78
473.40,-1.80,-3.59,-1.80,-3.59,3.59,4.54,1.79,1.80,1.79
478.13,-1.84,-3.64,-1.84,-3.65,3.65,4.59,1.81,1.81,1.80
482.91,-1.88,-3.69,-1.89,-3.70,3.70,4.64,1.82,1.82,1.81
487.74,-1.93,-3.76,-1.93,-3.76,3.76,4.67,1.83,1.83,1.82
492.62,-1.97,-3.81,-1.99,-3.83,3.83,4.71,1.85,1.84,1.84
497.55,-2.02,-3.87,-2.04,-3.89,3.89,4.73,1.87,1.85,1.85
502.52,-2.07,-3.94,-2.10,-3.96,3.96,4.75,1.89,1.86,1.87
507.55,-2.13,-4.01,-2.15,-4.03,4.03,4.76,1.90,1.87,1.88
512.62,-2.19,-4.09,-2.21,-4.10,4.10,4.77,1.91,1.89,1.90
517.75,-2.26,-4.18,-2.26,-4.16,4.16,4.77,1.90,1.91,1.91
522.93,-2.33,-4.26,-2.31,-4.23,4.23,4.77,1.90,1.92,1.93
528.16,-2.39,-4.34,-2.36,-4.30,4.30,4.76,1.91,1.94,1.95
533.44,-2.43,-4.40,-2.40,-4.36,4.36,4.75,1.93,1.96,1.97
538.77,-2.47,-4.46,-2.44,-4.42,4.42,4.73,1.95,1.98,1.99
544.16,-2.49,-4.50,-2.47,-4.47,4.47,4.70,1.98,2.00,2.01
549.60,-2.50,-4.53,-2.50,-4.52,4.52,4.68,2.02,2.02,2.03
555.10,-2.51,-4.57,-2.52,-4.57,4.57,4.65,2.06,2.05,2.06
560.65,-2.53,-4.61,-2.54,-4.61,4.61,4.61,2.08,2.07,2.08
566.25,-2.54,-4.65,-2.54,-4.65,4.65,4.58,2.11,2.10,2.11
571.92,-2.54,-4.68,-2.55,-4.68,4.68,4.54,2.14,2.13,2.14
577.64,-2.55,-4.72,-2.55,-4.71,4.71,4.50,2.16,2.17,2.17
583.41,-2.56,-4.76,-2.54,-4.74,4.74,4.46,2.18,2.20,2.19
589.25,-2.55,-4.78,-2.54,-4.77,4.77,4.42,2.22,2.23,2.22
595.14,-2.54,-4.80,-2.54,-4.80,4.80,4.38,2.26,2.26,2.25
601.09,-2.53,-4.81,-2.54,-4.82,4.82,4.34,2.29,2.28,2.28
607.10,-2.51,-4.82,-2.54,-4.85,4.85,4.31,2.34,2.31,2.31
613.17,-2.50,-4.85,-2.53,-4.87,4.87,4.27,2.37,2.34,2.35
619.30,-2.51,-4.89,-2.52,-4.90,4.90,4.23,2.39,2.37,2.38
625.50,-2.51,-4.92,-2.52,-4.92,4.92,4.19,2.41,2.41,2.41
631.75,-2.52,-4.96,-2.51,-4.95,4.95,4.16,2.43,2.44,2.44
638.07,-2.53,-5.00,-2.51,-4.98,4.98,4.13,2.45,2.47,2.47
644.45,-2.52,-5.03,-2.50,-5.01,5.01,4.10,2.49,2.51,2.50
650.89,-2.51,-5.05,-2.50,-5.03,5.03,4.07,2.52,2.54,2.54
657.40,-2.49,-5.06,-2.49,-5.06,5.06,4.05,2.57,2.57,2.57
663.98,-2.47,-5.07,-2.49,-5.09,5.09,4.03,2.62,2.60,2.60
670.62,-2.46,-5.10,-2.49,-5.12,5.12,4.01,2.66,2.64,2.64
677.32,-2.45,-5.13,-2.48,-5.15,5.15,3.99,2.70,2.67,2.67
684.10,-2.46,-5.17,-2.47,-5.18,5.18,3.98,2.72,2.71,2.71
690.94,-2.46,-5.21,-2.46,-5.20,5.20,3.97,2.74,2.75,2.75
697.85,-2.46,-5.25,-2.44,-5.23,5.23,3.96,2.77,2.79,2.79
704.83,-2.45,-5.28,-2.43,-5.26,5.26,3.96,2.81,2.83,2.83
711.87,-2.43,-5.29,-2.41,-5.28,5.28,3.96,2.85,2.87,2.86
718.99,-2.41,-5.31,-2.40,-5.30,5.30,3.96,2.89,2.90,2.90
726.18,-2.38,-5.32,-2.38,-5.32,5.32,3.97,2.94,2.94,2.94
733.44,-2.35,-5.33,-2.37,-5.34,5.34,3.98,2.99,2.97,2.98
740.78,-2.32,-5.34,-2.34,-5.36,5.36,3.99,3.03,3.01,3.02
748.19,-2.29,-5.35,-2.32,-5.37,5.37,4.00,3.08,3.05,3.06
755.67,-2.27,-5.37,-2.29,-5.37,5.37,4.02,3.10,3.09,3.10
763.23,-2.25,-5.38,-2.25,-5.38,5.38,4.04,3.12,3.13,3.13
770.86,-2.23,-5.40,-2.21,-5.37,5.37,4.07,3.14,3.16,3.17
