frequency,raw,smoothed,error,error_smoothed,equalization,parametric_eq,fixed_band_eq,equalized_raw,equalized_smoothed,target
20.00,4.97,4.97,-3.68,-3.68,3.68,3.51,1.08,8.65,8.65,8.65
20.20,5.01,5.00,-3.64,-3.64,3.64,3.48,1.11,8.65,8.65,8.65
20.40,5.04,5.04,-3.61,-3.61,3.61,3.46,1.14,8.64,8.64,8.65
20.61,5.08,5.07,-3.57,-3.57,3.57,3.43,1.18,8.64,8.64,8.64
20.81,5.11,5.11,-3.54,-3.53,3.53,3.40,1.21,8.64,8.64,8.64
21.02,5.15,5.15,-3.50,-3.50,3.49,3.38,1.25,8.64,8.64,8.64
21.23,5.19,5.19,-3.46,-3.46,3.45,3.35,1.29,8.64,8.64,8.64
21.44,5.23,5.23,-3.41,-3.41,3.41,3.32,1.33,8.64,8.64,8.64
21.66,5.27,5.27,-3.37,-3.37,3.38,3.29,1.37,8.64,8.64,8.64
21.87,5.31,5.31,-3.33,-3.33,3.34,3.27,1.41,8.65,8.64,8.64
22.09,5.34,5.34,-3.30,-3.30,3.30,3.24,1.45,8.64,8.64,8.64
22.31,5.38,5.38,-3.26,-3.26,3.26,3.21,1.49,8.64,8.64,8.64
22.54,5.41,5.41,-3.23,-3.23,3.23,3.19,1.54,8.63,8.64,8.64
22.76,5.45,5.45,-3.19,-3.19,3.19,3.16,1.59,8.64,8.64,8.64
22.99,5.48,5.48,-3.16,-3.16,3.16,3.13,1.63,8.64,8.63,8.64
23.22,5.51,5.51,-3.13,-3.13,3.13,3.11,1.68,8.63,8.63,8.63
23.45,5.54,5.54,-3.10,-3.09,3.09,3.08,1.73,8.63,8.63,8.63
23.69,5.58,5.57,-3.06,-3.06,3.06,3.05,1.78,8.64,8.63,8.63
23.92,5.61,5.61,-3.02,-3.02,3.03,3.03,1.83,8.63,8.63,8.63
24.16,5.64,5.64,-2.99,-2.99,2.99,3.00,1.88,8.63,8.63,8.63
24.40,5.67,5.67,-2.96,-2.96,2.96,2.97,1.93,8.63,8.63,8.63
24.65,5.70,5.70,-2.93,-2.93,2.92,2.95,1.99,8.62,8.63,8.63
24.89,5.74,5.73,-2.89,-2.89,2.89,2.92,2.04,8.63,8.63,8.63
25.14,5.77,5.77,-2.86,-2.86,2.86,2.89,2.09,8.63,8.63,8.63
25.39,5.80,5.80,-2.83,-2.83,2.83,2.86,2.15,8.63,8.63,8.62
25.65,5.83,5.83,-2.79,-2.79,2.80,2.84,2.20,8.62,8.62,8.62
25.91,5.86,5.86,-2.76,-2.76,2.76,2.81,2.26,8.62,8.62,8.62
26.16,5.89,5.88,-2.73,-2.74,2.74,2.78,2.31,8.62,8.62,8.62
26.43,5.91,5.91,-2.71,-2.71,2.71,2.76,2.36,8.61,8.62,8.62
26.69,5.94,5.94,-2.68,-2.68,2.68,2.73,2.42,8.62,8.62,8.62
26.96,5.97,5.96,-2.65,-2.65,2.65,2.71,2.47,8.62,8.61,8.61
27.23,5.99,5.99,-2.63,-2.62,2.62,2.68,2.52,8.61,8.61,8.61
27.50,6.02,6.01,-2.59,-2.60,2.59,2.65,2.57,8.61,8.61,8.61
27.77,6.04,6.04,-2.57,-2.57,2.57,2.63,2.61,8.60,8.61,8.61
28.05,6.07,6.07,-2.54,-2.54,2.54,2.60,2.66,8.60,8.61,8.61
28.33,6.10,6.10,-2.51,-2.51,2.51,2.57,2.70,8.61,8.60,8.60
28.62,6.13,6.12,-2.48,-2.48,2.48,2.55,2.74,8.61,8.60,8.60
28.90,6.15,6.15,-2.45,-2.45,2.45,2.52,2.77,8.60,8.60,8.60
29.19,6.18,6.18,-2.42,-2.42,2.42,2.50,2.81,8.60,8.60,8.60
29.48,6.21,6.20,-2.39,-2.39,2.39,2.47,2.83,8.60,8.60,8.60
29.78,6.23,6.23,-2.37,-2.36,2.36,2.44,2.86,8.59,8.59,8.59
30.08,6.26,6.26,-2.33,-2.33,2.33,2.42,2.88,8.59,8.59,8.59
30.38,6.28,6.28,-2.31,-2.31,2.31,2.39,2.90,8.58,8.59,8.59
30.68,6.31,6.30,-2.28,-2.28,2.28,2.37,2.91,8.59,8.59,8.58
30.99,6.33,6.33,-2.25,-2.25,2.26,2.34,2.92,8.58,8.58,8.58
31.30,6.35,6.35,-2.23,-2.23,2.23,2.32,2.92,8.58,8.58,8.58
31.61,6.37,6.37,-2.21,-2.21,2.21,2.29,2.92,8.58,8.58,8.58
31.93,6.39,6.39,-2.19,-2.18,2.19,2.27,2.91,8.57,8.57,8.57
32.24,6.41,6.41,-2.16,-2.16,2.16,2.24,2.90,8.57,8.57,8.57
32.57,6.43,6.42,-2.14,-2.14,2.14,2.22,2.89,8.57,8.57,8.57
32.89,6.44,6.44,-2.12,-2.12,2.12,2.19,2.87,8.56,8.56,8.56
33.22,6.46,6.46,-2.10,-2.10,2.10,2.17,2.85,8.55,8.56,8.56
33.55,6.48,6.48,-2.08,-2.08,2.08,2.15,2.82,8.55,8.55,8.55
33.89,6.50,6.50,-2.05,-2.05,2.05,2.12,2.79,8.55,8.55,8.55
34.23,6.52,6.52,-2.03,-2.03,2.03,2.10,2.76,8.55,8.55,8.55
34.57,6.54,6.53,-2.00,-2.01,2.01,2.07,2.72,8.55,8.54,8.54
34.92,6.55,6.55,-1.99,-1.99,1.99,2.05,2.68,8.53,8.54,8.54
35.27,6.57,6.57,-1.96,-1.96,1.96,2.03,2.64,8.53,8.53,8.53
35.62,6.59,6.59,-1.94,-1.94,1.94,2.00,2.60,8.53,8.53,8.53
35.97,6.61,6.61,-1.91,-1.92,1.92,1.98,2.55,8.53,8.52,8.52
36.33,6.62,6.62,-1.90,-1.90,1.90,1.95,2.51,8.52,8.52,8.52
36.70,6.64,6.64,-1.87,-1.88,1.88,1.93,2.46,8.51,8.51,8.51
37.06,6.65,6.65,-1.86,-1.86,1.85,1.91,2.41,8.50,8.50,8.51
37.43,6.67,6.67,-1.83,-1.83,1.83,1.89,2.36,8.50,8.50,8.50
37.81,6.68,6.68,-1.82,-1.81,1.81,1.86,2.31,8.49,8.49,8.49
38.19,6.70,6.70,-1.79,-1.79,1.79,1.84,2.26,8.49,8.49,8.49
38.57,6.71,6.71,-1.77,-1.77,1.77,1.82,2.21,8.48,8.48,8.48
38.95,6.73,6.73,-1.75,-1.75,1.75,1.79,2.16,8.48,8.48,8.47
39.34,6.74,6.74,-1.73,-1.73,1.73,1.77,2.12,8.47,8.47,8.47
39.74,6.75,6.75,-1.71,-1.71,1.71,1.75,2.07,8.46,8.46,8.46
40.14,6.76,6.76,-1.69,-1.69,1.69,1.73,2.02,8.45,8.45,8.45
40.54,6.77,6.77,-1.68,-1.68,1.68,1.70,1.97,8.44,8.44,8.44
40.94,6.78,6.78,-1.66,-1.66,1.66,1.68,1.93,8.44,8.44,8.44
41.35,6.79,6.79,-1.64,-1.64,1.64,1.66,1.88,8.43,8.43,8.43
41.76,6.80,6.80,-1.62,-1.62,1.62,1.64,1.84,8.42,8.42,8.42
42.18,6.81,6.81,-1.60,-1.60,1.60,1.62,1.80,8.41,8.41,8.41
42.60,6.82,6.82,-1.58,-1.58,1.58,1.59,1.75,8.40,8.40,8.40
43.03,6.83,6.83,-1.56,-1.56,1.56,1.57,1.71,8.39,8.39,8.39
43.46,6.84,6.84,-1.54,-1.54,1.55,1.55,1.67,8.38,8.38,8.38
43.90,6.85,6.85,-1.52,-1.53,1.53,1.53,1.64,8.38,8.37,8.37
44.33,6.85,6.85,-1.51,-1.51,1.51,1.51,1.60,8.36,8.36,8.36
44.78,6.86,6.85,-1.49,-1.49,1.49,1.49,1.57,8.35,8.35,8.35
45.23,6.86,6.86,-1.48,-1.48,1.47,1.46,1.53,8.33,8.33,8.34
45.68,6.87,6.87,-1.46,-1.46,1.45,1.44,1.50,8.32,8.32,8.32
46.13,6.88,6.88,-1.43,-1.43,1.43,1.42,1.47,8.31,8.31,8.31
46.60,6.89,6.89,-1.41,-1.41,1.41,1.40,1.44,8.30,8.30,8.30
47.06,6.90,6.89,-1.39,-1.39,1.39,1.38,1.41,8.29,8.29,8.29
47.53,6.90,6.90,-1.37,-1.37,1.38,1.36,1.38,8.27,8.27,8.27
48.01,6.90,6.90,-1.36,-1.36,1.36,1.33,1.35,8.25,8.26,8.26
48.49,6.91,6.90,-1.34,-1.34,1.34,1.31,1.33,8.25,8.24,8.24
48.97,6.91,6.91,-1.32,-1.32,1.32,1.29,1.30,8.23,8.23,8.23
49.46,6.91,6.91,-1.30,-1.30,1.30,1.27,1.28,8.21,8.21,8.21
49.96,6.91,6.91,-1.29,-1.29,1.29,1.25,1.26,8.19,8.19,8.20
50.46,6.91,6.91,-1.27,-1.27,1.27,1.22,1.24,8.18,8.18,8.18
50.96,6.91,6.91,-1.25,-1.25,1.25,1.20,1.22,8.16,8.16,8.16
51.47,6.92,6.91,-1.23,-1.23,1.23,1.18,1.20,8.15,8.14,8.14
51.99,6.92,6.92,-1.21,-1.21,1.21,1.16,1.18,8.13,8.13,8.12
52.51,6.92,6.92,-1.19,-1.19,1.19,1.14,1.16,8.11,8.11,8.11
53.03,6.92,6.92,-1.17,-1.17,1.17,1.11,1.14,8.09,8.09,8.09
53.56,6.92,6.92,-1.15,-1.15,1.15,1.09,1.12,8.06,8.07,8.06
54.10,6.92,6.92,-1.13,-1.13,1.13,1.07,1.10,8.04,8.04,8.04
54.64,6.92,6.91,-1.10,-1.11,1.11,1.05,1.08,8.02,8.02,8.02
55.18,6.91,6.91,-1.09,-1.09,1.09,1.02,1.07,7.99,8.00,8.00
55.74,6.91,6.91,-1.07,-1.07,1.07,1.00,1.05,7.97,7.97,7.98
56.29,6.91,6.91,-1.04,-1.04,1.04,0.98,1.03,7.95,7.95,7.95
56.86,6.91,6.91,-1.02,-1.02,1.02,0.95,1.01,7.93,7.93,7.93
57.42,6.90,6.90,-1.00,-1.00,1.00,0.93,0.99,7.90,7.90,7.90
58.00,6.90,6.90,-0.98,-0.98,0.98,0.90,0.98,7.88,7.87,7.87
58.58,6.89,6.89,-0.96,-0.96,0.96,0.88,0.96,7.84,7.84,7.85
59.16,6.89,6.89,-0.93,-0.93,0.93,0.86,0.94,7.82,7.82,7.82
59.76,6.88,6.88,-0.91,-0.91,0.91,0.83,0.92,7.79,7.79,7.79
60.35,6.88,6.88,-0.88,-0.89,0.89,0.81,0.89,7.77,7.76,7.76
60.96,6.87,6.87,-0.86,-0.86,0.87,0.78,0.87,7.73,7.73,7.73
61.57,6.86,6.86,-0.84,-0.84,0.84,0.75,0.85,7.70,7.70,7.70
62.18,6.85,6.85,-0.82,-0.82,0.82,0.73,0.83,7.66,7.67,7.67
62.80,6.84,6.84,-0.80,-0.80,0.79,0.70,0.80,7.63,7.63,7.63
63.43,6.83,6.83,-0.77,-0.77,0.77,0.68,0.77,7.59,7.59,7.60
64.07,6.82,6.82,-0.75,-0.74,0.74,0.65,0.75,7.56,7.56,7.56
64.71,6.82,6.81,-0.71,-0.71,0.71,0.62,0.72,7.53,7.53,7.53
65.35,6.81,6.81,-0.68,-0.68,0.68,0.59,0.69,7.49,7.49,7.49
66.01,6.80,6.80,-0.65,-0.65,0.66,0.56,0.66,7.45,7.45,7.45
66.67,6.79,6.79,-0.63,-0.62,0.63,0.54,0.63,7.41,7.42,7.41
67.33,6.78,6.78,-0.60,-0.60,0.60,0.51,0.60,7.37,7.37,7.37
68.01,6.77,6.76,-0.56,-0.57,0.57,0.48,0.56,7.33,7.33,7.33
68.69,6.75,6.75,-0.54,-0.54,0.54,0.45,0.53,7.28,7.29,7.29
69.37,6.74,6.74,-0.51,-0.51,0.51,0.42,0.50,7.24,7.25,7.25
70.07,6.73,6.73,-0.48,-0.48,0.48,0.39,0.46,7.20,7.20,7.20
70.77,6.72,6.72,-0.44,-0.44,0.44,0.36,0.42,7.16,7.16,7.16
71.48,6.70,6.70,-0.41,-0.41,0.41,0.32,0.39,7.11,7.11,7.11
72.19,6.69,6.69,-0.38,-0.38,0.38,0.29,0.35,7.07,7.06,7.06
72.91,6.67,6.67,-0.35,-0.35,0.35,0.26,0.31,7.01,7.01,7.02
73.64,6.66,6.66,-0.31,-0.31,0.31,0.23,0.27,6.97,6.97,6.97
74.38,6.64,6.64,-0.28,-0.28,0.28,0.19,0.23,6.91,6.92,6.92
75.12,6.63,6.62,-0.24,-0.24,0.24,0.16,0.19,6.87,6.87,6.87
75.87,6.61,6.61,-0.21,-0.21,0.21,0.13,0.15,6.81,6.81,6.81
76.63,6.59,6.59,-0.17,-0.17,0.17,0.09,0.11,6.76,6.76,6.76
77.40,6.58,6.57,-0.13,-0.13,0.13,0.06,0.07,6.71,6.71,6.71
78.17,6.56,6.56,-0.09,-0.09,0.09,0.02,0.03,6.65,6.65,6.65
78.95,6.54,6.54,-0.06,-0.06,0.06,-0.02,-0.01,6.59,6.59,6.59
79.74,6.52,6.52,-0.02,-0.02,0.02,-0.05,-0.06,6.53,6.53,6.54
80.54,6.50,6.50,0.02,0.02,-0.02,-0.09,-0.10,6.47,6.48,6.48
81.35,6.49,6.48,0.07,0.07,-0.07,-0.13,-0.14,6.42,6.42,6.42
82.16,6.47,6.47,0.11,0.11,-0.11,-0.16,-0.19,6.36,6.36,6.36
82.98,6.45,6.45,0.15,0.15,-0.15,-0.20,-0.23,6.30,6.30,6.30
83.81,6.43,6.43,0.19,0.19,-0.19,-0.24,-0.28,6.24,6.24,6.24
84.65,6.41,6.41,0.23,0.23,-0.23,-0.28,-0.32,6.17,6.17,6.17
85.50,6.39,6.38,0.28,0.27,-0.27,-0.32,-0.37,6.11,6.11,6.11
86.35,6.36,6.36,0.31,0.32,-0.32,-0.36,-0.41,6.04,6.05,6.05
87.22,6.34,6.34,0.36,0.36,-0.36,-0.39,-0.46,5.98,5.98,5.98
88.09,6.32,6.31,0.40,0.40,-0.40,-0.43,-0.51,5.92,5.91,5.91
88.97,6.29,6.29,0.44,0.44,-0.44,-0.47,-0.55,5.84,5.85,5.85
89.86,6.27,6.27,0.49,0.49,-0.49,-0.51,-0.60,5.78,5.78,5.78
90.76,6.25,6.24,0.54,0.53,-0.53,-0.55,-0.65,5.72,5.71,5.71
91.66,6.22,6.22,0.57,0.58,-0.58,-0.59,-0.70,5.64,5.64,5.64
92.58,6.20,6.20,0.62,0.62,-0.62,-0.64,-0.75,5.58,5.57,5.57
93.51,6.17,6.17,0.66,0.67,-0.67,-0.68,-0.80,5.50,5.50,5.50
94.44,6.15,6.14,0.71,0.71,-0.71,-0.72,-0.85,5.44,5.43,5.43
95.39,6.12,6.12,0.75,0.75,-0.75,-0.76,-0.90,5.36,5.36,5.36
96.34,6.09,6.09,0.80,0.80,-0.80,-0.80,-0.95,5.29,5.29,5.29
97.30,6.07,6.06,0.85,0.84,-0.84,-0.84,-1.00,5.22,5.22,5.22
98.28,6.04,6.04,0.89,0.89,-0.89,-0.88,-1.05,5.15,5.15,5.15
99.26,6.01,6.01,0.93,0.93,-0.93,-0.92,-1.10,5.07,5.08,5.08
100.25,5.98,5.98,0.97,0.98,-0.98,-0.96,-1.15,5.00,5.00,5.00
101.25,5.96,5.95,1.03,1.02,-1.02,-1.00,-1.20,4.93,4.93,4.93
102.27,5.93,5.93,1.07,1.07,-1.07,-1.04,-1.25,4.86,4.86,4.86
103.29,5.90,5.90,1.11,1.11,-1.11,-1.08,-1.31,4.79,4.79,4.79
104.32,5.87,5.87,1.16,1.16,-1.16,-1.12,-1.36,4.71,4.71,4.71
105.37,5.84,5.84,1.20,1.20,-1.20,-1.16,-1.41,4.64,4.64,4.64
106.42,5.81,5.81,1.24,1.24,-1.24,-1.20,-1.45,4.56,4.56,4.57
107.48,5.78,5.78,1.28,1.28,-1.29,-1.23,-1.50,4.49,4.49,4.49
108.56,5.75,5.75,1.33,1.33,-1.33,-1.27,-1.55,4.42,4.42,4.42
109.64,5.72,5.72,1.37,1.37,-1.37,-1.31,-1.59,4.35,4.35,4.35
110.74,5.69,5.68,1.41,1.41,-1.41,-1.35,-1.64,4.28,4.28,4.28
111.85,5.65,5.65,1.44,1.45,-1.45,-1.38,-1.68,4.20,4.20,4.20
112.97,5.62,5.62,1.49,1.49,-1.49,-1.42,-1.72,4.13,4.13,4.13
114.10,5.59,5.58,1.53,1.52,-1.53,-1.45,-1.76,4.06,4.06,4.06
115.24,5.55,5.55,1.56,1.56,-1.57,-1.49,-1.80,3.98,3.99,3.99
116.39,5.52,5.52,1.60,1.60,-1.60,-1.52,-1.83,3.91,3.91,3.92
117.55,5.49,5.49,1.64,1.64,-1.64,-1.55,-1.86,3.85,3.85,3.85
118.73,5.46,5.46,1.68,1.68,-1.68,-1.59,-1.89,3.78,3.78,3.78
119.92,5.43,5.42,1.72,1.72,-1.71,-1.62,-1.92,3.71,3.71,3.71
121.12,5.39,5.39,1.75,1.75,-1.75,-1.65,-1.94,3.64,3.64,3.64
122.33,5.35,5.35,1.78,1.78,-1.78,-1.68,-1.96,3.57,3.57,3.57
123.55,5.32,5.31,1.81,1.81,-1.81,-1.71,-1.98,3.51,3.50,3.50
124.79,5.28,5.28,1.84,1.84,-1.84,-1.74,-1.99,3.44,3.44,3.44
126.03,5.24,5.24,1.87,1.87,-1.87,-1.76,-2.00,3.37,3.37,3.37
127.29,5.20,5.20,1.89,1.89,-1.90,-1.79,-2.01,3.30,3.30,3.30
128.57,5.16,5.16,1.92,1.92,-1.92,-1.81,-2.02,3.24,3.24,3.24
129.85,5.13,5.12,1.95,1.95,-1.95,-1.84,-2.02,3.18,3.18,3.18
131.15,5.09,5.09,1.97,1.97,-1.97,-1.86,-2.02,3.11,3.11,3.11
132.46,5.05,5.05,2.00,2.00,-2.00,-1.88,-2.01,3.05,3.05,3.05
133.79,5.01,5.01,2.02,2.02,-2.02,-1.91,-2.01,2.99,2.99,2.99
135.12,4.98,4.97,2.05,2.05,-2.04,-1.93,-2.00,2.93,2.93,2.93
136.48,4.94,4.94,2.07,2.07,-2.07,-1.95,-1.99,2.87,2.87,2.87
137.84,4.90,4.90,2.09,2.09,-2.09,-1.96,-1.97,2.81,2.81,2.81
139.22,4.86,4.86,2.10,2.10,-2.10,-1.98,-1.96,2.75,2.75,2.75
140.61,4.82,4.82,2.12,2.12,-2.12,-2.00,-1.94,2.70,2.70,2.70
142.02,4.78,4.78,2.14,2.14,-2.14,-2.01,-1.92,2.64,2.64,2.64
143.44,4.74,4.74,2.15,2.15,-2.15,-2.02,-1.90,2.59,2.59,2.59
144.87,4.70,4.70,2.16,2.16,-2.16,-2.04,-1.88,2.53,2.53,2.53
146.32,4.66,4.66,2.18,2.18,-2.18,-2.05,-1.86,2.48,2.48,2.48
147.78,4.62,4.62,2.19,2.19,-2.19,-2.06,-1.84,2.43,2.43,2.43
149.26,4.58,4.57,2.20,2.20,-2.20,-2.07,-1.82,2.38,2.38,2.38
150.75,4.53,4.53,2.20,2.20,-2.20,-2.08,-1.80,2.32,2.33,2.33
152.26,4.49,4.49,2.21,2.21,-2.21,-2.08,-1.77,2.28,2.28,2.28
153.78,4.45,4.45,2.22,2.22,-2.22,-2.09,-1.75,2.23,2.23,2.23
155.32,4.41,4.41,2.22,2.22,-2.22,-2.09,-1.73,2.19,2.19,2.19
156.88,4.37,4.37,2.23,2.22,-2.22,-2.10,-1.71,2.15,2.14,2.14
158.44,4.32,4.32,2.22,2.22,-2.23,-2.10,-1.69,2.09,2.09,2.10
160.03,4.28,4.27,2.22,2.23,-2.23,-2.10,-1.67,2.05,2.05,2.05
161.63,4.23,4.23,2.23,2.23,-2.23,-2.10,-1.65,2.00,2.00,2.00
163.24,4.19,4.19,2.23,2.23,-2.23,-2.10,-1.63,1.96,1.96,1.96
164.88,4.15,4.15,2.23,2.23,-2.23,-2.10,-1.62,1.92,1.92,1.92
166.53,4.11,4.11,2.23,2.23,-2.23,-2.10,-1.60,1.88,1.88,1.88
168.19,4.07,4.06,2.23,2.22,-2.22,-2.09,-1.59,1.85,1.84,1.84
169.87,4.02,4.02,2.21,2.22,-2.22,-2.09,-1.57,1.80,1.81,1.80
171.57,3.98,3.98,2.21,2.21,-2.21,-2.08,-1.56,1.77,1.77,1.77
173.29,3.94,3.93,2.21,2.20,-2.20,-2.08,-1.55,1.74,1.73,1.73
175.02,3.89,3.89,2.19,2.19,-2.19,-2.07,-1.54,1.70,1.70,1.70
176.77,3.84,3.84,2.17,2.18,-2.18,-2.06,-1.53,1.66,1.66,1.66
178.54,3.80,3.79,2.17,2.16,-2.17,-2.05,-1.53,1.63,1.63,1.63
180.32,3.75,3.75,2.15,2.15,-2.15,-2.04,-1.52,1.59,1.60,1.60
182.13,3.71,3.71,2.14,2.14,-2.14,-2.03,-1.52,1.57,1.57,1.57
183.95,3.67,3.66,2.13,2.13,-2.13,-2.02,-1.51,1.54,1.54,1.54
185.79,3.62,3.62,2.11,2.11,-2.11,-2.01,-1.51,1.51,1.51,1.51
187.65,3.58,3.58,2.10,2.09,-2.09,-1.99,-1.51,1.49,1.48,1.48
189.52,3.53,3.53,2.07,2.07,-2.07,-1.98,-1.51,1.46,1.46,1.45
191.42,3.48,3.48,2.05,2.05,-2.05,-1.96,-1.51,1.43,1.43,1.43
193.33,3.43,3.43,2.03,2.03,-2.03,-1.95,-1.51,1.40,1.40,1.40
195.27,3.38,3.38,2.00,2.00,-2.01,-1.93,-1.52,1.37,1.37,1.38
197.22,3.33,3.33,1.98,1.98,-1.98,-1.91,-1.52,1.35,1.35,1.35
199.19,3.29,3.28,1.96,1.96,-1.96,-1.89,-1.53,1.33,1.33,1.33
201.18,3.24,3.24,1.93,1.93,-1.93,-1.87,-1.53,1.31,1.31,1.31
203.19,3.19,3.19,1.90,1.91,-1.91,-1.85,-1.54,1.28,1.29,1.28
205.23,3.15,3.14,1.89,1.88,-1.88,-1.83,-1.54,1.27,1.26,1.26
207.28,3.10,3.10,1.86,1.86,-1.86,-1.81,-1.55,1.24,1.24,1.24
209.35,3.05,3.05,1.83,1.83,-1.83,-1.79,-1.56,1.22,1.22,1.22
211.44,3.00,3.00,1.80,1.80,-1.80,-1.76,-1.56,1.20,1.20,1.20
213.56,2.96,2.95,1.78,1.77,-1.77,-1.74,-1.57,1.18,1.18,1.18
215.69,2.91,2.91,1.74,1.74,-1.74,-1.72,-1.58,1.16,1.16,1.16
217.85,2.86,2.86,1.71,1.72,-1.71,-1.69,-1.58,1.14,1.15,1.15
220.03,2.82,2.81,1.69,1.69,-1.68,-1.67,-1.59,1.13,1.13,1.13
222.23,2.77,2.77,1.65,1.65,-1.65,-1.64,-1.59,1.12,1.11,1.11
224.45,2.72,2.72,1.62,1.62,-1.62,-1.61,-1.60,1.10,1.10,1.10
226.70,2.67,2.67,1.59,1.59,-1.59,-1.58,-1.60,1.08,1.08,1.08
228.96,2.62,2.62,1.55,1.55,-1.56,-1.56,-1.60,1.06,1.06,1.07
231.25,2.58,2.57,1.53,1.52,-1.52,-1.53,-1.60,1.05,1.05,1.05
233.57,2.53,2.53,1.49,1.49,-1.49,-1.50,-1.59,1.04,1.04,1.04
235.90,2.48,2.48,1.46,1.46,-1.46,-1.47,-1.59,1.02,1.02,1.01
238.26,2.43,2.43,1.43,1.43,-1.43,-1.44,-1.58,1.00,1.00,1.00
240.64,2.38,2.38,1.39,1.39,-1.39,-1.41,-1.57,0.99,0.99,0.99
243.05,2.34,2.33,1.36,1.36,-1.36,-1.38,-1.56,0.98,0.98,0.98
245.48,2.29,2.29,1.32,1.32,-1.32,-1.34,-1.55,0.97,0.97,0.96
247.93,2.24,2.24,1.28,1.28,-1.28,-1.31,-1.53,0.95,0.95,0.95
250.41,2.19,2.19,1.24,1.25,-1.25,-1.28,-1.51,0.94,0.94,0.94
252.92,2.14,2.14,1.21,1.21,-1.21,-1.25,-1.49,0.93,0.93,0.93
255.45,2.10,2.09,1.18,1.17,-1.17,-1.21,-1.46,0.93,0.92,0.92
258.00,2.05,2.05,1.14,1.13,-1.13,-1.18,-1.44,0.91,0.91,0.91
260.58,2.00,2.00,1.10,1.10,-1.10,-1.14,-1.41,0.90,0.90,0.90
263.19,1.95,1.95,1.05,1.06,-1.06,-1.11,-1.38,0.89,0.89,0.89
265.82,1.91,1.90,1.02,1.02,-1.02,-1.07,-1.34,0.89,0.88,0.88
268.48,1.86,1.86,0.98,0.98,-0.98,-1.04,-1.30,0.88,0.87,0.88
271.16,1.81,1.81,0.94,0.94,-0.94,-1.00,-1.26,0.87,0.87,0.87
273.87,1.76,1.76,0.90,0.90,-0.90,-0.96,-1.22,0.86,0.86,0.86
276.61,1.72,1.71,0.87,0.86,-0.86,-0.93,-1.18,0.86,0.85,0.85
279.38,1.67,1.67,0.82,0.82,-0.82,-0.89,-1.13,0.85,0.85,0.84
282.17,1.62,1.62,0.78,0.78,-0.78,-0.85,-1.09,0.84,0.84,0.84
284.99,1.57,1.57,0.73,0.73,-0.73,-0.81,-1.04,0.84,0.84,0.84
287.84,1.53,1.52,0.68,0.69,-0.69,-0.77,-0.99,0.84,0.84,0.84
290.72,1.48,1.48,0.64,0.64,-0.64,-0.73,-0.94,0.83,0.84,0.84
293.63,1.44,1.43,0.61,0.60,-0.60,-0.69,-0.89,0.84,0.84,0.83
296.57,1.39,1.39,0.55,0.55,-0.55,-0.65,-0.83,0.84,0.84,0.84
299.53,1.34,1.34,0.50,0.51,-0.50,-0.61,-0.78,0.83,0.84,0.84
302.53,1.30,1.29,0.46,0.46,-0.46,-0.57,-0.72,0.84,0.84,0.83
305.55,1.25,1.25,0.41,0.41,-0.41,-0.53,-0.67,0.84,0.84,0.84
308.61,1.20,1.20,0.36,0.37,-0.37,-0.49,-0.61,0.83,0.83,0.83
311.69,1.16,1.15,0.32,0.32,-0.32,-0.45,-0.55,0.84,0.84,0.84
314.81,1.11,1.11,0.27,0.27,-0.27,-0.40,-0.50,0.84,0.84,0.83
317.96,1.07,1.07,0.23,0.23,-0.23,-0.36,-0.44,0.84,0.84,0.84
321.14,1.02,1.02,0.18,0.18,-0.18,-0.32,-0.38,0.84,0.84,0.84
324.35,0.98,0.98,0.14,0.13,-0.13,-0.27,-0.32,0.84,0.84,0.84
327.59,0.93,0.93,0.08,0.09,-0.09,-0.23,-0.26,0.84,0.84,0.85
330.87,0.89,0.88,0.04,0.04,-0.04,-0.19,-0.21,0.85,0.84,0.84
334.18,0.84,0.84,-0.01,-0.01,0.01,-0.14,-0.15,0.84,0.85,0.85
337.52,0.80,0.80,-0.05,-0.05,0.05,-0.10,-0.09,0.85,0.85,0.85
340.90,0.76,0.75,-0.09,-0.10,0.10,-0.05,-0.03,0.86,0.85,0.85
344.30,0.71,0.71,-0.15,-0.14,0.15,-0.01,0.03,0.86,0.86,0.86
347.75,0.67,0.67,-0.20,-0.20,0.20,0.04,0.09,0.86,0.86,0.87
351.23,0.63,0.62,-0.23,-0.24,0.24,0.09,0.15,0.87,0.87,0.86
354.74,0.58,0.58,-0.30,-0.29,0.29,0.13,0.21,0.87,0.87,0.88
358.28,0.54,0.54,-0.34,-0.34,0.34,0.18,0.27,0.88,0.88,0.88
361.87,0.50,0.50,-0.39,-0.39,0.39,0.23,0.33,0.88,0.88,0.88
365.49,0.46,0.46,-0.43,-0.43,0.43,0.27,0.39,0.89,0.89,0.89
369.14,0.42,0.42,-0.47,-0.48,0.48,0.32,0.45,0.90,0.90,0.89
372.83,0.38,0.37,-0.53,-0.53,0.53,0.37,0.51,0.90,0.90,0.91
376.56,0.33,0.33,-0.58,-0.57,0.57,0.42,0.57,0.90,0.90,0.90
380.33,0.29,0.29,-0.62,-0.62,0.62,0.47,0.63,0.91,0.91,0.91
384.13,0.25,0.25,-0.66,-0.67,0.67,0.52,0.70,0.91,0.91,0.91
387.97,0.21,0.21,-0.71,-0.71,0.71,0.57,0.76,0.92,0.92,0.92
391.85,0.17,0.17,-0.77,-0.76,0.76,0.61,0.82,0.92,0.93,0.93
395.77,0.13,0.13,-0.80,-0.80,0.80,0.66,0.88,0.93,0.93,0.93
399.73,0.10,0.09,-0.84,-0.85,0.85,0.71,0.94,0.94,0.94,0.94
403.72,0.06,0.06,-0.89,-0.89,0.89,0.76,1.00,0.95,0.95,0.95
407.76,0.02,0.02,-0.93,-0.93,0.93,0.81,1.06,0.95,0.95,0.95
411.84,-0.02,-0.02,-0.98,-0.98,0.98,0.87,1.12,0.95,0.95,0.95
415.96,-0.06,-0.06,-1.02,-1.02,1.02,0.92,1.18,0.96,0.96,0.96
420.12,-0.09,-0.10,-1.05,-1.06,1.06,0.97,1.24,0.97,0.96,0.96
424.32,-0.13,-0.13,-1.10,-1.10,1.10,1.02,1.29,0.97,0.97,0.97
428.56,-0.17,-0.17,-1.15,-1.15,1.14,1.07,1.35,0.97,0.98,0.98
432.85,-0.20,-0.21,-1.19,-1.19,1.19,1.12,1.40,0.99,0.98,0.99
437.18,-0.24,-0.24,-1.23,-1.23,1.23,1.17,1.46,0.99,0.99,0.98
441.55,-0.27,-0.28,-1.27,-1.27,1.27,1.22,1.51,1.00,1.00,0.99
445.96,-0.31,-0.31,-1.31,-1.31,1.32,1.27,1.56,1.00,1.01,1.00
450.42,-0.34,-0.34,-1.36,-1.36,1.36,1.32,1.61,1.02,1.02,1.02
454.93,-0.37,-0.38,-1.40,-1.41,1.40,1.37,1.66,1.03,1.02,1.03
459.48,-0.41,-0.41,-1.45,-1.45,1.44,1.43,1.71,1.03,1.03,1.04
464.07,-0.44,-0.44,-1.48,-1.48,1.48,1.48,1.75,1.04,1.04,1.04
468.71,-0.47,-0.47,-1.52,-1.52,1.52,1.53,1.79,1.05,1.05,1.05
473.40,-0.50,-0.51,-1.56,-1.56,1.56,1.58,1.83,1.06,1.06,1.06
478.13,-0.54,-0.54,-1.61,-1.60,1.60,1.63,1.86,1.06,1.06,1.06
482.91,-0.57,-0.57,-1.65,-1.65,1.64,1.68,1.90,1.07,1.07,1.07
487.74,-0.60,-0.60,-1.68,-1.69,1.68,1.73,1.93,1.08,1.08,1.08
492.62,-0.63,-0.63,-1.72,-1.72,1.72,1.78,1.95,1.09,1.09,1.09
497.55,-0.65,-0.66,-1.75,-1.76,1.76,1.82,1.98,1.11,1.11,1.10
502.52,-0.68,-0.68,-1.79,-1.80,1.80,1.87,2.00,1.12,1.12,1.11
507.55,-0.71,-0.71,-1.84,-1.84,1.84,1.92,2.02,1.13,1.13,1.13
512.62,-0.74,-0.74,-1.88,-1.88,1.88,1.97,2.03,1.13,1.13,1.14
517.75,-0.77,-0.77,-1.92,-1.92,1.91,2.01,2.05,1.14,1.14,1.15
522.93,-0.79,-0.80,-1.95,-1.95,1.95,2.06,2.06,1.16,1.15,1.16
528.16,-0.82,-0.82,-1.99,-1.98,1.99,2.10,2.06,1.16,1.16,1.17
533.44,-0.84,-0.84,-2.02,-2.02,2.02,2.15,2.07,1.18,1.18,1.18
538.77,-0.87,-0.87,-2.05,-2.05,2.06,2.19,2.07,1.18,1.19,1.17
544.16,-0.89,-0.90,-2.09,-2.09,2.09,2.23,2.07,1.20,1.20,1.19
549.60,-0.92,-0.92,-2.13,-2.13,2.12,2.27,2.07,1.20,1.20,1.20
555.10,-0.94,-0.94,-2.16,-2.16,2.16,2.31,2.07,1.21,1.22,1.22
