frequency,raw,smoothed,error,error_smoothed,equalization,parametric_eq,fixed_band_eq,equalized_raw,equalized_smoothed,target
20.00,1.37,1.37,-0.81,-0.81,0.83,0.75,0.28,2.20,2.20,2.18
20.20,1.41,1.40,-0.82,-0.83,0.83,0.75,0.29,2.24,2.24,2.23
20.40,1.44,1.44,-0.84,-0.83,0.83,0.74,0.30,2.27,2.27,2.28
20.61,1.48,1.48,-0.83,-0.84,0.83,0.74,0.31,2.30,2.30,2.31
20.81,1.52,1.51,-0.84,-0.85,0.82,0.74,0.32,2.34,2.33,2.36
21.02,1.55,1.55,-0.85,-0.84,0.82,0.73,0.33,2.36,2.37,2.40
21.23,1.59,1.59,-0.83,-0.83,0.81,0.73,0.34,2.40,2.40,2.42
21.44,1.64,1.63,-0.80,-0.80,0.80,0.72,0.35,2.44,2.44,2.44
21.66,1.68,1.68,-0.78,-0.77,0.79,0.72,0.36,2.46,2.47,2.46
21.87,1.72,1.71,-0.75,-0.76,0.77,0.71,0.38,2.49,2.49,2.47
22.09,1.74,1.73,-0.75,-0.75,0.76,0.71,0.39,2.50,2.49,2.48
22.31,1.74,1.74,-0.76,-0.75,0.75,0.70,0.40,2.49,2.49,2.49
22.54,1.75,1.75,-0.75,-0.75,0.74,0.70,0.41,2.49,2.49,2.49
22.76,1.75,1.75,-0.75,-0.74,0.74,0.70,0.43,2.49,2.49,2.49
22.99,1.75,1.75,-0.73,-0.74,0.75,0.69,0.44,2.50,2.50,2.48
23.22,1.75,1.75,-0.73,-0.74,0.75,0.69,0.45,2.50,2.50,2.48
23.45,1.75,1.74,-0.73,-0.74,0.74,0.68,0.46,2.49,2.48,2.48
23.69,1.75,1.74,-0.74,-0.74,0.72,0.67,0.48,2.47,2.47,2.49
23.92,1.75,1.76,-0.74,-0.74,0.70,0.67,0.49,2.45,2.46,2.49
24.16,1.79,1.79,-0.71,-0.71,0.67,0.66,0.51,2.46,2.46,2.50
24.40,1.85,1.85,-0.66,-0.65,0.64,0.66,0.52,2.49,2.48,2.51
24.65,1.91,1.91,-0.59,-0.59,0.61,0.65,0.54,2.51,2.52,2.50
24.89,1.97,1.96,-0.53,-0.54,0.58,0.65,0.55,2.54,2.53,2.50
25.14,1.99,1.98,-0.51,-0.52,0.55,0.64,0.57,2.54,2.54,2.49
25.39,1.98,1.98,-0.53,-0.52,0.54,0.64,0.58,2.52,2.52,2.50
25.65,1.97,1.97,-0.54,-0.53,0.54,0.63,0.59,2.50,2.51,2.50
25.91,1.95,1.95,-0.54,-0.55,0.54,0.62,0.61,2.49,2.49,2.49
26.16,1.94,1.94,-0.55,-0.55,0.56,0.62,0.62,2.49,2.49,2.49
26.43,1.92,1.91,-0.57,-0.57,0.56,0.61,0.64,2.48,2.48,2.49
26.69,1.91,1.90,-0.58,-0.59,0.56,0.61,0.65,2.47,2.47,2.49
26.96,1.89,1.90,-0.61,-0.59,0.56,0.60,0.67,2.44,2.46,2.50
27.23,1.93,1.93,-0.57,-0.57,0.54,0.59,0.68,2.47,2.46,2.50
27.50,1.97,1.97,-0.53,-0.53,0.52,0.59,0.69,2.49,2.48,2.49
27.77,2.01,2.01,-0.48,-0.48,0.50,0.58,0.70,2.50,2.50,2.48
28.05,2.05,2.04,-0.43,-0.44,0.47,0.57,0.72,2.52,2.51,2.48
28.33,2.05,2.05,-0.42,-0.42,0.45,0.57,0.73,2.50,2.50,2.47
28.62,2.05,2.05,-0.42,-0.42,0.43,0.56,0.74,2.48,2.48,2.47
28.90,2.05,2.05,-0.43,-0.42,0.42,0.55,0.74,2.47,2.47,2.48
29.19,2.05,2.05,-0.42,-0.43,0.42,0.54,0.75,2.46,2.46,2.46
29.48,2.05,2.05,-0.44,-0.43,0.42,0.54,0.76,2.47,2.47,2.48
29.78,2.05,2.05,-0.42,-0.43,0.42,0.53,0.76,2.47,2.47,2.47
30.08,2.05,2.05,-0.43,-0.43,0.42,0.52,0.77,2.47,2.47,2.48
30.38,2.05,2.05,-0.42,-0.42,0.42,0.51,0.77,2.47,2.47,2.47
30.68,2.05,2.05,-0.42,-0.42,0.42,0.51,0.77,2.47,2.47,2.47
30.99,2.05,2.05,-0.42,-0.42,0.42,0.50,0.77,2.47,2.47,2.46
31.30,2.05,2.05,-0.41,-0.41,0.42,0.49,0.77,2.47,2.47,2.46
31.61,2.05,2.05,-0.41,-0.41,0.42,0.48,0.77,2.47,2.47,2.46
31.93,2.05,2.05,-0.41,-0.41,0.42,0.48,0.77,2.47,2.47,2.46
32.24,2.04,2.03,-0.41,-0.42,0.42,0.47,0.76,2.45,2.45,2.44
32.57,2.03,2.02,-0.42,-0.43,0.41,0.46,0.75,2.43,2.43,2.45
32.89,2.01,2.02,-0.44,-0.42,0.39,0.45,0.75,2.40,2.41,2.45
33.22,2.04,2.04,-0.40,-0.40,0.37,0.44,0.74,2.41,2.41,2.44
33.55,2.09,2.08,-0.35,-0.35,0.35,0.43,0.73,2.44,2.43,2.43
33.89,2.13,2.12,-0.29,-0.31,0.33,0.42,0.71,2.45,2.45,2.42
34.23,2.15,2.14,-0.28,-0.28,0.31,0.41,0.70,2.45,2.45,2.43
34.57,2.15,2.15,-0.27,-0.27,0.28,0.41,0.69,2.43,2.43,2.41
34.92,2.15,2.15,-0.26,-0.26,0.27,0.40,0.68,2.41,2.42,2.41
35.27,2.15,2.15,-0.26,-0.26,0.26,0.39,0.66,2.40,2.40,2.41
35.62,2.15,2.15,-0.26,-0.26,0.25,0.38,0.64,2.40,2.40,2.40
35.97,2.15,2.15,-0.25,-0.26,0.25,0.37,0.63,2.40,2.40,2.40
36.33,2.15,2.15,-0.26,-0.25,0.25,0.36,0.61,2.40,2.40,2.41
36.70,2.15,2.15,-0.25,-0.25,0.25,0.35,0.59,2.40,2.40,2.39
37.06,2.15,2.15,-0.24,-0.25,0.25,0.34,0.58,2.40,2.40,2.39
37.43,2.15,2.15,-0.26,-0.25,0.25,0.33,0.56,2.40,2.40,2.41
37.81,2.15,2.15,-0.25,-0.25,0.25,0.32,0.54,2.39,2.40,2.40
38.19,2.16,2.16,-0.24,-0.25,0.24,0.31,0.52,2.39,2.39,2.40
38.57,2.17,2.16,-0.23,-0.24,0.22,0.30,0.50,2.39,2.39,2.40
38.95,2.18,2.18,-0.23,-0.22,0.21,0.29,0.48,2.39,2.39,2.41
39.34,2.20,2.20,-0.20,-0.20,0.19,0.28,0.47,2.39,2.40,2.40
39.74,2.23,2.22,-0.17,-0.18,0.18,0.27,0.45,2.41,2.40,2.40
40.14,2.25,2.24,-0.15,-0.15,0.17,0.25,0.43,2.42,2.41,2.40
40.54,2.25,2.25,-0.15,-0.14,0.17,0.24,0.41,2.41,2.42,2.40
40.94,2.25,2.24,-0.14,-0.15,0.17,0.23,0.39,2.41,2.41,2.39
41.35,2.23,2.22,-0.16,-0.16,0.17,0.22,0.37,2.40,2.40,2.38
41.76,2.20,2.20,-0.18,-0.18,0.18,0.21,0.36,2.37,2.38,2.38
42.18,2.17,2.17,-0.21,-0.20,0.18,0.20,0.34,2.35,2.36,2.38
42.60,2.16,2.16,-0.21,-0.21,0.18,0.19,0.32,2.34,2.34,2.36
43.03,2.15,2.15,-0.21,-0.21,0.19,0.17,0.30,2.33,2.33,2.36
43.46,2.15,2.15,-0.20,-0.20,0.19,0.16,0.29,2.33,2.33,2.35
43.90,2.15,2.15,-0.18,-0.18,0.19,0.15,0.27,2.33,2.34,2.32
44.33,2.15,2.15,-0.16,-0.15,0.19,0.14,0.25,2.33,2.34,2.30
44.78,2.15,2.14,-0.14,-0.15,0.19,0.12,0.24,2.33,2.32,2.29
45.23,2.12,2.10,-0.16,-0.17,0.19,0.11,0.22,2.30,2.29,2.28
45.68,2.05,2.06,-0.21,-0.20,0.19,0.10,0.20,2.23,2.25,2.26
46.13,2.02,2.03,-0.22,-0.22,0.19,0.09,0.19,2.20,2.22,2.24
46.60,2.03,2.03,-0.21,-0.21,0.19,0.07,0.17,2.21,2.21,2.24
47.06,2.05,2.04,-0.17,-0.19,0.18,0.06,0.16,2.23,2.22,2.22
47.53,2.05,2.05,-0.16,-0.17,0.18,0.05,0.14,2.22,2.22,2.21
48.01,2.05,2.05,-0.16,-0.16,0.16,0.03,0.13,2.21,2.21,2.21
48.49,2.05,2.05,-0.14,-0.14,0.14,0.02,0.11,2.19,2.19,2.19
48.97,2.05,2.05,-0.12,-0.12,0.12,0.01,0.10,2.17,2.17,2.17
49.46,2.05,2.05,-0.10,-0.10,0.10,-0.01,0.08,2.15,2.15,2.15
49.96,2.05,2.05,-0.08,-0.09,0.09,-0.02,0.07,2.14,2.14,2.13
50.46,2.05,2.05,-0.08,-0.07,0.08,-0.03,0.06,2.13,2.13,2.12
50.96,2.05,2.05,-0.06,-0.06,0.07,-0.05,0.04,2.12,2.12,2.11
51.47,2.05,2.05,-0.04,-0.05,0.06,-0.06,0.03,2.10,2.10,2.09
51.99,2.05,2.03,-0.03,-0.05,0.04,-0.08,0.02,2.08,2.07,2.08
52.51,2.03,2.03,-0.04,-0.04,0.01,-0.09,0.00,2.04,2.04,2.07
53.03,2.02,2.04,-0.05,-0.02,-0.01,-0.11,-0.01,2.00,2.03,2.07
53.56,2.08,2.07,0.03,0.02,-0.04,-0.12,-0.03,2.04,2.03,2.05
54.10,2.13,2.11,0.09,0.07,-0.06,-0.14,-0.04,2.06,2.05,2.04
54.64,2.14,2.14,0.12,0.12,-0.09,-0.15,-0.05,2.05,2.05,2.02
55.18,2.15,2.15,0.13,0.14,-0.11,-0.17,-0.06,2.04,2.04,2.01
55.74,2.15,2.14,0.15,0.14,-0.12,-0.18,-0.08,2.02,2.02,2.00
56.29,2.13,2.12,0.14,0.14,-0.13,-0.20,-0.09,1.99,1.99,1.99
56.86,2.09,2.09,0.12,0.12,-0.13,-0.21,-0.10,1.96,1.96,1.97
57.42,2.06,2.06,0.11,0.11,-0.12,-0.23,-0.12,1.93,1.94,1.94
58.00,2.04,2.05,0.10,0.12,-0.11,-0.25,-0.13,1.92,1.94,1.93
58.58,2.05,2.03,0.12,0.11,-0.11,-0.26,-0.14,1.94,1.93,1.92
59.16,2.03,2.01,0.12,0.11,-0.11,-0.28,-0.16,1.91,1.90,1.90
59.76,1.97,1.98,0.09,0.10,-0.12,-0.29,-0.17,1.85,1.86,1.88
60.35,1.95,1.95,0.11,0.11,-0.13,-0.31,-0.18,1.81,1.82,1.84
60.96,1.95,1.94,0.14,0.14,-0.15,-0.33,-0.20,1.80,1.79,1.81
61.57,1.95,1.95,0.18,0.19,-0.17,-0.34,-0.21,1.78,1.78,1.76
62.18,1.95,1.95,0.23,0.23,-0.19,-0.36,-0.22,1.75,1.75,1.72
62.80,1.94,1.91,0.26,0.24,-0.22,-0.38,-0.24,1.71,1.69,1.68
63.43,1.88,1.87,0.25,0.24,-0.26,-0.40,-0.25,1.62,1.62,1.63
64.07,1.81,1.84,0.22,0.26,-0.29,-0.41,-0.26,1.52,1.55,1.59
64.71,1.84,1.84,0.30,0.30,-0.32,-0.43,-0.28,1.52,1.52,1.54
65.35,1.86,1.85,0.36,0.35,-0.34,-0.45,-0.29,1.52,1.51,1.50
66.01,1.88,1.84,0.42,0.39,-0.36,-0.47,-0.31,1.52,1.48,1.45
66.67,1.79,1.81,0.38,0.41,-0.37,-0.48,-0.32,1.42,1.44,1.40
67.33,1.75,1.77,0.39,0.41,-0.39,-0.50,-0.34,1.36,1.38,1.35
68.01,1.75,1.71,0.43,0.40,-0.41,-0.52,-0.35,1.33,1.30,1.31
68.69,1.67,1.68,0.40,0.42,-0.44,-0.54,-0.37,1.23,1.24,1.26
69.37,1.64,1.65,0.43,0.44,-0.47,-0.56,-0.38,1.17,1.18,1.21
70.07,1.63,1.63,0.47,0.47,-0.50,-0.57,-0.40,1.12,1.13,1.16
70.77,1.65,1.64,0.53,0.53,-0.54,-0.59,-0.41,1.11,1.10,1.11
71.48,1.65,1.66,0.59,0.60,-0.58,-0.61,-0.43,1.07,1.08,1.06
72.19,1.66,1.67,0.66,0.67,-0.63,-0.63,-0.45,1.03,1.04,0.99
72.91,1.69,1.64,0.75,0.71,-0.68,-0.65,-0.46,1.01,0.96,0.94
73.64,1.60,1.61,0.72,0.73,-0.73,-0.67,-0.48,0.87,0.88,0.88
74.38,1.55,1.57,0.72,0.75,-0.77,-0.69,-0.50,0.78,0.80,0.82
75.12,1.55,1.54,0.78,0.78,-0.80,-0.71,-0.52,0.75,0.74,0.77
75.87,1.55,1.55,0.84,0.84,-0.83,-0.73,-0.54,0.72,0.72,0.71
76.63,1.55,1.54,0.89,0.89,-0.85,-0.75,-0.56,0.69,0.68,0.66
77.40,1.52,1.50,0.91,0.90,-0.88,-0.76,-0.58,0.63,0.62,0.60
78.17,1.46,1.46,0.91,0.91,-0.92,-0.78,-0.60,0.54,0.55,0.54
78.95,1.41,1.43,0.90,0.93,-0.96,-0.80,-0.62,0.45,0.48,0.51
79.74,1.44,1.43,0.98,0.97,-1.00,-0.82,-0.64,0.43,0.42,0.46
80.54,1.45,1.44,1.03,1.03,-1.05,-0.84,-0.66,0.40,0.39,0.41
81.35,1.45,1.45,1.09,1.09,-1.09,-0.86,-0.68,0.36,0.36,0.36
82.16,1.45,1.45,1.13,1.13,-1.12,-0.88,-0.71,0.32,0.33,0.31
82.98,1.45,1.46,1.17,1.20,-1.15,-0.90,-0.73,0.29,0.31,0.28
83.81,1.47,1.46,1.25,1.24,-1.18,-0.92,-0.75,0.29,0.28,0.22
84.65,1.46,1.41,1.29,1.24,-1.20,-0.94,-0.78,0.25,0.21,0.17
85.50,1.34,1.34,1.20,1.21,-1.22,-0.96,-0.81,0.12,0.12,0.13
86.35,1.22,1.27,1.13,1.18,-1.24,-0.98,-0.83,-0.02,0.03,0.08
87.22,1.23,1.22,1.19,1.19,-1.26,-1.01,-0.86,-0.03,-0.03,0.03
88.09,1.25,1.23,1.26,1.25,-1.28,-1.03,-0.89,-0.03,-0.05,-0.02
88.97,1.25,1.25,1.31,1.32,-1.30,-1.05,-0.92,-0.06,-0.05,-0.07
89.86,1.25,1.23,1.37,1.35,-1.33,-1.07,-0.94,-0.08,-0.10,-0.12
90.76,1.22,1.21,1.39,1.38,-1.35,-1.09,-0.97,-0.14,-0.15,-0.17
91.66,1.15,1.19,1.36,1.41,-1.38,-1.11,-1.00,-0.23,-0.19,-0.21
92.58,1.17,1.15,1.44,1.42,-1.40,-1.13,-1.04,-0.23,-0.25,-0.28
93.51,1.13,1.10,1.45,1.42,-1.41,-1.15,-1.07,-0.28,-0.31,-0.32
94.44,1.03,1.03,1.39,1.40,-1.42,-1.17,-1.10,-0.39,-0.39,-0.36
95.39,0.95,0.96,1.36,1.37,-1.43,-1.19,-1.13,-0.48,-0.47,-0.41
96.34,0.90,0.92,1.36,1.38,-1.43,-1.21,-1.17,-0.53,-0.51,-0.46
97.30,0.93,0.92,1.44,1.43,-1.43,-1.23,-1.20,-0.50,-0.51,-0.51
98.28,0.93,0.92,1.48,1.47,-1.43,-1.25,-1.24,-0.50,-0.51,-0.55
99.26,0.90,0.86,1.50,1.46,-1.42,-1.27,-1.27,-0.52,-0.56,-0.60
100.25,0.77,0.78,1.41,1.43,-1.40,-1.29,-1.31,-0.64,-0.62,-0.65
101.25,0.66,0.69,1.35,1.38,-1.38,-1.31,-1.34,-0.72,-0.69,-0.69
102.27,0.63,0.61,1.37,1.35,-1.35,-1.33,-1.38,-0.73,-0.74,-0.74
103.29,0.55,0.54,1.34,1.33,-1.32,-1.35,-1.41,-0.78,-0.78,-0.79
104.32,0.47,0.45,1.30,1.28,-1.30,-1.37,-1.45,-0.83,-0.85,-0.83
105.37,0.35,0.34,1.22,1.22,-1.27,-1.39,-1.48,-0.92,-0.93,-0.88
106.42,0.23,0.29,1.15,1.21,-1.25,-1.41,-1.52,-1.02,-0.96,-0.92
107.48,0.26,0.26,1.24,1.24,-1.24,-1.43,-1.55,-0.98,-0.98,-0.98
108.56,0.30,0.23,1.33,1.26,-1.23,-1.45,-1.59,-0.93,-1.00,-1.04
109.64,0.18,0.20,1.26,1.29,-1.23,-1.46,-1.62,-1.05,-1.02,-1.08
110.74,0.10,0.11,1.23,1.24,-1.23,-1.48,-1.65,-1.13,-1.12,-1.14
111.85,0.06,0.00,1.23,1.18,-1.23,-1.50,-1.69,-1.17,-1.23,-1.17
112.97,-0.10,-0.04,1.14,1.20,-1.23,-1.52,-1.72,-1.33,-1.26,-1.24
114.10,-0.09,-0.05,1.19,1.23,-1.22,-1.54,-1.75,-1.32,-1.28,-1.28
115.24,-0.00,-0.09,1.33,1.25,-1.22,-1.56,-1.77,-1.23,-1.31,-1.33
116.39,-0.11,-0.14,1.27,1.24,-1.23,-1.57,-1.80,-1.34,-1.37,-1.38
117.55,-0.25,-0.20,1.16,1.22,-1.24,-1.59,-1.82,-1.49,-1.44,-1.42
118.73,-0.29,-0.23,1.17,1.22,-1.25,-1.61,-1.85,-1.55,-1.49,-1.46
119.92,-0.17,-0.22,1.31,1.27,-1.27,-1.63,-1.87,-1.44,-1.48,-1.48
121.12,-0.15,-0.21,1.37,1.32,-1.27,-1.64,-1.89,-1.43,-1.48,-1.53
122.33,-0.25,-0.22,1.31,1.33,-1.29,-1.66,-1.90,-1.54,-1.51,-1.56
123.55,-0.30,-0.28,1.28,1.31,-1.30,-1.68,-1.92,-1.61,-1.58,-1.58
124.79,-0.29,-0.32,1.32,1.29,-1.33,-1.69,-1.93,-1.62,-1.65,-1.61
126.03,-0.32,-0.31,1.32,1.33,-1.36,-1.71,-1.94,-1.69,-1.67,-1.64
127.29,-0.29,-0.28,1.37,1.39,-1.41,-1.72,-1.94,-1.70,-1.68,-1.66
128.57,-0.22,-0.25,1.48,1.45,-1.46,-1.74,-1.95,-1.68,-1.71,-1.70
129.85,-0.19,-0.21,1.54,1.52,-1.53,-1.75,-1.95,-1.72,-1.73,-1.73
131.15,-0.19,-0.16,1.57,1.60,-1.61,-1.77,-1.96,-1.80,-1.77,-1.76
132.46,-0.10,-0.11,1.68,1.68,-1.70,-1.78,-1.95,-1.80,-1.81,-1.79
133.79,-0.03,-0.03,1.78,1.78,-1.79,-1.80,-1.95,-1.82,-1.82,-1.81
135.12,0.06,0.05,1.91,1.90,-1.87,-1.81,-1.95,-1.82,-1.82,-1.85
136.48,0.12,0.11,1.98,1.98,-1.95,-1.82,-1.94,-1.83,-1.83,-1.86
137.84,0.16,0.15,2.06,2.05,-2.01,-1.84,-1.94,-1.86,-1.86,-1.90
139.22,0.16,0.16,2.09,2.09,-2.07,-1.85,-1.93,-1.92,-1.91,-1.93
140.61,0.16,0.16,2.12,2.12,-2.13,-1.86,-1.92,-1.97,-1.97,-1.96
142.02,0.16,0.16,2.13,2.14,-2.17,-1.87,-1.91,-2.01,-2.01,-1.98
143.44,0.16,0.16,2.17,2.17,-2.20,-1.89,-1.90,-2.04,-2.04,-2.01
144.87,0.16,0.17,2.21,2.21,-2.22,-1.90,-1.89,-2.07,-2.06,-2.05
146.32,0.17,0.18,2.26,2.26,-2.25,-1.91,-1.88,-2.08,-2.07,-2.09
147.78,0.18,0.15,2.29,2.28,-2.26,-1.92,-1.87,-2.08,-2.11,-2.12
149.26,0.13,0.10,2.29,2.27,-2.27,-1.93,-1.86,-2.14,-2.16,-2.16
150.75,-0.00,0.05,2.23,2.27,-2.27,-1.94,-1.85,-2.27,-2.22,-2.23
152.26,-0.03,-0.03,2.27,2.27,-2.26,-1.95,-1.84,-2.29,-2.29,-2.30
153.78,-0.08,-0.13,2.28,2.24,-2.24,-1.96,-1.83,-2.32,-2.37,-2.36
155.32,-0.23,-0.23,2.21,2.21,-2.21,-1.97,-1.82,-2.45,-2.44,-2.44
156.88,-0.39,-0.36,2.12,2.15,-2.18,-1.98,-1.81,-2.57,-2.54,-2.51
158.44,-0.48,-0.49,2.11,2.10,-2.12,-1.99,-1.80,-2.61,-2.62,-2.60
160.03,-0.61,-0.60,2.06,2.07,-2.05,-1.99,-1.79,-2.67,-2.66,-2.68
161.63,-0.71,-0.72,2.04,2.03,-1.97,-2.00,-1.79,-2.69,-2.69,-2.75
163.24,-0.85,-0.87,1.96,1.94,-1.89,-2.01,-1.78,-2.74,-2.75,-2.81
164.88,-1.04,-1.04,1.82,1.82,-1.80,-2.02,-1.78,-2.84,-2.84,-2.86
166.53,-1.22,-1.22,1.69,1.68,-1.71,-2.03,-1.78,-2.93,-2.93,-2.91
168.19,-1.39,-1.38,1.55,1.57,-1.62,-2.03,-1.77,-3.01,-2.99,-2.95
169.87,-1.49,-1.48,1.49,1.50,-1.53,-2.04,-1.77,-3.03,-3.02,-2.98
171.57,-1.53,-1.55,1.47,1.46,-1.47,-2.04,-1.78,-3.00,-3.01,-3.00
173.29,-1.57,-1.57,1.44,1.45,-1.43,-2.05,-1.78,-3.00,-3.00,-3.02
175.02,-1.59,-1.60,1.43,1.43,-1.42,-2.06,-1.78,-3.02,-3.02,-3.02
176.77,-1.59,-1.63,1.44,1.41,-1.44,-2.06,-1.79,-3.04,-3.07,-3.04
178.54,-1.65,-1.60,1.39,1.43,-1.49,-2.07,-1.80,-3.14,-3.09,-3.04
180.32,-1.54,-1.49,1.49,1.54,-1.55,-2.07,-1.80,-3.09,-3.05,-3.04
182.13,-1.34,-1.39,1.68,1.64,-1.63,-2.08,-1.81,-2.98,-3.02,-3.03
183.95,-1.20,-1.29,1.84,1.75,-1.73,-2.08,-1.82,-2.93,-3.02,-3.04
185.79,-1.29,-1.20,1.75,1.85,-1.84,-2.08,-1.84,-3.13,-3.03,-3.04
187.65,-1.15,-1.13,1.91,1.92,-1.95,-2.09,-1.85,-3.10,-3.08,-3.06
189.52,-0.98,-1.06,2.09,2.01,-2.04,-2.09,-1.87,-3.03,-3.11,-3.07
191.42,-0.99,-0.95,2.10,2.15,-2.12,-2.09,-1.88,-3.11,-3.07,-3.09
193.33,-0.90,-0.87,2.21,2.24,-2.17,-2.10,-1.90,-3.07,-3.04,-3.11
195.27,-0.80,-0.85,2.33,2.28,-2.20,-2.10,-1.92,-3.00,-3.04,-3.13
197.22,-0.83,-0.87,2.31,2.28,-2.22,-2.10,-1.94,-3.05,-3.09,-3.15
199.19,-0.95,-0.94,2.22,2.23,-2.24,-2.10,-1.96,-3.19,-3.18,-3.17
201.18,-1.06,-1.00,2.13,2.19,-2.26,-2.10,-1.98,-3.32,-3.26,-3.19
203.19,-1.01,-1.02,2.19,2.19,-2.28,-2.10,-2.00,-3.29,-3.29,-3.21
205.23,-0.95,-1.00,2.28,2.22,-2.30,-2.11,-2.02,-3.26,-3.31,-3.23
207.28,-0.95,-0.95,2.28,2.30,-2.34,-2.11,-2.05,-3.29,-3.28,-3.24
209.35,-0.95,-0.87,2.31,2.40,-2.37,-2.11,-2.07,-3.33,-3.24,-3.26
211.44,-0.76,-0.81,2.53,2.48,-2.42,-2.11,-2.09,-3.18,-3.23,-3.30
213.56,-0.69,-0.77,2.61,2.53,-2.47,-2.11,-2.12,-3.16,-3.24,-3.30
215.69,-0.83,-0.78,2.48,2.53,-2.50,-2.11,-2.14,-3.33,-3.28,-3.31
217.85,-0.86,-0.83,2.46,2.49,-2.51,-2.11,-2.16,-3.37,-3.34,-3.33
220.03,-0.86,-0.88,2.47,2.46,-2.49,-2.11,-2.18,-3.35,-3.37,-3.34
222.23,-0.87,-0.89,2.49,2.46,-2.44,-2.10,-2.20,-3.31,-3.33,-3.36
224.45,-0.94,-0.92,2.41,2.43,-2.38,-2.10,-2.23,-3.32,-3.30,-3.35
226.70,-0.99,-1.00,2.36,2.35,-2.30,-2.10,-2.24,-3.29,-3.30,-3.35
228.96,-1.06,-1.12,2.28,2.22,-2.22,-2.10,-2.26,-3.29,-3.34,-3.34
231.25,-1.23,-1.19,2.10,2.14,-2.16,-2.10,-2.28,-3.40,-3.35,-3.33
233.57,-1.31,-1.23,2.01,2.09,-2.13,-2.10,-2.29,-3.44,-3.36,-3.32
235.90,-1.16,-1.27,2.15,2.04,-2.12,-2.09,-2.30,-3.29,-3.39,-3.31
238.26,-1.23,-1.25,2.07,2.05,-2.14,-2.09,-2.32,-3.37,-3.38,-3.30
240.64,-1.27,-1.18,2.01,2.09,-2.17,-2.09,-2.32,-3.44,-3.35,-3.28
243.05,-1.07,-1.06,2.18,2.19,-2.22,-2.08,-2.33,-3.29,-3.27,-3.25
245.48,-0.87,-0.89,2.36,2.34,-2.27,-2.08,-2.33,-3.14,-3.15,-3.23
247.93,-0.67,-0.76,2.52,2.44,-2.32,-2.08,-2.33,-2.99,-3.08,-3.20
250.41,-0.76,-0.74,2.42,2.44,-2.35,-2.07,-2.33,-3.12,-3.09,-3.18
252.92,-0.80,-0.76,2.35,2.39,-2.37,-2.07,-2.33,-3.18,-3.14,-3.15
255.45,-0.79,-0.80,2.34,2.33,-2.38,-2.06,-2.32,-3.17,-3.18,-3.13
258.00,-0.78,-0.79,2.32,2.32,-2.36,-2.06,-2.31,-3.14,-3.15,-3.11
260.58,-0.78,-0.78,2.31,2.30,-2.33,-2.06,-2.30,-3.11,-3.11,-3.09
263.19,-0.78,-0.78,2.28,2.29,-2.29,-2.05,-2.29,-3.07,-3.07,-3.06
265.82,-0.78,-0.78,2.26,2.26,-2.25,-2.04,-2.27,-3.03,-3.03,-3.05
268.48,-0.78,-0.79,2.24,2.23,-2.22,-2.04,-2.25,-3.00,-3.00,-3.02
271.16,-0.79,-0.79,2.20,2.21,-2.20,-2.03,-2.23,-2.99,-2.99,-2.99
273.87,-0.79,-0.79,2.18,2.18,-2.18,-2.03,-2.21,-2.98,-2.97,-2.97
276.61,-0.79,-0.79,2.15,2.15,-2.17,-2.02,-2.19,-2.96,-2.96,-2.94
279.38,-0.79,-0.80,2.12,2.11,-2.15,-2.02,-2.16,-2.95,-2.96,-2.91
282.17,-0.79,-0.79,2.10,2.09,-2.13,-2.01,-2.14,-2.92,-2.92,-2.89
284.99,-0.78,-0.73,2.07,2.13,-2.10,-2.00,-2.11,-2.89,-2.83,-2.85
287.84,-0.68,-0.69,2.16,2.14,-2.07,-2.00,-2.08,-2.76,-2.77,-2.84
290.72,-0.59,-0.70,2.21,2.10,-2.04,-1.99,-2.06,-2.64,-2.74,-2.80
293.63,-0.81,-0.75,1.97,2.03,-2.01,-1.98,-2.03,-2.82,-2.76,-2.78
296.57,-0.84,-0.81,1.90,1.94,-1.98,-1.98,-2.00,-2.82,-2.79,-2.74
299.53,-0.83,-0.85,1.88,1.87,-1.94,-1.97,-1.97,-2.77,-2.79,-2.72
302.53,-0.81,-0.82,1.89,1.87,-1.89,-1.96,-1.94,-2.71,-2.71,-2.70
305.55,-0.80,-0.81,1.85,1.86,-1.84,-1.95,-1.91,-2.64,-2.65,-2.65
308.61,-0.80,-0.79,1.84,1.84,-1.79,-1.94,-1.88,-2.60,-2.59,-2.64
311.69,-0.79,-0.79,1.82,1.82,-1.77,-1.94,-1.85,-2.56,-2.55,-2.61
314.81,-0.78,-0.81,1.80,1.78,-1.76,-1.93,-1.83,-2.54,-2.57,-2.58
317.96,-0.82,-0.85,1.75,1.72,-1.78,-1.92,-1.80,-2.60,-2.62,-2.57
321.14,-0.91,-0.87,1.65,1.69,-1.80,-1.91,-1.77,-2.71,-2.67,-2.56
324.35,-0.83,-0.81,1.71,1.74,-1.83,-1.90,-1.75,-2.66,-2.63,-2.54
327.59,-0.70,-0.68,1.82,1.85,-1.86,-1.89,-1.72,-2.56,-2.54,-2.53
330.87,-0.49,-0.57,2.03,1.95,-1.89,-1.89,-1.70,-2.38,-2.46,-2.52
334.18,-0.47,-0.51,2.03,2.00,-1.91,-1.88,-1.68,-2.38,-2.42,-2.50
337.52,-0.57,-0.48,1.92,2.01,-1.92,-1.87,-1.66,-2.50,-2.40,-2.50
340.90,-0.48,-0.51,2.00,1.97,-1.93,-1.86,-1.64,-2.41,-2.44,-2.48
344.30,-0.49,-0.55,1.98,1.92,-1.92,-1.85,-1.62,-2.41,-2.47,-2.47
347.75,-0.63,-0.60,1.84,1.87,-1.90,-1.84,-1.60,-2.53,-2.50,-2.47
351.23,-0.69,-0.67,1.77,1.79,-1.87,-1.83,-1.59,-2.56,-2.54,-2.47
354.74,-0.69,-0.70,1.77,1.76,-1.84,-1.82,-1.57,-2.54,-2.55,-2.47
358.28,-0.68,-0.65,1.78,1.81,-1.82,-1.81,-1.56,-2.50,-2.47,-2.46
361.87,-0.61,-0.62,1.85,1.84,-1.81,-1.80,-1.54,-2.42,-2.43,-2.46
365.49,-0.54,-0.63,1.91,1.83,-1.80,-1.79,-1.53,-2.34,-2.43,-2.45
369.14,-0.71,-0.64,1.75,1.83,-1.79,-1.78,-1.52,-2.50,-2.42,-2.47
372.83,-0.70,-0.67,1.76,1.79,-1.78,-1.77,-1.51,-2.48,-2.45,-2.47
376.56,-0.64,-0.72,1.83,1.74,-1.77,-1.76,-1.50,-2.41,-2.49,-2.47
380.33,-0.76,-0.74,1.70,1.72,-1.74,-1.75,-1.50,-2.51,-2.49,-2.46
384.13,-0.82,-0.79,1.64,1.68,-1.70,-1.74,-1.49,-2.53,-2.49,-2.46
387.97,-0.83,-0.84,1.64,1.64,-1.65,-1.73,-1.49,-2.48,-2.49,-2.47
391.85,-0.84,-0.86,1.64,1.62,-1.58,-1.72,-1.48,-2.43,-2.44,-2.49
395.77,-0.91,-0.92,1.56,1.57,-1.50,-1.71,-1.48,-2.42,-2.42,-2.48
399.73,-1.00,-1.01,1.49,1.48,-1.42,-1.70,-1.48,-2.42,-2.43,-2.49
403.72,-1.13,-1.12,1.36,1.37,-1.34,-1.68,-1.48,-2.47,-2.46,-2.49
407.76,-1.23,-1.26,1.27,1.24,-1.26,-1.67,-1.48,-2.50,-2.52,-2.50
411.84,-1.37,-1.39,1.13,1.11,-1.19,-1.66,-1.48,-2.57,-2.58,-2.50
415.96,-1.50,-1.45,1.00,1.05,-1.13,-1.65,-1.48,-2.63,-2.58,-2.50
420.12,-1.48,-1.44,1.02,1.06,-1.08,-1.64,-1.48,-2.56,-2.53,-2.50
424.32,-1.35,-1.40,1.15,1.10,-1.07,-1.63,-1.49,-2.42,-2.47,-2.51
428.56,-1.32,-1.38,1.17,1.12,-1.08,-1.62,-1.49,-2.41,-2.47,-2.50
432.85,-1.40,-1.37,1.08,1.11,-1.13,-1.61,-1.49,-2.53,-2.50,-2.49
437.18,-1.41,-1.34,1.07,1.13,-1.18,-1.60,-1.50,-2.60,-2.53,-2.48
441.55,-1.22,-1.25,1.22,1.20,-1.24,-1.59,-1.50,-2.47,-2.49,-2.44
445.96,-1.06,-1.09,1.35,1.33,-1.30,-1.58,-1.51,-2.36,-2.39,-2.41
450.42,-0.95,-0.93,1.43,1.45,-1.36,-1.57,-1.51,-2.31,-2.29,-2.38
454.93,-0.81,-0.86,1.52,1.48,-1.43,-1.56,-1.52,-2.24,-2.28,-2.33
459.48,-0.77,-0.80,1.51,1.49,-1.50,-1.55,-1.52,-2.27,-2.29,-2.28
464.07,-0.79,-0.72,1.44,1.51,-1.56,-1.54,-1.53,-2.36,-2.28,-2.23
468.71,-0.60,-0.61,1.57,1.57,-1.62,-1.53,-1.53,-2.22,-2.23,-2.17
473.40,-0.44,-0.45,1.69,1.68,-1.67,-1.52,-1.53,-2.11,-2.12,-2.14
478.13,-0.30,-0.31,1.77,1.78,-1.72,-1.51,-1.54,-2.02,-2.03,-2.08
482.91,-0.19,-0.24,1.84,1.79,-1.78,-1.50,-1.54,-1.97,-2.02,-2.04
487.74,-0.21,-0.20,1.78,1.79,-1.84,-1.49,-1.54,-2.05,-2.04,-2.00
