frequency,raw
20,-5.41
21,-5.15
22,-4.88
23,-4.63
24,-4.38
25,-4.12
26,-3.88
27,-3.64
28,-3.42
29,-3.20
30,-3.00
31,-2.81
32,-2.66
33,-2.51
34,-2.37
35,-2.25
36,-2.13
37,-2.02
38,-1.90
39,-1.79
40,-1.70
41,-1.60
42,-1.51
43,-1.42
44,-1.33
45,-1.25
46,-1.17
47,-1.10
48,-1.03
49,-0.97
50,-0.91
51,-0.85
52,-0.79
53,-0.74
54,-0.69
55,-0.65
56,-0.60
57,-0.56
58,-0.52
59,-0.48
60,-0.44
61,-0.40
62,-0.36
63,-0.31
64,-0.26
65,-0.22
66,-0.20
67,-0.19
68,-0.17
69,-0.17
70,-0.16
71,-0.14
72,-0.12
73,-0.09
74,-0.06
75,-0.03
76,-0.02
77,-0.02
78,-0.00
79,0.01
80,0.03
81,0.06
82,0.07
83,0.08
84,0.09
85,0.10
86,0.10
87,0.10
88,0.11
89,0.13
90,0.13
91,0.14
92,0.15
93,0.16
94,0.17
95,0.18
96,0.19
97,0.21
98,0.22
99,0.22
100,0.23
101,0.22
102,0.22
104,0.23
105,0.24
106,0.26
107,0.28
108,0.31
109,0.33
110,0.34
111,0.36
112,0.36
113,0.37
114,0.37
115,0.38
117,0.38
118,0.38
119,0.39
120,0.40
121,0.42
123,0.47
124,0.49
125,0.50
126,0.51
128,0.50
129,0.48
130,0.47
131,0.47
133,0.48
134,0.50
135,0.52
137,0.55
138,0.55
140,0.54
141,0.53
142,0.51
144,0.51
145,0.51
147,0.52
148,0.54
150,0.56
151,0.56
153,0.56
154,0.55
156,0.53
157,0.52
159,0.51
160,0.51
162,0.53
164,0.55
165,0.55
167,0.56
169,0.55
170,0.55
172,0.52
174,0.51
175,0.50
177,0.48
179,0.46
181,0.44
183,0.43
184,0.43
186,0.44
188,0.45
190,0.44
192,0.43
194,0.41
196,0.38
198,0.36
200,0.34
202,0.33
204,0.32
206,0.31
208,0.30
210,0.30
212,0.30
214,0.30
216,0.30
218,0.31
221,0.30
223,0.28
225,0.26
227,0.24
229,0.23
232,0.21
234,0.20
236,0.20
239,0.20
241,0.20
244,0.19
246,0.19
248,0.19
251,0.19
253,0.19
256,0.19
259,0.18
261,0.18
264,0.18
266,0.18
269,0.17
272,0.17
274,0.16
277,0.16
280,0.16
283,0.16
286,0.16
288,0.16
291,0.15
294,0.15
297,0.15
300,0.15
303,0.15
306,0.15
309,0.15
312,0.14
316,0.14
319,0.13
322,0.13
325,0.12
328,0.11
332,0.10
335,0.09
338,0.07
342,0.05
345,0.03
349,0.01
352,-0.00
356,-0.02
359,-0.03
363,-0.04
366,-0.05
370,-0.06
374,-0.06
377,-0.06
381,-0.07
385,-0.07
389,-0.08
393,-0.08
397,-0.09
401,-0.09
405,-0.10
409,-0.11
413,-0.11
417,-0.12
421,-0.13
425,-0.14
430,-0.15
434,-0.16
438,-0.17
443,-0.18
447,-0.19
451,-0.19
456,-0.17
460,-0.15
465,-0.11
470,-0.09
474,-0.09
479,-0.09
484,-0.11
489,-0.14
494,-0.17
499,-0.18
504,-0.20
509,-0.21
514,-0.22
519,-0.22
524,-0.25
529,-0.28
535,-0.31
540,-0.36
545,-0.40
551,-0.47
556,-0.52
562,-0.59
568,-0.66
573,-0.70
579,-0.75
585,-0.76
591,-0.77
596,-0.77
602,-0.76
608,-0.74
615,-0.72
621,-0.72
627,-0.72
633,-0.73
639,-0.73
646,-0.74
652,-0.74
659,-0.73
665,-0.72
672,-0.69
679,-0.65
686,-0.62
692,-0.60
699,-0.59
706,-0.57
713,-0.57
721,-0.56
728,-0.54
735,-0.53
742,-0.50
750,-0.48
757,-0.46
765,-0.46
773,-0.46
780,-0.47
788,-0.48
796,-0.50
804,-0.52
812,-0.54
820,-0.56
828,-0.58
837,-0.57
845,-0.56
853,-0.53
862,-0.49
871,-0.44
879,-0.42
888,-0.39
897,-0.36
906,-0.33
915,-0.31
924,-0.29
933,-0.27
943,-0.24
952,-0.21
962,-0.18
971,-0.14
981,-0.09
991,-0.04
1001,0.00
1011,0.05
1021,0.07
1031,0.09
1041,0.10
1052,0.11
1062,0.13
1073,0.16
1084,0.19
1094,0.22
1105,0.26
1116,0.29
1128,0.34
1139,0.38
1150,0.42
1162,0.48
1173,0.54
1185,0.62
1197,0.69
1209,0.76
1221,0.82
1233,0.87
1246,0.92
1258,0.97
1271,1.03
1283,1.10
1296,1.17
1309,1.26
1322,1.35
1335,1.45
1349,1.58
1362,1.69
1376,1.82
1390,1.97
1404,2.11
1418,2.25
1432,2.38
1446,2.50
1461,2.62
1475,2.74
1490,2.87
1505,3.00
1520,3.16
1535,3.34
1550,3.51
1566,3.71
1582,3.88
1597,4.05
1613,4.21
1629,4.39
1646,4.60
1662,4.82
1679,5.09
1696,5.37
1713,5.64
1730,5.90
1747,6.14
1764,6.37
1782,6.60
1800,6.83
1818,7.05
1836,7.26
1854,7.49
1873,7.76
1892,8.04
1911,8.33
1930,8.63
1949,8.93
1969,9.22
1988,9.50
2008,9.79
2028,10.08
2048,10.36
2069,10.67
2090,10.96
2111,11.25
2132,11.54
2153,11.84
2175,12.13
2196,12.40
2218,12.67
2240,12.90
2263,13.12
2285,13.29
2308,13.42
2331,13.52
2355,13.61
2378,13.69
2402,13.80
2426,13.89
2450,13.98
2475,14.07
2500,14.15
2525,14.21
2550,14.27
2575,14.30
2601,14.33
2627,14.33
2653,14.29
2680,14.24
2707,14.15
2734,14.03
2761,13.91
2789,13.76
2817,13.61
2845,13.45
2873,13.27
2902,13.11
2931,12.94
2960,12.77
2990,12.62
3020,12.45
3050,12.30
3080,12.11
3111,11.90
3142,11.69
3174,11.45
3206,11.20
3238,10.96
3270,10.74
3303,10.52
3336,10.33
3369,10.17
3403,10.06
3437,9.98
3471,9.90
3506,9.84
3541,9.75
3576,9.66
3612,9.55
3648,9.45
3685,9.34
3721,9.24
3759,9.13
3796,9.02
3834,8.91
3873,8.78
3911,8.65
3950,8.50
3990,8.33
4030,8.15
4070,7.98
4111,7.79
4152,7.60
4193,7.40
4235,7.21
4278,7.00
4321,6.83
4364,6.68
4407,6.54
4451,6.42
4496,6.30
4541,6.20
4586,6.12
4632,6.05
4679,6.02
4725,6.03
4773,6.07
4820,6.15
4868,6.26
4917,6.37
4966,6.48
5016,6.58
5066,6.67
5117,6.71
5168,6.72
5220,6.74
5272,6.73
5325,6.77
5378,6.85
5432,6.98
5486,7.14
5541,7.34
5596,7.55
5652,7.75
5709,7.96
5766,8.17
5823,8.39
5882,8.64
5940,8.87
6000,9.09
6060,9.29
6120,9.44
6182,9.55
6244,9.59
6306,9.58
6369,9.54
6433,9.50
6497,9.43
6562,9.37
6628,9.30
6694,9.25
6761,9.21
6828,9.21
6897,9.21
6966,9.24
7035,9.30
7106,9.35
7177,9.42
7249,9.44
7321,9.39
7394,9.30
7468,9.20
7543,9.08
7618,9.00
7694,8.97
7771,9.00
7849,9.15
7928,9.38
8007,9.68
8087,10.12
8168,10.60
8250,11.11
8332,11.58
8415,11.93
8499,12.14
8584,12.10
8670,11.76
8757,11.16
8845,10.22
8933,9.22
9022,8.00
9113,6.43
9204,5.12
9296,3.98
9389,2.39
9483,1.03
9577,-0.05
9673,-0.96
9770,-1.66
9868,-2.27
9966,-2.78
10066,-3.22
10167,-3.61
10268,-3.95
10371,-4.32
10475,-4.64
10579,-4.83
10685,-4.87
10792,-4.71
10900,-4.43
11009,-4.04
11119,-3.34
11230,-2.47
11343,-1.29
11456,0.08
11571,0.73
11686,1.11
11803,1.97
11921,2.02
12040,1.63
12161,1.30
12282,0.33
12405,-0.80
12529,-2.01
12655,-3.27
12781,-4.43
12909,-5.49
13038,-6.28
13168,-6.97
13300,-7.49
13433,-7.88
13567,-8.31
13703,-8.77
13840,-9.31
13978,-9.71
14118,-10.00
14259,-10.16
14402,-10.18
14546,-10.12
14692,-10.03
14838,-9.97
14987,-9.97
15137,-10.03
15288,-10.14
15441,-10.20
15595,-10.18
15751,-9.99
15909,-9.61
16068,-9.11
16229,-8.47
16391,-7.66
16555,-6.75
16720,-5.72
16888,-4.60
17056,-3.50
17227,-2.44
17399,-1.66
17573,-1.13
17749,-0.83
17926,-0.94
18106,-1.34
18287,-1.93
18470,-2.71
18654,-3.49
18841,-4.22
19029,-4.80
19220,-5.14
19412,-5.35
19606,-5.42
19802,-5.34
20000,-5.24
