frequency,raw,smoothed,error,error_smoothed,equalization,parametric_eq,fixed_band_eq,equalized_raw,equalized_smoothed,target
20.00,0.90,0.90,-5.43,-5.43,5.43,5.16,1.96,6.33,6.33,6.33
20.20,0.92,0.92,-5.41,-5.41,5.41,5.14,2.02,6.33,6.33,6.33
20.40,0.94,0.94,-5.39,-5.39,5.39,5.13,2.08,6.33,6.33,6.33
20.61,0.96,0.96,-5.37,-5.37,5.37,5.11,2.14,6.33,6.33,6.33
20.81,0.98,0.98,-5.35,-5.35,5.35,5.09,2.20,6.33,6.33,6.33
21.02,1.00,1.00,-5.33,-5.32,5.32,5.07,2.27,6.32,6.32,6.33
21.23,1.01,1.02,-5.30,-5.30,5.29,5.06,2.34,6.30,6.31,6.31
21.44,1.03,1.03,-5.27,-5.26,5.26,5.04,2.41,6.29,6.29,6.30
21.66,1.05,1.05,-5.23,-5.23,5.23,5.02,2.48,6.28,6.28,6.28
21.87,1.06,1.06,-5.19,-5.19,5.20,5.00,2.55,6.26,6.26,6.26
22.09,1.08,1.08,-5.16,-5.16,5.16,4.98,2.63,6.24,6.24,6.24
22.31,1.09,1.09,-5.12,-5.13,5.12,4.96,2.70,6.21,6.21,6.21
22.54,1.10,1.10,-5.09,-5.09,5.09,4.95,2.78,6.19,6.19,6.19
22.76,1.12,1.12,-5.05,-5.05,5.05,4.93,2.86,6.17,6.17,6.17
22.99,1.13,1.13,-5.01,-5.01,5.01,4.91,2.95,6.14,6.14,6.14
23.22,1.15,1.15,-4.96,-4.97,4.97,4.89,3.03,6.12,6.12,6.11
23.45,1.16,1.16,-4.93,-4.93,4.94,4.87,3.12,6.10,6.10,6.09
23.69,1.18,1.18,-4.90,-4.90,4.90,4.84,3.21,6.08,6.08,6.08
23.92,1.19,1.19,-4.87,-4.87,4.86,4.82,3.30,6.06,6.06,6.06
24.16,1.21,1.21,-4.84,-4.83,4.83,4.80,3.39,6.04,6.04,6.05
24.40,1.23,1.23,-4.80,-4.80,4.80,4.78,3.48,6.03,6.02,6.03
24.65,1.24,1.25,-4.77,-4.76,4.76,4.76,3.58,6.00,6.01,6.01
24.89,1.26,1.26,-4.72,-4.73,4.73,4.73,3.67,5.99,5.99,5.99
25.14,1.28,1.28,-4.69,-4.70,4.70,4.71,3.77,5.98,5.97,5.97
25.39,1.29,1.29,-4.66,-4.66,4.66,4.69,3.87,5.96,5.96,5.95
25.65,1.30,1.30,-4.64,-4.63,4.63,4.66,3.97,5.93,5.94,5.94
25.91,1.32,1.32,-4.59,-4.60,4.60,4.64,4.06,5.92,5.92,5.91
26.16,1.33,1.33,-4.57,-4.57,4.57,4.61,4.16,5.90,5.90,5.90
26.43,1.34,1.34,-4.55,-4.54,4.54,4.59,4.26,5.88,5.88,5.89
26.69,1.36,1.36,-4.51,-4.51,4.51,4.56,4.35,5.87,5.87,5.87
26.96,1.38,1.38,-4.48,-4.48,4.48,4.54,4.44,5.86,5.86,5.86
27.23,1.40,1.40,-4.45,-4.44,4.44,4.51,4.53,5.84,5.84,5.85
27.50,1.42,1.42,-4.41,-4.41,4.41,4.49,4.62,5.83,5.83,5.83
27.77,1.44,1.44,-4.37,-4.37,4.37,4.46,4.71,5.81,5.81,5.81
28.05,1.46,1.46,-4.34,-4.34,4.34,4.43,4.79,5.80,5.80,5.80
28.33,1.48,1.48,-4.30,-4.30,4.31,4.40,4.86,5.79,5.79,5.78
28.62,1.50,1.50,-4.27,-4.27,4.27,4.38,4.93,5.77,5.77,5.77
28.90,1.51,1.51,-4.25,-4.24,4.24,4.35,5.00,5.75,5.76,5.76
29.19,1.53,1.53,-4.20,-4.21,4.21,4.32,5.06,5.74,5.74,5.73
29.48,1.55,1.55,-4.18,-4.18,4.18,4.29,5.11,5.73,5.73,5.73
29.78,1.57,1.57,-4.15,-4.15,4.15,4.26,5.15,5.72,5.72,5.72
30.08,1.58,1.58,-4.13,-4.13,4.12,4.23,5.19,5.70,5.70,5.71
30.38,1.60,1.60,-4.09,-4.09,4.09,4.20,5.22,5.69,5.69,5.69
30.68,1.62,1.62,-4.05,-4.05,4.05,4.17,5.23,5.67,5.67,5.68
30.99,1.65,1.65,-4.00,-4.01,4.01,4.13,5.25,5.66,5.66,5.65
31.30,1.67,1.67,-3.97,-3.97,3.97,4.10,5.25,5.64,5.64,5.64
31.61,1.69,1.69,-3.94,-3.93,3.93,4.07,5.24,5.62,5.62,5.63
31.93,1.72,1.72,-3.89,-3.89,3.89,4.04,5.22,5.61,5.60,5.61
32.24,1.74,1.74,-3.83,-3.84,3.84,4.00,5.20,5.58,5.58,5.57
32.57,1.76,1.76,-3.80,-3.80,3.80,3.97,5.16,5.56,5.56,5.56
32.89,1.79,1.79,-3.76,-3.75,3.76,3.93,5.12,5.55,5.54,5.55
33.22,1.81,1.81,-3.71,-3.71,3.71,3.90,5.07,5.52,5.52,5.52
33.55,1.83,1.83,-3.67,-3.67,3.67,3.86,5.02,5.50,5.50,5.50
33.89,1.85,1.85,-3.63,-3.63,3.63,3.83,4.95,5.48,5.48,5.48
34.23,1.87,1.87,-3.59,-3.59,3.59,3.79,4.88,5.46,5.46,5.46
34.57,1.89,1.89,-3.54,-3.54,3.55,3.75,4.81,5.44,5.44,5.43
34.92,1.91,1.91,-3.50,-3.50,3.50,3.72,4.73,5.42,5.42,5.41
35.27,1.93,1.93,-3.47,-3.46,3.46,3.68,4.64,5.39,5.39,5.40
35.62,1.95,1.95,-3.42,-3.42,3.42,3.64,4.55,5.37,5.37,5.37
35.97,1.97,1.97,-3.38,-3.38,3.38,3.60,4.46,5.35,5.35,5.35
36.33,1.99,1.99,-3.35,-3.34,3.34,3.56,4.37,5.33,5.33,5.34
36.70,2.01,2.01,-3.30,-3.30,3.30,3.52,4.27,5.31,5.32,5.31
37.06,2.03,2.03,-3.26,-3.26,3.26,3.48,4.17,5.29,5.29,5.29
37.43,2.05,2.05,-3.22,-3.22,3.22,3.44,4.07,5.28,5.27,5.27
37.81,2.06,2.06,-3.19,-3.19,3.19,3.40,3.97,5.25,5.25,5.25
38.19,2.08,2.08,-3.15,-3.15,3.15,3.36,3.87,5.23,5.23,5.23
38.57,2.10,2.10,-3.11,-3.11,3.11,3.32,3.77,5.21,5.21,5.21
38.95,2.11,2.12,-3.08,-3.07,3.07,3.27,3.67,5.18,5.19,5.19
39.34,2.13,2.13,-3.03,-3.03,3.03,3.23,3.57,5.16,5.16,5.16
39.74,2.15,2.15,-2.99,-3.00,3.00,3.19,3.47,5.15,5.14,5.14
40.14,2.16,2.16,-2.97,-2.96,2.96,3.14,3.37,5.12,5.12,5.13
40.54,2.18,2.18,-2.93,-2.93,2.93,3.10,3.27,5.11,5.11,5.11
40.94,2.20,2.20,-2.89,-2.89,2.89,3.05,3.18,5.09,5.09,5.09
41.35,2.21,2.21,-2.85,-2.86,2.86,3.01,3.08,5.07,5.07,5.06
41.76,2.23,2.23,-2.83,-2.82,2.83,2.96,2.99,5.06,5.06,5.06
42.18,2.24,2.24,-2.80,-2.80,2.80,2.91,2.90,5.04,5.04,5.04
42.60,2.25,2.25,-2.76,-2.77,2.77,2.86,2.81,5.02,5.02,5.01
43.03,2.26,2.26,-2.75,-2.74,2.73,2.82,2.73,5.00,5.00,5.01
43.46,2.27,2.27,-2.71,-2.70,2.70,2.77,2.64,4.97,4.98,4.98
43.90,2.29,2.29,-2.66,-2.67,2.67,2.72,2.56,4.96,4.96,4.95
44.33,2.30,2.30,-2.63,-2.63,2.63,2.67,2.48,4.94,4.94,4.93
44.78,2.31,2.31,-2.61,-2.60,2.60,2.62,2.40,4.91,4.91,4.92
45.23,2.33,2.33,-2.56,-2.56,2.57,2.57,2.32,4.90,4.89,4.89
45.68,2.34,2.34,-2.53,-2.53,2.53,2.52,2.25,4.87,4.88,4.87
46.13,2.36,2.36,-2.49,-2.49,2.50,2.47,2.17,4.86,4.86,4.85
46.60,2.38,2.38,-2.46,-2.46,2.46,2.42,2.10,4.84,4.84,4.84
47.06,2.39,2.39,-2.43,-2.43,2.43,2.36,2.03,4.82,4.82,4.82
47.53,2.41,2.41,-2.39,-2.40,2.39,2.31,1.96,4.80,4.80,4.80
48.01,2.43,2.43,-2.36,-2.36,2.35,2.26,1.90,4.78,4.78,4.79
48.49,2.45,2.45,-2.31,-2.31,2.31,2.21,1.83,4.76,4.76,4.76
48.97,2.47,2.47,-2.26,-2.26,2.26,2.15,1.77,4.73,4.73,4.73
49.46,2.49,2.49,-2.21,-2.21,2.22,2.10,1.71,4.71,4.71,4.70
49.96,2.51,2.51,-2.16,-2.16,2.17,2.04,1.65,4.68,4.68,4.67
50.46,2.54,2.54,-2.12,-2.12,2.12,1.99,1.59,4.66,4.66,4.66
50.96,2.56,2.56,-2.08,-2.07,2.07,1.93,1.53,4.63,4.64,4.64
51.47,2.59,2.59,-2.02,-2.02,2.02,1.88,1.48,4.61,4.61,4.61
51.99,2.62,2.62,-1.96,-1.97,1.97,1.82,1.42,4.59,4.59,4.59
52.51,2.64,2.64,-1.93,-1.92,1.92,1.76,1.37,4.56,4.57,4.57
53.03,2.67,2.67,-1.88,-1.87,1.87,1.71,1.32,4.54,4.54,4.55
53.56,2.71,2.71,-1.81,-1.82,1.81,1.65,1.27,4.52,4.52,4.52
54.10,2.74,2.74,-1.76,-1.76,1.76,1.59,1.22,4.50,4.50,4.50
54.64,2.77,2.77,-1.70,-1.70,1.70,1.54,1.17,4.47,4.47,4.47
55.18,2.81,2.81,-1.63,-1.64,1.64,1.48,1.13,4.45,4.45,4.44
55.74,2.84,2.84,-1.58,-1.58,1.58,1.42,1.08,4.42,4.42,4.42
56.29,2.88,2.88,-1.52,-1.51,1.51,1.36,1.03,4.39,4.40,4.40
56.86,2.92,2.92,-1.45,-1.45,1.45,1.30,0.99,4.37,4.37,4.37
57.42,2.96,2.96,-1.38,-1.39,1.39,1.24,0.95,4.35,4.35,4.34
58.00,3.00,3.00,-1.32,-1.32,1.32,1.19,0.91,4.32,4.32,4.32
58.58,3.04,3.04,-1.25,-1.26,1.26,1.13,0.86,4.30,4.30,4.29
59.16,3.08,3.08,-1.19,-1.19,1.19,1.07,0.82,4.27,4.27,4.27
59.76,3.13,3.13,-1.12,-1.12,1.12,1.01,0.78,4.25,4.25,4.25
60.35,3.17,3.17,-1.05,-1.06,1.05,0.95,0.74,4.22,4.22,4.22
60.96,3.21,3.21,-1.00,-0.99,0.98,0.89,0.70,4.19,4.19,4.21
61.57,3.25,3.25,-0.91,-0.92,0.91,0.83,0.67,4.16,4.16,4.16
62.18,3.29,3.29,-0.84,-0.84,0.84,0.77,0.63,4.14,4.14,4.13
62.80,3.33,3.33,-0.78,-0.77,0.78,0.71,0.59,4.11,4.11,4.11
63.43,3.37,3.37,-0.70,-0.70,0.71,0.65,0.55,4.08,4.08,4.07
64.07,3.41,3.41,-0.63,-0.64,0.64,0.59,0.52,4.05,4.05,4.05
64.71,3.45,3.45,-0.58,-0.57,0.58,0.53,0.48,4.03,4.03,4.03
65.35,3.49,3.49,-0.51,-0.51,0.51,0.47,0.44,4.00,4.00,4.00
66.01,3.53,3.53,-0.45,-0.45,0.45,0.42,0.41,3.98,3.98,3.98
66.67,3.57,3.57,-0.38,-0.39,0.39,0.36,0.37,3.96,3.96,3.95
67.33,3.60,3.60,-0.33,-0.33,0.33,0.30,0.34,3.93,3.93,3.93
68.01,3.64,3.64,-0.26,-0.27,0.27,0.24,0.30,3.91,3.91,3.90
68.69,3.67,3.67,-0.21,-0.21,0.21,0.18,0.27,3.88,3.88,3.88
69.37,3.71,3.71,-0.14,-0.15,0.15,0.12,0.23,3.86,3.86,3.85
70.07,3.74,3.74,-0.09,-0.09,0.09,0.07,0.19,3.83,3.83,3.83
70.77,3.77,3.77,-0.03,-0.03,0.03,0.01,0.16,3.80,3.80,3.80
71.48,3.80,3.80,0.03,0.03,-0.03,-0.05,0.12,3.77,3.77,3.77
72.19,3.83,3.83,0.09,0.09,-0.09,-0.10,0.09,3.74,3.74,3.74
72.91,3.86,3.86,0.15,0.15,-0.15,-0.16,0.05,3.71,3.71,3.71
73.64,3.88,3.88,0.21,0.21,-0.21,-0.21,0.02,3.67,3.68,3.67
74.38,3.91,3.91,0.27,0.27,-0.27,-0.27,-0.02,3.64,3.64,3.64
75.12,3.93,3.93,0.34,0.33,-0.33,-0.32,-0.05,3.60,3.60,3.60
75.87,3.95,3.95,0.38,0.38,-0.39,-0.38,-0.09,3.57,3.57,3.57
76.63,3.97,3.97,0.43,0.44,-0.44,-0.43,-0.13,3.53,3.53,3.54
77.40,3.99,3.99,0.50,0.50,-0.50,-0.48,-0.16,3.49,3.49,3.49
78.17,4.01,4.01,0.57,0.55,-0.55,-0.53,-0.20,3.46,3.46,3.44
78.95,4.02,4.02,0.60,0.61,-0.61,-0.58,-0.24,3.42,3.42,3.42
79.74,4.03,4.03,0.65,0.66,-0.66,-0.63,-0.28,3.37,3.37,3.38
80.54,4.04,4.04,0.71,0.71,-0.71,-0.68,-0.31,3.33,3.33,3.33
81.35,4.05,4.05,0.76,0.76,-0.76,-0.73,-0.35,3.29,3.29,3.29
82.16,4.06,4.06,0.82,0.81,-0.81,-0.78,-0.39,3.25,3.25,3.24
82.98,4.06,4.06,0.85,0.86,-0.86,-0.83,-0.43,3.20,3.20,3.21
83.81,4.06,4.06,0.91,0.91,-0.91,-0.87,-0.47,3.15,3.15,3.15
84.65,4.06,4.06,0.96,0.96,-0.96,-0.92,-0.51,3.11,3.11,3.10
85.50,4.06,4.06,1.00,1.00,-1.00,-0.96,-0.55,3.06,3.06,3.06
86.35,4.06,4.06,1.05,1.05,-1.05,-1.00,-0.60,3.01,3.01,3.01
87.22,4.05,4.05,1.09,1.09,-1.09,-1.05,-0.64,2.96,2.96,2.96
88.09,4.05,4.05,1.14,1.13,-1.13,-1.09,-0.68,2.92,2.92,2.91
88.97,4.04,4.04,1.17,1.17,-1.17,-1.13,-0.73,2.87,2.87,2.87
89.86,4.03,4.03,1.21,1.21,-1.21,-1.17,-0.77,2.82,2.82,2.82
90.76,4.02,4.02,1.26,1.25,-1.25,-1.20,-0.82,2.77,2.77,2.76
91.66,4.00,4.00,1.28,1.29,-1.29,-1.24,-0.86,2.71,2.72,2.72
92.58,3.99,3.99,1.34,1.33,-1.32,-1.28,-0.91,2.67,2.66,2.65
93.51,3.97,3.97,1.35,1.36,-1.36,-1.31,-0.96,2.61,2.61,2.62
94.44,3.95,3.95,1.39,1.39,-1.39,-1.35,-1.01,2.56,2.56,2.57
95.39,3.93,3.93,1.42,1.42,-1.42,-1.38,-1.05,2.51,2.51,2.51
96.34,3.90,3.90,1.45,1.45,-1.46,-1.41,-1.10,2.45,2.45,2.45
97.30,3.88,3.88,1.49,1.49,-1.49,-1.44,-1.15,2.39,2.39,2.39
98.28,3.85,3.85,1.52,1.52,-1.52,-1.47,-1.20,2.33,2.33,2.34
99.26,3.82,3.82,1.55,1.55,-1.55,-1.49,-1.25,2.27,2.27,2.27
100.25,3.80,3.80,1.59,1.58,-1.58,-1.52,-1.30,2.22,2.21,2.21
101.25,3.77,3.77,1.61,1.62,-1.61,-1.55,-1.35,2.16,2.16,2.16
102.27,3.74,3.74,1.65,1.65,-1.64,-1.57,-1.40,2.10,2.10,2.09
103.29,3.70,3.70,1.67,1.67,-1.67,-1.59,-1.45,2.03,2.03,2.03
104.32,3.67,3.67,1.70,1.70,-1.70,-1.61,-1.50,1.97,1.97,1.97
105.37,3.63,3.63,1.72,1.72,-1.72,-1.63,-1.54,1.91,1.91,1.91
106.42,3.59,3.59,1.74,1.75,-1.75,-1.65,-1.59,1.84,1.84,1.85
107.48,3.56,3.55,1.78,1.77,-1.77,-1.67,-1.64,1.79,1.78,1.78
108.56,3.51,3.51,1.80,1.80,-1.80,-1.68,-1.68,1.71,1.72,1.71
109.64,3.47,3.47,1.82,1.82,-1.82,-1.70,-1.72,1.65,1.65,1.65
110.74,3.43,3.43,1.84,1.84,-1.84,-1.71,-1.76,1.59,1.58,1.59
111.85,3.38,3.38,1.85,1.86,-1.86,-1.72,-1.80,1.52,1.52,1.53
112.97,3.33,3.33,1.89,1.88,-1.88,-1.73,-1.84,1.45,1.45,1.44
114.10,3.29,3.28,1.90,1.90,-1.90,-1.74,-1.87,1.39,1.38,1.39
115.24,3.23,3.23,1.91,1.92,-1.92,-1.75,-1.91,1.31,1.32,1.32
116.39,3.18,3.18,1.93,1.93,-1.93,-1.76,-1.93,1.25,1.25,1.25
117.55,3.13,3.13,1.95,1.94,-1.94,-1.76,-1.96,1.19,1.19,1.18
118.73,3.07,3.07,1.95,1.95,-1.95,-1.77,-1.98,1.12,1.13,1.12
119.92,3.01,3.01,1.95,1.95,-1.95,-1.77,-2.00,1.06,1.06,1.07
121.12,2.96,2.95,1.96,1.95,-1.95,-1.77,-2.01,1.01,1.00,1.00
122.33,2.89,2.89,1.95,1.95,-1.95,-1.77,-2.02,0.94,0.94,0.94
123.55,2.83,2.83,1.94,1.95,-1.95,-1.77,-2.03,0.88,0.88,0.89
124.79,2.77,2.77,1.94,1.94,-1.94,-1.77,-2.03,0.83,0.83,0.83
126.03,2.71,2.71,1.93,1.93,-1.94,-1.76,-2.03,0.77,0.77,0.78
127.29,2.64,2.64,1.92,1.93,-1.93,-1.76,-2.03,0.71,0.71,0.72
128.57,2.57,2.57,1.92,1.92,-1.91,-1.75,-2.02,0.66,0.66,0.65
129.85,2.50,2.50,1.90,1.90,-1.90,-1.74,-2.00,0.60,0.60,0.60
131.15,2.43,2.43,1.88,1.88,-1.88,-1.73,-1.99,0.55,0.55,0.55
132.46,2.36,2.36,1.87,1.86,-1.86,-1.72,-1.96,0.50,0.50,0.49
133.79,2.29,2.29,1.83,1.84,-1.84,-1.71,-1.94,0.45,0.45,0.46
135.12,2.22,2.22,1.82,1.81,-1.82,-1.70,-1.91,0.41,0.41,0.40
136.48,2.15,2.15,1.78,1.78,-1.79,-1.68,-1.88,0.36,0.36,0.37
137.84,2.08,2.08,1.75,1.76,-1.75,-1.67,-1.84,0.33,0.32,0.33
139.22,2.00,2.01,1.72,1.72,-1.72,-1.65,-1.81,0.28,0.29,0.28
140.61,1.93,1.93,1.70,1.68,-1.68,-1.63,-1.77,0.25,0.25,0.24
142.02,1.86,1.86,1.64,1.64,-1.64,-1.61,-1.73,0.22,0.22,0.22
143.44,1.78,1.78,1.59,1.60,-1.60,-1.59,-1.68,0.18,0.19,0.19
144.87,1.71,1.71,1.56,1.55,-1.55,-1.57,-1.64,0.16,0.15,0.15
146.32,1.63,1.63,1.51,1.51,-1.51,-1.55,-1.59,0.12,0.12,0.12
147.78,1.56,1.56,1.46,1.46,-1.46,-1.52,-1.55,0.10,0.10,0.10
149.26,1.48,1.48,1.41,1.41,-1.41,-1.50,-1.50,0.07,0.07,0.08
150.75,1.41,1.41,1.37,1.37,-1.37,-1.47,-1.45,0.04,0.04,0.04
152.26,1.34,1.34,1.33,1.32,-1.32,-1.44,-1.40,0.02,0.02,0.01
153.78,1.26,1.26,1.27,1.28,-1.28,-1.41,-1.35,-0.01,-0.01,-0.01
155.32,1.19,1.19,1.23,1.23,-1.23,-1.39,-1.29,-0.04,-0.04,-0.04
156.88,1.11,1.11,1.17,1.18,-1.18,-1.36,-1.24,-0.07,-0.07,-0.06
158.44,1.04,1.04,1.14,1.14,-1.14,-1.32,-1.19,-0.10,-0.10,-0.10
160.03,0.97,0.97,1.10,1.10,-1.09,-1.29,-1.14,-0.12,-0.12,-0.13
161.63,0.90,0.90,1.06,1.05,-1.05,-1.26,-1.09,-0.15,-0.15,-0.16
163.24,0.82,0.82,1.00,1.00,-1.00,-1.22,-1.04,-0.18,-0.18,-0.18
164.88,0.75,0.75,0.95,0.96,-0.96,-1.19,-0.99,-0.21,-0.21,-0.20
166.53,0.68,0.68,0.91,0.91,-0.91,-1.15,-0.94,-0.23,-0.24,-0.23
168.19,0.61,0.61,0.88,0.87,-0.87,-1.12,-0.89,-0.26,-0.26,-0.27
169.87,0.54,0.54,0.84,0.83,-0.83,-1.08,-0.84,-0.29,-0.29,-0.29
171.57,0.47,0.47,0.79,0.79,-0.79,-1.04,-0.79,-0.32,-0.32,-0.32
173.29,0.40,0.40,0.75,0.75,-0.76,-1.00,-0.74,-0.35,-0.36,-0.35
175.02,0.33,0.33,0.71,0.72,-0.72,-0.96,-0.70,-0.39,-0.39,-0.38
176.77,0.26,0.26,0.69,0.69,-0.69,-0.92,-0.65,-0.43,-0.42,-0.43
178.54,0.20,0.20,0.66,0.66,-0.66,-0.88,-0.60,-0.46,-0.46,-0.46
180.32,0.13,0.13,0.63,0.63,-0.63,-0.84,-0.56,-0.50,-0.50,-0.50
182.13,0.07,0.07,0.60,0.60,-0.60,-0.80,-0.51,-0.53,-0.53,-0.53
183.95,0.00,0.00,0.57,0.57,-0.57,-0.76,-0.47,-0.57,-0.57,-0.57
185.79,-0.06,-0.06,0.54,0.55,-0.54,-0.71,-0.42,-0.60,-0.60,-0.60
187.65,-0.12,-0.12,0.52,0.52,-0.51,-0.67,-0.38,-0.63,-0.63,-0.64
189.52,-0.18,-0.18,0.49,0.49,-0.49,-0.63,-0.34,-0.67,-0.67,-0.67
191.42,-0.24,-0.24,0.46,0.46,-0.46,-0.58,-0.29,-0.70,-0.70,-0.70
193.33,-0.30,-0.30,0.42,0.42,-0.43,-0.54,-0.25,-0.73,-0.73,-0.72
195.27,-0.36,-0.36,0.39,0.39,-0.40,-0.49,-0.21,-0.76,-0.76,-0.75
197.22,-0.41,-0.41,0.37,0.37,-0.37,-0.45,-0.17,-0.78,-0.79,-0.78
199.19,-0.47,-0.47,0.35,0.35,-0.34,-0.40,-0.13,-0.81,-0.81,-0.82
201.18,-0.52,-0.52,0.32,0.32,-0.31,-0.36,-0.09,-0.83,-0.83,-0.84
203.19,-0.57,-0.57,0.29,0.29,-0.28,-0.31,-0.05,-0.85,-0.86,-0.86
205.23,-0.63,-0.63,0.25,0.25,-0.25,-0.27,-0.01,-0.88,-0.88,-0.88
207.28,-0.68,-0.68,0.21,0.22,-0.22,-0.22,0.03,-0.90,-0.90,-0.89
209.35,-0.73,-0.73,0.19,0.19,-0.19,-0.18,0.06,-0.92,-0.92,-0.92
211.44,-0.78,-0.78,0.17,0.16,-0.15,-0.13,0.10,-0.93,-0.93,-0.95
213.56,-0.83,-0.83,0.13,0.12,-0.12,-0.09,0.14,-0.95,-0.95,-0.96
215.69,-0.89,-0.89,0.07,0.08,-0.08,-0.04,0.17,-0.97,-0.97,-0.96
217.85,-0.94,-0.94,0.04,0.04,-0.05,0.00,0.21,-0.98,-0.98,-0.98
220.03,-0.99,-0.99,0.01,0.01,-0.01,0.05,0.24,-1.00,-0.99,-1.00
222.23,-1.03,-1.03,-0.02,-0.03,0.03,0.09,0.27,-0.99,-1.00,-1.01
224.45,-1.08,-1.08,-0.08,-0.07,0.08,0.13,0.30,-1.00,-1.00,-1.00
226.70,-1.13,-1.13,-0.12,-0.11,0.12,0.17,0.33,-1.01,-1.01,-1.01
228.96,-1.17,-1.17,-0.16,-0.16,0.16,0.22,0.36,-1.01,-1.01,-1.01
231.25,-1.20,-1.21,-0.20,-0.20,0.20,0.26,0.39,-1.00,-1.01,-1.00
233.57,-1.24,-1.24,-0.25,-0.24,0.23,0.30,0.42,-1.01,-1.00,-0.99
235.90,-1.27,-1.27,-0.28,-0.27,0.27,0.34,0.45,-1.00,-1.00,-0.99
238.26,-1.29,-1.29,-0.30,-0.30,0.31,0.38,0.47,-0.98,-0.98,-0.99
240.64,-1.31,-1.31,-0.34,-0.34,0.34,0.42,0.50,-0.97,-0.97,-0.97
243.05,-1.33,-1.33,-0.37,-0.37,0.37,0.45,0.52,-0.96,-0.96,-0.96
245.48,-1.35,-1.35,-0.41,-0.40,0.41,0.49,0.54,-0.94,-0.94,-0.94
247.93,-1.36,-1.36,-0.43,-0.44,0.44,0.53,0.56,-0.92,-0.93,-0.93
250.41,-1.38,-1.38,-0.46,-0.47,0.47,0.56,0.58,-0.91,-0.91,-0.91
252.92,-1.39,-1.39,-0.51,-0.50,0.50,0.60,0.60,-0.89,-0.89,-0.88
255.45,-1.39,-1.39,-0.53,-0.53,0.53,0.63,0.62,-0.86,-0.87,-0.86
258.00,-1.40,-1.40,-0.56,-0.56,0.56,0.66,0.64,-0.84,-0.84,-0.84
260.58,-1.41,-1.41,-0.59,-0.59,0.59,0.69,0.65,-0.82,-0.82,-0.82
263.19,-1.41,-1.41,-0.61,-0.61,0.62,0.72,0.67,-0.79,-0.79,-0.80
265.82,-1.42,-1.42,-0.64,-0.64,0.65,0.75,0.68,-0.77,-0.77,-0.78
268.48,-1.42,-1.42,-0.67,-0.67,0.67,0.78,0.69,-0.75,-0.75,-0.75
271.16,-1.43,-1.43,-0.71,-0.70,0.70,0.80,0.71,-0.73,-0.73,-0.72
273.87,-1.43,-1.43,-0.73,-0.73,0.72,0.83,0.72,-0.71,-0.70,-0.70
276.61,-1.42,-1.42,-0.75,-0.75,0.75,0.85,0.73,-0.67,-0.68,-0.67
279.38,-1.42,-1.42,-0.76,-0.77,0.77,0.88,0.74,-0.65,-0.65,-0.65
282.17,-1.42,-1.42,-0.79,-0.79,0.79,0.90,0.75,-0.63,-0.63,-0.63
284.99,-1.41,-1.41,-0.80,-0.81,0.81,0.92,0.76,-0.60,-0.60,-0.60
287.84,-1.41,-1.41,-0.83,-0.83,0.83,0.94,0.77,-0.58,-0.58,-0.58
290.72,-1.40,-1.40,-0.86,-0.85,0.85,0.96,0.78,-0.55,-0.55,-0.54
293.63,-1.39,-1.39,-0.86,-0.87,0.87,0.97,0.79,-0.52,-0.52,-0.53
296.57,-1.38,-1.38,-0.89,-0.88,0.89,0.99,0.80,-0.49,-0.49,-0.49
299.53,-1.37,-1.37,-0.90,-0.90,0.91,1.01,0.81,-0.46,-0.46,-0.47
302.53,-1.36,-1.36,-0.92,-0.93,0.93,1.02,0.82,-0.43,-0.43,-0.44
305.55,-1.35,-1.35,-0.96,-0.95,0.95,1.03,0.83,-0.40,-0.40,-0.39
308.61,-1.34,-1.34,-0.97,-0.97,0.97,1.05,0.84,-0.37,-0.37,-0.37
311.69,-1.33,-1.33,-1.00,-1.00,0.99,1.06,0.85,-0.34,-0.34,-0.33
314.81,-1.31,-1.31,-1.01,-1.01,1.01,1.07,0.86,-0.30,-0.30,-0.29
317.96,-1.30,-1.30,-1.03,-1.03,1.03,1.08,0.87,-0.27,-0.27,-0.27
321.14,-1.29,-1.29,-1.05,-1.05,1.05,1.08,0.88,-0.24,-0.24,-0.24
324.35,-1.28,-1.28,-1.06,-1.07,1.07,1.09,0.89,-0.21,-0.21,-0.21
327.59,-1.27,-1.27,-1.09,-1.09,1.09,1.10,0.91,-0.18,-0.18,-0.18
330.87,-1.26,-1.26,-1.11,-1.11,1.11,1.11,0.92,-0.15,-0.16,-0.15
334.18,-1.26,-1.26,-1.13,-1.13,1.12,1.11,0.93,-0.14,-0.13,-0.13
337.52,-1.25,-1.25,-1.14,-1.14,1.14,1.12,0.95,-0.11,-0.11,-0.11
340.90,-1.24,-1.24,-1.16,-1.16,1.15,1.12,0.97,-0.09,-0.09,-0.08
344.30,-1.23,-1.23,-1.17,-1.17,1.17,1.12,0.98,-0.06,-0.06,-0.06
347.75,-1.22,-1.22,-1.19,-1.18,1.19,1.13,1.00,-0.03,-0.03,-0.03
351.23,-1.21,-1.21,-1.19,-1.20,1.21,1.13,1.02,-0.00,-0.00,-0.02
354.74,-1.21,-1.22,-1.21,-1.22,1.23,1.13,1.04,0.02,0.01,0.00
358.28,-1.23,-1.23,-1.25,-1.25,1.25,1.14,1.06,0.02,0.03,0.02
361.87,-1.24,-1.24,-1.28,-1.28,1.28,1.14,1.08,0.04,0.04,0.04
365.49,-1.25,-1.25,-1.32,-1.31,1.30,1.14,1.10,0.05,0.05,0.07
369.14,-1.25,-1.25,-1.32,-1.33,1.32,1.14,1.12,0.07,0.07,0.07
372.83,-1.25,-1.25,-1.34,-1.35,1.34,1.15,1.15,0.09,0.09,0.09
376.56,-1.25,-1.25,-1.36,-1.36,1.36,1.15,1.17,0.11,0.12,0.11
380.33,-1.24,-1.24,-1.38,-1.38,1.38,1.15,1.20,0.14,0.14,0.14
384.13,-1.23,-1.23,-1.39,-1.39,1.39,1.15,1.22,0.16,0.16,0.16
387.97,-1.22,-1.22,-1.40,-1.39,1.39,1.15,1.25,0.17,0.18,0.18
391.85,-1.20,-1.20,-1.39,-1.40,1.40,1.15,1.27,0.20,0.20,0.19
395.77,-1.18,-1.18,-1.40,-1.40,1.40,1.16,1.30,0.22,0.22,0.22
399.73,-1.16,-1.16,-1.40,-1.40,1.40,1.16,1.33,0.24,0.24,0.24
403.72,-1.13,-1.13,-1.39,-1.40,1.40,1.16,1.36,0.27,0.26,0.26
407.76,-1.11,-1.11,-1.39,-1.39,1.39,1.16,1.39,0.28,0.28,0.28
411.84,-1.08,-1.08,-1.39,-1.38,1.38,1.17,1.42,0.30,0.30,0.31
415.96,-1.05,-1.05,-1.38,-1.37,1.37,1.17,1.44,0.32,0.33,0.33
420.12,-1.01,-1.01,-1.36,-1.36,1.36,1.17,1.47,0.35,0.35,0.35
424.32,-0.98,-0.98,-1.35,-1.35,1.35,1.18,1.50,0.37,0.37,0.37
428.56,-0.95,-0.95,-1.34,-1.34,1.34,1.18,1.53,0.39,0.39,0.39
432.85,-0.91,-0.91,-1.32,-1.33,1.32,1.19,1.56,0.41,0.41,0.41
437.18,-0.87,-0.87,-1.31,-1.31,1.31,1.19,1.59,0.44,0.44,0.44
441.55,-0.83,-0.83,-1.30,-1.29,1.30,1.20,1.62,0.47,0.47,0.47
445.96,-0.79,-0.79,-1.28,-1.28,1.28,1.20,1.64,0.50,0.49,0.49
450.42,-0.76,-0.76,-1.27,-1.27,1.27,1.21,1.67,0.52,0.52,0.51
454.93,-0.72,-0.72,-1.27,-1.26,1.27,1.22,1.69,0.55,0.55,0.55
459.48,-0.69,-0.69,-1.26,-1.26,1.26,1.23,1.71,0.57,0.57,0.57
464.07,-0.66,-0.66,-1.26,-1.26,1.26,1.24,1.74,0.60,0.60,0.60
468.71,-0.63,-0.63,-1.26,-1.26,1.25,1.25,1.76,0.63,0.63,0.64
473.40,-0.60,-0.60,-1.25,-1.26,1.26,1.26,1.78,0.66,0.66,0.65
478.13,-0.57,-0.57,-1.25,-1.26,1.26,1.27,1.79,0.69,0.69,0.68
482.91,-0.55,-0.55,-1.26,-1.26,1.26,1.28,1.81,0.71,0.72,0.71
487.74,-0.52,-0.52,-1.26,-1.26,1.27,1.29,1.82,0.75,0.74,0.74
492.62,-0.50,-0.50,-1.27,-1.27,1.27,1.30,1.83,0.77,0.77,0.77
497.55,-0.48,-0.48,-1.27,-1.28,1.28,1.32,1.84,0.80,0.80,0.79
502.52,-0.46,-0.46,-1.29,-1.28,1.28,1.33,1.85,0.82,0.82,0.83
507.55,-0.44,-0.44,-1.29,-1.29,1.29,1.35,1.85,0.85,0.85,0.85
512.62,-0.41,-0.41,-1.29,-1.30,1.29,1.37,1.85,0.88,0.88,0.88
517.75,-0.39,-0.39,-1.30,-1.30,1.30,1.38,1.86,0.91,0.91,0.91
522.93,-0.37,-0.37,-1.31,-1.30,1.30,1.40,1.86,0.93,0.94,0.94
528.16,-0.34,-0.34,-1.30,-1.30,1.30,1.42,1.85,0.96,0.96,0.96
