frequency,raw,error,smoothed,error_smoothed,equalization,equalized_raw,equalized_smoothed,target
20,-13.443619173914868,-14.229505374760736,-13.41332883103849,-14.199199684658213,5.999999999999999,-7.443619173914869,-7.41332883103849,0.785886200845868
21,-12.763753879100339,-13.549621127708619,-12.836747622391647,-13.622617225251535,6.0,-6.763753879100339,-6.836747622391647,0.7858672486082812
22,-12.294054687231323,-13.079897143867758,-12.279256829139984,-13.065111600181275,5.999999999999999,-6.294054687231324,-6.279256829139984,0.7858424566364333
23,-11.810881621570498,-12.596692040271957,-11.7408564512835,-12.526682809447436,6.0,-5.810881621570498,-5.7408564512835,0.7858104187014585
24,-11.178632842943706,-11.96440231859784,-11.221546488822185,-12.007330853049995,5.9999999999999964,-5.17863284294371,-5.221546488822188,0.7857694756541327
25,-10.725554046888956,-11.511271730867621,-10.721564438405359,-11.507294703973004,6.0,-4.725554046888956,-4.721564438405359,0.7857176839786661
26,-10.18654847163728,-10.97220125368639,-10.240573226293428,-11.026235833910963,6.0,-4.1865484716372805,-4.240573226293428,0.7856527820491079
27,-9.81724108064585,-10.60281323468339,-9.77830710187484,-10.563886923603066,5.999999999999999,-3.817241080645851,-3.7783071018748418,0.7855721540375402
28,-9.378025068136147,-10.163497859564858,-9.334475704564664,-10.119955028840232,6.0,-3.3780250681361466,-3.334475704564664,0.785472791428711
29,-8.909952251197879,-9.695303503299332,-8.908872890224114,-9.694230385860727,6.000000000000002,-2.9099522511978773,-2.908872890224112,0.7853512521014525
30,-8.480838841092119,-9.26604245803713,-8.501605837837277,-9.28681609470274,6.000000000000001,-2.480838841092118,-2.5016058378372756,0.7852036169450121
31,-8.080129085413176,-8.865154529399994,-8.113142663181915,-8.89817552569671,5.999999999999998,-2.080129085413178,-2.1131426631819163,0.785025443986819
32,-7.790011890656401,-8.574823610674986,-7.744413309208507,-8.529233368180941,6.0,-1.7900118906564009,-1.7444133092085066,0.784811720018586
33,-7.362931644559729,-8.147488454279511,-7.396797365992942,-8.181363449175826,6.000000000000001,-1.362931644559728,-1.3967973659929411,0.7845568097197813
34,-7.124465301455588,-7.908719703747402,-7.071951685850559,-7.8562162445719315,5.999999999999997,-1.124465301455591,-1.0719516858505616,0.7842544022918139
35,-6.744171759715806,-7.528069215348887,-6.77146011721998,-7.555368563521349,6.0,-0.7441717597158064,-0.7714601172199798,0.7838974556330802
36,-6.459624152855284,-7.243102290959916,-6.496271102185924,-7.279761043253018,6.0,-0.4596241528552838,-0.49627110218592385,0.7834781381046327
37,-6.24083482057412,-7.023822588533184,-6.246024769507761,-7.029025157153892,6.0,-0.2408348205741202,-0.24602476950776087,0.7829877679590638
38,-5.973079108963928,-6.755495859495603,-6.018449445367228,-6.800879655603474,6.000000000000002,0.02692089103607387,-0.018449445367226147,0.7824167505316759
39,-5.798484939263548,-6.580239452587007,-5.809063730487722,-6.590832572446754,6.000000000000001,0.20151506073645287,0.19093626951227893,0.7817545133234582
40,-5.573030443619368,-6.354019882759804,-5.611402951759565,-6.392407614611992,6.000000000000002,0.4269695563806337,0.3885970482404364,0.7809894391404364
41,-5.347343153512441,-6.127451951006311,-5.41785687134734,-6.197981807148347,5.952845745525712,0.6055025920132708,0.5349888741783726,0.7801087974938694
42,-5.340967136547285,-6.120065811058478,-5.221011735997901,-6.0001274751596165,5.854134204926007,0.5131670683787224,0.6331224689281063,0.7790986745111934
43,-5.108291737752651,-5.886235639411574,-5.0151898852351176,-5.7931517824303205,5.70763565415071,0.599343916398059,0.6924457689155927,0.7779439016589222
44,-4.875439182212356,-5.652067165848755,-4.797758578785178,-5.5744054864710195,5.529188745761266,0.6537495635489092,0.7314301669760876,0.7766279836363985
45,-4.643225776476615,-5.418358802340455,-4.569799582049806,-5.344952450819395,5.329263939471601,0.6860381629949863,0.7594643574217947,0.7751330258638407
46,-4.348375158931146,-5.1218148209909895,-4.335899123507668,-5.109359529442145,5.109359529442145,0.7609843705109984,0.7734604059344772,0.7734396620598432
47,-3.953384333390982,-4.724911315873788,-4.103083062404445,-4.874631662256616,4.874631662256616,0.9212473288656335,0.7715485998521707,0.7715269824828064
48,-3.9067414402828247,-4.676113903780644,-3.8791898267915466,-4.648584742624306,4.6485847426243065,0.7418433023414819,0.76939491583276,0.7693724634978194
49,-3.589959791168477,-4.356911690393988,-3.6711454432011603,-4.438120578644276,4.438120578644276,0.8481607874757993,0.7669751354431158,0.7669518992255115
50,-3.492188846177722,-4.256428182309903,-3.4836189815377097,-4.247882272606132,4.247882272606132,0.7556934264284099,0.7642632910684224,0.7642393361321806
51,-3.263814175423639,-4.025021186954547,-3.3183905609276687,-4.079622165297113,4.079622165297113,0.8158079898734742,0.7612316043694447,0.761207011530908
52,-3.1638420047459426,-3.9216673018268087,-3.1745173468771464,-3.9323677765939546,3.9323677765939546,0.7685257718480121,0.7578504297168083,0.7578252970808661
53,-3.0376563439705606,-3.7917189924663295,-3.0491286847104666,-3.8032168885592297,3.8032168885592292,0.7655605445886686,0.7540882038487626,0.7540626484957689
54,-3.0391724968231464,-3.789058059624429,-2.9385117922301918,-3.688423195338198,3.6884231953381974,0.649250698515051,0.7499114031080056,0.7498855628012828
55,-2.8124893079338236,-3.557747852547449,-2.839115835604515,-3.5844003453423436,3.5844003453423445,0.771911037408521,0.7452845097378296,0.7452585446136255
56,-2.81286908137485,-3.55301316442022,-2.748200900112475,-3.4883708889639675,3.488370888963967,0.675501807589117,0.7401699888514921,0.74014408304537
57,-2.5854162774357543,-3.3199189184129,-2.6640366631388135,-3.3985649409569962,3.3985649409569954,0.813148663521241,0.7345282778181819,0.7345026409771456
58,-2.585490325621487,-3.3137829841836015,-2.5857357624283472,-3.3140535523693684,3.3140535523693693,0.7285632267478821,0.728317789941022,0.7282926585621143
59,-2.585813176649549,-3.3072837495995513,-2.512918538606567,-3.2344134730305636,3.2344134730305636,0.6486002963810145,0.7214949344239967,0.7214705729500022
60,-2.3651680836722173,-3.0791589399965824,-2.4454155181576147,-3.159429672888977,3.1594296728889772,0.7942615892167599,0.7140141547313625,0.7139908563243651
61,-2.359059992853405,-3.064866067288759,-2.3831335377209393,-3.0889615252521567,3.0889615252521576,0.7299015323987526,0.7058279875312183,0.7058060744353538
62,-2.3589378744016,-3.055804842275951,-2.3260923967343548,-3.022979541212247,3.022979541212247,0.6640416668106468,0.6968871444778921,0.6968669678743509
63,-2.357675091130962,-3.0447976495006164,-2.2745419783426537,-2.9616825974594203,2.961682597459421,0.6040075063284593,0.6871406191167675,0.6871225583696545
64,-2.258237086417531,-2.9347573687938016,-2.229038073011515,-2.905573894231245,2.905573894231245,0.6473368078137138,0.6765358212197299,0.6765202823762704
65,-2.124499871933296,-2.789506026113104,-2.190396354095995,-2.8554150947342594,2.8554150947342585,0.7309152228009625,0.6650187406382635,0.665006154179808
66,-2.1223028062699436,-2.7748277668958123,-2.159527221844665,-2.8120613648152473,2.812061364815248,0.6897585585453045,0.6525341429705831,0.6525249606258687
67,-2.1220965064083375,-2.7611169958218236,-2.1372280247589974,-2.7762538239855825,2.776253823985582,0.6541573175772446,0.6390257992265846,0.6390204894134861
68,-2.125002671701041,-2.7494384643465057,-2.1240311945775767,-2.748467945208964,2.748467945208965,0.6234652735079242,0.6244367506313884,0.6244357926454649
69,-2.131657731172954,-2.7403712181747544,-2.120165633150263,-2.7288752421308367,2.7288752421308367,0.5972175109578828,0.6087096089805737,0.6087134870018005
70,-2.14206014041664,-2.73385623190408,-2.12561166804913,-2.7173985621177246,2.7173985621177246,0.5753384217010846,0.5917868940685946,0.5917960914874398
71,-2.1555351653347463,-2.7291615685315596,-2.1401643129679333,-2.713775724574935,2.713775724574936,0.5582405592401898,0.5736114116070028,0.5736264031968132
72,-2.170803570365295,-2.7249514812962463,-2.1634080859614224,-2.7175347600505786,2.7175347600505786,0.5467311896852838,0.5541266740891562,0.5541479109309515
73,-2.186174276153044,-2.7194795219508094,-2.194563310089581,-2.727840669737894,2.727840669737894,0.5416663935848502,0.5332773596483129,0.5333052457977656
74,-2.199887277312952,-2.7109319444372497,-2.2322617854970024,-2.7432715835116177,2.7432715835116177,0.5433843061986656,0.5110097980146153,0.5110446671242976
75,-2.2105814819998653,-2.6978960631178484,-2.2743943054891815,-2.761666773441024,2.761666773441024,0.5510852914411588,0.48727246795184254,0.4873145811179831
76,-2.2808304309323213,-2.7428965196753587,-2.318190773198358,-2.7802072703928746,2.7802072703928755,0.4993768394605542,0.4620164971945173,0.46206608874303745
77,-2.4500603720190055,-2.885313930263208,-2.36062190365025,-2.795818093841726,2.7958180938417265,0.345757721822721,0.4351961901914767,0.4352535582442023
78,-2.4534169015595753,-2.8602521182343827,-2.399071235762924,-2.8058408954466247,2.8058408954466243,0.35242399388704904,0.40676965968370027,0.4068352166748075
79,-2.458217096624549,-2.8349908503213785,-2.4320761174298404,-2.8087757624959897,2.80877576249599,0.350558665871441,0.3766996450661497,0.3767737536968294
80,-2.4667848002756116,-2.8118217301256028,-2.459848761135957,-2.8048032521329396,2.8048032521329396,0.33801845185732793,0.3449544909969826,0.3450369298499911
81,-2.4804774138774874,-2.7920755943503694,-2.4843163957812853,-2.7958254242719707,2.7958254242719702,0.3153480103944828,0.31150902849068496,0.311598180472882
82,-2.499139155809385,-2.775576361352802,-2.508567861411408,-2.7849127472468966,2.7849127472468966,0.2857735914375117,0.27634488583548844,0.276437205543417
83,-2.521098750044266,-2.7606392849777532,-2.535814484627336,-2.775264240504906,2.775264240504907,0.25416549046064096,0.23944975587757122,0.23954053493348715
84,-2.5437487570468638,-2.7446508150361417,-2.5681814677882624,-2.7689970825778616,2.7689970825778625,0.22524832553099872,0.20081561478960008,0.20090205798927796
85,-2.564474058349012,-2.724997564348303,-2.6057531500567555,-2.766190053397073,2.7661900533970734,0.20171599504806137,0.1604369033403179,0.16052350599929088
86,-2.581525114872448,-2.6999399909106336,-2.646246129791445,-2.7645569795889635,2.764556979588963,0.183031864716515,0.11831084979751827,0.11841487603818557
87,-2.594468484550498,-2.669063269461992,-2.685483356140481,-2.759925874081601,2.7599258740816,0.165457389531102,0.07444251794111878,0.07459478491149385
88,-2.8320011659237005,-2.8610919084246693,-2.7185583536417175,-2.7474141651833497,2.7474141651833497,-0.08458700074035086,0.028855811541632193,0.02909074250096877
89,-2.839764892403882,-2.8217042271420523,-2.7413199685901417,-2.7229282007810403,2.7229282007810407,-0.11683669162284138,-0.01839176780910101,-0.01806066526182981
90,-2.847287487501094,-2.780473795217944,-2.751677790463706,-2.68448042193777,2.6844804219377703,-0.16280706556332358,-0.06719736852593572,-0.0668136922831497
91,-2.836884212664719,-2.71977075874431,-2.7502829592192293,-2.6328686845768052,2.6328686845768052,-0.2040155280879139,-0.11741427464242404,-0.11711345392040906
92,-2.6387158602877263,-2.4698198010390446,-2.7403615839680233,-2.5714853160911066,2.5714853160911066,-0.06723054419661967,-0.16887626787691667,-0.16889605924868167
93,-2.6521335530129315,-2.4300446963092073,-2.7267815166378853,-2.5053337270773337,2.5053337270773337,-0.14679982593559782,-0.22144778956055156,-0.22208885670372425
94,-2.6684935061302886,-2.3918827127146076,-2.71469803407541,-2.4396073001225,2.4396073001225003,-0.2288862060077883,-0.2750907339529096,-0.27661079341568096
95,-2.6875613683092627,-2.3551884823021503,-2.7082482680299904,-2.378322714213383,2.3783227142133825,-0.30923865409588025,-0.32992555381660793,-0.33237288600711246
96,-2.708553566507572,-2.319274768464971,-2.7097063408259556,-2.3234496318666116,2.3234496318666116,-0.3851039346409606,-0.38625670895934405,-0.38927879804260135
97,-2.7302523068271025,-2.2830267900510255,-2.719306148235483,-2.274769907038282,2.274769907038282,-0.45548239978882066,-0.44453624119720114,-0.447225516776077
98,-2.751368683626846,-2.2452645641870337,-2.73567865575425,-2.2304222346865044,2.230422234686505,-0.5209464489403413,-0.5052564210677453,-0.5061041194398124
99,-2.771033729932557,-2.2052331127859857,-2.7566431693056295,-2.187854116093199,2.187854116093199,-0.5831796138393583,-0.5687890532124307,-0.5658006171465715
100,-2.7891808119162276,-2.162983949299635,-2.7800135193815914,-2.1447981985370093,2.1447981985370097,-0.6443826133792179,-0.6352153208445817,-0.6261968626165926
101,-2.806613857159512,-2.1194423506949107,-2.804144623469986,-2.0999404807730886,2.0999404807730895,-0.7066733763864224,-0.7042041426968964,-0.6871715064646011
102,-2.8247085023048824,-2.0761075165611396,-2.828106182039935,-2.053115660827107,2.0531156608271064,-0.771592841477776,-0.7749905212128287,-0.7486009857437428
104,-2.8448695119052774,-1.972544358864988,-2.851547590620813,-2.005069739558215,2.005069739558215,-0.8397997723470625,-0.8464778510625983,-0.8723251530402893
105,-2.8679703731528794,-1.9335997147240591,-2.8744334601572543,-1.9569854687255233,1.9569854687255228,-0.9109849044273566,-0.9174479914317315,-0.9343706584288203
106,-2.8939945572966255,-1.8976199885260097,-2.8968411062339787,-1.9100166394165508,1.9100166394165503,-0.9839779178800752,-0.9868244668174284,-0.9963745687706158
107,-2.9220059170604396,-1.8637888784354528,-2.91892859768407,-1.8650162257987088,1.865016225798709,-1.0569896912617305,-1.053912371885361,-1.0582170386249867
108,-2.950443336611178,-1.8306616429195306,-2.94105497150493,-1.8225123245808548,1.8225123245808545,-1.1279310120303234,-1.1185426469240756,-1.1197816936916474
109,-2.977606734282775,-1.7966503340754154,-2.9639290928089963,-1.782851576332062,1.7828515763320625,-1.1947551579507123,-1.1810775164769338,-1.1809564002073594
110,-3.0021246359654854,-1.7604906823648125,-2.988631264471818,-1.746353663648227,1.7463536636482266,-1.2557709723172588,-1.2422776008235914,-1.2416339536006729
111,-3.0232072891726287,-1.7214946094034138,-3.016406906653036,-1.7133330495693717,1.713333049569372,-1.3098742396032568,-1.3030738570836642,-1.301712679769215
112,-3.040604050498957,-1.6795071059287028,-3.048247882461987,-1.6839334052456958,1.6839334052456958,-1.3566706452532613,-1.3643144772162912,-1.3610969445702543
113,-3.0543487340226885,-1.6346511647256725,-3.0843974139788592,-1.6578378351607823,1.6578378351607816,-1.3965108988619068,-1.4265595788180776,-1.419697569297016
114,-3.0644922275496294,-1.5870600755673818,-3.123979619871149,-1.6340042108630923,1.6340042108630928,-1.4304880166865366,-1.4899754090080561,-1.4774321519822475
115,-3.071005147117205,-1.5367798508459267,-3.1649303867381153,-1.6105865115889098,1.6105865115889102,-1.4604186355282949,-1.5543438751492051,-1.5342252962712783
117,-3.3018121045249065,-1.6570906371171725,-3.204300305250732,-1.5851340647515437,1.5851340647515433,-1.7166780397733632,-1.619166240499189,-1.644721467407734
118,-3.301313343857635,-1.6030037699946322,-3.2388586196286075,-1.5550440064489923,1.555044006448992,-1.746269337408643,-1.6838146131796154,-1.698309573863003
119,-3.298013095118646,-1.5472868097679369,-3.2658123211522043,-1.518133722327113,1.5181337223271127,-1.7798793727915332,-1.7476785988250916,-1.750726285350709
120,-3.29275134183222,-1.490819596793234,-3.283416899622137,-1.473150051951024,1.4731500519510239,-1.819601289881196,-1.8102668476711132,-1.8019317450389858
121,-3.286400243998022,-1.4345074319054878,-3.2913086778450715,-1.420061385504682,1.4200613855046822,-1.86633885849334,-1.8712472923403893,-1.8518928120925344
123,-3.2796603643248625,-1.3316791776899386,-3.2905022603235183,-1.3600674332085028,1.360067433208503,-1.9195929311163595,-1.9304348271150154,-1.947981186634924
124,-3.27300110635795,-1.278927840880804,-3.2831142883681923,-1.2953631889404453,1.2953631889404453,-1.9776379174175045,-1.987751099427747,-1.9940732654771458
125,-3.2667437049874843,-1.2278938953793874,-3.2719447883100012,-1.228761624161748,1.228761624161748,-2.0379820808257363,-2.043183164148253,-2.038849809608097
126,-3.261177996386937,-1.1788713049850572,-3.2600482985886767,-1.1632904283097938,1.1632904283097938,-2.097887568077143,-2.096757870278883,-2.0823066914018797
128,-3.25659899423796,-1.0913308248353633,-3.2503747247688928,-1.101840751958195,1.1018407519581952,-2.1547582422797644,-2.1485339728106974,-2.1652681694025966
129,-3.2532353569764045,-1.0484487923016017,-3.2454956758784297,-1.0468937390801332,1.0468937390801334,-2.206341617896271,-2.1986019367982963,-2.204786564674803
130,-3.251139199596814,-1.0081270696652616,-3.2473956884132282,-1.000317879386934,1.0003178793869343,-2.2508213202098797,-2.247077809026294,-2.2430121299315524
131,-3.250139678281736,-0.9701791755423299,-3.257314305020633,-0.9632310164743372,0.9632310164743373,-2.2869086618073986,-2.2940832885462954,-2.279960502739406
133,-3.2499131478900853,-0.8998110863944269,-3.2756558297249296,-0.9359409040234726,0.9359409040234729,-2.3139722438666124,-2.3397149257014567,-2.3501020614956585
134,-3.250135847886215,-0.866796502277825,-3.3020041438717644,-0.9179896649989947,0.9179896649989947,-2.33214618288722,-2.3840144788727695,-2.38333934560839
135,-3.250623654097498,-0.8352366581905444,-3.3352646980263763,-0.9083101081748858,0.9083101081748859,-2.342313545922612,-2.4269545898514906,-2.4153869959069536
137,-3.4792845742443066,-1.0032636855902517,-3.3739066872518904,-0.905458610668399,0.905458610668399,-2.5738259635759073,-2.468448076583491,-2.476020888654055
138,-3.480333527775808,-0.9756696669323484,-3.4162253743506525,-0.9078466911913192,0.9078466911913192,-2.5724868365844884,-2.508378683159333,-2.5046638608434595
140,-3.4816402129497535,-0.9228900743544166,-3.460527031054882,-0.9138857787768835,0.9138857787768833,-2.56775443417287,-2.5466412522779986,-2.558750138595337
141,-3.4829382349537195,-0.8986837809325667,-3.5051784802700654,-0.9220034125924215,0.9220034125924216,-2.5609348223612978,-2.5831750676776437,-2.5842544540211527
142,-3.483810497143354,-0.8750364265712327,-3.548546372631825,-0.9305686601327318,0.930568660132732,-2.553241837010622,-2.617977712499093,-2.6087740705721214
144,-3.506369492891513,-0.8513862282642513,-3.588932208372972,-0.9378360703785474,0.9378360703785471,-2.5685334225129655,-2.6510961379944247,-2.6549832646272615
145,-3.6879578288514807,-1.0112232218290442,-3.6246361493720003,-0.9420342940230926,0.9420342940230927,-2.745923534828388,-2.6826018553489077,-2.6767346070224365
147,-3.7103765536915576,-0.9926933328815069,-3.654229109920802,-0.9416657698641575,0.9416657698641573,-2.7687107838274003,-2.712563340056645,-2.7176832208100508
148,-3.710005343410306,-0.9730650599570065,-3.6769955465115656,-0.9359671195561056,0.9359671195561053,-2.774038223854201,-2.7410284269554603,-2.7369402834532996
150,-3.710738219890516,-0.9375726824647339,-3.693384879976704,-0.9253613631382873,0.9253613631382874,-2.7853768567522286,-2.7680235168384164,-2.773165537425782
151,-3.712727643431183,-0.922537457782743,-3.7052452667561178,-0.911677491088256,0.9116774910882561,-2.8010501523429268,-2.793567775667862,-2.79019018564844
153,-3.7156151332018967,-0.893415468615705,-3.715652614114322,-0.8979591033418747,0.8979591033418743,-2.8176560298600224,-2.8176935107724477,-2.8221996645861918
154,-3.718821339992746,-0.8815845224145571,-3.7282859736927474,-0.887824269550701,0.8878242695507008,-2.830997070442045,-2.8404617041420464,-2.837236817578189
156,-3.721989082171209,-0.8564879102459484,-3.7464841849740242,-0.8845193870807617,0.8845193870807619,-2.837469695090447,-2.861964797893262,-2.8655011719252608
157,-3.7252816744298904,-0.8465054974357487,-3.77226925272695,-0.8899539981250233,0.8899539981250232,-2.835327676304867,-2.882315254601927,-2.878776176994142
