frequency,raw,smoothed,error,error_smoothed,equalization,parametric_eq,fixed_band_eq,equalized_raw,equalized_smoothed,target
20.00,-13.30,-13.30,-15.13,-15.13,6.00,6.68,2.99,-7.30,-7.30,1.82
20.20,-13.18,-13.18,-15.01,-15.01,6.00,6.62,3.08,-7.18,-7.18,1.82
20.40,-13.06,-13.06,-14.88,-14.89,6.00,6.57,3.16,-7.06,-7.06,1.82
20.61,-12.95,-12.94,-14.77,-14.77,6.00,6.52,3.25,-6.95,-6.94,1.82
20.81,-12.82,-12.82,-14.64,-14.65,6.00,6.46,3.34,-6.82,-6.82,1.82
21.02,-12.70,-12.71,-14.52,-14.52,6.00,6.41,3.44,-6.70,-6.71,1.82
21.23,-12.59,-12.59,-14.39,-14.39,6.00,6.36,3.54,-6.59,-6.59,1.80
21.44,-12.47,-12.47,-14.26,-14.26,6.00,6.31,3.64,-6.47,-6.47,1.79
21.66,-12.35,-12.35,-14.12,-14.12,6.00,6.26,3.74,-6.35,-6.35,1.77
21.87,-12.23,-12.23,-13.98,-13.98,6.00,6.21,3.85,-6.23,-6.23,1.75
22.09,-12.11,-12.11,-13.85,-13.84,6.00,6.17,3.96,-6.11,-6.11,1.74
22.31,-11.99,-11.99,-13.70,-13.70,6.00,6.12,4.07,-5.99,-5.99,1.71
22.54,-11.87,-11.87,-13.56,-13.56,6.00,6.08,4.19,-5.87,-5.87,1.69
22.76,-11.75,-11.75,-13.42,-13.42,6.00,6.03,4.31,-5.75,-5.75,1.67
22.99,-11.63,-11.63,-13.27,-13.27,6.00,5.99,4.43,-5.63,-5.63,1.64
23.22,-11.51,-11.51,-13.12,-13.12,6.00,5.95,4.55,-5.51,-5.51,1.61
23.45,-11.39,-11.39,-12.98,-12.98,6.00,5.91,4.68,-5.39,-5.39,1.58
23.69,-11.28,-11.27,-12.85,-12.84,6.00,5.88,4.81,-5.28,-5.27,1.57
23.92,-11.15,-11.15,-12.70,-12.71,6.00,5.84,4.94,-5.15,-5.15,1.55
24.16,-11.03,-11.04,-12.57,-12.58,6.00,5.81,5.08,-5.03,-5.04,1.54
24.40,-10.92,-10.92,-12.44,-12.44,6.00,5.78,5.21,-4.92,-4.92,1.52
24.65,-10.81,-10.81,-12.31,-12.31,6.00,5.75,5.36,-4.81,-4.81,1.50
24.89,-10.70,-10.70,-12.18,-12.18,6.00,5.72,5.50,-4.70,-4.70,1.48
25.14,-10.59,-10.59,-12.06,-12.06,6.00,5.70,5.64,-4.59,-4.59,1.47
25.39,-10.48,-10.48,-11.93,-11.93,6.00,5.68,5.78,-4.48,-4.48,1.45
25.65,-10.37,-10.37,-11.81,-11.80,6.00,5.66,5.93,-4.37,-4.37,1.44
25.91,-10.27,-10.26,-11.67,-11.68,6.00,5.64,6.08,-4.27,-4.26,1.41
26.16,-10.15,-10.15,-11.55,-11.55,6.00,5.62,6.22,-4.15,-4.15,1.39
26.43,-10.04,-10.04,-11.43,-11.42,6.00,5.61,6.37,-4.04,-4.04,1.38
26.69,-9.92,-9.92,-11.29,-11.29,6.00,5.60,6.51,-3.92,-3.92,1.36
26.96,-9.80,-9.81,-11.16,-11.16,6.00,5.60,6.65,-3.80,-3.81,1.35
27.23,-9.68,-9.68,-11.02,-11.02,6.00,5.59,6.79,-3.68,-3.68,1.34
27.50,-9.56,-9.56,-10.89,-10.89,6.00,5.59,6.93,-3.56,-3.56,1.33
27.77,-9.44,-9.44,-10.75,-10.75,6.00,5.60,7.05,-3.44,-3.44,1.31
28.05,-9.31,-9.31,-10.61,-10.61,6.00,5.60,7.18,-3.31,-3.31,1.30
28.33,-9.18,-9.18,-10.46,-10.46,6.00,5.61,7.29,-3.18,-3.18,1.27
28.62,-9.06,-9.05,-10.32,-10.31,6.00,5.62,7.40,-3.06,-3.05,1.26
28.90,-8.92,-8.92,-10.17,-10.17,6.00,5.64,7.50,-2.92,-2.92,1.25
29.19,-8.79,-8.79,-10.02,-10.03,6.00,5.66,7.59,-2.79,-2.79,1.23
29.48,-8.66,-8.66,-9.89,-9.89,6.00,5.69,7.66,-2.66,-2.66,1.23
29.78,-8.53,-8.53,-9.75,-9.75,6.00,5.71,7.72,-2.53,-2.53,1.22
30.08,-8.41,-8.40,-9.61,-9.61,6.00,5.74,7.77,-2.41,-2.40,1.20
30.38,-8.27,-8.27,-9.46,-9.46,6.00,5.78,7.80,-2.27,-2.27,1.18
30.68,-8.14,-8.14,-9.31,-9.31,6.00,5.82,7.82,-2.14,-2.14,1.17
30.99,-8.01,-8.01,-9.16,-9.17,6.00,5.85,7.82,-2.01,-2.01,1.15
31.30,-7.88,-7.88,-9.02,-9.02,6.00,5.90,7.80,-1.88,-1.88,1.14
31.61,-7.75,-7.75,-8.88,-8.87,6.00,5.94,7.77,-1.75,-1.75,1.12
31.93,-7.62,-7.62,-8.72,-8.72,6.00,5.99,7.72,-1.62,-1.62,1.10
32.24,-7.48,-7.48,-8.55,-8.56,6.00,6.04,7.66,-1.48,-1.48,1.07
32.57,-7.35,-7.35,-8.41,-8.40,6.00,6.09,7.57,-1.35,-1.35,1.06
32.89,-7.21,-7.22,-8.26,-8.25,6.00,6.13,7.48,-1.21,-1.22,1.04
33.22,-7.08,-7.08,-8.09,-8.10,6.00,6.18,7.36,-1.08,-1.08,1.01
33.55,-6.94,-6.94,-7.94,-7.94,6.00,6.23,7.24,-0.94,-0.94,1.00
33.89,-6.80,-6.80,-7.78,-7.78,6.00,6.27,7.10,-0.80,-0.80,0.97
34.23,-6.66,-6.66,-7.62,-7.62,6.00,6.31,6.96,-0.66,-0.66,0.95
34.57,-6.52,-6.52,-7.45,-7.45,6.00,6.34,6.80,-0.52,-0.52,0.93
34.92,-6.38,-6.38,-7.29,-7.29,6.00,6.37,6.64,-0.38,-0.38,0.91
35.27,-6.24,-6.24,-7.14,-7.13,6.00,6.39,6.47,-0.24,-0.24,0.89
35.62,-6.09,-6.10,-6.96,-6.96,6.02,6.40,6.29,-0.08,-0.08,0.87
35.97,-5.95,-5.95,-6.80,-6.80,6.03,6.40,6.10,0.08,0.08,0.84
36.33,-5.80,-5.81,-6.63,-6.63,6.03,6.38,5.92,0.23,0.23,0.83
36.70,-5.66,-5.66,-6.47,-6.47,6.02,6.35,5.72,0.36,0.36,0.81
37.06,-5.51,-5.51,-6.29,-6.30,5.99,6.31,5.53,0.48,0.48,0.78
37.43,-5.36,-5.36,-6.13,-6.13,5.94,6.25,5.33,0.58,0.57,0.77
37.81,-5.21,-5.21,-5.96,-5.96,5.85,6.18,5.14,0.64,0.64,0.74
38.19,-5.05,-5.06,-5.77,-5.78,5.74,6.08,4.94,0.69,0.69,0.72
38.57,-4.90,-4.90,-5.61,-5.60,5.61,5.97,4.74,0.71,0.71,0.71
38.95,-4.74,-4.74,-5.42,-5.42,5.45,5.84,4.54,0.71,0.71,0.68
39.34,-4.58,-4.58,-5.24,-5.24,5.27,5.70,4.34,0.69,0.69,0.66
39.74,-4.41,-4.42,-5.04,-5.05,5.08,5.54,4.14,0.66,0.66,0.63
40.14,-4.25,-4.25,-4.88,-4.87,4.88,5.37,3.95,0.62,0.63,0.63
40.54,-4.08,-4.08,-4.68,-4.68,4.69,5.18,3.75,0.60,0.60,0.60
40.94,-3.91,-3.92,-4.50,-4.50,4.50,4.98,3.56,0.59,0.58,0.58
41.35,-3.75,-3.75,-4.31,-4.31,4.32,4.77,3.36,0.56,0.57,0.56
41.76,-3.58,-3.58,-4.13,-4.13,4.13,4.55,3.17,0.55,0.55,0.55
42.18,-3.41,-3.42,-3.95,-3.95,3.95,4.32,2.98,0.53,0.53,0.53
42.60,-3.25,-3.25,-3.76,-3.76,3.76,4.09,2.79,0.51,0.51,0.51
43.03,-3.08,-3.08,-3.58,-3.58,3.57,3.85,2.61,0.49,0.49,0.50
43.46,-2.91,-2.91,-3.39,-3.39,3.38,3.61,2.42,0.47,0.47,0.47
43.90,-2.74,-2.74,-3.19,-3.20,3.19,3.37,2.24,0.45,0.45,0.45
44.33,-2.57,-2.57,-3.00,-3.00,3.00,3.12,2.05,0.43,0.43,0.43
44.78,-2.40,-2.40,-2.81,-2.81,2.81,2.88,1.87,0.41,0.41,0.41
45.23,-2.23,-2.23,-2.62,-2.62,2.62,2.64,1.69,0.39,0.39,0.38
45.68,-2.06,-2.06,-2.43,-2.43,2.43,2.40,1.52,0.37,0.37,0.36
46.13,-1.89,-1.89,-2.24,-2.24,2.25,2.16,1.34,0.35,0.35,0.34
46.60,-1.72,-1.72,-2.06,-2.05,2.06,1.93,1.17,0.33,0.33,0.34
47.06,-1.55,-1.56,-1.87,-1.87,1.87,1.69,0.99,0.32,0.31,0.32
47.53,-1.39,-1.39,-1.69,-1.69,1.68,1.47,0.82,0.29,0.29,0.30
48.01,-1.22,-1.22,-1.51,-1.50,1.49,1.24,0.65,0.27,0.27,0.29
48.49,-1.06,-1.06,-1.32,-1.32,1.31,1.02,0.48,0.24,0.25,0.26
48.97,-0.89,-0.90,-1.12,-1.12,1.12,0.81,0.31,0.23,0.23,0.22
49.46,-0.73,-0.73,-0.92,-0.93,0.94,0.60,0.15,0.20,0.20,0.19
49.96,-0.57,-0.57,-0.73,-0.74,0.75,0.40,-0.02,0.18,0.18,0.16
50.46,-0.41,-0.42,-0.57,-0.57,0.57,0.20,-0.18,0.15,0.15,0.16
50.96,-0.26,-0.26,-0.40,-0.39,0.39,0.00,-0.34,0.13,0.13,0.14
51.47,-0.10,-0.10,-0.21,-0.21,0.21,-0.18,-0.50,0.11,0.11,0.10
51.99,0.05,0.05,-0.03,-0.04,0.04,-0.37,-0.66,0.08,0.08,0.08
52.51,0.20,0.19,0.13,0.13,-0.13,-0.55,-0.81,0.06,0.06,0.07
53.03,0.34,0.34,0.30,0.30,-0.30,-0.72,-0.97,0.03,0.04,0.04
53.56,0.49,0.48,0.47,0.47,-0.47,-0.89,-1.12,0.02,0.01,0.02
54.10,0.63,0.63,0.64,0.64,-0.64,-1.05,-1.26,-0.01,-0.01,-0.01
54.64,0.77,0.77,0.80,0.80,-0.80,-1.21,-1.41,-0.03,-0.03,-0.04
55.18,0.91,0.90,0.97,0.97,-0.96,-1.36,-1.55,-0.06,-0.06,-0.06
55.74,1.04,1.04,1.12,1.12,-1.12,-1.51,-1.69,-0.09,-0.09,-0.09
56.29,1.17,1.17,1.27,1.28,-1.28,-1.66,-1.82,-0.11,-0.11,-0.11
56.86,1.30,1.30,1.43,1.43,-1.44,-1.80,-1.95,-0.14,-0.14,-0.13
57.42,1.43,1.43,1.59,1.59,-1.59,-1.93,-2.07,-0.16,-0.16,-0.16
58.00,1.56,1.56,1.74,1.74,-1.74,-2.06,-2.19,-0.18,-0.18,-0.18
58.58,1.68,1.68,1.89,1.89,-1.88,-2.19,-2.31,-0.20,-0.20,-0.21
59.16,1.80,1.79,2.03,2.03,-2.02,-2.31,-2.42,-0.23,-0.23,-0.23
59.76,1.91,1.91,2.16,2.16,-2.17,-2.43,-2.52,-0.26,-0.26,-0.25
60.35,2.02,2.02,2.30,2.30,-2.31,-2.55,-2.62,-0.29,-0.29,-0.29
60.96,2.13,2.13,2.42,2.43,-2.44,-2.66,-2.72,-0.32,-0.32,-0.30
61.57,2.24,2.24,2.58,2.57,-2.58,-2.77,-2.81,-0.34,-0.34,-0.34
62.18,2.34,2.34,2.71,2.71,-2.71,-2.87,-2.89,-0.37,-0.37,-0.38
62.80,2.45,2.44,2.85,2.85,-2.84,-2.97,-2.97,-0.39,-0.40,-0.40
63.43,2.54,2.54,2.97,2.97,-2.97,-3.07,-3.04,-0.43,-0.43,-0.43
64.07,2.64,2.64,3.10,3.09,-3.09,-3.16,-3.10,-0.45,-0.45,-0.46
64.71,2.73,2.73,3.20,3.21,-3.21,-3.25,-3.16,-0.48,-0.48,-0.48
65.35,2.82,2.82,3.32,3.32,-3.32,-3.34,-3.22,-0.50,-0.50,-0.50
66.01,2.91,2.91,3.43,3.43,-3.43,-3.43,-3.27,-0.53,-0.53,-0.52
66.67,2.99,2.99,3.54,3.54,-3.54,-3.51,-3.32,-0.55,-0.55,-0.55
67.33,3.07,3.07,3.64,3.64,-3.64,-3.59,-3.36,-0.57,-0.58,-0.57
68.01,3.14,3.14,3.74,3.74,-3.74,-3.67,-3.40,-0.60,-0.60,-0.60
68.69,3.22,3.22,3.84,3.84,-3.84,-3.74,-3.43,-0.62,-0.62,-0.62
69.37,3.29,3.28,3.94,3.94,-3.93,-3.82,-3.46,-0.65,-0.65,-0.66
70.07,3.35,3.35,4.02,4.03,-4.03,-3.89,-3.49,-0.68,-0.68,-0.68
70.77,3.41,3.41,4.11,4.11,-4.12,-3.96,-3.52,-0.71,-0.71,-0.70
71.48,3.47,3.47,4.20,4.20,-4.20,-4.02,-3.54,-0.74,-0.74,-0.74
72.19,3.53,3.52,4.29,4.29,-4.29,-4.09,-3.57,-0.76,-0.77,-0.76
72.91,3.58,3.58,4.37,4.37,-4.37,-4.15,-3.59,-0.80,-0.80,-0.80
73.64,3.62,3.62,4.45,4.45,-4.45,-4.21,-3.61,-0.84,-0.83,-0.83
74.38,3.67,3.66,4.53,4.53,-4.53,-4.27,-3.64,-0.86,-0.87,-0.86
75.12,3.71,3.70,4.62,4.61,-4.61,-4.33,-3.66,-0.90,-0.90,-0.91
75.87,3.74,3.74,4.68,4.68,-4.68,-4.39,-3.68,-0.94,-0.94,-0.94
76.63,3.78,3.78,4.75,4.75,-4.75,-4.45,-3.71,-0.97,-0.97,-0.97
77.40,3.81,3.80,4.82,4.82,-4.82,-4.50,-3.73,-1.01,-1.01,-1.01
78.17,3.83,3.83,4.89,4.88,-4.88,-4.56,-3.76,-1.05,-1.05,-1.06
78.95,3.85,3.85,4.93,4.94,-4.94,-4.61,-3.79,-1.09,-1.09,-1.09
79.74,3.87,3.87,5.00,5.00,-5.00,-4.66,-3.82,-1.13,-1.13,-1.13
80.54,3.89,3.88,5.06,5.06,-5.06,-4.71,-3.85,-1.17,-1.18,-1.17
81.35,3.90,3.90,5.11,5.11,-5.12,-4.76,-3.89,-1.22,-1.22,-1.22
82.16,3.91,3.91,5.17,5.17,-5.17,-4.81,-3.93,-1.26,-1.26,-1.26
82.98,3.92,3.91,5.22,5.22,-5.22,-4.86,-3.97,-1.30,-1.31,-1.30
83.81,3.92,3.92,5.27,5.27,-5.27,-4.91,-4.01,-1.35,-1.35,-1.36
84.65,3.92,3.92,5.32,5.32,-5.32,-4.96,-4.06,-1.40,-1.40,-1.40
85.50,3.92,3.91,5.36,5.36,-5.36,-5.00,-4.11,-1.44,-1.45,-1.44
86.35,3.91,3.91,5.40,5.40,-5.40,-5.05,-4.16,-1.49,-1.49,-1.49
87.22,3.90,3.90,5.44,5.44,-5.44,-5.09,-4.22,-1.54,-1.54,-1.54
88.09,3.89,3.89,5.48,5.48,-5.48,-5.14,-4.27,-1.59,-1.59,-1.59
88.97,3.88,3.87,5.51,5.51,-5.51,-5.18,-4.34,-1.64,-1.64,-1.63
89.86,3.86,3.86,5.54,5.54,-5.55,-5.23,-4.40,-1.69,-1.69,-1.69
90.76,3.84,3.84,5.58,5.58,-5.58,-5.27,-4.47,-1.74,-1.74,-1.75
91.66,3.82,3.82,5.61,5.61,-5.61,-5.32,-4.55,-1.79,-1.79,-1.79
92.58,3.80,3.79,5.65,5.64,-5.64,-5.36,-4.62,-1.84,-1.84,-1.85
93.51,3.77,3.77,5.65,5.66,-5.66,-5.40,-4.70,-1.90,-1.89,-1.89
94.44,3.75,3.74,5.69,5.69,-5.69,-5.44,-4.78,-1.94,-1.95,-1.94
95.39,3.72,3.72,5.71,5.71,-5.72,-5.49,-4.87,-2.00,-2.00,-2.00
96.34,3.69,3.69,5.75,5.74,-5.74,-5.53,-4.96,-2.06,-2.06,-2.06
97.30,3.66,3.66,5.77,5.77,-5.77,-5.57,-5.05,-2.12,-2.11,-2.11
98.28,3.63,3.63,5.80,5.80,-5.80,-5.61,-5.15,-2.17,-2.17,-2.17
99.26,3.60,3.60,5.83,5.83,-5.83,-5.65,-5.24,-2.23,-2.23,-2.24
100.25,3.57,3.57,5.86,5.86,-5.86,-5.69,-5.34,-2.29,-2.29,-2.29
101.25,3.54,3.54,5.88,5.89,-5.89,-5.73,-5.44,-2.35,-2.35,-2.35
102.27,3.51,3.51,5.92,5.92,-5.92,-5.77,-5.55,-2.41,-2.41,-2.41
103.29,3.48,3.47,5.96,5.95,-5.95,-5.81,-5.65,-2.47,-2.47,-2.48
104.32,3.44,3.44,5.97,5.98,-5.98,-5.85,-5.75,-2.54,-2.54,-2.54
105.37,3.41,3.41,6.00,6.00,-6.01,-5.89,-5.86,-2.60,-2.60,-2.59
106.42,3.38,3.37,6.04,6.03,-6.04,-5.93,-5.97,-2.66,-2.66,-2.66
107.48,3.34,3.34,6.06,6.07,-6.07,-5.96,-6.07,-2.73,-2.72,-2.73
108.56,3.31,3.31,6.10,6.10,-6.10,-6.00,-6.17,-2.79,-2.79,-2.79
109.64,3.28,3.27,6.13,6.13,-6.13,-6.04,-6.28,-2.85,-2.85,-2.86
110.74,3.24,3.24,6.15,6.16,-6.16,-6.08,-6.38,-2.92,-2.92,-2.91
111.85,3.21,3.20,6.19,6.19,-6.19,-6.11,-6.47,-2.99,-2.99,-2.98
112.97,3.17,3.17,6.23,6.22,-6.23,-6.15,-6.57,-3.06,-3.06,-3.06
114.10,3.14,3.14,6.26,6.26,-6.26,-6.18,-6.66,-3.12,-3.12,-3.12
115.24,3.11,3.10,6.29,6.29,-6.29,-6.22,-6.74,-3.18,-3.19,-3.18
116.39,3.07,3.07,6.33,6.32,-6.32,-6.25,-6.82,-3.25,-3.25,-3.26
117.55,3.03,3.03,6.35,6.35,-6.35,-6.28,-6.89,-3.32,-3.32,-3.32
118.73,3.00,2.99,6.38,6.38,-6.38,-6.31,-6.96,-3.38,-3.38,-3.39
119.92,2.96,2.96,6.40,6.40,-6.40,-6.35,-7.01,-3.45,-3.44,-3.44
121.12,2.93,2.92,6.43,6.43,-6.43,-6.38,-7.06,-3.50,-3.50,-3.50
122.33,2.89,2.89,6.45,6.45,-6.45,-6.41,-7.10,-3.56,-3.56,-3.57
123.55,2.85,2.85,6.46,6.47,-6.47,-6.44,-7.14,-3.62,-3.62,-3.62
124.79,2.82,2.81,6.50,6.49,-6.49,-6.46,-7.16,-3.68,-3.68,-3.68
126.03,2.78,2.78,6.51,6.51,-6.51,-6.49,-7.18,-3.74,-3.74,-3.73
127.29,2.74,2.74,6.53,6.53,-6.53,-6.52,-7.18,-3.80,-3.79,-3.79
128.57,2.71,2.70,6.57,6.55,-6.55,-6.55,-7.18,-3.85,-3.85,-3.86
129.85,2.67,2.67,6.57,6.58,-6.57,-6.57,-7.17,-3.90,-3.90,-3.91
131.15,2.63,2.63,6.58,6.59,-6.59,-6.60,-7.15,-3.96,-3.95,-3.96
132.46,2.60,2.59,6.61,6.60,-6.60,-6.62,-7.13,-4.00,-4.01,-4.01
133.79,2.56,2.56,6.61,6.61,-6.61,-6.64,-7.10,-4.06,-4.06,-4.05
135.12,2.52,2.52,6.62,6.62,-6.62,-6.66,-7.06,-4.10,-4.10,-4.10
136.48,2.49,2.48,6.63,6.62,-6.63,-6.68,-7.01,-4.14,-4.14,-4.14
137.84,2.45,2.45,6.62,6.63,-6.63,-6.70,-6.96,-4.19,-4.18,-4.17
139.22,2.42,2.42,6.64,6.64,-6.63,-6.72,-6.91,-4.22,-4.22,-4.23
140.61,2.38,2.38,6.65,6.64,-6.63,-6.74,-6.85,-4.26,-4.26,-4.27
142.02,2.35,2.34,6.63,6.64,-6.63,-6.75,-6.79,-4.29,-4.29,-4.28
143.44,2.31,2.31,6.62,6.63,-6.63,-6.77,-6.73,-4.32,-4.32,-4.31
144.87,2.28,2.28,6.63,6.63,-6.63,-6.78,-6.67,-4.35,-4.35,-4.35
146.32,2.25,2.24,6.63,6.62,-6.62,-6.79,-6.60,-4.38,-4.38,-4.38
147.78,2.21,2.21,6.61,6.62,-6.62,-6.81,-6.54,-4.41,-4.41,-4.40
149.26,2.18,2.18,6.61,6.61,-6.61,-6.82,-6.47,-4.44,-4.43,-4.43
150.75,2.15,2.15,6.61,6.61,-6.61,-6.83,-6.41,-4.46,-4.46,-4.47
152.26,2.12,2.11,6.61,6.61,-6.60,-6.83,-6.35,-4.49,-4.49,-4.49
153.78,2.08,2.08,6.60,6.60,-6.60,-6.84,-6.29,-4.52,-4.52,-4.52
155.32,2.05,2.05,6.59,6.59,-6.60,-6.84,-6.23,-4.55,-4.55,-4.54
156.88,2.02,2.02,6.59,6.59,-6.59,-6.85,-6.17,-4.57,-4.57,-4.57
158.44,1.99,1.99,6.59,6.59,-6.59,-6.85,-6.12,-4.60,-4.60,-4.60
160.03,1.96,1.95,6.59,6.59,-6.58,-6.85,-6.07,-4.63,-4.63,-4.63
161.63,1.92,1.92,6.58,6.58,-6.58,-6.85,-6.02,-4.66,-4.66,-4.67
163.24,1.89,1.89,6.57,6.57,-6.57,-6.85,-5.98,-4.69,-4.68,-4.69
164.88,1.86,1.86,6.56,6.57,-6.57,-6.85,-5.94,-4.71,-4.71,-4.71
166.53,1.83,1.82,6.56,6.56,-6.56,-6.85,-5.90,-4.74,-4.74,-4.73
168.19,1.79,1.79,6.56,6.56,-6.56,-6.84,-5.88,-4.77,-4.77,-4.77
169.87,1.76,1.76,6.56,6.56,-6.55,-6.83,-5.85,-4.80,-4.80,-4.80
171.57,1.73,1.72,6.55,6.55,-6.55,-6.83,-5.83,-4.83,-4.83,-4.83
173.29,1.69,1.69,6.54,6.55,-6.55,-6.82,-5.81,-4.86,-4.86,-4.85
175.02,1.66,1.66,6.55,6.55,-6.55,-6.81,-5.79,-4.89,-4.89,-4.89
176.77,1.62,1.62,6.55,6.55,-6.55,-6.79,-5.78,-4.93,-4.93,-4.93
178.54,1.59,1.58,6.55,6.55,-6.55,-6.78,-5.78,-4.96,-4.97,-4.97
180.32,1.55,1.55,6.55,6.55,-6.55,-6.77,-5.78,-5.00,-5.00,-5.00
182.13,1.52,1.51,6.55,6.55,-6.55,-6.75,-5.78,-5.04,-5.04,-5.03
183.95,1.48,1.48,6.55,6.55,-6.55,-6.74,-5.79,-5.07,-5.07,-5.08
185.79,1.44,1.44,6.54,6.55,-6.55,-6.72,-5.80,-5.11,-5.11,-5.11
187.65,1.41,1.40,6.55,6.55,-6.54,-6.70,-5.82,-5.14,-5.14,-5.15
189.52,1.37,1.37,6.54,6.54,-6.54,-6.68,-5.84,-5.17,-5.17,-5.18
191.42,1.33,1.33,6.53,6.53,-6.53,-6.66,-5.86,-5.20,-5.20,-5.21
193.33,1.29,1.29,6.51,6.51,-6.52,-6.63,-5.89,-5.24,-5.24,-5.23
195.27,1.25,1.25,6.50,6.50,-6.51,-6.61,-5.92,-5.26,-5.26,-5.25
197.22,1.21,1.21,6.49,6.50,-6.50,-6.58,-5.96,-5.29,-5.29,-5.28
199.19,1.17,1.17,6.50,6.49,-6.48,-6.56,-6.00,-5.31,-5.31,-5.33
201.18,1.13,1.12,6.47,6.47,-6.46,-6.53,-6.04,-5.34,-5.34,-5.35
203.19,1.08,1.08,6.44,6.45,-6.44,-6.50,-6.08,-5.37,-5.36,-5.36
205.23,1.04,1.04,6.42,6.42,-6.43,-6.47,-6.13,-5.39,-5.39,-5.39
207.28,1.00,1.00,6.39,6.40,-6.40,-6.44,-6.17,-5.41,-5.41,-5.39
209.35,0.96,0.96,6.38,6.38,-6.38,-6.41,-6.22,-5.43,-5.43,-5.43
211.44,0.92,0.92,6.37,6.36,-6.36,-6.38,-6.27,-5.44,-5.44,-5.45
213.56,0.88,0.88,6.34,6.34,-6.34,-6.34,-6.32,-5.46,-5.46,-5.47
215.69,0.84,0.84,6.31,6.31,-6.31,-6.31,-6.37,-5.48,-5.48,-5.47
217.85,0.81,0.80,6.29,6.29,-6.29,-6.27,-6.42,-5.49,-5.49,-5.48
220.03,0.77,0.77,6.27,6.27,-6.27,-6.24,-6.47,-5.50,-5.50,-5.50
222.23,0.74,0.74,6.25,6.25,-6.25,-6.20,-6.51,-5.51,-5.51,-5.52
224.45,0.71,0.71,6.21,6.22,-6.22,-6.16,-6.56,-5.51,-5.51,-5.51
226.70,0.68,0.68,6.19,6.20,-6.19,-6.13,-6.60,-5.52,-5.51,-5.52
228.96,0.66,0.65,6.18,6.17,-6.17,-6.09,-6.64,-5.51,-5.52,-5.52
231.25,0.63,0.63,6.14,6.14,-6.14,-6.05,-6.67,-5.51,-5.51,-5.51
233.57,0.60,0.60,6.10,6.11,-6.11,-6.00,-6.70,-5.51,-5.51,-5.50
235.90,0.58,0.57,6.08,6.07,-6.07,-5.96,-6.72,-5.49,-5.50,-5.50
238.26,0.55,0.55,6.05,6.04,-6.03,-5.92,-6.73,-5.49,-5.49,-5.50
240.64,0.52,0.52,5.99,6.00,-5.99,-5.88,-6.74,-5.47,-5.47,-5.48
243.05,0.49,0.48,5.95,5.95,-5.95,-5.83,-6.74,-5.46,-5.46,-5.47
245.48,0.45,0.45,5.89,5.90,-5.90,-5.79,-6.74,-5.45,-5.45,-5.44
247.93,0.42,0.42,5.85,5.85,-5.85,-5.75,-6.73,-5.43,-5.43,-5.43
250.41,0.39,0.39,5.81,5.80,-5.80,-5.70,-6.70,-5.41,-5.41,-5.42
252.92,0.36,0.36,5.74,5.75,-5.75,-5.65,-6.68,-5.39,-5.39,-5.39
255.45,0.33,0.33,5.69,5.69,-5.70,-5.61,-6.64,-5.37,-5.37,-5.37
258.00,0.30,0.30,5.64,5.64,-5.65,-5.56,-6.59,-5.35,-5.35,-5.34
260.58,0.27,0.27,5.60,5.59,-5.60,-5.51,-6.54,-5.33,-5.33,-5.33
263.19,0.24,0.24,5.54,5.55,-5.55,-5.47,-6.48,-5.31,-5.31,-5.31
265.82,0.22,0.22,5.50,5.50,-5.50,-5.42,-6.42,-5.28,-5.28,-5.28
268.48,0.20,0.20,5.46,5.45,-5.45,-5.37,-6.35,-5.26,-5.26,-5.26
271.16,0.18,0.17,5.40,5.40,-5.41,-5.32,-6.27,-5.23,-5.23,-5.22
273.87,0.15,0.15,5.36,5.36,-5.36,-5.27,-6.18,-5.21,-5.20,-5.21
276.61,0.13,0.12,5.30,5.31,-5.30,-5.22,-6.10,-5.18,-5.18,-5.18
279.38,0.10,0.09,5.26,5.25,-5.25,-5.17,-6.01,-5.15,-5.15,-5.16
282.17,0.06,0.06,5.19,5.19,-5.19,-5.12,-5.91,-5.13,-5.13,-5.14
284.99,0.02,0.02,5.13,5.13,-5.12,-5.07,-5.81,-5.11,-5.11,-5.11
287.84,-0.02,-0.03,5.06,5.06,-5.05,-5.02,-5.71,-5.08,-5.08,-5.09
290.72,-0.07,-0.07,4.98,4.98,-4.98,-4.97,-5.61,-5.05,-5.05,-5.05
293.63,-0.12,-0.12,4.91,4.91,-4.90,-4.92,-5.51,-5.03,-5.03,-5.03
296.57,-0.17,-0.17,4.83,4.83,-4.83,-4.87,-5.40,-5.00,-5.00,-5.00
299.53,-0.22,-0.22,4.75,4.75,-4.75,-4.82,-5.30,-4.97,-4.97,-4.97
302.53,-0.27,-0.27,4.67,4.67,-4.67,-4.77,-5.19,-4.94,-4.94,-4.95
305.55,-0.31,-0.32,4.59,4.59,-4.59,-4.72,-5.09,-4.91,-4.91,-4.90
308.61,-0.35,-0.35,4.52,4.52,-4.52,-4.67,-4.99,-4.88,-4.88,-4.87
311.69,-0.38,-0.38,4.45,4.45,-4.46,-4.62,-4.88,-4.85,-4.85,-4.84
314.81,-0.40,-0.41,4.40,4.40,-4.41,-4.57,-4.78,-4.81,-4.82,-4.80
317.96,-0.42,-0.42,4.35,4.36,-4.36,-4.52,-4.69,-4.79,-4.78,-4.77
321.14,-0.42,-0.42,4.32,4.32,-4.33,-4.46,-4.59,-4.75,-4.75,-4.75
324.35,-0.42,-0.42,4.30,4.29,-4.30,-4.41,-4.50,-4.72,-4.72,-4.72
327.59,-0.41,-0.42,4.27,4.27,-4.27,-4.36,-4.40,-4.69,-4.69,-4.68
330.87,-0.41,-0.41,4.24,4.25,-4.25,-4.31,-4.31,-4.66,-4.66,-4.66
334.18,-0.40,-0.40,4.24,4.23,-4.23,-4.26,-4.23,-4.63,-4.63,-4.64
337.52,-0.40,-0.40,4.21,4.21,-4.21,-4.21,-4.14,-4.61,-4.61,-4.61
340.90,-0.41,-0.41,4.17,4.18,-4.17,-4.16,-4.06,-4.59,-4.58,-4.58
344.30,-0.42,-0.43,4.14,4.14,-4.13,-4.11,-3.98,-4.56,-4.56,-4.57
347.75,-0.45,-0.45,4.09,4.09,-4.08,-4.06,-3.91,-4.53,-4.53,-4.54
351.23,-0.48,-0.49,4.04,4.04,-4.02,-4.01,-3.83,-4.50,-4.50,-4.52
354.74,-0.53,-0.54,3.97,3.96,-3.94,-3.96,-3.76,-4.47,-4.48,-4.50
358.28,-0.62,-0.62,3.86,3.87,-3.86,-3.91,-3.70,-4.48,-4.47,-4.49
361.87,-0.70,-0.70,3.76,3.76,-3.77,-3.86,-3.63,-4.47,-4.47,-4.47
365.49,-0.79,-0.79,3.65,3.66,-3.67,-3.82,-3.57,-4.46,-4.46,-4.44
369.14,-0.86,-0.87,3.57,3.56,-3.57,-3.77,-3.51,-4.44,-4.44,-4.43
372.83,-0.94,-0.94,3.47,3.47,-3.48,-3.72,-3.45,-4.42,-4.42,-4.41
376.56,-1.00,-1.01,3.39,3.39,-3.39,-3.67,-3.40,-4.39,-4.39,-4.39
380.33,-1.07,-1.07,3.29,3.30,-3.30,-3.62,-3.35,-4.38,-4.37,-4.37
384.13,-1.12,-1.12,3.22,3.23,-3.23,-3.58,-3.30,-4.35,-4.35,-4.35
387.97,-1.17,-1.17,3.16,3.15,-3.16,-3.53,-3.25,-4.33,-4.33,-4.33
391.85,-1.21,-1.21,3.10,3.10,-3.10,-3.48,-3.21,-4.31,-4.31,-4.31
395.77,-1.24,-1.24,3.04,3.04,-3.05,-3.44,-3.17,-4.29,-4.29,-4.28
399.73,-1.26,-1.27,3.00,3.00,-3.00,-3.39,-3.13,-4.26,-4.26,-4.26
403.72,-1.28,-1.28,2.96,2.96,-2.96,-3.35,-3.09,-4.24,-4.24,-4.25
407.76,-1.29,-1.29,2.93,2.93,-2.93,-3.30,-3.06,-4.22,-4.22,-4.23
411.84,-1.29,-1.30,2.90,2.91,-2.91,-3.26,-3.03,-4.20,-4.20,-4.20
415.96,-1.29,-1.29,2.89,2.89,-2.89,-3.22,-2.99,-4.18,-4.18,-4.18
420.12,-1.28,-1.28,2.88,2.87,-2.88,-3.17,-2.97,-4.16,-4.16,-4.16
424.32,-1.26,-1.26,2.87,2.87,-2.87,-3.13,-2.94,-4.14,-4.13,-4.13
428.56,-1.23,-1.24,2.88,2.88,-2.87,-3.09,-2.91,-4.11,-4.11,-4.11
432.85,-1.20,-1.21,2.89,2.88,-2.88,-3.05,-2.89,-4.09,-4.09,-4.09
437.18,-1.17,-1.17,2.89,2.89,-2.90,-3.01,-2.86,-4.07,-4.07,-4.06
441.55,-1.13,-1.13,2.90,2.91,-2.92,-2.97,-2.84,-4.05,-4.05,-4.04
445.96,-1.08,-1.08,2.93,2.93,-2.94,-2.93,-2.82,-4.02,-4.03,-4.02
450.42,-1.03,-1.03,2.96,2.96,-2.97,-2.89,-2.80,-4.00,-4.00,-4.00
454.93,-0.97,-0.97,2.99,2.99,-2.99,-2.85,-2.78,-3.96,-3.96,-3.96
