frequency,raw,error,smoothed,error_smoothed,equalization,equalized_raw,equalized_smoothed,target
20,-22.362149041216345,-24.00999279668569,-22.32606936884174,-23.973897777643998,5.999999999999999,-16.362149041216345,-16.32606936884174,1.647843755469347
21,-21.54610612646485,-23.193930922483027,-21.54276426789705,-23.19059141806611,6.0,-15.54610612646485,-15.542764267897049,1.6478247960181784
22,-20.777925982441186,-22.42572598092653,-20.77444124592631,-22.422253558331718,6.0,-14.777925982441186,-14.774441245926312,1.6477999984853424
23,-19.782470329974448,-21.430238286616422,-20.021100302929533,-21.668884198440825,5.999999999999999,-13.782470329974448,-14.021100302929533,1.6477679566419732
24,-19.449702187922128,-21.097429199260976,-19.28274143890668,-20.9304833383934,5.999999999999998,-13.44970218792213,-13.282741438906681,1.647727011338847
25,-18.67167078950093,-20.319346008561105,-18.561150855221847,-20.208838655871325,6.000000000000001,-12.67167078950093,-12.561150855221847,1.647675219060174
26,-17.669008408619412,-19.31661872679941,-17.853960091147542,-19.50158023564986,6.0,-11.669008408619412,-11.853960091147542,1.6476103181799977
27,-17.177251882734733,-18.824781575935024,-17.159243648041013,-18.806781010468818,6.0,-11.177251882734733,-11.159243648041013,1.647529693200291
28,-16.452262318894288,-18.099692654405644,-16.474741966672266,-18.122178837451287,6.0,-10.452262318894288,-10.474741966672266,1.6474303355113573
29,-15.787533927924285,-17.434842730849553,-15.798422680614348,-17.445737730404055,6.000000000000001,-9.787533927924283,-9.798422680614348,1.6473088029252683
30,-15.364211348310752,-17.011372524412497,-15.129707298123558,-16.776875118284444,6.000000000000001,-9.36421134831075,-9.129707298123556,1.6471611761017466
31,-14.460635742589641,-16.107618755187783,-14.469171398435563,-16.116161834250356,5.999999999999998,-8.460635742589643,-8.469171398435565,1.6469830125981426
32,-13.841618601804088,-15.48838790022057,-13.81854643608025,-15.465324078240108,5.999999999999999,-7.841618601804089,-7.8185464360802515,1.6467692984164817
33,-12.899936714780395,-14.54645111184059,-13.180281606462309,-14.826805281230278,6.000000000000001,-6.899936714780394,-7.180281606462308,1.6465143970601943
34,-12.644756797084131,-14.29096879325857,-12.55693415226753,-14.20315630771206,5.999999999999997,-6.644756797084134,-6.556934152267533,1.6462119961744381
35,-11.905121861805371,-13.55097691352145,-11.950781526431099,-13.596647569215936,6.000000000000001,-5.9051218618053705,-5.950781526431098,1.645855051716079
36,-11.47646683093608,-13.121902560746973,-11.363522353429211,-13.008969883017954,5.999999999999999,-5.47646683093608,-5.363522353429212,1.6454357298108935
37,-10.870406347339623,-12.515351693689782,-10.796144287532368,-12.441102245652587,5.999999999999999,-4.870406347339624,-4.7961442875323685,1.6449453463501595
38,-10.110998967529254,-11.755373271971717,-10.248854036013748,-11.893241786508224,6.000000000000003,-4.110998967529251,-4.2488540360137454,1.6443743044424641
39,-9.800994074664825,-11.444706104518106,-9.720966921854766,-11.364693260279994,6.0,-3.8009940746648248,-3.7209669218547656,1.643712029853282
40,-9.031999018834746,-10.674945923423333,-9.210779787305727,-10.853741888996787,5.999999999999998,-3.031999018834748,-3.2107797873057287,1.6429469045885874
41,-8.819841372458113,-10.461907571267645,-8.71550577465143,-10.357588079243893,5.999999999999998,-2.8198413724581144,-2.7155057746514313,1.642066198809533
42,-8.090592870355257,-9.731648871641521,-8.231407127864616,-9.872480156976678,6.000000000000002,-2.0905928703552554,-2.231407127864614,1.6410560012862638
43,-7.945283544526976,-9.585184693163491,-7.754222390081135,-9.394141495905986,6.0,-1.9452835445269763,-1.754222390081135,1.6399011486365138
44,-7.1691153449879765,-8.807700498620491,-7.279865469808987,-8.91846951166968,6.0,-1.1691153449879765,-1.2798654698089873,1.6385851536325138
45,-6.918439493362224,-8.555529626270332,-6.805246170795499,-8.442356118638704,6.0,-0.9184394933622242,-0.805246170795499,1.6370901329081073
46,-6.354002475776845,-7.989399210235048,-6.328981177772936,-7.964398642439342,6.000000000000002,-0.3540024757768432,-0.3289811777729339,1.6353967344582032
47,-5.931925852917487,-7.565409918315761,-5.851783324523782,-7.485289015188563,6.000000000000001,0.06807414708251347,0.14821667547621864,1.6334840653982736
48,-5.3768040009980815,-7.008133621544496,-5.376425666371162,-7.007777776249911,6.000000000000002,0.6231959990019202,0.6235743336288397,1.6313296205464143
49,-4.7800182398107305,-6.408927452317734,-4.907324435712951,-6.536256957605703,5.9099306038656785,1.129912364054948,1.0026061681527274,1.6289092125070037
50,-4.425722937524983,-6.051919841600801,-4.4499032700175825,-6.0761242440237115,5.720246714717931,1.2945237771929472,1.270343444700348,1.626196904075818
51,-4.117705295598883,-5.74087023955151,-4.009937677644792,-5.633127374375549,5.437213159468075,1.319507863869192,1.4272754818232833,1.6231649439526268
52,-3.544367608008528,-5.164151314946668,-3.593021279965551,-5.2128303237809455,5.114561022728554,1.5701934147200265,1.5215397427630033,1.61978370693814
53,-3.2094642217955376,-4.825485861800169,-3.2041808127678864,-4.820228251020327,4.788533300055084,1.5790690782595465,1.5843524872871977,1.616021640004631
54,-2.880821081723302,-4.492666297581299,-2.847561195157233,-4.459432521088059,4.459432521088059,1.5786114393647575,1.6118713259308266,1.611845215857997
55,-2.4623180243501777,-4.069536920194923,-2.5260624026536735,-4.133307541476269,4.133307541476269,1.6709895171260918,1.607245138822596,1.6072188958447455
56,-2.1455185382706308,-3.74762364255935,-2.2408566574984916,-3.842987927312629,3.842987927312629,1.697469389041998,1.6021312698141372,1.6021051042887193
57,-1.8939261036194979,-3.490390320174243,-1.9908282375880582,-3.5873182990783468,3.5873182990783468,1.693392195458849,1.5964900614902886,1.5964642165547454
58,-1.8729158130835013,-3.463170376396379,-1.772102039158296,-3.3623818505026692,3.3623818505026697,1.4894660374191684,1.5902798113443737,1.5902545633128775
59,-1.6799775211768009,-3.2634099747757976,-1.577895076703053,-3.161351872695099,3.161351872695098,1.4813743515182973,1.5834567959920451,1.5834324535989968
60,-1.172219001744842,-2.7481712210614226,-1.3988884099673091,-2.9748637269621074,2.9748637269621074,1.8026447252172655,1.5759753169947983,1.575952219316581
61,-1.2293518929253167,-2.797118176707947,-1.2241756483457213,-2.7919634191810125,2.791963419181012,1.5626115262556954,1.5677877708352908,1.5677662837826305
62,-0.896151905340924,-2.454977162114255,-1.0426503639468314,-2.601495109364868,2.601495109364868,1.705343204023944,1.5588447454180367,1.5588252567733307
63,-1.2245352984680198,-2.7736133567297676,-0.8445269508264108,-2.393622096011927,2.3936220960119274,1.1690867975439077,1.5490951451855166,1.5490780582617476
64,-0.7383902508018647,-2.2768623234588246,-0.622621254219568,-2.1611076007967887,2.1611076007967887,1.422717349994924,1.5384863465772205,1.5384720726569596
65,-0.34048056156364964,-1.867433896419337,-0.373086204459696,-1.9000505893503934,1.9000505893503927,1.559570027786743,1.5269643848906966,1.5269533348556874
66,-0.07697066517543956,-1.5914374139925147,-0.09548074981402632,-1.609954923143809,1.6099549231438095,1.53298425796837,1.5144741733297833,1.514466748817075
67,0.34392130091881795,-1.1570350377730592,0.20772620810774223,-1.293233546318716,1.2932335463187157,1.6371548472375337,1.500959754426458,1.5009563386918772
68,0.4028323329689071,-1.0835331988426948,0.5319487985349001,-0.9544157839979174,0.9544157839979173,1.3572481169668245,1.4863645825328173,1.486365531811602
69,0.9764692088567537,-0.4941682632554787,0.8712636879891342,-0.599368147004097,0.5993681470040969,1.5758373558608505,1.470631834993231,1.4706374721122324
70,1.1627333980601964,-0.29098196381837726,1.218954719872857,-0.23475003062464841,0.23475003062464847,1.3974834286848448,1.4537047504975054,1.4537153618785736
71,1.4605358256397418,0.02499299653977549,1.5677716490754632,0.13224465408667227,-0.13224465408667227,1.3282911715530696,1.435526994988791,1.4355428290999663
72,1.8647641378410558,0.44869982056459023,1.910018877946733,0.49397582318391287,-0.4939758231839129,1.370788314657143,1.4160430547628202,1.4160643172764655
73,2.3238118662852187,0.9285863720332244,2.2376757254875486,0.8424770759930156,-0.8424770759930154,1.4813347902922034,1.3951986494945332,1.3952254942519944
74,2.56303616852948,1.1900624919168163,2.5427195815969927,1.1697784287876387,-1.1697784287876387,1.3932577397418413,1.372941152809354,1.3729736766126637
75,2.921757748357828,1.572499481963026,2.817700024243403,1.4684800198084,-1.4684800198084003,1.4532777285494278,1.349220004435003,1.349258266394802
76,3.038201444472328,1.7141702471732638,3.056463979559557,1.7324768735025016,-1.732476873502502,1.3057245709698262,1.323987106057055,1.3240311972990644
77,3.2617561092430485,1.9645087209609162,3.2548296138034782,1.95763238480869,-1.9576323848086903,1.3041237244343582,1.297197228994788,1.2972473882821323
78,3.4406494572587296,2.1717842540099084,3.4109931959715025,2.1421846815413383,-2.142184681541338,1.2984647757173917,1.2688085144301646,1.2688652032488212
79,3.522283150372152,2.2834362338499647,3.5255317704834592,2.286748614659518,-2.2867486146595195,1.2355345357126324,1.2387831558239397,1.2388469165221871
80,3.6222616363617255,2.4151024516301187,3.6009996680341354,2.393911422432928,-2.393911422432928,1.2283502139287976,1.2070882456012075,1.2071591847316068
81,3.6866384961296346,2.512864969515727,3.6412531386461247,2.467556599944012,-2.467556599944012,1.2190818961856227,1.1736965387021128,1.1737735266139078
82,3.678792178329292,2.5401253654860696,3.6507206381959953,2.51213396611617,-2.5121339661161706,1.1666582122131213,1.1385866720798248,1.1386668128432222
83,3.5229954046260183,2.4211736363649714,3.633837349511977,2.5320949702238664,-2.532094970223867,0.9909004344021515,1.10174237928811,1.101821768261047
84,3.6086790630101264,2.5454515743640402,3.594786522720317,2.5316358146680096,-2.531635814668011,1.0770432483421155,1.063150708052306,1.0632274886460862
85,3.515109438604417,2.492229465264086,3.5375662016992053,2.5147659377228573,-2.5147659377228573,1.0003435008815598,1.022800263976348,1.022879973340331
86,3.473925238200953,2.493142564639445,3.4662737771821193,2.4855921070842113,-2.4855921070842117,0.9883331311167414,0.9806816700979075,0.980782673561508
87,3.4300287247241075,2.493081670670816,3.3854195009300145,2.4486266671035795,-2.44862666710358,0.9814020576205276,0.9367928338264346,0.9369470540532916
88,3.441225123135124,2.549831960257943,3.3000736471087597,2.408923389908442,-2.408923389908442,1.032301733226682,0.8911502572003176,0.891393162877181
89,3.1518522537244915,2.307702053008044,3.2157199621943158,2.3719157746169586,-2.371915774616959,0.7799364791075325,0.8438041875773568,0.8441502007164474
90,3.099205453878884,2.3039483766903213,3.1377987709592965,2.3429479260638804,-2.3429479260638804,0.7562575278150034,0.7948508448954161,0.7952570771885625
91,2.867495492280097,2.1227325547256397,3.0710324853936957,2.326601002450167,-2.3266010024501664,0.5408944898299306,0.7444314829435292,0.7447629375544573
92,2.9878271775750878,2.295099538443429,3.0186965708036206,2.3259879410626123,-2.325987941062612,0.6618392365124759,0.6927086297410088,0.6927276391316588
93,3.147115188090177,2.5078930351224202,2.982011775734299,2.342195214022267,-2.342195214022267,0.8049199740679103,0.6398165617120322,0.6392221529677569
94,2.9290394641519724,2.344710600911449,2.9597979972848614,2.3740028442300205,-2.374002844230021,0.5550366199219514,0.5857951530548404,0.5843288632405232
95,2.906766131317136,2.3786243965601708,2.948472178278658,2.4179427901979818,-2.4179427901979818,0.48882334111915426,0.5305293880806761,0.5281417347569652
96,2.903495269756977,2.432728951614569,2.942416076948076,2.4686916054968586,-2.468691605496858,0.43480366426011896,0.4737244714512179,0.4707663181424082
97,2.8978769360924352,2.4855573729770617,2.934691170514378,2.5197484534189223,-2.519748453418922,0.3781284826735134,0.41494271709545627,0.41231956311537354
98,2.9178878090195504,2.5649583961814693,2.918028018265467,2.564316783080323,-2.5643167830803235,0.35357102593922685,0.35371123518514347,0.3529294128380811
99,2.974056575453561,2.6813224186270337,2.8859579344919166,2.5962751370115624,-2.596275137011562,0.37778143844199885,0.28968279748035464,0.29273415682652715
100,2.8590147449058643,2.6271332186084493,2.833892621457047,2.611086648964695,-2.6110866489646956,0.2479280959411687,0.22280597249235123,0.23188152629741499
101,2.798708013385874,2.62818048939,2.7599184135705634,2.6064718779678646,-2.6064718779678646,0.19223613541800955,0.15344653560269883,0.17052752399587412
102,2.8069944999546697,2.698159509723301,2.665091617891873,2.582682955489931,-2.5826829554899304,0.22431154446473922,0.08240866240194267,0.10883499023136878
104,2.5581431183098067,2.5731358258051586,2.5531195627169194,2.542287629549274,-2.542287629549274,0.015855488760532666,0.010831933167645413,-0.014992707495351976
105,2.342141215015543,2.419077181545523,2.429473097719301,2.4894927447066206,-2.4894927447066206,-0.14735152969107768,-0.060019646987319764,-0.07693596652998025
106,2.1924807310483043,2.3310644193370966,2.300148259997639,2.429170217641417,-2.429170217641417,-0.23668948659311262,-0.12902195764377788,-0.1385836882887923
107,2.1377290955857964,2.337496343802374,2.1704097988888034,2.3658417461419456,-2.3658417461419456,-0.22811265055614927,-0.19543194725314228,-0.19976724821657754
108,2.079791843487106,2.340114159260819,2.0438565365202175,2.302889854135845,-2.302889854135845,-0.22309801064873902,-0.25903331761562765,-0.2603223157737129
109,1.932853179120208,2.2529443260417583,1.9220395733351867,2.242183024946656,-2.242183024946656,-0.3093298458264482,-0.3201434516114694,-0.32009114692155016
110,1.8042420755470014,2.183166899892075,1.8046794470228424,2.184161484670363,-2.1841614846703625,-0.3799194091233611,-0.3794820376475201,-0.3789248243450736
111,1.6769207502337171,2.113606126601394,1.6903392050211026,2.128283692486179,-2.1282836924861797,-0.45136294225246254,-0.4379444874650771,-0.43668537636767724
112,1.589157765874239,2.08240547242952,1.5772852945273237,2.0736355080851343,-2.0736355080851347,-0.4844777422108957,-0.49635021355781106,-0.4932477065552807
113,1.47791810486548,2.0264193752390076,1.4642455920997488,2.0194841354749715,-2.019484135474971,-0.5415660306094912,-0.5552385433752223,-0.5485012703735279
114,1.3610919894435454,1.963443432323189,1.3508500753771993,1.9656140127193575,-1.9656140127193578,-0.6045220232758124,-0.6147639373421585,-0.6023514428796437
115,1.2802254938361088,1.9349460258530156,1.2376753248925478,1.9123816044856148,-1.9123816044856154,-0.6321561106495066,-0.6747062795930676,-0.6547205320169067
117,1.0906140900335506,1.8508752112913365,1.1259542655427142,1.860529311115462,-1.860529311115462,-0.7699152210819113,-0.7345750455727478,-0.7602611212577859
118,0.9935542143630425,1.8019350321208614,1.0171092345169663,1.8108701882660707,-1.8108701882660703,-0.8173159739030278,-0.7937609537491039,-0.8083808177578189
119,0.8984838454658558,1.7533292545384582,0.9122955196522478,1.763977984233458,-1.7639779842334578,-0.865494138767602,-0.85168246458121,-0.8548454090726025
120,0.8172663020191954,1.7169203956082653,0.8121063526981411,1.719993217183823,-1.719993217183823,-0.9027269151646277,-0.9078868644856819,-0.8996540935890698
121,0.7221599778807636,1.6649819204479175,0.716510146664173,1.678599898299879,-1.6785998982998793,-0.9564399204191157,-0.9620897516357063,-0.942821942567154
123,0.5858347443764168,1.6176117249234077,0.6249994528864269,1.6391611599632312,-1.639161159963231,-1.053326415586814,-1.014161707076804,-1.031776980546991
124,0.5526133133059082,1.6230720909849592,0.5368616825515429,1.6009485470304514,-1.6009485470304514,-1.048335233724543,-1.0640868644789085,-1.0704587776790508
125,0.5023142224816307,1.609930910191045,0.4514553173084111,1.5633754960438777,-1.5633754960438777,-1.061061273562247,-1.1119201787354667,-1.1076166877094145
126,0.39630606769200954,1.5396251240560728,0.3683950402510373,1.5261553567142239,-1.526155356714224,-1.1298492890222145,-1.157760316463187,-1.1433190563640632
128,0.26445160382212957,1.4829165089906675,0.2876004381252236,1.4893406531159443,-1.4893406531159448,-1.2248890492938151,-1.2017402149907213,-1.218464905168538
129,0.16005242815012888,1.4102344468251324,0.20922208355272678,1.4532474113771119,-1.4532474113771123,-1.2931949832269836,-1.2440253278243856,-1.2501820186750034
130,0.10606396754403508,1.3867592414342098,0.1335010621482881,1.41830703918565,-1.4183070391856503,-1.3122430716416151,-1.284805977037362,-1.2806952738901747
131,0.11128575911789211,1.4213784009168657,0.060627700374147366,1.3849036810997104,-1.3849036810997104,-1.2736179219818182,-1.324275980725563,-1.3100926417989736
133,-0.025556495177274947,1.3473567123686208,-0.00935458199765978,1.353245930239599,-1.3532459302395992,-1.378802425416874,-1.3626005122372589,-1.3729132075458956
134,-0.07136584121239438,1.3277575458787052,-0.07658649417877378,1.3232987429030119,-1.3232987429030123,-1.3946645841154066,-1.399885237081786,-1.3991233870910995
135,-0.07777938853299722,1.34671641305257,-0.1413826101783136,1.2947782848300387,-1.2947782848300387,-1.3725576733630358,-1.4361608950083522,-1.424495801585567
137,-0.2517377510783183,1.2271197271597896,-0.20419289768507803,1.2671987261057867,-1.2671987261057867,-1.518936477184105,-1.4713916237908646,-1.4788574782381079
138,-0.30134501926561624,1.2003297439684917,-0.26554797126990237,1.2399568844497941,-1.2399568844497943,-1.5413019037154105,-1.5055048557196966,-1.5016747632341079
140,-0.3473001359513433,1.2031169059448974,-0.3259883100596437,1.2124424292235774,-1.2124424292235771,-1.5597425651749204,-1.5384307392832208,-1.5504170418962406
141,-0.35492164907501544,1.2161635847618966,-0.3859754968660477,1.1841593232430276,-1.1841593232430276,-1.5390809723180432,-1.5701348201090752,-1.5710852338369121
142,-0.41630947601835705,1.1749837921181363,-0.4457960688389354,1.1548352474852956,-1.1548352474852959,-1.5711447235036529,-1.6006313163242312,-1.5912932681364933
144,-0.4910789220188712,1.142643155381213,-0.5054864539379514,1.1244872236877268,-1.1244872236877266,-1.6155661457065977,-1.629973677625678,-1.6337220774000842
145,-0.5368911298484608,1.1153293245922842,-0.564815338529135,1.0934140053869175,-1.0934140053869175,-1.6303051352353783,-1.6582293439160525,-1.6522204544407448
147,-0.664537186571564,1.0258917722926943,-0.6233479067280411,1.0621038991879743,-1.062103899187974,-1.726641085759538,-1.6854518059160153,-1.6904289588642585
148,-0.7293601470096717,0.9780730175164548,-0.6805863239706618,1.0310764453485608,-1.0310764453485606,-1.7604365923582321,-1.7116627693192223,-1.7074331645261265
150,-0.7296028572609653,1.0122531886391721,-0.736145333698203,1.000705943034721,-1.0007059430347212,-1.7303088002956866,-1.7368512767329243,-1.7418560459001373
151,-0.7296154904758555,1.0278654328151369,-0.7898986549356493,0.9710893547846096,-0.9710893547846097,-1.7007048452604652,-1.760988009720259,-1.7574809232909923
153,-0.880990662920163,0.907443846517887,-0.8420361365703797,0.9420098648918331,-0.9420098648918331,-1.8230005278119963,-1.7840460014622128,-1.78843450943805
154,-0.9205943623289613,0.882096269333999,-0.8930037252368992,0.9130130617440082,-0.9130130617440083,-1.8336074240729696,-1.8060167869809076,-1.8026906316629603
156,-0.9199053966760935,0.9104649846018413,-0.9433434664919109,0.8835706621036119,-0.8835706621036119,-1.8034760587797054,-1.8269141285955228,-1.8303703812779348
157,-0.9192438831389137,0.9239267034656576,-0.9934894738070679,0.8532743985657997,-0.8532743985657995,-1.7725182817047132,-1.8467638723728674,-1.8431705866045713
159,-1.11064291293582,0.7570189040327293,-1.0435932083523622,0.821991775895558,-0.821991775895558,-1.932634688831378,-1.8655849842479202,-1.8676618169685493
