frequency,raw,error,smoothed,error_smoothed,equalization,parametric_eq,fixed_band_eq,equalized_raw,equalized_smoothed,target
20.00,-1.55,-6.74,-1.55,-6.74,5.98,5.32,1.97,4.43,4.43,5.19
20.20,-1.45,-6.63,-1.45,-6.63,6.00,5.28,2.03,4.55,4.55,5.18
20.40,-1.36,-6.53,-1.36,-6.53,6.02,5.25,2.09,4.66,4.66,5.17
20.61,-1.27,-6.43,-1.27,-6.43,6.02,5.22,2.15,4.75,4.76,5.16
20.81,-1.18,-6.32,-1.18,-6.32,6.02,5.18,2.22,4.84,4.84,5.14
21.02,-1.10,-6.23,-1.10,-6.23,6.01,5.15,2.28,4.91,4.91,5.13
21.23,-1.02,-6.14,-1.01,-6.14,5.99,5.12,2.35,4.97,4.98,5.12
21.44,-0.94,-6.07,-0.94,-6.06,5.96,5.08,2.42,5.03,5.03,5.13
21.66,-0.86,-5.97,-0.86,-5.97,5.93,5.05,2.49,5.07,5.07,5.11
21.87,-0.79,-5.90,-0.78,-5.89,5.88,5.01,2.57,5.10,5.10,5.11
22.09,-0.71,-5.80,-0.71,-5.81,5.83,4.98,2.64,5.12,5.11,5.09
22.31,-0.65,-5.74,-0.65,-5.74,5.76,4.94,2.72,5.12,5.11,5.09
22.54,-0.60,-5.68,-0.60,-5.68,5.69,4.91,2.80,5.10,5.10,5.08
22.76,-0.55,-5.63,-0.54,-5.62,5.62,4.87,2.89,5.07,5.08,5.08
22.99,-0.49,-5.56,-0.48,-5.55,5.55,4.84,2.97,5.06,5.06,5.07
23.22,-0.42,-5.48,-0.42,-5.48,5.48,4.80,3.06,5.06,5.06,5.06
23.45,-0.35,-5.41,-0.35,-5.41,5.41,4.76,3.14,5.07,5.06,5.07
23.69,-0.29,-5.34,-0.29,-5.34,5.35,4.73,3.23,5.06,5.06,5.06
23.92,-0.23,-5.27,-0.22,-5.28,5.28,4.69,3.32,5.06,5.06,5.05
24.16,-0.16,-5.21,-0.16,-5.21,5.21,4.65,3.42,5.06,5.05,5.06
24.40,-0.10,-5.15,-0.09,-5.15,5.14,4.61,3.51,5.05,5.05,5.05
24.65,-0.03,-5.08,-0.03,-5.08,5.07,4.58,3.61,5.05,5.05,5.05
24.89,0.04,-5.01,0.04,-5.01,5.00,4.54,3.71,5.05,5.04,5.05
25.14,0.10,-4.94,0.11,-4.94,4.93,4.50,3.80,5.04,5.04,5.04
25.39,0.18,-4.86,0.18,-4.86,4.86,4.46,3.90,5.04,5.04,5.04
25.65,0.26,-4.78,0.26,-4.78,4.78,4.42,4.00,5.05,5.05,5.04
25.91,0.34,-4.70,0.34,-4.70,4.71,4.39,4.10,5.05,5.05,5.04
26.16,0.41,-4.64,0.41,-4.64,4.64,4.35,4.20,5.05,5.05,5.05
26.43,0.47,-4.58,0.48,-4.57,4.57,4.31,4.29,5.04,5.04,5.05
26.69,0.54,-4.50,0.54,-4.50,4.50,4.27,4.39,5.04,5.04,5.05
26.96,0.61,-4.43,0.61,-4.43,4.43,4.23,4.48,5.05,5.05,5.05
27.23,0.68,-4.36,0.68,-4.36,4.37,4.19,4.57,5.05,5.05,5.05
27.50,0.74,-4.30,0.74,-4.31,4.31,4.15,4.66,5.06,5.05,5.04
27.77,0.80,-4.25,0.80,-4.25,4.25,4.11,4.74,5.06,5.05,5.05
28.05,0.84,-4.21,0.85,-4.20,4.20,4.07,4.83,5.04,5.05,5.05
28.33,0.91,-4.15,0.91,-4.15,4.14,4.03,4.90,5.06,5.05,5.06
28.62,0.97,-4.09,0.97,-4.09,4.09,3.99,4.97,5.06,5.06,5.06
28.90,1.03,-4.03,1.03,-4.04,4.03,3.95,5.03,5.07,5.06,5.07
29.19,1.08,-3.98,1.08,-3.98,3.98,3.91,5.09,5.06,5.06,5.07
29.48,1.13,-3.93,1.14,-3.93,3.93,3.87,5.14,5.06,5.07,5.06
29.78,1.19,-3.87,1.19,-3.87,3.87,3.83,5.19,5.07,5.06,5.06
30.08,1.24,-3.82,1.24,-3.82,3.82,3.79,5.22,5.07,5.06,5.06
30.38,1.28,-3.77,1.28,-3.77,3.77,3.74,5.24,5.06,5.06,5.05
30.68,1.32,-3.73,1.32,-3.73,3.73,3.70,5.26,5.05,5.05,5.05
30.99,1.36,-3.68,1.36,-3.68,3.68,3.66,5.27,5.04,5.05,5.05
31.30,1.40,-3.64,1.40,-3.64,3.64,3.62,5.26,5.04,5.04,5.04
31.61,1.44,-3.60,1.44,-3.60,3.60,3.58,5.25,5.04,5.04,5.04
31.93,1.47,-3.55,1.47,-3.56,3.56,3.53,5.23,5.03,5.03,5.02
32.24,1.50,-3.52,1.50,-3.52,3.52,3.49,5.20,5.02,5.02,5.03
32.57,1.53,-3.48,1.53,-3.48,3.48,3.45,5.16,5.01,5.02,5.02
32.89,1.56,-3.45,1.57,-3.45,3.44,3.41,5.11,5.01,5.01,5.01
33.22,1.60,-3.41,1.60,-3.41,3.41,3.36,5.05,5.01,5.01,5.01
33.55,1.63,-3.38,1.63,-3.37,3.37,3.32,4.99,5.01,5.00,5.01
33.89,1.66,-3.33,1.66,-3.34,3.34,3.28,4.92,5.00,5.00,5.00
34.23,1.68,-3.30,1.69,-3.30,3.31,3.23,4.84,4.99,4.99,4.98
34.57,1.71,-3.27,1.71,-3.27,3.28,3.19,4.76,4.99,4.99,4.98
34.92,1.73,-3.24,1.73,-3.24,3.25,3.15,4.67,4.98,4.98,4.97
35.27,1.75,-3.23,1.75,-3.22,3.22,3.10,4.57,4.97,4.97,4.98
35.62,1.77,-3.19,1.77,-3.20,3.19,3.06,4.48,4.96,4.96,4.96
35.97,1.79,-3.17,1.79,-3.16,3.15,3.01,4.37,4.95,4.95,4.96
36.33,1.81,-3.13,1.82,-3.12,3.12,2.97,4.27,4.93,4.94,4.95
36.70,1.84,-3.08,1.84,-3.09,3.09,2.92,4.16,4.93,4.93,4.92
37.06,1.86,-3.04,1.86,-3.05,3.05,2.88,4.05,4.92,4.92,4.91
37.43,1.88,-3.01,1.89,-3.01,3.02,2.83,3.94,4.90,4.90,4.89
37.81,1.90,-2.98,1.90,-2.97,2.98,2.79,3.83,4.88,4.88,4.88
38.19,1.92,-2.93,1.92,-2.94,2.94,2.74,3.72,4.87,4.86,4.86
38.57,1.93,-2.91,1.94,-2.91,2.90,2.70,3.61,4.83,4.84,4.84
38.95,1.95,-2.87,1.96,-2.87,2.86,2.65,3.49,4.81,4.81,4.83
39.34,1.98,-2.82,1.98,-2.82,2.81,2.61,3.38,4.79,4.79,4.80
39.74,2.02,-2.76,2.02,-2.76,2.75,2.56,3.27,4.78,4.78,4.78
40.14,2.06,-2.70,2.07,-2.70,2.70,2.51,3.16,4.76,4.76,4.76
40.54,2.11,-2.64,2.11,-2.63,2.64,2.47,3.05,4.75,4.75,4.75
40.94,2.15,-2.57,2.15,-2.57,2.58,2.42,2.94,4.73,4.73,4.72
41.35,2.19,-2.51,2.19,-2.51,2.52,2.37,2.84,4.71,4.71,4.71
41.76,2.23,-2.45,2.23,-2.45,2.46,2.32,2.73,4.69,4.69,4.68
42.18,2.27,-2.40,2.27,-2.40,2.39,2.27,2.63,4.67,4.67,4.67
42.60,2.31,-2.33,2.31,-2.34,2.33,2.23,2.52,4.65,4.65,4.65
43.03,2.35,-2.28,2.36,-2.27,2.27,2.18,2.42,4.62,4.63,4.63
43.46,2.40,-2.20,2.40,-2.21,2.21,2.13,2.32,4.61,4.61,4.61
43.90,2.44,-2.15,2.44,-2.14,2.14,2.08,2.23,4.59,4.59,4.59
44.33,2.48,-2.08,2.49,-2.08,2.08,2.03,2.13,4.56,4.57,4.56
44.78,2.53,-2.01,2.53,-2.01,2.01,1.98,2.04,4.55,4.54,4.54
45.23,2.57,-1.95,2.57,-1.95,1.94,1.93,1.94,4.52,4.52,4.53
45.68,2.61,-1.87,2.61,-1.88,1.88,1.87,1.85,4.49,4.49,4.49
46.13,2.65,-1.80,2.66,-1.80,1.81,1.82,1.76,4.46,4.46,4.46
46.60,2.70,-1.73,2.70,-1.73,1.73,1.77,1.68,4.44,4.43,4.43
47.06,2.74,-1.66,2.74,-1.66,1.66,1.72,1.59,4.40,4.40,4.40
47.53,2.77,-1.60,2.78,-1.59,1.58,1.66,1.51,4.35,4.36,4.37
48.01,2.81,-1.51,2.82,-1.51,1.50,1.61,1.43,4.32,4.32,4.32
48.49,2.86,-1.43,2.86,-1.43,1.42,1.55,1.34,4.29,4.28,4.29
48.97,2.90,-1.35,2.90,-1.35,1.35,1.50,1.26,4.25,4.25,4.25
49.46,2.94,-1.28,2.95,-1.27,1.27,1.44,1.19,4.22,4.22,4.22
49.96,2.98,-1.19,2.98,-1.19,1.20,1.38,1.11,4.19,4.19,4.17
50.46,3.02,-1.12,3.02,-1.13,1.14,1.33,1.03,4.16,4.16,4.15
50.96,3.04,-1.07,3.04,-1.07,1.08,1.27,0.96,4.12,4.12,4.11
51.47,3.06,-1.02,3.06,-1.02,1.02,1.21,0.89,4.09,4.08,4.08
51.99,3.07,-0.97,3.07,-0.97,0.97,1.15,0.82,4.04,4.04,4.04
52.51,3.08,-0.93,3.09,-0.93,0.92,1.09,0.75,4.00,4.01,4.01
53.03,3.10,-0.89,3.10,-0.88,0.87,1.02,0.68,3.97,3.97,3.99
53.56,3.12,-0.83,3.12,-0.83,0.82,0.96,0.61,3.95,3.95,3.96
54.10,3.14,-0.77,3.14,-0.78,0.77,0.90,0.55,3.92,3.92,3.91
54.64,3.16,-0.72,3.16,-0.72,0.72,0.83,0.48,3.89,3.89,3.89
55.18,3.18,-0.67,3.18,-0.66,0.67,0.77,0.42,3.86,3.86,3.85
55.74,3.20,-0.61,3.20,-0.62,0.62,0.70,0.36,3.82,3.82,3.81
56.29,3.22,-0.57,3.22,-0.57,0.57,0.64,0.30,3.79,3.79,3.80
56.86,3.24,-0.52,3.25,-0.52,0.51,0.57,0.24,3.75,3.76,3.77
57.42,3.27,-0.46,3.27,-0.46,0.46,0.50,0.18,3.73,3.73,3.73
58.00,3.30,-0.40,3.30,-0.40,0.41,0.44,0.13,3.71,3.71,3.70
58.58,3.33,-0.35,3.34,-0.35,0.35,0.37,0.07,3.68,3.69,3.68
59.16,3.36,-0.30,3.36,-0.29,0.29,0.30,0.02,3.66,3.66,3.66
59.76,3.39,-0.24,3.39,-0.24,0.23,0.23,-0.03,3.63,3.62,3.63
60.35,3.40,-0.18,3.41,-0.18,0.17,0.17,-0.09,3.58,3.58,3.59
60.96,3.42,-0.12,3.42,-0.12,0.11,0.10,-0.13,3.54,3.54,3.55
61.57,3.44,-0.05,3.44,-0.05,0.05,0.03,-0.18,3.50,3.49,3.49
62.18,3.46,0.01,3.46,0.02,-0.01,-0.03,-0.23,3.46,3.46,3.45
62.80,3.48,0.08,3.48,0.08,-0.07,-0.10,-0.27,3.42,3.41,3.40
63.43,3.50,0.14,3.50,0.14,-0.13,-0.16,-0.32,3.37,3.37,3.36
64.07,3.51,0.19,3.52,0.19,-0.19,-0.22,-0.36,3.32,3.33,3.32
64.71,3.53,0.25,3.53,0.25,-0.25,-0.28,-0.40,3.28,3.28,3.29
65.35,3.55,0.30,3.55,0.30,-0.31,-0.34,-0.44,3.24,3.24,3.25
66.01,3.58,0.37,3.58,0.37,-0.38,-0.40,-0.48,3.21,3.20,3.21
66.67,3.61,0.43,3.61,0.44,-0.44,-0.46,-0.52,3.17,3.17,3.18
67.33,3.64,0.51,3.65,0.51,-0.51,-0.51,-0.56,3.14,3.14,3.13
68.01,3.68,0.58,3.68,0.58,-0.58,-0.57,-0.60,3.11,3.10,3.10
68.69,3.71,0.65,3.71,0.65,-0.64,-0.62,-0.63,3.07,3.07,3.06
69.37,3.73,0.70,3.74,0.71,-0.71,-0.67,-0.67,3.02,3.03,3.03
70.07,3.76,0.78,3.76,0.77,-0.78,-0.71,-0.71,2.99,2.99,2.99
70.77,3.78,0.84,3.78,0.83,-0.84,-0.76,-0.74,2.95,2.94,2.94
71.48,3.79,0.89,3.80,0.89,-0.89,-0.81,-0.78,2.90,2.91,2.91
72.19,3.80,0.94,3.80,0.94,-0.94,-0.85,-0.81,2.86,2.87,2.86
72.91,3.81,1.00,3.81,0.99,-0.98,-0.90,-0.85,2.83,2.83,2.82
73.64,3.80,1.02,3.81,1.03,-1.02,-0.94,-0.89,2.78,2.79,2.78
74.38,3.80,1.06,3.80,1.06,-1.06,-0.99,-0.92,2.75,2.74,2.74
75.12,3.79,1.08,3.79,1.08,-1.09,-1.03,-0.96,2.71,2.71,2.71
75.87,3.78,1.10,3.79,1.11,-1.11,-1.07,-0.99,2.67,2.68,2.68
76.63,3.78,1.14,3.78,1.14,-1.14,-1.12,-1.03,2.65,2.65,2.64
77.40,3.78,1.16,3.78,1.16,-1.16,-1.16,-1.07,2.62,2.62,2.62
78.17,3.77,1.20,3.77,1.19,-1.18,-1.21,-1.11,2.59,2.59,2.58
78.95,3.76,1.20,3.77,1.21,-1.21,-1.25,-1.15,2.55,2.56,2.56
79.74,3.76,1.23,3.76,1.24,-1.24,-1.30,-1.19,2.52,2.52,2.53
80.54,3.77,1.27,3.77,1.27,-1.28,-1.34,-1.23,2.50,2.49,2.50
81.35,3.78,1.31,3.78,1.31,-1.32,-1.39,-1.27,2.47,2.47,2.47
82.16,3.80,1.35,3.80,1.35,-1.36,-1.44,-1.31,2.44,2.44,2.45
82.98,3.82,1.41,3.83,1.41,-1.41,-1.49,-1.36,2.41,2.42,2.42
83.81,3.85,1.47,3.85,1.47,-1.46,-1.54,-1.40,2.39,2.39,2.39
84.65,3.88,1.53,3.88,1.53,-1.52,-1.59,-1.45,2.37,2.36,2.35
85.50,3.90,1.58,3.90,1.58,-1.58,-1.64,-1.50,2.33,2.33,2.32
86.35,3.92,1.63,3.93,1.64,-1.64,-1.69,-1.55,2.29,2.29,2.29
87.22,3.95,1.70,3.95,1.69,-1.70,-1.74,-1.60,2.25,2.25,2.26
88.09,3.98,1.76,3.98,1.75,-1.76,-1.80,-1.65,2.22,2.22,2.23
88.97,4.01,1.82,4.02,1.82,-1.83,-1.85,-1.70,2.18,2.18,2.19
89.86,4.05,1.89,4.06,1.90,-1.90,-1.90,-1.75,2.15,2.15,2.16
90.76,4.10,1.97,4.10,1.97,-1.97,-1.96,-1.81,2.13,2.13,2.13
91.66,4.14,2.06,4.14,2.05,-2.05,-2.01,-1.87,2.10,2.10,2.08
92.58,4.18,2.12,4.18,2.13,-2.12,-2.07,-1.92,2.06,2.06,2.06
93.51,4.22,2.20,4.22,2.20,-2.19,-2.12,-1.98,2.03,2.03,2.02
94.44,4.25,2.26,4.25,2.27,-2.27,-2.18,-2.04,1.99,1.99,1.99
95.39,4.28,2.34,4.28,2.33,-2.34,-2.24,-2.11,1.95,1.95,1.94
96.34,4.30,2.40,4.31,2.40,-2.40,-2.29,-2.17,1.90,1.90,1.91
97.30,4.33,2.46,4.33,2.46,-2.47,-2.35,-2.23,1.86,1.86,1.87
98.28,4.35,2.53,4.36,2.53,-2.53,-2.41,-2.30,1.82,1.82,1.82
99.26,4.38,2.60,4.38,2.59,-2.59,-2.46,-2.36,1.79,1.79,1.79
100.25,4.40,2.65,4.40,2.65,-2.65,-2.52,-2.43,1.75,1.75,1.75
101.25,4.42,2.70,4.42,2.70,-2.70,-2.57,-2.50,1.72,1.72,1.72
102.27,4.44,2.75,4.44,2.75,-2.75,-2.63,-2.56,1.70,1.70,1.69
103.29,4.45,2.80,4.45,2.79,-2.79,-2.68,-2.63,1.67,1.67,1.66
104.32,4.46,2.83,4.46,2.83,-2.82,-2.74,-2.70,1.64,1.64,1.63
105.37,4.45,2.85,4.45,2.86,-2.85,-2.79,-2.77,1.60,1.60,1.60
106.42,4.44,2.87,4.45,2.88,-2.88,-2.84,-2.83,1.56,1.57,1.57
107.48,4.44,2.91,4.44,2.90,-2.91,-2.90,-2.90,1.54,1.53,1.54
108.56,4.43,2.93,4.44,2.93,-2.93,-2.95,-2.97,1.50,1.50,1.51
109.64,4.43,2.95,4.43,2.96,-2.96,-3.00,-3.03,1.47,1.47,1.48
110.74,4.43,2.99,4.43,2.99,-2.99,-3.05,-3.09,1.44,1.44,1.44
111.85,4.43,3.03,4.43,3.02,-3.03,-3.09,-3.16,1.41,1.41,1.41
112.97,4.43,3.05,4.43,3.06,-3.06,-3.14,-3.22,1.37,1.37,1.38
114.10,4.43,3.09,4.43,3.10,-3.10,-3.19,-3.27,1.34,1.34,1.34
115.24,4.43,3.14,4.43,3.13,-3.13,-3.23,-3.33,1.30,1.30,1.30
116.39,4.43,3.17,4.43,3.17,-3.17,-3.27,-3.38,1.26,1.26,1.26
117.55,4.43,3.21,4.43,3.21,-3.20,-3.31,-3.43,1.23,1.23,1.22
118.73,4.43,3.24,4.43,3.24,-3.24,-3.35,-3.48,1.20,1.20,1.19
119.92,4.43,3.27,4.43,3.27,-3.27,-3.39,-3.52,1.17,1.17,1.16
121.12,4.43,3.29,4.43,3.30,-3.30,-3.42,-3.56,1.14,1.14,1.14
122.33,4.43,3.33,4.43,3.32,-3.33,-3.46,-3.59,1.11,1.11,1.11
123.55,4.43,3.35,4.43,3.35,-3.36,-3.49,-3.62,1.08,1.08,1.08
124.79,4.43,3.38,4.43,3.38,-3.39,-3.52,-3.65,1.05,1.05,1.05
126.03,4.43,3.41,4.43,3.41,-3.42,-3.55,-3.67,1.02,1.02,1.02
127.29,4.43,3.44,4.43,3.45,-3.45,-3.57,-3.69,0.98,0.98,0.99
128.57,4.43,3.49,4.43,3.48,-3.48,-3.59,-3.71,0.95,0.95,0.95
129.85,4.43,3.51,4.43,3.52,-3.51,-3.61,-3.72,0.92,0.92,0.92
131.15,4.43,3.55,4.43,3.55,-3.55,-3.63,-3.73,0.89,0.89,0.88
132.46,4.43,3.58,4.43,3.58,-3.58,-3.65,-3.73,0.85,0.85,0.85
133.79,4.43,3.62,4.43,3.62,-3.61,-3.66,-3.73,0.82,0.82,0.81
135.12,4.43,3.65,4.43,3.64,-3.65,-3.67,-3.73,0.78,0.78,0.79
136.48,4.43,3.67,4.43,3.68,-3.68,-3.69,-3.73,0.75,0.75,0.76
137.84,4.43,3.71,4.44,3.71,-3.72,-3.69,-3.72,0.72,0.72,0.73
139.22,4.44,3.75,4.44,3.75,-3.75,-3.70,-3.72,0.69,0.69,0.69
140.61,4.44,3.78,4.45,3.78,-3.78,-3.71,-3.71,0.66,0.67,0.67
142.02,4.45,3.82,4.45,3.81,-3.81,-3.71,-3.70,0.64,0.64,0.64
143.44,4.45,3.84,4.45,3.84,-3.84,-3.72,-3.69,0.62,0.62,0.61
144.87,4.45,3.86,4.45,3.86,-3.86,-3.72,-3.67,0.59,0.59,0.59
146.32,4.44,3.88,4.44,3.88,-3.88,-3.73,-3.66,0.57,0.57,0.56
147.78,4.43,3.89,4.43,3.89,-3.89,-3.74,-3.65,0.55,0.54,0.54
149.26,4.41,3.90,4.41,3.90,-3.89,-3.75,-3.64,0.52,0.52,0.51
150.75,4.39,3.91,4.39,3.90,-3.90,-3.76,-3.63,0.50,0.50,0.49
152.26,4.36,3.89,4.36,3.90,-3.89,-3.77,-3.62,0.47,0.47,0.47
153.78,4.33,3.89,4.33,3.89,-3.89,-3.78,-3.61,0.44,0.44,0.44
155.32,4.30,3.88,4.30,3.88,-3.89,-3.80,-3.60,0.42,0.42,0.42
156.88,4.27,3.88,4.27,3.88,-3.88,-3.82,-3.60,0.39,0.39,0.40
158.44,4.24,3.88,4.24,3.88,-3.88,-3.84,-3.59,0.36,0.36,0.36
160.03,4.21,3.87,4.21,3.88,-3.88,-3.87,-3.59,0.34,0.34,0.34
161.63,4.18,3.87,4.19,3.88,-3.88,-3.90,-3.59,0.31,0.31,0.31
163.24,4.16,3.89,4.16,3.88,-3.88,-3.93,-3.59,0.28,0.28,0.28
164.88,4.13,3.89,4.14,3.89,-3.89,-3.96,-3.60,0.25,0.25,0.25
166.53,4.11,3.90,4.12,3.90,-3.90,-4.00,-3.61,0.22,0.22,0.21
168.19,4.10,3.91,4.10,3.91,-3.91,-4.04,-3.62,0.19,0.19,0.19
169.87,4.08,3.93,4.08,3.93,-3.93,-4.07,-3.63,0.15,0.15,0.15
171.57,4.07,3.96,4.07,3.95,-3.96,-4.11,-3.65,0.11,0.12,0.12
173.29,4.07,3.98,4.07,3.98,-3.99,-4.15,-3.66,0.08,0.08,0.09
175.02,4.07,4.02,4.08,4.02,-4.03,-4.19,-3.69,0.04,0.05,0.05
176.77,4.09,4.07,4.09,4.07,-4.08,-4.23,-3.71,0.02,0.01,0.02
178.54,4.11,4.13,4.11,4.13,-4.13,-4.26,-3.74,-0.02,-0.02,-0.01
180.32,4.13,4.19,4.14,4.18,-4.18,-4.30,-3.77,-0.05,-0.05,-0.06
182.13,4.16,4.24,4.16,4.24,-4.24,-4.33,-3.80,-0.08,-0.08,-0.08
183.95,4.18,4.29,4.19,4.30,-4.30,-4.37,-3.83,-0.12,-0.11,-0.11
185.79,4.21,4.37,4.21,4.36,-4.35,-4.39,-3.87,-0.14,-0.14,-0.15
187.65,4.23,4.42,4.23,4.41,-4.41,-4.42,-3.91,-0.17,-0.18,-0.18
189.52,4.24,4.46,4.25,4.46,-4.46,-4.45,-3.96,-0.21,-0.21,-0.21
191.42,4.25,4.49,4.25,4.50,-4.50,-4.47,-4.00,-0.25,-0.25,-0.24
193.33,4.26,4.53,4.26,4.54,-4.54,-4.50,-4.05,-0.28,-0.28,-0.27
195.27,4.26,4.57,4.26,4.57,-4.57,-4.52,-4.10,-0.31,-0.31,-0.31
197.22,4.26,4.61,4.27,4.61,-4.60,-4.53,-4.16,-0.34,-0.34,-0.35
199.19,4.26,4.63,4.26,4.63,-4.62,-4.55,-4.21,-0.36,-0.36,-0.36
201.18,4.25,4.65,4.25,4.65,-4.64,-4.56,-4.27,-0.38,-0.38,-0.40
203.19,4.23,4.65,4.24,4.65,-4.65,-4.58,-4.33,-0.41,-0.41,-0.41
205.23,4.22,4.65,4.22,4.65,-4.65,-4.59,-4.39,-0.43,-0.43,-0.43
207.28,4.19,4.65,4.20,4.65,-4.65,-4.60,-4.45,-0.45,-0.45,-0.45
209.35,4.17,4.65,4.17,4.65,-4.64,-4.60,-4.51,-0.47,-0.47,-0.48
211.44,4.14,4.65,4.14,4.64,-4.64,-4.61,-4.57,-0.50,-0.50,-0.50
213.56,4.11,4.63,4.12,4.63,-4.65,-4.61,-4.63,-0.53,-0.53,-0.52
215.69,4.09,4.63,4.10,4.64,-4.65,-4.61,-4.69,-0.56,-0.56,-0.54
217.85,4.09,4.65,4.09,4.65,-4.67,-4.61,-4.75,-0.57,-0.58,-0.56
220.03,4.09,4.68,4.09,4.68,-4.68,-4.61,-4.81,-0.59,-0.59,-0.58
222.23,4.10,4.71,4.10,4.71,-4.70,-4.61,-4.86,-0.60,-0.60,-0.60
224.45,4.11,4.73,4.11,4.73,-4.72,-4.61,-4.92,-0.61,-0.61,-0.61
226.70,4.12,4.76,4.12,4.75,-4.74,-4.60,-4.97,-0.62,-0.62,-0.64
228.96,4.12,4.76,4.12,4.77,-4.76,-4.60,-5.01,-0.64,-0.64,-0.64
231.25,4.12,4.78,4.12,4.78,-4.77,-4.59,-5.06,-0.65,-0.65,-0.66
233.57,4.11,4.78,4.11,4.78,-4.78,-4.58,-5.10,-0.66,-0.66,-0.67
235.90,4.10,4.78,4.10,4.78,-4.77,-4.57,-5.13,-0.67,-0.67,-0.67
238.26,4.08,4.78,4.08,4.77,-4.77,-4.56,-5.16,-0.68,-0.68,-0.69
240.64,4.06,4.75,4.06,4.75,-4.75,-4.55,-5.18,-0.69,-0.69,-0.68
243.05,4.03,4.72,4.04,4.73,-4.73,-4.54,-5.20,-0.70,-0.69,-0.69
245.48,4.01,4.71,4.01,4.71,-4.71,-4.53,-5.21,-0.69,-0.69,-0.70
247.93,3.98,4.69,3.98,4.68,-4.68,-4.51,-5.21,-0.70,-0.70,-0.71
250.41,3.95,4.65,3.95,4.65,-4.65,-4.50,-5.21,-0.70,-0.70,-0.69
252.92,3.92,4.61,3.92,4.62,-4.62,-4.48,-5.20,-0.70,-0.70,-0.69
255.45,3.89,4.59,3.89,4.59,-4.59,-4.47,-5.19,-0.70,-0.70,-0.70
258.00,3.86,4.56,3.87,4.56,-4.57,-4.45,-5.17,-0.71,-0.70,-0.69
260.58,3.85,4.54,3.85,4.54,-4.54,-4.44,-5.14,-0.69,-0.69,-0.69
263.19,3.83,4.52,3.83,4.52,-4.52,-4.42,-5.11,-0.69,-0.69,-0.69
265.82,3.81,4.51,3.81,4.50,-4.50,-4.40,-5.07,-0.69,-0.69,-0.69
268.48,3.79,4.48,3.79,4.48,-4.48,-4.38,-5.03,-0.69,-0.69,-0.69
271.16,3.77,4.46,3.78,4.46,-4.47,-4.37,-4.98,-0.69,-0.69,-0.68
273.87,3.76,4.45,3.76,4.45,-4.45,-4.35,-4.93,-0.68,-0.69,-0.69
276.61,3.74,4.43,3.74,4.43,-4.43,-4.33,-4.87,-0.68,-0.69,-0.68
279.38,3.71,4.41,3.72,4.41,-4.40,-4.31,-4.82,-0.69,-0.69,-0.70
282.17,3.69,4.39,3.69,4.38,-4.38,-4.29,-4.75,-0.68,-0.68,-0.69
284.99,3.66,4.34,3.67,4.35,-4.34,-4.27,-4.69,-0.68,-0.68,-0.68
287.84,3.64,4.32,3.64,4.31,-4.31,-4.25,-4.62,-0.67,-0.67,-0.67
290.72,3.60,4.28,3.60,4.27,-4.27,-4.23,-4.56,-0.67,-0.67,-0.68
293.63,3.57,4.23,3.57,4.24,-4.24,-4.21,-4.49,-0.66,-0.66,-0.66
296.57,3.54,4.20,3.54,4.20,-4.20,-4.19,-4.42,-0.66,-0.66,-0.65
299.53,3.52,4.17,3.52,4.16,-4.17,-4.17,-4.35,-0.65,-0.65,-0.65
302.53,3.49,4.13,3.49,4.13,-4.14,-4.15,-4.28,-0.65,-0.65,-0.63
305.55,3.47,4.11,3.48,4.11,-4.12,-4.13,-4.21,-0.64,-0.64,-0.64
308.61,3.46,4.08,3.46,4.09,-4.10,-4.11,-4.14,-0.63,-0.63,-0.62
311.69,3.46,4.08,3.46,4.08,-4.08,-4.09,-4.08,-0.62,-0.62,-0.61
314.81,3.46,4.07,3.46,4.06,-4.07,-4.07,-4.01,-0.60,-0.60,-0.61
317.96,3.46,4.06,3.46,4.06,-4.05,-4.05,-3.95,-0.59,-0.59,-0.60
321.14,3.45,4.03,3.46,4.04,-4.04,-4.03,-3.88,-0.58,-0.58,-0.58
324.35,3.45,4.04,3.45,4.02,-4.02,-4.01,-3.82,-0.56,-0.57,-0.58
327.59,3.43,3.99,3.43,4.00,-3.99,-3.99,-3.77,-0.56,-0.56,-0.56
330.87,3.41,3.97,3.41,3.97,-3.96,-3.97,-3.71,-0.55,-0.55,-0.56
334.18,3.38,3.93,3.38,3.93,-3.93,-3.95,-3.66,-0.55,-0.55,-0.55
337.52,3.35,3.90,3.35,3.90,-3.89,-3.93,-3.61,-0.54,-0.54,-0.54
340.90,3.32,3.85,3.32,3.85,-3.86,-3.91,-3.56,-0.53,-0.53,-0.53
344.30,3.29,3.81,3.29,3.81,-3.81,-3.88,-3.51,-0.52,-0.52,-0.52
347.75,3.26,3.77,3.26,3.77,-3.77,-3.86,-3.47,-0.51,-0.51,-0.51
351.23,3.23,3.75,3.23,3.73,-3.73,-3.84,-3.43,-0.50,-0.50,-0.51
354.74,3.20,3.69,3.20,3.70,-3.69,-3.82,-3.39,-0.49,-0.49,-0.48
358.28,3.17,3.66,3.18,3.66,-3.66,-3.80,-3.36,-0.49,-0.49,-0.49
361.87,3.15,3.63,3.15,3.63,-3.63,-3.77,-3.32,-0.48,-0.48,-0.48
365.49,3.13,3.60,3.13,3.60,-3.60,-3.75,-3.29,-0.47,-0.47,-0.47
369.14,3.12,3.57,3.12,3.58,-3.58,-3.72,-3.26,-0.46,-0.46,-0.45
372.83,3.11,3.56,3.11,3.56,-3.57,-3.70,-3.24,-0.46,-0.46,-0.44
376.56,3.11,3.56,3.12,3.55,-3.56,-3.67,-3.22,-0.45,-0.45,-0.44
380.33,3.12,3.56,3.12,3.55,-3.56,-3.64,-3.20,-0.43,-0.43,-0.44
384.13,3.13,3.55,3.13,3.55,-3.55,-3.61,-3.18,-0.42,-0.42,-0.42
387.97,3.14,3.55,3.15,3.55,-3.55,-3.58,-3.16,-0.41,-0.41,-0.41
391.85,3.15,3.55,3.15,3.55,-3.55,-3.55,-3.15,-0.39,-0.39,-0.40
395.77,3.16,3.55,3.16,3.55,-3.54,-3.52,-3.14,-0.38,-0.38,-0.39
399.73,3.15,3.53,3.16,3.53,-3.53,-3.48,-3.13,-0.37,-0.37,-0.38
403.72,3.15,3.51,3.15,3.51,-3.51,-3.45,-3.12,-0.35,-0.36,-0.35
407.76,3.13,3.49,3.13,3.48,-3.48,-3.41,-3.11,-0.35,-0.35,-0.35
411.84,3.11,3.46,3.12,3.46,-3.45,-3.37,-3.11,-0.34,-0.34,-0.34
415.96,3.09,3.42,3.09,3.42,-3.42,-3.33,-3.10,-0.33,-0.33,-0.33
420.12,3.06,3.39,3.06,3.39,-3.39,-3.29,-3.10,-0.32,-0.32,-0.33
424.32,3.03,3.35,3.03,3.35,-3.35,-3.25,-3.10,-0.32,-0.32,-0.32
428.56,3.00,3.30,3.00,3.31,-3.32,-3.21,-3.09,-0.31,-0.31,-0.30
432.85,2.97,3.26,2.98,3.27,-3.28,-3.17,-3.09,-0.31,-0.30,-0.29
437.18,2.95,3.24,2.95,3.24,-3.24,-3.12,-3.09,-0.29,-0.29,-0.29
441.55,2.93,3.21,2.93,3.21,-3.20,-3.08,-3.08,-0.27,-0.27,-0.28
445.96,2.90,3.17,2.90,3.18,-3.16,-3.03,-3.08,-0.26,-0.26,-0.27
450.42,2.87,3.14,2.87,3.14,-3.12,-2.99,-3.08,-0.25,-0.25,-0.26
454.93,2.83,3.09,2.84,3.09,-3.08,-2.94,-3.07,-0.25,-0.25,-0.25
459.48,2.80,3.05,2.80,3.04,-3.04,-2.90,-3.06,-0.24,-0.24,-0.24
464.07,2.76,2.99,2.76,2.99,-3.00,-2.85,-3.05,-0.24,-0.24,-0.22
468.71,2.73,2.95,2.73,2.95,-2.96,-2.81,-3.04,-0.23,-0.23,-0.22
473.40,2.70,2.91,2.71,2.91,-2.93,-2.76,-3.03,-0.22,-0.22,-0.21
478.13,2.68,2.88,2.69,2.88,-2.89,-2.71,-3.01,-0.21,-0.20,-0.20
482.91,2.67,2.86,2.67,2.86,-2.85,-2.67,-3.00,-0.18,-0.19,-0.19
487.74,2.65,2.83,2.65,2.83,-2.82,-2.62,-2.97,-0.16,-0.17,-0.18
492.62,2.62,2.79,2.62,2.79,-2.78,-2.58,-2.95,-0.15,-0.15,-0.17
497.55,2.59,2.75,2.59,2.75,-2.73,-2.53,-2.92,-0.14,-0.14,-0.16
502.52,2.55,2.70,2.55,2.70,-2.69,-2.49,-2.89,-0.14,-0.14,-0.15
507.55,2.51,2.64,2.51,2.64,-2.64,-2.44,-2.86,-0.13,-0.13,-0.13
512.62,2.46,2.58,2.47,2.58,-2.59,-2.40,-2.82,-0.13,-0.13,-0.12
517.75,2.42,2.52,2.43,2.53,-2.55,-2.36,-2.78,-0.12,-0.12,-0.10
522.93,2.39,2.48,2.39,2.48,-2.50,-2.31,-2.74,-0.11,-0.11,-0.09
