frequency,raw,error,smoothed,error_smoothed,equalization,parametric_eq,fixed_band_eq,equalized_raw,equalized_smoothed,target
20.00,6.97,7.30,6.97,7.28,-7.28,-6.57,-3.44,-0.32,-0.31,-0.34
20.20,6.97,7.26,6.97,7.25,-7.25,-6.62,-3.53,-0.28,-0.28,-0.30
20.40,6.97,7.22,6.97,7.23,-7.23,-6.66,-3.63,-0.26,-0.25,-0.26
20.61,6.98,7.21,6.98,7.20,-7.20,-6.70,-3.73,-0.22,-0.22,-0.23
20.81,6.99,7.18,6.98,7.18,-7.18,-6.74,-3.83,-0.19,-0.20,-0.19
21.02,7.00,7.15,6.99,7.16,-7.16,-6.78,-3.94,-0.17,-0.17,-0.15
21.23,7.01,7.14,7.00,7.15,-7.15,-6.82,-4.04,-0.14,-0.15,-0.13
21.44,7.02,7.13,7.02,7.14,-7.14,-6.86,-4.16,-0.12,-0.13,-0.11
21.66,7.04,7.13,7.03,7.14,-7.14,-6.90,-4.27,-0.10,-0.10,-0.09
21.87,7.05,7.13,7.05,7.13,-7.13,-6.94,-4.39,-0.09,-0.08,-0.08
22.09,7.07,7.13,7.07,7.14,-7.14,-6.98,-4.51,-0.07,-0.07,-0.06
22.31,7.09,7.14,7.09,7.14,-7.14,-7.01,-4.63,-0.05,-0.05,-0.05
22.54,7.12,7.16,7.12,7.16,-7.16,-7.05,-4.76,-0.04,-0.04,-0.04
22.76,7.14,7.17,7.15,7.17,-7.17,-7.09,-4.89,-0.04,-0.03,-0.03
22.99,7.16,7.19,7.18,7.20,-7.20,-7.12,-5.02,-0.04,-0.02,-0.03
23.22,7.20,7.22,7.21,7.22,-7.22,-7.16,-5.16,-0.02,-0.01,-0.02
23.45,7.23,7.24,7.25,7.25,-7.25,-7.20,-5.30,-0.02,-0.00,-0.01
23.69,7.27,7.27,7.28,7.27,-7.27,-7.23,-5.44,-0.00,0.01,-0.00
23.92,7.32,7.31,7.31,7.30,-7.30,-7.26,-5.58,0.02,0.02,0.01
24.16,7.36,7.33,7.35,7.32,-7.32,-7.30,-5.73,0.04,0.03,0.03
24.40,7.40,7.35,7.38,7.35,-7.35,-7.33,-5.88,0.05,0.04,0.05
24.65,7.44,7.39,7.42,7.37,-7.37,-7.36,-6.04,0.07,0.05,0.05
24.89,7.47,7.41,7.45,7.39,-7.39,-7.39,-6.19,0.08,0.06,0.06
25.14,7.50,7.43,7.48,7.41,-7.41,-7.43,-6.35,0.09,0.07,0.07
25.39,7.52,7.44,7.51,7.43,-7.43,-7.46,-6.51,0.09,0.08,0.08
25.65,7.53,7.43,7.54,7.45,-7.45,-7.49,-6.67,0.08,0.09,0.10
25.91,7.55,7.45,7.56,7.46,-7.46,-7.52,-6.83,0.09,0.10,0.09
26.16,7.57,7.46,7.58,7.47,-7.47,-7.55,-6.99,0.09,0.11,0.10
26.43,7.60,7.48,7.61,7.49,-7.49,-7.57,-7.15,0.11,0.12,0.11
26.69,7.62,7.50,7.63,7.50,-7.50,-7.60,-7.31,0.12,0.13,0.12
26.96,7.65,7.51,7.65,7.52,-7.52,-7.63,-7.47,0.13,0.14,0.14
27.23,7.68,7.53,7.68,7.53,-7.53,-7.65,-7.63,0.15,0.15,0.15
27.50,7.71,7.55,7.70,7.54,-7.54,-7.68,-7.78,0.16,0.16,0.16
27.77,7.73,7.57,7.73,7.56,-7.56,-7.70,-7.94,0.17,0.16,0.16
28.05,7.75,7.57,7.75,7.58,-7.58,-7.73,-8.08,0.17,0.17,0.18
28.33,7.77,7.59,7.78,7.60,-7.60,-7.75,-8.22,0.17,0.18,0.18
28.62,7.80,7.61,7.81,7.62,-7.62,-7.77,-8.35,0.18,0.19,0.19
28.90,7.83,7.63,7.84,7.64,-7.64,-7.80,-8.48,0.19,0.20,0.20
29.19,7.86,7.66,7.87,7.66,-7.66,-7.82,-8.60,0.20,0.21,0.20
29.48,7.89,7.66,7.89,7.68,-7.68,-7.84,-8.70,0.21,0.21,0.23
29.78,7.92,7.69,7.91,7.69,-7.69,-7.86,-8.80,0.23,0.22,0.22
30.08,7.94,7.71,7.93,7.70,-7.70,-7.88,-8.89,0.24,0.23,0.23
30.38,7.96,7.73,7.94,7.71,-7.71,-7.90,-8.96,0.25,0.24,0.23
30.68,7.98,7.73,7.95,7.71,-7.71,-7.91,-9.03,0.27,0.24,0.25
30.99,7.99,7.74,7.96,7.71,-7.71,-7.93,-9.08,0.28,0.25,0.25
31.30,7.99,7.73,7.96,7.70,-7.70,-7.95,-9.11,0.28,0.26,0.26
31.61,7.99,7.72,7.97,7.70,-7.70,-7.96,-9.14,0.29,0.27,0.27
31.93,7.98,7.70,7.97,7.69,-7.69,-7.98,-9.15,0.29,0.28,0.28
32.24,7.96,7.68,7.97,7.68,-7.68,-7.99,-9.15,0.28,0.29,0.28
32.57,7.95,7.66,7.96,7.67,-7.67,-8.01,-9.14,0.28,0.29,0.29
32.89,7.94,7.64,7.96,7.66,-7.66,-8.02,-9.11,0.27,0.30,0.30
33.22,7.94,7.63,7.97,7.66,-7.66,-8.03,-9.08,0.28,0.31,0.31
33.55,7.95,7.63,7.97,7.66,-7.66,-8.04,-9.04,0.29,0.32,0.32
33.89,7.97,7.64,7.98,7.66,-7.66,-8.05,-8.98,0.31,0.32,0.33
34.23,7.98,7.64,7.99,7.66,-7.66,-8.06,-8.93,0.32,0.33,0.34
34.57,8.01,7.66,8.01,7.67,-7.67,-8.07,-8.86,0.34,0.34,0.34
34.92,8.03,7.69,8.03,7.69,-7.69,-8.08,-8.79,0.34,0.35,0.34
35.27,8.06,7.71,8.06,7.71,-7.71,-8.09,-8.71,0.35,0.35,0.35
35.62,8.09,7.73,8.09,7.73,-7.73,-8.09,-8.64,0.36,0.36,0.36
35.97,8.12,7.76,8.12,7.76,-7.76,-8.10,-8.55,0.36,0.36,0.36
36.33,8.15,7.79,8.15,7.79,-7.79,-8.10,-8.47,0.36,0.36,0.36
36.70,8.18,7.82,8.18,7.81,-7.81,-8.11,-8.39,0.36,0.37,0.36
37.06,8.21,7.84,8.21,7.84,-7.84,-8.11,-8.30,0.37,0.37,0.37
37.43,8.24,7.86,8.23,7.86,-7.86,-8.12,-8.22,0.38,0.37,0.38
37.81,8.27,7.89,8.25,7.88,-7.88,-8.12,-8.14,0.39,0.37,0.37
38.19,8.29,7.92,8.27,7.90,-7.90,-8.12,-8.06,0.39,0.37,0.37
38.57,8.30,7.93,8.28,7.91,-7.91,-8.12,-7.98,0.39,0.37,0.37
38.95,8.31,7.94,8.29,7.92,-7.92,-8.12,-7.91,0.38,0.37,0.37
39.34,8.31,7.95,8.30,7.93,-7.93,-8.12,-7.84,0.38,0.37,0.36
39.74,8.31,7.95,8.30,7.94,-7.94,-8.12,-7.77,0.37,0.37,0.36
40.14,8.30,7.93,8.30,7.94,-7.94,-8.12,-7.71,0.36,0.37,0.37
40.54,8.29,7.93,8.30,7.94,-7.94,-8.12,-7.65,0.35,0.37,0.36
40.94,8.29,7.93,8.30,7.94,-7.94,-8.12,-7.60,0.35,0.36,0.36
41.35,8.29,7.93,8.30,7.94,-7.94,-8.11,-7.55,0.35,0.36,0.36
41.76,8.29,7.93,8.30,7.93,-7.93,-8.11,-7.51,0.35,0.36,0.36
42.18,8.29,7.92,8.29,7.93,-7.93,-8.10,-7.47,0.36,0.36,0.37
42.60,8.29,7.92,8.29,7.93,-7.93,-8.10,-7.43,0.36,0.36,0.36
43.03,8.29,7.92,8.29,7.93,-7.93,-8.09,-7.41,0.36,0.36,0.37
43.46,8.29,7.92,8.29,7.93,-7.93,-8.09,-7.38,0.36,0.36,0.37
43.90,8.29,7.94,8.29,7.93,-7.93,-8.08,-7.36,0.36,0.36,0.35
44.33,8.29,7.93,8.29,7.93,-7.93,-8.08,-7.35,0.36,0.36,0.36
44.78,8.29,7.94,8.29,7.93,-7.93,-8.07,-7.35,0.36,0.36,0.35
45.23,8.29,7.94,8.29,7.93,-7.93,-8.06,-7.34,0.36,0.36,0.35
45.68,8.29,7.94,8.29,7.93,-7.93,-8.05,-7.35,0.36,0.36,0.35
46.13,8.29,7.94,8.29,7.93,-7.93,-8.04,-7.36,0.36,0.36,0.35
46.60,8.29,7.93,8.29,7.93,-7.93,-8.03,-7.37,0.35,0.35,0.36
47.06,8.29,7.93,8.29,7.94,-7.94,-8.03,-7.39,0.35,0.35,0.35
47.53,8.29,7.94,8.29,7.94,-7.94,-8.02,-7.41,0.35,0.35,0.35
48.01,8.29,7.93,8.29,7.95,-7.95,-8.01,-7.44,0.34,0.34,0.36
48.49,8.29,7.94,8.29,7.96,-7.96,-8.00,-7.48,0.33,0.34,0.34
48.97,8.29,7.96,8.29,7.96,-7.96,-7.99,-7.52,0.32,0.33,0.33
49.46,8.29,7.97,8.30,7.98,-7.98,-7.97,-7.56,0.31,0.32,0.32
49.96,8.29,7.98,8.30,7.99,-7.99,-7.96,-7.61,0.30,0.31,0.30
50.46,8.29,7.98,8.30,8.00,-8.00,-7.95,-7.66,0.29,0.30,0.31
50.96,8.30,8.00,8.30,8.01,-8.01,-7.94,-7.71,0.29,0.29,0.30
51.47,8.31,8.04,8.30,8.02,-8.02,-7.93,-7.76,0.29,0.28,0.27
51.99,8.31,8.05,8.30,8.03,-8.03,-7.92,-7.82,0.28,0.27,0.26
52.51,8.31,8.05,8.30,8.04,-8.04,-7.91,-7.88,0.27,0.26,0.26
53.03,8.31,8.06,8.29,8.05,-8.05,-7.89,-7.95,0.26,0.24,0.24
53.56,8.29,8.05,8.28,8.05,-8.05,-7.88,-8.01,0.24,0.23,0.23
54.10,8.28,8.06,8.26,8.05,-8.05,-7.87,-8.08,0.23,0.21,0.21
54.64,8.26,8.05,8.24,8.04,-8.04,-7.86,-8.14,0.22,0.20,0.20
55.18,8.23,8.04,8.22,8.03,-8.03,-7.85,-8.20,0.20,0.19,0.18
55.74,8.20,8.04,8.20,8.02,-8.02,-7.83,-8.26,0.18,0.17,0.16
56.29,8.17,8.01,8.17,8.01,-8.01,-7.82,-8.32,0.16,0.16,0.16
56.86,8.14,8.00,8.14,7.99,-7.99,-7.81,-8.38,0.15,0.14,0.14
57.42,8.11,7.99,8.11,7.98,-7.98,-7.80,-8.43,0.13,0.13,0.12
58.00,8.08,7.97,8.08,7.97,-7.97,-7.79,-8.48,0.11,0.11,0.11
58.58,8.05,7.96,8.06,7.96,-7.96,-7.78,-8.53,0.08,0.09,0.09
59.16,8.02,7.94,8.04,7.96,-7.96,-7.77,-8.57,0.06,0.07,0.08
59.76,8.00,7.93,8.02,7.97,-7.97,-7.76,-8.60,0.03,0.05,0.07
60.35,7.97,7.93,8.00,7.97,-7.97,-7.75,-8.63,-0.01,0.03,0.04
60.96,7.96,7.94,7.99,7.99,-7.99,-7.74,-8.65,-0.03,0.01,0.02
61.57,7.96,7.98,7.98,8.00,-8.00,-7.73,-8.66,-0.04,-0.02,-0.02
62.18,7.96,8.01,7.97,8.02,-8.02,-7.72,-8.67,-0.06,-0.04,-0.05
62.80,7.97,8.04,7.96,8.03,-8.03,-7.71,-8.67,-0.07,-0.07,-0.07
63.43,7.98,8.08,7.96,8.05,-8.05,-7.70,-8.66,-0.07,-0.10,-0.11
64.07,7.98,8.11,7.95,8.07,-8.07,-7.70,-8.64,-0.09,-0.13,-0.13
64.71,7.97,8.13,7.94,8.09,-8.09,-7.69,-8.62,-0.12,-0.15,-0.16
65.35,7.95,8.14,7.92,8.11,-8.11,-7.68,-8.59,-0.16,-0.18,-0.19
66.01,7.92,8.13,7.91,8.12,-8.12,-7.68,-8.55,-0.20,-0.21,-0.22
66.67,7.90,8.13,7.89,8.13,-8.13,-7.67,-8.51,-0.23,-0.24,-0.24
67.33,7.87,8.13,7.86,8.14,-8.14,-7.67,-8.46,-0.27,-0.27,-0.26
68.01,7.84,8.13,7.84,8.14,-8.14,-7.67,-8.41,-0.30,-0.30,-0.29
68.69,7.81,8.13,7.81,8.14,-8.14,-7.66,-8.36,-0.33,-0.33,-0.33
69.37,7.78,8.14,7.78,8.13,-8.13,-7.66,-8.30,-0.36,-0.36,-0.36
70.07,7.75,8.14,7.75,8.13,-8.13,-7.66,-8.23,-0.38,-0.38,-0.39
70.77,7.72,8.13,7.72,8.13,-8.13,-7.66,-8.17,-0.42,-0.41,-0.41
71.48,7.69,8.12,7.70,8.14,-8.14,-7.66,-8.11,-0.45,-0.44,-0.43
72.19,7.67,8.14,7.68,8.15,-8.15,-7.67,-8.04,-0.48,-0.46,-0.47
72.91,7.65,8.14,7.67,8.16,-8.16,-7.67,-7.97,-0.51,-0.49,-0.49
73.64,7.63,8.15,7.66,8.17,-8.17,-7.67,-7.91,-0.55,-0.51,-0.52
74.38,7.62,8.15,7.65,8.19,-8.19,-7.68,-7.84,-0.57,-0.54,-0.53
75.12,7.63,8.19,7.65,8.20,-8.20,-7.69,-7.78,-0.57,-0.56,-0.56
75.87,7.64,8.21,7.64,8.22,-8.22,-7.70,-7.72,-0.58,-0.57,-0.57
76.63,7.65,8.24,7.64,8.23,-8.23,-7.70,-7.66,-0.58,-0.59,-0.59
77.40,7.66,8.27,7.63,8.24,-8.24,-7.72,-7.61,-0.58,-0.61,-0.61
78.17,7.66,8.29,7.63,8.25,-8.25,-7.73,-7.55,-0.59,-0.62,-0.63
78.95,7.65,8.29,7.62,8.25,-8.25,-7.74,-7.50,-0.60,-0.64,-0.64
79.74,7.63,8.27,7.60,8.25,-8.25,-7.75,-7.46,-0.63,-0.65,-0.65
80.54,7.61,8.26,7.59,8.25,-8.25,-7.77,-7.42,-0.64,-0.66,-0.66
81.35,7.58,8.25,7.57,8.24,-8.24,-7.79,-7.38,-0.66,-0.67,-0.67
82.16,7.55,8.23,7.55,8.22,-8.22,-7.81,-7.35,-0.68,-0.68,-0.68
82.98,7.52,8.20,7.52,8.21,-8.21,-7.83,-7.33,-0.69,-0.68,-0.68
83.81,7.49,8.18,7.49,8.18,-8.18,-7.85,-7.31,-0.69,-0.69,-0.69
84.65,7.46,8.16,7.46,8.16,-8.16,-7.87,-7.29,-0.70,-0.70,-0.71
85.50,7.43,8.13,7.43,8.13,-8.13,-7.89,-7.28,-0.70,-0.70,-0.70
86.35,7.40,8.10,7.40,8.11,-8.11,-7.92,-7.27,-0.71,-0.70,-0.70
87.22,7.37,8.08,7.38,8.08,-8.08,-7.94,-7.27,-0.71,-0.71,-0.71
88.09,7.35,8.06,7.36,8.06,-8.06,-7.97,-7.28,-0.71,-0.71,-0.71
88.97,7.33,8.04,7.34,8.05,-8.05,-8.00,-7.29,-0.72,-0.71,-0.71
89.86,7.31,8.01,7.33,8.04,-8.04,-8.03,-7.30,-0.73,-0.71,-0.70
90.76,7.30,8.02,7.32,8.03,-8.03,-8.06,-7.32,-0.73,-0.71,-0.72
91.66,7.29,8.00,7.31,8.03,-8.03,-8.09,-7.35,-0.74,-0.71,-0.72
92.58,7.30,8.02,7.31,8.03,-8.03,-8.12,-7.38,-0.73,-0.72,-0.72
93.51,7.30,8.01,7.31,8.03,-8.03,-8.16,-7.42,-0.73,-0.72,-0.71
94.44,7.31,8.03,7.31,8.04,-8.04,-8.19,-7.46,-0.73,-0.72,-0.72
95.39,7.32,8.03,7.32,8.04,-8.04,-8.22,-7.51,-0.73,-0.73,-0.72
96.34,7.33,8.06,7.32,8.05,-8.05,-8.26,-7.56,-0.72,-0.73,-0.73
97.30,7.34,8.08,7.32,8.06,-8.06,-8.29,-7.61,-0.72,-0.74,-0.74
98.28,7.34,8.09,7.32,8.07,-8.07,-8.32,-7.67,-0.73,-0.75,-0.75
99.26,7.34,8.10,7.31,8.07,-8.07,-8.36,-7.74,-0.73,-0.76,-0.76
100.25,7.33,8.10,7.31,8.07,-8.07,-8.39,-7.81,-0.75,-0.77,-0.77
101.25,7.31,8.09,7.30,8.08,-8.08,-8.42,-7.88,-0.77,-0.78,-0.78
102.27,7.29,8.09,7.28,8.08,-8.08,-8.45,-7.95,-0.79,-0.80,-0.80
103.29,7.27,8.09,7.26,8.08,-8.08,-8.48,-8.03,-0.81,-0.81,-0.82
104.32,7.24,8.06,7.24,8.07,-8.07,-8.50,-8.11,-0.84,-0.83,-0.83
105.37,7.21,8.05,7.22,8.07,-8.07,-8.52,-8.19,-0.86,-0.85,-0.85
106.42,7.18,8.05,7.19,8.07,-8.07,-8.54,-8.27,-0.89,-0.88,-0.87
107.48,7.16,8.05,7.16,8.07,-8.07,-8.56,-8.35,-0.91,-0.90,-0.89
108.56,7.13,8.06,7.14,8.07,-8.07,-8.58,-8.43,-0.94,-0.93,-0.93
109.64,7.11,8.07,7.11,8.07,-8.07,-8.59,-8.51,-0.96,-0.97,-0.96
110.74,7.08,8.07,7.08,8.08,-8.08,-8.59,-8.58,-1.00,-1.00,-0.99
111.85,7.05,8.08,7.05,8.09,-8.09,-8.59,-8.65,-1.04,-1.04,-1.03
112.97,7.02,8.10,7.02,8.10,-8.10,-8.59,-8.72,-1.08,-1.08,-1.08
114.10,6.99,8.10,7.00,8.11,-8.11,-8.58,-8.78,-1.12,-1.12,-1.11
115.24,6.96,8.11,6.97,8.12,-8.12,-8.57,-8.84,-1.17,-1.15,-1.16
116.39,6.94,8.14,6.94,8.14,-8.14,-8.55,-8.89,-1.20,-1.20,-1.20
117.55,6.90,8.14,6.91,8.15,-8.15,-8.53,-8.93,-1.25,-1.24,-1.24
118.73,6.87,8.16,6.87,8.15,-8.15,-8.50,-8.96,-1.28,-1.28,-1.29
119.92,6.84,8.16,6.84,8.15,-8.15,-8.46,-8.98,-1.32,-1.32,-1.32
121.12,6.81,8.17,6.80,8.15,-8.15,-8.42,-8.99,-1.34,-1.36,-1.36
122.33,6.77,8.17,6.75,8.15,-8.15,-8.37,-8.99,-1.38,-1.39,-1.40
123.55,6.72,8.14,6.71,8.14,-8.14,-8.32,-8.97,-1.42,-1.43,-1.43
124.79,6.67,8.13,6.65,8.12,-8.12,-8.26,-8.94,-1.45,-1.47,-1.46
126.03,6.60,8.09,6.60,8.10,-8.10,-8.19,-8.91,-1.50,-1.50,-1.50
127.29,6.54,8.07,6.54,8.07,-8.07,-8.12,-8.85,-1.53,-1.53,-1.53
128.57,6.47,8.04,6.47,8.04,-8.04,-8.05,-8.79,-1.57,-1.56,-1.57
129.85,6.39,7.99,6.40,7.99,-7.99,-7.97,-8.71,-1.61,-1.60,-1.60
131.15,6.32,7.95,6.32,7.95,-7.95,-7.88,-8.62,-1.63,-1.62,-1.63
132.46,6.24,7.89,6.24,7.89,-7.89,-7.79,-8.52,-1.66,-1.65,-1.65
133.79,6.16,7.83,6.16,7.84,-7.84,-7.70,-8.41,-1.68,-1.68,-1.68
135.12,6.07,7.78,6.07,7.77,-7.77,-7.60,-8.29,-1.70,-1.71,-1.71
136.48,5.98,7.71,5.97,7.70,-7.70,-7.50,-8.17,-1.72,-1.73,-1.73
137.84,5.88,7.64,5.87,7.63,-7.63,-7.40,-8.03,-1.75,-1.76,-1.76
139.22,5.77,7.56,5.77,7.55,-7.55,-7.29,-7.89,-1.78,-1.78,-1.79
140.61,5.67,7.49,5.66,7.47,-7.47,-7.18,-7.75,-1.80,-1.80,-1.82
142.02,5.56,7.38,5.55,7.38,-7.38,-7.07,-7.59,-1.82,-1.83,-1.83
143.44,5.44,7.28,5.44,7.29,-7.29,-6.96,-7.44,-1.85,-1.85,-1.84
144.87,5.32,7.19,5.32,7.20,-7.20,-6.85,-7.28,-1.88,-1.87,-1.87
146.32,5.20,7.10,5.20,7.10,-7.10,-6.73,-7.12,-1.90,-1.90,-1.90
147.78,5.08,6.99,5.08,7.00,-7.00,-6.62,-6.96,-1.93,-1.93,-1.91
149.26,4.95,6.89,4.95,6.90,-6.90,-6.50,-6.80,-1.96,-1.95,-1.94
150.75,4.82,6.80,4.82,6.80,-6.80,-6.39,-6.64,-1.98,-1.98,-1.98
152.26,4.69,6.70,4.69,6.70,-6.70,-6.27,-6.47,-2.01,-2.01,-2.01
153.78,4.56,6.59,4.56,6.59,-6.59,-6.16,-6.31,-2.04,-2.04,-2.03
155.32,4.43,6.50,4.42,6.49,-6.49,-6.04,-6.15,-2.06,-2.07,-2.08
156.88,4.28,6.38,4.28,6.38,-6.38,-5.93,-6.00,-2.10,-2.10,-2.10
158.44,4.14,6.27,4.14,6.27,-6.27,-5.81,-5.84,-2.13,-2.13,-2.13
160.03,4.00,6.17,3.99,6.16,-6.16,-5.70,-5.69,-2.16,-2.17,-2.17
161.63,3.86,6.07,3.85,6.05,-6.05,-5.59,-5.53,-2.19,-2.20,-2.21
163.24,3.71,5.95,3.70,5.94,-5.94,-5.48,-5.39,-2.23,-2.24,-2.24
164.88,3.56,5.83,3.55,5.83,-5.83,-5.37,-5.24,-2.27,-2.28,-2.27
166.53,3.40,5.71,3.41,5.72,-5.72,-5.27,-5.10,-2.32,-2.31,-2.31
168.19,3.25,5.60,3.26,5.61,-5.61,-5.16,-4.96,-2.36,-2.35,-2.35
169.87,3.10,5.49,3.11,5.50,-5.50,-5.06,-4.82,-2.40,-2.39,-2.39
171.57,2.96,5.38,2.96,5.40,-5.40,-4.95,-4.69,-2.44,-2.43,-2.43
173.29,2.82,5.29,2.82,5.29,-5.29,-4.85,-4.55,-2.47,-2.48,-2.47
175.02,2.67,5.18,2.67,5.19,-5.19,-4.76,-4.43,-2.53,-2.52,-2.51
176.77,2.52,5.08,2.53,5.09,-5.09,-4.66,-4.30,-2.58,-2.57,-2.57
178.54,2.38,4.99,2.39,5.00,-5.00,-4.56,-4.18,-2.62,-2.61,-2.61
180.32,2.25,4.91,2.24,4.90,-4.90,-4.47,-4.06,-2.65,-2.66,-2.66
182.13,2.11,4.81,2.10,4.81,-4.81,-4.38,-3.95,-2.70,-2.71,-2.70
183.95,1.96,4.71,1.96,4.72,-4.72,-4.29,-3.84,-2.76,-2.75,-2.76
185.79,1.82,4.62,1.82,4.62,-4.62,-4.20,-3.73,-2.81,-2.80,-2.80
187.65,1.68,4.54,1.68,4.53,-4.53,-4.11,-3.62,-2.85,-2.85,-2.86
189.52,1.55,4.45,1.54,4.44,-4.44,-4.03,-3.52,-2.89,-2.90,-2.91
191.42,1.41,4.36,1.39,4.34,-4.34,-3.94,-3.41,-2.93,-2.95,-2.95
193.33,1.26,4.25,1.25,4.24,-4.24,-3.86,-3.32,-2.99,-2.99,-2.99
195.27,1.11,4.14,1.11,4.15,-4.15,-3.78,-3.22,-3.04,-3.04,-3.03
197.22,0.96,4.04,0.96,4.05,-4.05,-3.70,-3.13,-3.09,-3.08,-3.08
199.19,0.82,3.95,0.82,3.94,-3.94,-3.63,-3.04,-3.13,-3.13,-3.13
201.18,0.68,3.85,0.67,3.84,-3.84,-3.55,-2.95,-3.16,-3.17,-3.17
203.19,0.53,3.73,0.53,3.74,-3.74,-3.48,-2.86,-3.21,-3.21,-3.21
205.23,0.38,3.63,0.38,3.63,-3.63,-3.41,-2.78,-3.25,-3.25,-3.25
207.28,0.24,3.51,0.24,3.53,-3.53,-3.34,-2.70,-3.29,-3.29,-3.27
209.35,0.09,3.41,0.09,3.42,-3.42,-3.27,-2.62,-3.33,-3.33,-3.32
211.44,-0.05,3.32,-0.05,3.31,-3.31,-3.20,-2.54,-3.36,-3.36,-3.37
213.56,-0.19,3.21,-0.19,3.20,-3.20,-3.14,-2.47,-3.40,-3.40,-3.40
215.69,-0.33,3.09,-0.33,3.10,-3.10,-3.07,-2.40,-3.43,-3.43,-3.42
217.85,-0.48,2.98,-0.47,2.99,-2.99,-3.01,-2.33,-3.47,-3.46,-3.46
220.03,-0.61,2.88,-0.61,2.88,-2.88,-2.95,-2.26,-3.49,-3.49,-3.49
222.23,-0.74,2.78,-0.74,2.77,-2.77,-2.89,-2.19,-3.51,-3.51,-3.52
224.45,-0.87,2.67,-0.88,2.66,-2.66,-2.83,-2.13,-3.53,-3.54,-3.54
226.70,-1.01,2.55,-1.01,2.55,-2.55,-2.77,-2.06,-3.56,-3.56,-3.56
228.96,-1.13,2.45,-1.14,2.44,-2.44,-2.72,-2.00,-3.57,-3.58,-3.58
231.25,-1.25,2.34,-1.26,2.33,-2.33,-2.66,-1.94,-3.59,-3.59,-3.59
233.57,-1.37,2.23,-1.38,2.23,-2.23,-2.61,-1.88,-3.60,-3.61,-3.61
235.90,-1.50,2.12,-1.50,2.12,-2.12,-2.56,-1.83,-3.62,-3.62,-3.62
238.26,-1.62,2.01,-1.61,2.01,-2.01,-2.50,-1.77,-3.63,-3.62,-3.63
240.64,-1.73,1.90,-1.72,1.91,-1.91,-2.45,-1.72,-3.64,-3.63,-3.63
243.05,-1.83,1.80,-1.83,1.80,-1.80,-2.41,-1.67,-3.64,-3.63,-3.63
245.48,-1.94,1.69,-1.93,1.70,-1.70,-2.36,-1.62,-3.64,-3.63,-3.63
247.93,-2.03,1.60,-2.03,1.60,-1.60,-2.31,-1.57,-3.63,-3.63,-3.63
250.41,-2.12,1.51,-2.12,1.50,-1.50,-2.26,-1.52,-3.63,-3.62,-3.63
252.92,-2.20,1.42,-2.21,1.41,-1.41,-2.22,-1.47,-3.61,-3.62,-3.62
255.45,-2.29,1.31,-2.29,1.32,-1.32,-2.18,-1.43,-3.61,-3.61,-3.60
258.00,-2.37,1.22,-2.37,1.22,-1.22,-2.13,-1.38,-3.60,-3.60,-3.60
260.58,-2.45,1.14,-2.45,1.14,-1.14,-2.09,-1.34,-3.59,-3.59,-3.59
263.19,-2.53,1.04,-2.52,1.05,-1.05,-2.05,-1.30,-3.58,-3.57,-3.57
265.82,-2.60,0.97,-2.59,0.97,-0.97,-2.01,-1.26,-3.57,-3.56,-3.57
268.48,-2.66,0.88,-2.66,0.88,-0.88,-1.97,-1.22,-3.55,-3.55,-3.54
271.16,-2.72,0.80,-2.73,0.80,-0.80,-1.93,-1.18,-3.53,-3.53,-3.53
273.87,-2.78,0.74,-2.79,0.73,-0.73,-1.90,-1.14,-3.51,-3.52,-3.52
276.61,-2.84,0.65,-2.85,0.65,-0.65,-1.86,-1.10,-3.49,-3.50,-3.49
279.38,-2.90,0.58,-2.91,0.58,-0.58,-1.82,-1.07,-3.48,-3.49,-3.49
282.17,-2.96,0.51,-2.96,0.51,-0.51,-1.79,-1.03,-3.47,-3.47,-3.47
284.99,-3.02,0.43,-3.01,0.44,-0.44,-1.75,-1.00,-3.46,-3.46,-3.45
287.84,-3.07,0.37,-3.06,0.37,-0.37,-1.72,-0.96,-3.45,-3.44,-3.44
290.72,-3.12,0.31,-3.12,0.31,-0.31,-1.69,-0.93,-3.43,-3.42,-3.43
293.63,-3.16,0.25,-3.16,0.24,-0.24,-1.66,-0.90,-3.41,-3.41,-3.41
296.57,-3.20,0.19,-3.21,0.18,-0.18,-1.63,-0.87,-3.38,-3.39,-3.39
299.53,-3.25,0.13,-3.26,0.12,-0.12,-1.60,-0.83,-3.37,-3.38,-3.38
302.53,-3.30,0.07,-3.31,0.06,-0.06,-1.57,-0.80,-3.36,-3.37,-3.38
305.55,-3.35,-0.00,-3.35,0.00,-0.00,-1.54,-0.77,-3.35,-3.35,-3.35
308.61,-3.39,-0.05,-3.40,-0.05,0.05,-1.51,-0.74,-3.34,-3.34,-3.34
311.69,-3.43,-0.10,-3.44,-0.11,0.11,-1.48,-0.71,-3.32,-3.33,-3.33
314.81,-3.47,-0.17,-3.48,-0.16,0.16,-1.45,-0.68,-3.31,-3.32,-3.30
317.96,-3.52,-0.21,-3.51,-0.20,0.20,-1.43,-0.65,-3.32,-3.31,-3.31
321.14,-3.56,-0.26,-3.55,-0.25,0.25,-1.40,-0.62,-3.31,-3.30,-3.30
324.35,-3.59,-0.29,-3.58,-0.29,0.29,-1.38,-0.59,-3.30,-3.29,-3.30
327.59,-3.62,-0.34,-3.62,-0.33,0.33,-1.35,-0.56,-3.29,-3.29,-3.28
330.87,-3.64,-0.36,-3.64,-0.36,0.36,-1.33,-0.54,-3.28,-3.28,-3.28
334.18,-3.66,-0.38,-3.66,-0.39,0.39,-1.30,-0.51,-3.27,-3.28,-3.29
337.52,-3.68,-0.41,-3.68,-0.41,0.41,-1.28,-0.48,-3.27,-3.27,-3.28
340.90,-3.70,-0.43,-3.70,-0.42,0.42,-1.26,-0.45,-3.28,-3.27,-3.27
344.30,-3.72,-0.45,-3.71,-0.44,0.44,-1.24,-0.42,-3.29,-3.27,-3.27
347.75,-3.73,-0.46,-3.72,-0.44,0.44,-1.22,-0.39,-3.29,-3.27,-3.27
351.23,-3.73,-0.46,-3.72,-0.45,0.45,-1.19,-0.37,-3.28,-3.27,-3.27
354.74,-3.73,-0.46,-3.72,-0.45,0.45,-1.17,-0.34,-3.28,-3.28,-3.27
358.28,-3.72,-0.44,-3.73,-0.45,0.45,-1.15,-0.31,-3.28,-3.28,-3.28
361.87,-3.72,-0.44,-3.73,-0.44,0.44,-1.14,-0.28,-3.28,-3.28,-3.29
365.49,-3.71,-0.43,-3.72,-0.44,0.44,-1.12,-0.26,-3.28,-3.29,-3.29
369.14,-3.71,-0.41,-3.72,-0.43,0.43,-1.10,-0.23,-3.28,-3.29,-3.30
372.83,-3.71,-0.41,-3.72,-0.42,0.42,-1.08,-0.20,-3.29,-3.30,-3.30
376.56,-3.71,-0.40,-3.72,-0.41,0.41,-1.06,-0.17,-3.30,-3.31,-3.31
380.33,-3.71,-0.40,-3.71,-0.40,0.40,-1.05,-0.15,-3.31,-3.32,-3.31
384.13,-3.71,-0.39,-3.71,-0.39,0.39,-1.03,-0.12,-3.32,-3.32,-3.32
387.97,-3.71,-0.38,-3.71,-0.38,0.38,-1.01,-0.09,-3.33,-3.33,-3.33
391.85,-3.71,-0.37,-3.71,-0.37,0.37,-1.00,-0.07,-3.34,-3.33,-3.34
395.77,-3.71,-0.38,-3.71,-0.37,0.37,-0.98,-0.04,-3.34,-3.34,-3.33
399.73,-3.71,-0.37,-3.71,-0.36,0.36,-0.97,-0.02,-3.35,-3.35,-3.34
403.72,-3.71,-0.36,-3.71,-0.36,0.36,-0.96,0.01,-3.35,-3.35,-3.36
407.76,-3.71,-0.35,-3.72,-0.36,0.36,-0.94,0.03,-3.35,-3.36,-3.37
411.84,-3.71,-0.36,-3.72,-0.36,0.36,-0.93,0.06,-3.35,-3.36,-3.36
415.96,-3.71,-0.34,-3.72,-0.36,0.36,-0.92,0.08,-3.36,-3.37,-3.37
420.12,-3.71,-0.34,-3.72,-0.35,0.35,-0.90,0.11,-3.36,-3.37,-3.37
424.32,-3.71,-0.34,-3.72,-0.35,0.35,-0.89,0.13,-3.36,-3.37,-3.37
428.56,-3.72,-0.34,-3.73,-0.35,0.35,-0.88,0.15,-3.37,-3.37,-3.38
432.85,-3.73,-0.35,-3.72,-0.35,0.35,-0.87,0.17,-3.38,-3.38,-3.38
437.18,-3.73,-0.35,-3.72,-0.35,0.35,-0.86,0.19,-3.39,-3.38,-3.38
441.55,-3.73,-0.36,-3.72,-0.34,0.34,-0.85,0.21,-3.39,-3.38,-3.37
445.96,-3.72,-0.35,-3.71,-0.34,0.34,-0.84,0.22,-3.39,-3.37,-3.37
450.42,-3.71,-0.33,-3.70,-0.33,0.33,-0.83,0.24,-3.38,-3.37,-3.38
454.93,-3.69,-0.32,-3.69,-0.32,0.32,-0.82,0.25,-3.38,-3.37,-3.37
459.48,-3.66,-0.29,-3.67,-0.30,0.30,-0.81,0.27,-3.36,-3.37,-3.37
464.07,-3.64,-0.28,-3.65,-0.28,0.28,-0.80,0.28,-3.36,-3.36,-3.36
468.71,-3.62,-0.27,-3.62,-0.26,0.26,-0.80,0.28,-3.36,-3.36,-3.35
473.40,-3.60,-0.25,-3.59,-0.24,0.24,-0.79,0.29,-3.36,-3.35,-3.35
