frequency,raw,error,smoothed,error_smoothed,equalization,parametric_eq,fixed_band_eq,equalized_raw,equalized_smoothed,target
20.00,-5.70,-7.70,-5.66,-7.67,6.00,5.68,2.28,0.30,0.34,2.00
20.20,-5.61,-7.65,-5.59,-7.63,6.00,5.75,2.34,0.39,0.41,2.04
20.40,-5.51,-7.57,-5.51,-7.58,6.00,5.81,2.41,0.49,0.49,2.07
20.61,-5.42,-7.52,-5.44,-7.54,6.00,5.88,2.48,0.58,0.56,2.09
20.81,-5.32,-7.45,-5.36,-7.49,6.00,5.94,2.55,0.68,0.64,2.13
21.02,-5.24,-7.41,-5.29,-7.44,6.00,6.00,2.63,0.76,0.71,2.17
21.23,-5.18,-7.36,-5.21,-7.38,6.00,6.06,2.70,0.82,0.79,2.18
21.44,-5.13,-7.33,-5.14,-7.33,6.00,6.11,2.78,0.87,0.86,2.20
21.66,-5.08,-7.30,-5.06,-7.27,6.00,6.16,2.86,0.92,0.94,2.22
21.87,-5.03,-7.26,-4.99,-7.21,6.00,6.20,2.95,0.97,1.01,2.23
22.09,-4.96,-7.21,-4.91,-7.16,6.00,6.24,3.03,1.04,1.09,2.25
22.31,-4.86,-7.11,-4.84,-7.09,6.00,6.27,3.12,1.14,1.16,2.25
22.54,-4.76,-7.02,-4.77,-7.03,6.00,6.30,3.21,1.24,1.23,2.26
22.76,-4.66,-6.93,-4.69,-6.97,6.00,6.33,3.31,1.34,1.31,2.27
22.99,-4.56,-6.83,-4.62,-6.90,6.00,6.35,3.40,1.44,1.38,2.27
23.22,-4.51,-6.79,-4.54,-6.83,6.00,6.36,3.50,1.49,1.46,2.28
23.45,-4.45,-6.74,-4.46,-6.76,6.00,6.37,3.60,1.55,1.54,2.29
23.69,-4.40,-6.70,-4.38,-6.68,6.00,6.37,3.70,1.60,1.62,2.30
23.92,-4.35,-6.66,-4.29,-6.60,6.00,6.37,3.81,1.65,1.71,2.31
24.16,-4.26,-6.58,-4.21,-6.52,6.00,6.36,3.91,1.74,1.79,2.32
24.40,-4.16,-6.49,-4.13,-6.44,6.00,6.34,4.02,1.84,1.87,2.33
24.65,-4.06,-6.38,-4.05,-6.37,6.00,6.33,4.13,1.94,1.95,2.32
24.89,-3.95,-6.27,-3.98,-6.30,6.00,6.30,4.24,2.05,2.02,2.32
25.14,-3.87,-6.19,-3.91,-6.23,6.00,6.27,4.35,2.13,2.09,2.32
25.39,-3.81,-6.13,-3.83,-6.16,5.99,6.23,4.46,2.18,2.16,2.32
25.65,-3.74,-6.06,-3.76,-6.08,5.97,6.19,4.57,2.23,2.21,2.32
25.91,-3.67,-5.98,-3.69,-6.01,5.94,6.15,4.69,2.27,2.25,2.31
26.16,-3.61,-5.92,-3.62,-5.93,5.90,6.10,4.80,2.29,2.28,2.32
26.43,-3.55,-5.87,-3.55,-5.87,5.85,6.05,4.91,2.30,2.30,2.32
26.69,-3.49,-5.80,-3.49,-5.80,5.80,5.99,5.02,2.31,2.31,2.31
26.96,-3.43,-5.74,-3.43,-5.74,5.74,5.93,5.13,2.31,2.31,2.31
27.23,-3.37,-5.68,-3.37,-5.68,5.68,5.86,5.23,2.31,2.31,2.31
27.50,-3.30,-5.61,-3.30,-5.61,5.61,5.79,5.33,2.31,2.31,2.31
27.77,-3.24,-5.54,-3.23,-5.54,5.54,5.72,5.43,2.30,2.31,2.30
28.05,-3.18,-5.48,-3.16,-5.46,5.46,5.65,5.52,2.28,2.30,2.30
28.33,-3.11,-5.40,-3.08,-5.39,5.39,5.57,5.61,2.28,2.30,2.29
28.62,-3.05,-5.35,-3.01,-5.31,5.31,5.49,5.69,2.26,2.30,2.30
28.90,-2.98,-5.28,-2.93,-5.23,5.23,5.41,5.76,2.25,2.30,2.30
29.19,-2.88,-5.17,-2.84,-5.14,5.14,5.32,5.83,2.26,2.30,2.29
29.48,-2.75,-5.05,-2.76,-5.05,5.05,5.24,5.89,2.30,2.29,2.30
29.78,-2.62,-4.92,-2.67,-4.96,4.96,5.15,5.94,2.34,2.29,2.30
30.08,-2.52,-4.82,-2.59,-4.87,4.87,5.06,5.98,2.35,2.29,2.29
30.38,-2.46,-4.74,-2.50,-4.78,4.78,4.98,6.00,2.32,2.28,2.28
30.68,-2.41,-4.69,-2.41,-4.69,4.69,4.89,6.02,2.28,2.28,2.28
30.99,-2.35,-4.62,-2.32,-4.59,4.59,4.80,6.03,2.24,2.27,2.27
31.30,-2.26,-4.53,-2.23,-4.50,4.50,4.71,6.02,2.24,2.27,2.27
31.61,-2.17,-4.44,-2.15,-4.41,4.41,4.61,6.01,2.24,2.27,2.27
31.93,-2.07,-4.33,-2.07,-4.33,4.33,4.52,5.98,2.26,2.26,2.26
32.24,-2.00,-4.25,-2.00,-4.25,4.25,4.43,5.94,2.26,2.26,2.25
32.57,-1.93,-4.18,-1.94,-4.19,4.19,4.34,5.89,2.26,2.25,2.24
32.89,-1.86,-4.10,-1.88,-4.12,4.12,4.25,5.83,2.26,2.25,2.24
33.22,-1.79,-4.03,-1.82,-4.06,4.06,4.16,5.76,2.27,2.24,2.24
33.55,-1.71,-3.95,-1.76,-4.00,4.00,4.07,5.69,2.29,2.24,2.24
33.89,-1.63,-3.87,-1.70,-3.94,3.94,3.98,5.60,2.31,2.23,2.24
34.23,-1.60,-3.84,-1.64,-3.87,3.87,3.90,5.51,2.27,2.23,2.24
34.57,-1.60,-3.83,-1.58,-3.81,3.81,3.81,5.41,2.21,2.23,2.23
34.92,-1.60,-3.82,-1.52,-3.74,3.74,3.72,5.30,2.14,2.22,2.22
35.27,-1.54,-3.76,-1.46,-3.67,3.67,3.63,5.19,2.13,2.22,2.22
35.62,-1.46,-3.67,-1.40,-3.61,3.61,3.55,5.07,2.15,2.21,2.21
35.97,-1.38,-3.59,-1.34,-3.55,3.55,3.46,4.95,2.17,2.21,2.21
36.33,-1.29,-3.49,-1.29,-3.49,3.49,3.38,4.83,2.20,2.20,2.20
36.70,-1.21,-3.41,-1.23,-3.43,3.43,3.30,4.70,2.22,2.20,2.20
37.06,-1.13,-3.32,-1.17,-3.36,3.36,3.22,4.57,2.23,2.19,2.19
37.43,-1.04,-3.23,-1.10,-3.29,3.29,3.14,4.44,2.25,2.19,2.19
37.81,-0.95,-3.14,-1.03,-3.21,3.21,3.06,4.31,2.26,2.18,2.19
38.19,-0.91,-3.08,-0.96,-3.14,3.14,2.98,4.18,2.23,2.18,2.17
38.57,-0.91,-3.08,-0.89,-3.07,3.07,2.90,4.05,2.16,2.17,2.17
38.95,-0.91,-3.08,-0.83,-2.99,2.99,2.82,3.91,2.08,2.17,2.17
39.34,-0.83,-2.98,-0.76,-2.92,2.92,2.75,3.78,2.10,2.16,2.15
39.74,-0.74,-2.88,-0.70,-2.86,2.86,2.67,3.65,2.12,2.16,2.14
40.14,-0.65,-2.80,-0.65,-2.80,2.80,2.60,3.52,2.15,2.15,2.15
40.54,-0.56,-2.71,-0.60,-2.74,2.74,2.53,3.39,2.18,2.14,2.14
40.94,-0.47,-2.61,-0.54,-2.68,2.68,2.46,3.27,2.21,2.13,2.14
41.35,-0.46,-2.59,-0.49,-2.61,2.61,2.39,3.14,2.15,2.12,2.13
41.76,-0.46,-2.57,-0.44,-2.54,2.54,2.32,3.02,2.08,2.10,2.11
42.18,-0.42,-2.52,-0.39,-2.47,2.47,2.25,2.90,2.05,2.08,2.10
42.60,-0.32,-2.39,-0.33,-2.39,2.39,2.18,2.78,2.08,2.06,2.08
43.03,-0.23,-2.29,-0.27,-2.31,2.31,2.11,2.66,2.08,2.04,2.06
43.46,-0.23,-2.27,-0.22,-2.23,2.23,2.05,2.54,2.00,2.02,2.04
43.90,-0.23,-2.22,-0.17,-2.16,2.16,1.98,2.43,1.93,2.00,1.99
44.33,-0.15,-2.12,-0.12,-2.10,2.10,1.92,2.31,1.95,1.97,1.97
44.78,-0.05,-1.98,-0.08,-2.03,2.03,1.86,2.20,1.98,1.95,1.93
45.23,-0.00,-1.91,-0.03,-1.95,1.95,1.79,2.09,1.95,1.92,1.91
45.68,0.00,-1.88,0.02,-1.88,1.88,1.73,1.99,1.88,1.90,1.88
46.13,0.03,-1.84,0.07,-1.81,1.81,1.67,1.88,1.84,1.88,1.87
46.60,0.14,-1.72,0.12,-1.75,1.75,1.61,1.78,1.89,1.87,1.86
47.06,0.23,-1.62,0.17,-1.69,1.69,1.55,1.67,1.92,1.85,1.85
47.53,0.23,-1.61,0.21,-1.63,1.63,1.49,1.57,1.86,1.85,1.84
48.01,0.23,-1.61,0.26,-1.58,1.58,1.43,1.48,1.81,1.84,1.84
48.49,0.29,-1.55,0.31,-1.53,1.53,1.38,1.38,1.82,1.84,1.84
48.97,0.36,-1.47,0.35,-1.49,1.49,1.32,1.28,1.85,1.84,1.83
49.46,0.41,-1.41,0.40,-1.44,1.44,1.26,1.19,1.85,1.84,1.82
49.96,0.46,-1.37,0.45,-1.39,1.39,1.21,1.10,1.85,1.84,1.83
50.46,0.48,-1.36,0.50,-1.34,1.34,1.15,1.01,1.82,1.84,1.84
50.96,0.50,-1.35,0.55,-1.29,1.29,1.09,0.92,1.79,1.84,1.85
51.47,0.59,-1.25,0.59,-1.24,1.24,1.04,0.83,1.83,1.83,1.84
51.99,0.68,-1.15,0.64,-1.18,1.18,0.98,0.75,1.86,1.82,1.83
52.51,0.68,-1.14,0.69,-1.11,1.11,0.93,0.66,1.79,1.80,1.82
53.03,0.69,-1.11,0.74,-1.04,1.04,0.87,0.58,1.73,1.78,1.81
53.56,0.81,-0.97,0.79,-0.97,0.97,0.82,0.50,1.78,1.76,1.78
54.10,0.91,-0.83,0.83,-0.90,0.90,0.76,0.43,1.81,1.73,1.74
54.64,0.91,-0.79,0.88,-0.82,0.82,0.71,0.35,1.73,1.69,1.70
55.18,0.91,-0.75,0.93,-0.73,0.73,0.65,0.28,1.64,1.65,1.66
55.74,0.91,-0.69,0.98,-0.64,0.64,0.59,0.20,1.55,1.61,1.60
56.29,0.98,-0.58,1.03,-0.54,0.54,0.53,0.14,1.52,1.56,1.56
56.86,1.11,-0.40,1.07,-0.44,0.44,0.48,0.07,1.55,1.51,1.51
57.42,1.14,-0.31,1.10,-0.36,0.36,0.42,0.00,1.50,1.46,1.45
58.00,1.14,-0.26,1.14,-0.26,0.26,0.36,-0.06,1.40,1.40,1.40
58.58,1.14,-0.20,1.18,-0.17,0.17,0.29,-0.12,1.31,1.35,1.34
59.16,1.18,-0.12,1.22,-0.07,0.07,0.23,-0.18,1.25,1.29,1.30
59.76,1.31,0.06,1.26,0.02,-0.02,0.16,-0.23,1.28,1.24,1.25
60.35,1.36,0.18,1.30,0.12,-0.12,0.09,-0.29,1.24,1.19,1.18
60.96,1.37,0.23,1.35,0.21,-0.21,0.02,-0.34,1.16,1.13,1.14
61.57,1.37,0.30,1.38,0.30,-0.30,-0.05,-0.39,1.07,1.08,1.07
62.18,1.37,0.35,1.41,0.38,-0.38,-0.13,-0.43,0.99,1.03,1.02
62.80,1.37,0.39,1.45,0.46,-0.46,-0.22,-0.48,0.91,0.99,0.98
63.43,1.47,0.53,1.48,0.54,-0.54,-0.30,-0.52,0.93,0.94,0.94
64.07,1.60,0.70,1.52,0.61,-0.61,-0.40,-0.55,0.98,0.90,0.90
64.71,1.60,0.74,1.56,0.69,-0.69,-0.50,-0.59,0.91,0.87,0.86
65.35,1.60,0.78,1.59,0.76,-0.76,-0.60,-0.62,0.84,0.83,0.82
66.01,1.60,0.80,1.63,0.82,-0.82,-0.71,-0.66,0.78,0.80,0.80
66.67,1.60,0.83,1.65,0.88,-0.88,-0.82,-0.69,0.72,0.77,0.77
67.33,1.63,0.88,1.69,0.94,-0.94,-0.93,-0.71,0.69,0.75,0.75
68.01,1.69,0.96,1.72,0.99,-0.99,-1.04,-0.74,0.70,0.73,0.73
68.69,1.78,1.07,1.74,1.03,-1.03,-1.14,-0.77,0.75,0.71,0.71
69.37,1.82,1.14,1.75,1.07,-1.07,-1.22,-0.79,0.75,0.69,0.68
70.07,1.82,1.16,1.77,1.10,-1.10,-1.30,-0.81,0.72,0.67,0.66
70.77,1.82,1.16,1.78,1.13,-1.13,-1.35,-0.83,0.69,0.65,0.66
71.48,1.82,1.18,1.79,1.16,-1.16,-1.38,-0.85,0.66,0.63,0.64
72.19,1.82,1.20,1.82,1.20,-1.20,-1.38,-0.87,0.62,0.61,0.62
72.91,1.82,1.22,1.84,1.24,-1.24,-1.37,-0.89,0.58,0.59,0.60
73.64,1.82,1.24,1.86,1.28,-1.28,-1.35,-0.91,0.54,0.58,0.58
74.38,1.82,1.25,1.88,1.32,-1.32,-1.32,-0.93,0.50,0.56,0.57
75.12,1.82,1.28,1.90,1.36,-1.36,-1.28,-0.95,0.46,0.54,0.54
75.87,1.82,1.29,1.93,1.40,-1.40,-1.25,-0.97,0.42,0.53,0.53
76.63,1.93,1.42,1.95,1.43,-1.43,-1.21,-0.98,0.50,0.52,0.51
77.40,2.02,1.52,1.97,1.47,-1.47,-1.18,-1.00,0.55,0.50,0.50
78.17,2.05,1.57,1.99,1.50,-1.50,-1.16,-1.02,0.55,0.49,0.48
78.95,2.05,1.57,2.02,1.53,-1.53,-1.14,-1.04,0.52,0.49,0.48
79.74,2.05,1.56,2.04,1.56,-1.56,-1.13,-1.06,0.49,0.48,0.49
80.54,2.05,1.58,2.06,1.58,-1.58,-1.13,-1.08,0.47,0.48,0.47
81.35,2.05,1.58,2.06,1.57,-1.57,-1.12,-1.10,0.48,0.49,0.47
82.16,2.05,1.57,2.05,1.56,-1.56,-1.13,-1.12,0.49,0.49,0.48
82.98,2.05,1.55,2.02,1.52,-1.52,-1.13,-1.14,0.53,0.50,0.50
83.81,2.05,1.54,1.97,1.46,-1.46,-1.14,-1.17,0.59,0.51,0.51
84.65,1.90,1.38,1.91,1.38,-1.38,-1.16,-1.19,0.52,0.53,0.52
85.50,1.82,1.28,1.82,1.27,-1.27,-1.17,-1.22,0.55,0.54,0.54
86.35,1.82,1.26,1.71,1.15,-1.15,-1.19,-1.24,0.67,0.56,0.56
87.22,1.76,1.19,1.60,1.02,-1.02,-1.21,-1.27,0.74,0.58,0.57
88.09,1.53,0.94,1.48,0.88,-0.88,-1.23,-1.30,0.65,0.59,0.59
88.97,1.38,0.76,1.35,0.74,-0.74,-1.26,-1.33,0.64,0.61,0.62
89.86,1.21,0.57,1.23,0.60,-0.60,-1.28,-1.36,0.61,0.63,0.64
90.76,1.13,0.49,1.12,0.48,-0.48,-1.31,-1.39,0.65,0.64,0.64
91.66,0.98,0.31,1.02,0.37,-0.37,-1.34,-1.42,0.61,0.65,0.67
92.58,0.83,0.17,0.94,0.27,-0.27,-1.36,-1.46,0.56,0.66,0.66
93.51,0.73,0.05,0.87,0.20,-0.20,-1.39,-1.49,0.53,0.67,0.68
94.44,0.68,-0.00,0.82,0.15,-0.15,-1.42,-1.53,0.53,0.68,0.68
95.39,0.68,-0.01,0.79,0.11,-0.11,-1.46,-1.57,0.57,0.68,0.69
96.34,0.72,0.05,0.79,0.11,-0.11,-1.49,-1.60,0.61,0.68,0.67
97.30,0.83,0.16,0.82,0.14,-0.14,-1.52,-1.64,0.69,0.67,0.67
98.28,0.91,0.25,0.87,0.20,-0.20,-1.55,-1.68,0.71,0.67,0.66
99.26,0.97,0.32,0.94,0.29,-0.29,-1.59,-1.72,0.68,0.66,0.65
100.25,1.13,0.49,1.03,0.39,-0.39,-1.62,-1.76,0.74,0.64,0.64
101.25,1.14,0.52,1.13,0.51,-0.51,-1.66,-1.80,0.63,0.62,0.62
102.27,1.17,0.57,1.25,0.65,-0.65,-1.69,-1.85,0.52,0.60,0.60
103.29,1.29,0.72,1.36,0.79,-0.79,-1.73,-1.89,0.50,0.57,0.57
104.32,1.42,0.87,1.47,0.92,-0.92,-1.76,-1.93,0.50,0.54,0.56
105.37,1.60,1.07,1.56,1.05,-1.05,-1.80,-1.97,0.54,0.51,0.53
106.42,1.79,1.30,1.66,1.19,-1.19,-1.83,-2.02,0.60,0.47,0.49
107.48,1.82,1.38,1.74,1.32,-1.32,-1.87,-2.06,0.50,0.43,0.44
108.56,1.82,1.44,1.82,1.45,-1.45,-1.91,-2.10,0.37,0.38,0.38
109.64,1.97,1.64,1.89,1.57,-1.57,-1.94,-2.14,0.40,0.33,0.33
110.74,2.05,1.77,1.96,1.68,-1.68,-1.98,-2.18,0.37,0.27,0.28
111.85,2.05,1.82,2.02,1.80,-1.80,-2.02,-2.22,0.25,0.22,0.23
112.97,2.05,1.89,2.08,1.92,-1.92,-2.06,-2.26,0.13,0.17,0.16
114.10,2.05,1.94,2.13,2.02,-2.02,-2.09,-2.30,0.03,0.11,0.11
115.24,2.08,2.02,2.18,2.12,-2.12,-2.13,-2.34,-0.04,0.06,0.06
116.39,2.21,2.21,2.22,2.21,-2.21,-2.17,-2.37,0.00,0.01,-0.00
117.55,2.28,2.33,2.25,2.29,-2.29,-2.21,-2.40,-0.01,-0.03,-0.05
118.73,2.28,2.38,2.29,2.36,-2.36,-2.25,-2.43,-0.08,-0.07,-0.10
119.92,2.28,2.41,2.33,2.44,-2.44,-2.28,-2.46,-0.16,-0.11,-0.13
121.12,2.29,2.45,2.37,2.51,-2.51,-2.32,-2.49,-0.22,-0.14,-0.16
122.33,2.43,2.62,2.39,2.57,-2.57,-2.36,-2.51,-0.14,-0.17,-0.19
123.55,2.51,2.70,2.42,2.62,-2.62,-2.40,-2.54,-0.11,-0.20,-0.19
124.79,2.51,2.73,2.46,2.68,-2.68,-2.44,-2.55,-0.17,-0.22,-0.22
126.03,2.51,2.74,2.48,2.72,-2.72,-2.47,-2.57,-0.21,-0.24,-0.23
127.29,2.51,2.76,2.50,2.76,-2.76,-2.51,-2.59,-0.25,-0.26,-0.25
128.57,2.51,2.78,2.51,2.79,-2.79,-2.55,-2.60,-0.28,-0.28,-0.27
129.85,2.51,2.80,2.52,2.81,-2.81,-2.59,-2.61,-0.30,-0.29,-0.29
131.15,2.51,2.81,2.52,2.83,-2.83,-2.62,-2.62,-0.32,-0.31,-0.30
132.46,2.51,2.83,2.52,2.85,-2.85,-2.66,-2.62,-0.34,-0.32,-0.32
133.79,2.51,2.84,2.52,2.86,-2.86,-2.70,-2.63,-0.35,-0.34,-0.33
135.12,2.51,2.88,2.51,2.87,-2.87,-2.74,-2.63,-0.36,-0.36,-0.37
136.48,2.51,2.89,2.50,2.87,-2.87,-2.77,-2.63,-0.36,-0.38,-0.38
137.84,2.51,2.91,2.50,2.89,-2.89,-2.81,-2.63,-0.38,-0.40,-0.40
139.22,2.51,2.95,2.50,2.92,-2.92,-2.85,-2.63,-0.41,-0.42,-0.44
140.61,2.51,2.98,2.52,2.96,-2.96,-2.88,-2.63,-0.45,-0.44,-0.47
142.02,2.51,2.98,2.54,3.01,-3.01,-2.92,-2.62,-0.50,-0.47,-0.47
143.44,2.51,3.01,2.57,3.07,-3.07,-2.95,-2.62,-0.56,-0.50,-0.50
144.87,2.51,3.04,2.59,3.13,-3.13,-2.99,-2.62,-0.62,-0.54,-0.53
146.32,2.51,3.08,2.61,3.20,-3.20,-3.02,-2.61,-0.69,-0.58,-0.57
147.78,2.56,3.15,2.64,3.26,-3.26,-3.06,-2.61,-0.70,-0.63,-0.59
149.26,2.68,3.33,2.65,3.33,-3.33,-3.09,-2.61,-0.65,-0.68,-0.65
150.75,2.74,3.45,2.65,3.39,-3.39,-3.12,-2.61,-0.65,-0.73,-0.71
152.26,2.74,3.51,2.65,3.44,-3.44,-3.16,-2.61,-0.70,-0.79,-0.77
153.78,2.74,3.57,2.64,3.49,-3.49,-3.19,-2.61,-0.75,-0.85,-0.83
155.32,2.74,3.65,2.62,3.53,-3.53,-3.22,-2.61,-0.79,-0.91,-0.91
156.88,2.72,3.70,2.60,3.57,-3.57,-3.25,-2.61,-0.85,-0.97,-0.98
158.44,2.57,3.61,2.56,3.59,-3.59,-3.28,-2.61,-1.02,-1.03,-1.04
160.03,2.51,3.61,2.52,3.60,-3.60,-3.31,-2.62,-1.09,-1.08,-1.10
161.63,2.51,3.66,2.48,3.61,-3.61,-3.34,-2.63,-1.10,-1.13,-1.15
163.24,2.37,3.56,2.44,3.61,-3.61,-3.37,-2.63,-1.24,-1.17,-1.19
164.88,2.28,3.50,2.40,3.60,-3.60,-3.39,-2.65,-1.32,-1.20,-1.22
166.53,2.28,3.53,2.37,3.59,-3.59,-3.42,-2.66,-1.31,-1.23,-1.25
168.19,2.28,3.55,2.34,3.59,-3.59,-3.45,-2.67,-1.31,-1.24,-1.27
169.87,2.28,3.56,2.33,3.59,-3.59,-3.47,-2.69,-1.31,-1.25,-1.28
171.57,2.28,3.55,2.33,3.59,-3.59,-3.50,-2.71,-1.31,-1.26,-1.27
173.29,2.28,3.54,2.34,3.59,-3.59,-3.52,-2.73,-1.31,-1.25,-1.26
175.02,2.28,3.52,2.36,3.61,-3.61,-3.54,-2.75,-1.32,-1.25,-1.24
176.77,2.47,3.70,2.38,3.62,-3.62,-3.56,-2.78,-1.15,-1.24,-1.23
178.54,2.51,3.73,2.41,3.64,-3.64,-3.58,-2.81,-1.13,-1.23,-1.22
180.32,2.51,3.72,2.44,3.66,-3.66,-3.60,-2.84,-1.15,-1.22,-1.21
182.13,2.51,3.70,2.48,3.69,-3.69,-3.62,-2.87,-1.18,-1.22,-1.19
183.95,2.51,3.69,2.50,3.72,-3.72,-3.64,-2.90,-1.21,-1.21,-1.18
185.79,2.51,3.70,2.52,3.73,-3.73,-3.65,-2.94,-1.22,-1.21,-1.19
187.65,2.51,3.71,2.52,3.73,-3.73,-3.67,-2.98,-1.22,-1.21,-1.20
189.52,2.51,3.72,2.52,3.73,-3.73,-3.68,-3.02,-1.22,-1.21,-1.21
191.42,2.51,3.74,2.51,3.73,-3.73,-3.69,-3.06,-1.22,-1.22,-1.23
193.33,2.51,3.75,2.49,3.73,-3.73,-3.70,-3.10,-1.22,-1.23,-1.24
195.27,2.51,3.75,2.47,3.71,-3.71,-3.71,-3.15,-1.20,-1.24,-1.24
197.22,2.51,3.76,2.44,3.69,-3.69,-3.72,-3.20,-1.18,-1.25,-1.25
199.19,2.50,3.78,2.41,3.68,-3.68,-3.73,-3.24,-1.18,-1.27,-1.28
201.18,2.37,3.65,2.39,3.67,-3.67,-3.74,-3.29,-1.30,-1.28,-1.28
203.19,2.28,3.57,2.37,3.66,-3.66,-3.74,-3.34,-1.38,-1.30,-1.29
205.23,2.28,3.59,2.35,3.66,-3.66,-3.75,-3.40,-1.38,-1.31,-1.31
207.28,2.28,3.59,2.33,3.65,-3.65,-3.75,-3.45,-1.37,-1.32,-1.31
209.35,2.28,3.61,2.31,3.64,-3.64,-3.75,-3.50,-1.36,-1.33,-1.33
211.44,2.28,3.63,2.29,3.63,-3.63,-3.75,-3.55,-1.35,-1.34,-1.35
213.56,2.28,3.63,2.28,3.63,-3.63,-3.75,-3.60,-1.35,-1.35,-1.35
215.69,2.28,3.63,2.27,3.63,-3.63,-3.75,-3.65,-1.35,-1.36,-1.35
217.85,2.28,3.65,2.26,3.63,-3.63,-3.75,-3.70,-1.35,-1.37,-1.37
220.03,2.28,3.65,2.26,3.64,-3.64,-3.75,-3.75,-1.36,-1.37,-1.37
222.23,2.28,3.67,2.27,3.65,-3.65,-3.74,-3.80,-1.37,-1.38,-1.39
224.45,2.28,3.67,2.28,3.66,-3.66,-3.73,-3.84,-1.38,-1.39,-1.39
226.70,2.28,3.67,2.28,3.67,-3.67,-3.73,-3.88,-1.39,-1.39,-1.39
228.96,2.28,3.67,2.28,3.67,-3.67,-3.72,-3.92,-1.39,-1.39,-1.39
231.25,2.28,3.67,2.28,3.67,-3.67,-3.71,-3.96,-1.39,-1.39,-1.39
233.57,2.28,3.67,2.28,3.67,-3.67,-3.70,-3.99,-1.39,-1.39,-1.39
235.90,2.28,3.68,2.28,3.67,-3.67,-3.68,-4.02,-1.39,-1.39,-1.40
238.26,2.28,3.68,2.28,3.67,-3.67,-3.67,-4.04,-1.39,-1.39,-1.40
240.64,2.28,3.67,2.28,3.67,-3.67,-3.66,-4.06,-1.39,-1.39,-1.39
243.05,2.28,3.66,2.28,3.66,-3.66,-3.64,-4.07,-1.38,-1.38,-1.38
245.48,2.28,3.65,2.28,3.66,-3.66,-3.62,-4.08,-1.38,-1.37,-1.37
247.93,2.28,3.64,2.29,3.66,-3.66,-3.61,-4.08,-1.38,-1.36,-1.36
250.41,2.28,3.64,2.30,3.65,-3.65,-3.59,-4.08,-1.37,-1.36,-1.36
252.92,2.28,3.63,2.30,3.64,-3.64,-3.57,-4.07,-1.36,-1.35,-1.35
255.45,2.28,3.60,2.29,3.63,-3.63,-3.55,-4.05,-1.35,-1.34,-1.32
258.00,2.28,3.60,2.28,3.60,-3.60,-3.53,-4.03,-1.32,-1.32,-1.32
260.58,2.28,3.59,2.27,3.58,-3.58,-3.51,-4.01,-1.30,-1.31,-1.31
263.19,2.28,3.57,2.25,3.55,-3.55,-3.48,-3.98,-1.27,-1.29,-1.29
265.82,2.28,3.57,2.23,3.51,-3.51,-3.46,-3.95,-1.23,-1.28,-1.29
268.48,2.28,3.54,2.21,3.47,-3.47,-3.44,-3.91,-1.19,-1.26,-1.26
271.16,2.28,3.52,2.19,3.43,-3.43,-3.41,-3.86,-1.15,-1.24,-1.24
273.87,2.20,3.43,2.17,3.39,-3.39,-3.38,-3.82,-1.19,-1.22,-1.23
276.61,2.07,3.26,2.15,3.34,-3.34,-3.36,-3.77,-1.27,-1.19,-1.19
279.38,2.05,3.22,2.13,3.29,-3.29,-3.33,-3.72,-1.24,-1.17,-1.17
282.17,2.05,3.20,2.10,3.25,-3.25,-3.30,-3.66,-1.20,-1.14,-1.15
284.99,2.05,3.17,2.09,3.20,-3.20,-3.27,-3.60,-1.15,-1.12,-1.12
287.84,2.05,3.14,2.07,3.16,-3.16,-3.25,-3.54,-1.11,-1.09,-1.09
290.72,2.05,3.11,2.06,3.12,-3.12,-3.22,-3.48,-1.07,-1.06,-1.06
293.63,2.05,3.08,2.06,3.09,-3.09,-3.19,-3.42,-1.04,-1.03,-1.03
296.57,2.05,3.05,2.05,3.05,-3.05,-3.15,-3.36,-1.00,-1.00,-1.00
299.53,2.05,3.02,2.05,3.02,-3.02,-3.12,-3.29,-0.97,-0.98,-0.97
302.53,2.05,3.00,2.04,2.99,-2.99,-3.09,-3.23,-0.94,-0.95,-0.95
305.55,2.05,2.97,2.04,2.97,-2.97,-3.06,-3.17,-0.92,-0.93,-0.92
308.61,2.05,2.95,2.03,2.94,-2.94,-3.03,-3.10,-0.89,-0.91,-0.90
311.69,2.05,2.93,2.01,2.91,-2.91,-3.00,-3.04,-0.86,-0.89,-0.88
314.81,2.05,2.90,1.99,2.87,-2.87,-2.96,-2.98,-0.82,-0.88,-0.85
317.96,2.05,2.91,1.97,2.84,-2.84,-2.93,-2.92,-0.79,-0.87,-0.86
321.14,2.04,2.90,1.95,2.81,-2.81,-2.90,-2.86,-0.77,-0.85,-0.86
324.35,1.87,2.72,1.93,2.77,-2.77,-2.86,-2.80,-0.90,-0.84,-0.85
327.59,1.82,2.66,1.91,2.74,-2.74,-2.83,-2.74,-0.92,-0.83,-0.84
330.87,1.82,2.65,1.88,2.71,-2.71,-2.80,-2.69,-0.89,-0.82,-0.83
334.18,1.82,2.64,1.86,2.67,-2.67,-2.76,-2.63,-0.85,-0.81,-0.82
337.52,1.82,2.64,1.85,2.64,-2.64,-2.73,-2.58,-0.82,-0.80,-0.82
340.90,1.82,2.61,1.83,2.62,-2.62,-2.69,-2.53,-0.80,-0.79,-0.79
344.30,1.82,2.60,1.83,2.60,-2.60,-2.66,-2.48,-0.78,-0.77,-0.78
347.75,1.82,2.58,1.82,2.58,-2.58,-2.62,-2.44,-0.76,-0.75,-0.76
351.23,1.82,2.55,1.82,2.55,-2.55,-2.59,-2.39,-0.73,-0.73,-0.73
354.74,1.82,2.53,1.81,2.52,-2.52,-2.55,-2.35,-0.70,-0.71,-0.71
358.28,1.82,2.50,1.81,2.49,-2.49,-2.52,-2.31,-0.67,-0.68,-0.68
361.87,1.82,2.48,1.81,2.47,-2.47,-2.48,-2.27,-0.65,-0.66,-0.66
365.49,1.82,2.46,1.79,2.43,-2.43,-2.45,-2.23,-0.61,-0.64,-0.64
369.14,1.82,2.44,1.78,2.39,-2.39,-2.42,-2.20,-0.57,-0.61,-0.62
372.83,1.82,2.41,1.76,2.35,-2.35,-2.38,-2.16,-0.53,-0.59,-0.59
376.56,1.82,2.39,1.74,2.31,-2.31,-2.35,-2.13,-0.49,-0.57,-0.57
380.33,1.73,2.27,1.71,2.27,-2.27,-2.31,-2.10,-0.54,-0.55,-0.54
384.13,1.62,2.14,1.69,2.22,-2.22,-2.28,-2.07,-0.60,-0.53,-0.52
387.97,1.60,2.11,1.67,2.19,-2.19,-2.24,-2.04,-0.59,-0.52,-0.51
391.85,1.60,2.10,1.66,2.16,-2.16,-2.21,-2.02,-0.56,-0.50,-0.50
395.77,1.60,2.09,1.65,2.14,-2.14,-2.17,-1.99,-0.54,-0.49,-0.49
399.73,1.60,2.08,1.63,2.11,-2.11,-2.14,-1.97,-0.51,-0.48,-0.48
403.72,1.60,2.07,1.62,2.09,-2.09,-2.11,-1.95,-0.49,-0.47,-0.47
407.76,1.60,2.06,1.60,2.07,-2.07,-2.07,-1.93,-0.47,-0.46,-0.46
411.84,1.60,2.06,1.59,2.05,-2.05,-2.04,-1.91,-0.45,-0.46,-0.46
415.96,1.60,2.05,1.57,2.03,-2.03,-2.01,-1.89,-0.43,-0.46,-0.45
420.12,1.60,2.05,1.56,2.01,-2.01,-1.97,-1.87,-0.41,-0.45,-0.45
424.32,1.60,2.05,1.55,1.99,-1.99,-1.94,-1.86,-0.39,-0.45,-0.45
428.56,1.60,2.05,1.53,1.98,-1.98,-1.91,-1.84,-0.38,-0.45,-0.45
432.85,1.60,2.05,1.51,1.95,-1.95,-1.88,-1.82,-0.35,-0.44,-0.45
437.18,1.49,1.93,1.49,1.93,-1.93,-1.84,-1.81,-0.44,-0.44,-0.44
441.55,1.40,1.83,1.48,1.91,-1.91,-1.81,-1.79,-0.51,-0.43,-0.43
445.96,1.37,1.80,1.46,1.89,-1.89,-1.78,-1.78,-0.52,-0.42,-0.43
450.42,1.37,1.79,1.44,1.86,-1.86,-1.75,-1.76,-0.49,-0.42,-0.42
454.93,1.37,1.78,1.42,1.82,-1.82,-1.72,-1.74,-0.45,-0.41,-0.41
459.48,1.37,1.77,1.40,1.79,-1.79,-1.68,-1.73,-0.42,-0.39,-0.40
464.07,1.37,1.75,1.38,1.76,-1.76,-1.65,-1.71,-0.39,-0.38,-0.38
468.71,1.37,1.73,1.36,1.72,-1.72,-1.62,-1.69,-0.35,-0.36,-0.36
473.40,1.37,1.72,1.33,1.67,-1.67,-1.59,-1.67,-0.30,-0.34,-0.35
478.13,1.37,1.69,1.30,1.62,-1.62,-1.56,-1.65,-0.25,-0.32,-0.32
482.91,1.37,1.67,1.27,1.56,-1.56,-1.53,-1.63,-0.19,-0.30,-0.30
487.74,1.31,1.58,1.25,1.52,-1.52,-1.50,-1.61,-0.21,-0.27,-0.27
492.62,1.18,1.42,1.22,1.47,-1.47,-1.47,-1.59,-0.29,-0.25,-0.24
497.55,1.14,1.36,1.18,1.41,-1.41,-1.44,-1.56,-0.27,-0.22,-0.22
502.52,1.14,1.33,1.14,1.34,-1.34,-1.41,-1.54,-0.20,-0.20,-0.19
