frequency,raw,error,smoothed,error_smoothed,equalization,parametric_eq,equalized_raw,equalized_smoothed,target
20,2.26,-1.59,2.33,-1.47,1.47,0.19,3.73,3.80,3.85
21,2.48,-1.36,2.51,-1.30,1.30,0.23,3.78,3.81,3.85
22,2.66,-1.18,2.67,-1.15,1.15,0.27,3.81,3.82,3.84
23,2.83,-1.01,2.83,-1.00,1.00,0.32,3.83,3.83,3.84
24,3.00,-0.84,2.97,-0.86,0.86,0.37,3.86,3.83,3.84
25,3.15,-0.69,3.10,-0.73,0.73,0.42,3.89,3.84,3.84
26,3.29,-0.54,3.22,-0.62,0.62,0.47,3.91,3.84,3.83
27,3.38,-0.45,3.33,-0.51,0.51,0.52,3.89,3.84,3.83
28,3.44,-0.38,3.43,-0.41,0.41,0.55,3.85,3.84,3.83
29,3.54,-0.28,3.51,-0.32,0.32,0.57,3.86,3.83,3.82
30,3.61,-0.21,3.59,-0.24,0.24,0.58,3.85,3.83,3.82
31,3.66,-0.15,3.64,-0.19,0.19,0.57,3.85,3.82,3.81
32,3.66,-0.14,3.67,-0.14,0.14,0.54,3.80,3.81,3.81
33,3.66,-0.14,3.69,-0.10,0.10,0.50,3.76,3.80,3.80
34,3.71,-0.08,3.71,-0.07,0.07,0.45,3.78,3.78,3.79
35,3.71,-0.07,3.73,-0.04,0.04,0.39,3.75,3.76,3.79
36,3.75,-0.03,3.74,-0.01,0.01,0.32,3.76,3.75,3.78
37,3.78,0.01,3.77,0.03,-0.03,0.24,3.75,3.74,3.77
38,3.78,0.02,3.80,0.07,-0.07,0.17,3.71,3.72,3.76
39,3.78,0.03,3.83,0.12,-0.12,0.09,3.66,3.71,3.75
40,3.77,0.03,3.88,0.17,-0.17,0.01,3.60,3.70,3.74
41,3.81,0.09,3.92,0.22,-0.22,-0.06,3.59,3.69,3.73
42,3.89,0.18,3.96,0.27,-0.27,-0.14,3.62,3.69,3.71
43,3.95,0.25,3.98,0.30,-0.30,-0.22,3.65,3.68,3.70
44,4.03,0.34,3.99,0.33,-0.33,-0.29,3.71,3.67,3.69
45,4.08,0.41,3.99,0.34,-0.34,-0.37,3.75,3.66,3.67
46,4.13,0.47,3.97,0.33,-0.33,-0.44,3.80,3.64,3.66
47,4.08,0.44,3.93,0.31,-0.31,-0.52,3.78,3.63,3.64
48,4.00,0.38,3.88,0.27,-0.27,-0.59,3.73,3.61,3.62
49,3.87,0.27,3.81,0.22,-0.22,-0.67,3.66,3.59,3.61
50,3.74,0.15,3.73,0.15,-0.15,-0.74,3.59,3.57,3.59
51,3.61,0.04,3.63,0.08,-0.08,-0.81,3.53,3.55,3.57
52,3.45,-0.10,3.53,0.01,-0.01,-0.88,3.44,3.52,3.55
53,3.36,-0.16,3.44,-0.05,0.05,-0.95,3.41,3.49,3.53
54,3.29,-0.21,3.35,-0.11,0.11,-1.02,3.40,3.46,3.50
55,3.24,-0.24,3.29,-0.15,0.15,-1.08,3.39,3.43,3.48
56,3.19,-0.26,3.25,-0.16,0.16,-1.14,3.35,3.41,3.46
57,3.19,-0.24,3.23,-0.15,0.15,-1.21,3.34,3.38,3.43
58,3.24,-0.16,3.25,-0.11,0.11,-1.27,3.35,3.36,3.40
59,3.28,-0.09,3.30,-0.04,0.04,-1.32,3.32,3.34,3.38
60,3.34,-0.01,3.37,0.05,-0.05,-1.38,3.29,3.32,3.35
61,3.44,0.12,3.47,0.17,-0.17,-1.43,3.27,3.30,3.32
62,3.56,0.27,3.59,0.31,-0.31,-1.48,3.26,3.28,3.29
63,3.71,0.45,3.71,0.46,-0.46,-1.52,3.25,3.25,3.26
64,3.86,0.63,3.86,0.63,-0.63,-1.57,3.23,3.22,3.23
65,4.03,0.84,4.01,0.82,-0.82,-1.61,3.21,3.19,3.20
66,4.19,1.03,4.17,1.01,-1.01,-1.65,3.18,3.16,3.16
67,4.36,1.23,4.34,1.21,-1.21,-1.69,3.15,3.13,3.13
68,4.52,1.43,4.50,1.41,-1.41,-1.73,3.11,3.09,3.09
69,4.68,1.62,4.67,1.61,-1.61,-1.77,3.07,3.06,3.06
70,4.84,1.82,4.84,1.81,-1.81,-1.80,3.03,3.03,3.02
71,4.99,2.01,5.00,2.01,-2.01,-1.84,2.98,2.99,2.99
72,5.15,2.20,5.15,2.20,-2.20,-1.88,2.95,2.95,2.95
73,5.30,2.39,5.30,2.38,-2.38,-1.92,2.92,2.91,2.91
74,5.45,2.58,5.43,2.56,-2.56,-1.96,2.89,2.87,2.87
75,5.57,2.74,5.56,2.73,-2.73,-2.01,2.84,2.83,2.83
76,5.67,2.88,5.68,2.89,-2.89,-2.05,2.78,2.80,2.79
77,5.81,3.06,5.79,3.04,-3.04,-2.10,2.77,2.75,2.75
78,5.91,3.20,5.90,3.18,-3.18,-2.14,2.73,2.71,2.71
79,6.02,3.35,5.99,3.32,-3.32,-2.19,2.70,2.67,2.67
80,6.07,3.44,6.07,3.44,-3.44,-2.24,2.63,2.63,2.63
81,6.16,3.57,6.15,3.56,-3.56,-2.30,2.60,2.59,2.59
82,6.20,3.65,6.22,3.67,-3.67,-2.35,2.53,2.55,2.55
83,6.27,3.76,6.28,3.78,-3.78,-2.41,2.50,2.51,2.51
84,6.33,3.86,6.33,3.87,-3.87,-2.47,2.46,2.46,2.47
85,6.37,3.94,6.39,3.96,-3.96,-2.53,2.41,2.42,2.43
86,6.41,4.03,6.43,4.05,-4.05,-2.60,2.37,2.38,2.39
87,6.46,4.12,6.46,4.12,-4.12,-2.66,2.34,2.34,2.34
88,6.51,4.21,6.50,4.20,-4.20,-2.73,2.31,2.30,2.30
89,6.53,4.27,6.52,4.27,-4.27,-2.80,2.27,2.26,2.26
90,6.55,4.33,6.54,4.33,-4.33,-2.88,2.22,2.22,2.22
91,6.55,4.37,6.56,4.38,-4.38,-2.95,2.17,2.18,2.18
92,6.57,4.43,6.57,4.44,-4.44,-3.03,2.14,2.14,2.14
93,6.59,4.50,6.58,4.48,-4.48,-3.11,2.11,2.10,2.10
94,6.60,4.55,6.58,4.52,-4.52,-3.19,2.08,2.06,2.06
95,6.55,4.54,6.58,4.56,-4.56,-3.27,1.99,2.02,2.02
96,6.55,4.58,6.57,4.59,-4.59,-3.35,1.96,1.98,1.98
97,6.55,4.62,6.55,4.62,-4.62,-3.43,1.93,1.93,1.94
98,6.55,4.66,6.53,4.64,-4.64,-3.51,1.91,1.89,1.90
99,6.51,4.66,6.51,4.66,-4.66,-3.60,1.85,1.85,1.86
100,6.50,4.68,6.49,4.68,-4.68,-3.68,1.82,1.81,1.82
101,6.46,4.68,6.46,4.69,-4.69,-3.77,1.77,1.77,1.78
102,6.43,4.69,6.43,4.70,-4.70,-3.85,1.73,1.72,1.74
104,6.37,4.70,6.39,4.71,-4.71,-4.02,1.66,1.68,1.67
105,6.35,4.72,6.36,4.72,-4.72,-4.10,1.64,1.64,1.63
106,6.32,4.73,6.33,4.72,-4.72,-4.18,1.60,1.61,1.60
107,6.27,4.71,6.29,4.72,-4.72,-4.26,1.55,1.57,1.56
108,6.24,4.72,6.24,4.71,-4.71,-4.33,1.53,1.53,1.53
109,6.20,4.71,6.20,4.71,-4.71,-4.40,1.49,1.49,1.49
110,6.16,4.70,6.15,4.70,-4.70,-4.48,1.46,1.45,1.46
111,6.11,4.69,6.11,4.69,-4.69,-4.54,1.42,1.42,1.42
112,6.06,4.67,6.06,4.68,-4.68,-4.61,1.39,1.39,1.39
113,6.02,4.66,6.01,4.66,-4.66,-4.67,1.36,1.35,1.36
114,5.97,4.64,5.96,4.65,-4.65,-4.72,1.33,1.31,1.33
115,5.92,4.63,5.91,4.63,-4.63,-4.77,1.29,1.28,1.30
117,5.83,4.60,5.86,4.61,-4.61,-4.86,1.22,1.25,1.24
118,5.78,4.58,5.80,4.59,-4.59,-4.90,1.19,1.21,1.21
119,5.74,4.56,5.74,4.57,-4.57,-4.93,1.17,1.17,1.18
120,5.69,4.54,5.69,4.55,-4.55,-4.95,1.14,1.14,1.15
121,5.64,4.52,5.64,4.53,-4.53,-4.97,1.12,1.11,1.12
123,5.55,4.48,5.58,4.50,-4.50,-4.99,1.05,1.08,1.07
124,5.51,4.47,5.52,4.48,-4.48,-5.00,1.04,1.04,1.04
125,5.47,4.46,5.46,4.45,-4.45,-4.99,1.02,1.01,1.02
126,5.43,4.44,5.40,4.42,-4.42,-4.98,1.01,0.98,0.99
128,5.31,4.37,5.33,4.38,-4.38,-4.95,0.93,0.95,0.94
129,5.27,4.35,5.27,4.35,-4.35,-4.93,0.92,0.92,0.92
130,5.20,4.31,5.20,4.31,-4.31,-4.90,0.89,0.89,0.90
131,5.16,4.29,5.13,4.27,-4.27,-4.87,0.90,0.86,0.87
133,5.03,4.20,5.05,4.22,-4.22,-4.79,0.81,0.83,0.83
134,4.96,4.15,4.97,4.17,-4.17,-4.75,0.79,0.80,0.81
135,4.90,4.11,4.90,4.12,-4.12,-4.70,0.78,0.78,0.79
137,4.78,4.03,4.81,4.06,-4.06,-4.59,0.72,0.75,0.75
138,4.73,4.00,4.72,4.00,-4.00,-4.54,0.73,0.72,0.73
140,4.62,3.93,4.63,3.94,-3.94,-4.42,0.69,0.70,0.69
141,4.54,3.87,4.54,3.87,-3.87,-4.36,0.67,0.68,0.67
142,4.47,3.82,4.44,3.79,-3.79,-4.29,0.68,0.65,0.66
144,4.34,3.72,4.34,3.72,-3.72,-4.16,0.63,0.62,0.62
145,4.26,3.66,4.23,3.63,-3.63,-4.10,0.63,0.60,0.61
147,4.11,3.54,4.13,3.55,-3.55,-3.96,0.57,0.58,0.57
148,4.04,3.48,4.01,3.46,-3.46,-3.90,0.59,0.56,0.56
150,3.87,3.34,3.89,3.36,-3.36,-3.76,0.51,0.53,0.53
151,3.79,3.28,3.78,3.26,-3.26,-3.69,0.53,0.51,0.52
153,3.63,3.14,3.65,3.16,-3.16,-3.56,0.47,0.49,0.49
154,3.54,3.07,3.53,3.06,-3.06,-3.49,0.48,0.47,0.48
156,3.37,2.92,3.41,2.96,-2.96,-3.36,0.41,0.45,0.45
157,3.30,2.86,3.28,2.85,-2.85,-3.29,0.45,0.43,0.44
159,3.14,2.73,3.16,2.75,-2.75,-3.16,0.39,0.41,0.41
160,3.07,2.67,3.04,2.65,-2.65,-3.10,0.42,0.39,0.40
162,2.91,2.53,2.92,2.55,-2.55,-2.97,0.36,0.37,0.38
164,2.77,2.41,2.81,2.45,-2.45,-2.85,0.32,0.36,0.36
165,2.71,2.36,2.70,2.35,-2.35,-2.79,0.36,0.35,0.35
167,2.57,2.24,2.58,2.25,-2.25,-2.68,0.32,0.33,0.33
169,2.44,2.13,2.47,2.16,-2.16,-2.57,0.29,0.31,0.31
170,2.38,2.08,2.35,2.06,-2.06,-2.51,0.32,0.30,0.30
172,2.25,1.97,2.24,1.96,-1.96,-2.40,0.29,0.28,0.28
174,2.13,1.86,2.13,1.86,-1.86,-2.30,0.27,0.27,0.27
175,2.06,1.80,2.02,1.77,-1.77,-2.25,0.30,0.25,0.26
177,1.94,1.70,1.91,1.67,-1.67,-2.15,0.27,0.23,0.24
179,1.81,1.58,1.80,1.58,-1.58,-2.05,0.23,0.22,0.23
181,1.67,1.46,1.70,1.49,-1.49,-1.96,0.18,0.21,0.21
183,1.55,1.35,1.59,1.40,-1.40,-1.87,0.15,0.19,0.20
184,1.49,1.30,1.50,1.32,-1.32,-1.83,0.17,0.18,0.19
186,1.40,1.22,1.42,1.25,-1.25,-1.74,0.16,0.17,0.18
188,1.32,1.15,1.33,1.18,-1.18,-1.66,0.15,0.16,0.17
190,1.23,1.07,1.26,1.11,-1.11,-1.58,0.12,0.15,0.16
192,1.18,1.03,1.19,1.06,-1.06,-1.51,0.13,0.14,0.15
194,1.12,0.99,1.13,1.00,-1.00,-1.43,0.12,0.13,0.14
196,1.07,0.95,1.07,0.96,-0.96,-1.36,0.12,0.12,0.13
198,1.03,0.91,1.02,0.91,-0.91,-1.29,0.12,0.11,0.12
200,1.00,0.89,0.98,0.87,-0.87,-1.22,0.13,0.11,0.11
202,0.95,0.85,0.93,0.83,-0.83,-1.16,0.12,0.10,0.10
204,0.90,0.81,0.88,0.79,-0.79,-1.09,0.11,0.09,0.09
206,0.84,0.76,0.84,0.75,-0.75,-1.03,0.09,0.08,0.08
208,0.79,0.72,0.79,0.72,-0.72,-0.97,0.07,0.07,0.07
210,0.75,0.69,0.75,0.68,-0.68,-0.92,0.07,0.06,0.07
212,0.70,0.64,0.70,0.65,-0.65,-0.86,0.05,0.05,0.06
214,0.65,0.60,0.66,0.62,-0.62,-0.81,0.04,0.05,0.05
216,0.63,0.59,0.62,0.58,-0.58,-0.76,0.05,0.04,0.04
218,0.57,0.54,0.59,0.56,-0.56,-0.71,0.02,0.03,0.04
221,0.54,0.51,0.55,0.53,-0.53,-0.64,0.01,0.02,0.03
223,0.50,0.48,0.53,0.50,-0.50,-0.59,-0.00,0.02,0.02
225,0.49,0.47,0.50,0.48,-0.48,-0.55,0.01,0.02,0.02
227,0.49,0.47,0.48,0.47,-0.47,-0.51,0.03,0.02,0.02
229,0.49,0.47,0.47,0.45,-0.45,-0.47,0.04,0.02,0.02
232,0.44,0.42,0.46,0.44,-0.44,-0.41,0.01,0.02,0.02
234,0.44,0.42,0.45,0.42,-0.42,-0.37,0.02,0.02,0.02
236,0.44,0.41,0.44,0.41,-0.41,-0.34,0.03,0.03,0.03
239,0.44,0.41,0.44,0.40,-0.40,-0.29,0.04,0.04,0.03
241,0.42,0.38,0.44,0.39,-0.39,-0.26,0.03,0.05,0.04
244,0.44,0.39,0.43,0.38,-0.38,-0.21,0.06,0.05,0.05
246,0.44,0.38,0.43,0.37,-0.37,-0.19,0.07,0.06,0.06
248,0.44,0.37,0.43,0.36,-0.36,-0.16,0.08,0.07,0.07
251,0.44,0.36,0.43,0.36,-0.36,-0.12,0.09,0.08,0.08
253,0.44,0.35,0.44,0.35,-0.35,-0.10,0.09,0.09,0.10
256,0.44,0.34,0.44,0.34,-0.34,-0.07,0.10,0.10,0.11
259,0.44,0.33,0.44,0.34,-0.34,-0.04,0.11,0.11,0.12
261,0.44,0.31,0.45,0.33,-0.33,-0.02,0.11,0.12,0.13
264,0.44,0.31,0.46,0.33,-0.33,0.00,0.11,0.13,0.14
266,0.44,0.29,0.47,0.32,-0.32,0.02,0.12,0.14,0.15
269,0.49,0.33,0.48,0.32,-0.32,0.04,0.17,0.15,0.16
272,0.49,0.32,0.49,0.32,-0.32,0.06,0.18,0.17,0.17
274,0.49,0.31,0.50,0.31,-0.31,0.08,0.18,0.18,0.18
277,0.49,0.29,0.50,0.31,-0.31,0.09,0.18,0.20,0.20
280,0.52,0.31,0.52,0.30,-0.30,0.11,0.22,0.22,0.21
283,0.54,0.31,0.53,0.29,-0.29,0.12,0.25,0.24,0.23
286,0.54,0.29,0.54,0.28,-0.28,0.14,0.26,0.26,0.25
288,0.54,0.27,0.54,0.27,-0.27,0.15,0.28,0.28,0.27
291,0.54,0.25,0.55,0.25,-0.25,0.16,0.29,0.30,0.30
294,0.54,0.22,0.55,0.23,-0.23,0.17,0.31,0.32,0.32
297,0.54,0.20,0.54,0.20,-0.20,0.18,0.34,0.33,0.34
300,0.54,0.18,0.53,0.18,-0.18,0.19,0.36,0.36,0.36
303,0.54,0.16,0.53,0.15,-0.15,0.20,0.39,0.38,0.38
306,0.54,0.14,0.52,0.12,-0.12,0.21,0.42,0.40,0.40
309,0.49,0.07,0.50,0.09,-0.09,0.22,0.41,0.41,0.42
312,0.49,0.06,0.48,0.05,-0.05,0.23,0.44,0.43,0.44
316,0.44,-0.01,0.47,0.02,-0.02,0.25,0.43,0.45,0.45
319,0.44,-0.03,0.45,-0.02,0.02,0.25,0.46,0.47,0.47
322,0.44,-0.05,0.44,-0.06,0.06,0.26,0.50,0.49,0.49
325,0.40,-0.11,0.42,-0.09,0.09,0.27,0.50,0.51,0.51
328,0.40,-0.13,0.40,-0.13,0.13,0.28,0.53,0.53,0.53
332,0.39,-0.16,0.38,-0.17,0.17,0.29,0.56,0.55,0.55
335,0.35,-0.22,0.37,-0.20,0.20,0.30,0.55,0.57,0.57
338,0.35,-0.24,0.36,-0.24,0.24,0.31,0.59,0.59,0.59
342,0.35,-0.26,0.34,-0.27,0.27,0.33,0.62,0.61,0.62
345,0.35,-0.29,0.33,-0.30,0.30,0.34,0.66,0.63,0.64
349,0.31,-0.35,0.32,-0.33,0.33,0.35,0.65,0.66,0.66
352,0.30,-0.38,0.31,-0.36,0.36,0.36,0.67,0.68,0.68
356,0.30,-0.40,0.30,-0.39,0.39,0.37,0.69,0.69,0.70
359,0.30,-0.42,0.29,-0.42,0.42,0.38,0.72,0.71,0.72
363,0.28,-0.45,0.29,-0.44,0.44,0.40,0.73,0.73,0.73
366,0.26,-0.49,0.28,-0.47,0.47,0.41,0.73,0.75,0.75
370,0.26,-0.50,0.27,-0.49,0.49,0.42,0.75,0.76,0.76
374,0.26,-0.52,0.26,-0.51,0.51,0.44,0.78,0.78,0.78
377,0.26,-0.53,0.25,-0.53,0.53,0.45,0.80,0.79,0.79
381,0.26,-0.54,0.24,-0.56,0.56,0.47,0.82,0.80,0.80
385,0.26,-0.55,0.24,-0.58,0.58,0.48,0.84,0.81,0.82
389,0.21,-0.62,0.23,-0.60,0.60,0.50,0.81,0.83,0.83
393,0.21,-0.63,0.21,-0.62,0.62,0.51,0.83,0.84,0.84
397,0.21,-0.63,0.20,-0.65,0.65,0.53,0.86,0.84,0.85
401,0.16,-0.69,0.18,-0.67,0.67,0.55,0.83,0.85,0.85
405,0.16,-0.70,0.17,-0.69,0.69,0.56,0.85,0.86,0.86
409,0.16,-0.70,0.15,-0.71,0.71,0.58,0.88,0.86,0.86
413,0.13,-0.74,0.13,-0.74,0.74,0.60,0.87,0.86,0.87
417,0.12,-0.75,0.11,-0.76,0.76,0.61,0.88,0.87,0.87
421,0.10,-0.77,0.09,-0.78,0.78,0.63,0.88,0.87,0.88
425,0.07,-0.81,0.07,-0.80,0.80,0.65,0.87,0.88,0.88
430,0.03,-0.85,0.06,-0.82,0.82,0.67,0.85,0.88,0.89
434,0.02,-0.87,0.05,-0.84,0.84,0.68,0.86,0.89,0.89
438,0.02,-0.88,0.04,-0.86,0.86,0.70,0.88,0.90,0.90
443,0.02,-0.88,0.03,-0.88,0.88,0.72,0.90,0.91,0.91
447,0.02,-0.90,0.02,-0.90,0.90,0.74,0.92,0.92,0.92
451,0.02,-0.91,0.01,-0.91,0.91,0.75,0.94,0.93,0.93
456,0.02,-0.92,0.01,-0.93,0.93,0.77,0.95,0.94,0.94
460,0.02,-0.93,0.00,-0.95,0.95,0.79,0.97,0.95,0.96
465,0.02,-0.95,0.00,-0.96,0.96,0.80,0.99,0.97,0.97
470,0.01,-0.97,0.00,-0.98,0.98,0.82,0.99,0.98,0.99
474,-0.02,-1.02,-0.00,-1.00,1.00,0.84,0.98,1.00,1.00
479,-0.02,-1.03,-0.01,-1.02,1.02,0.85,1.00,1.01,1.01
484,-0.02,-1.05,-0.01,-1.03,1.03,0.87,1.02,1.02,1.03
489,-0.02,-1.06,-0.02,-1.05,1.05,0.88,1.03,1.04,1.04
494,-0.02,-1.07,-0.02,-1.07,1.07,0.90,1.05,1.05,1.05
499,-0.02,-1.09,-0.02,-1.09,1.09,0.91,1.07,1.07,1.07
504,-0.02,-1.10,-0.02,-1.10,1.10,0.93,1.08,1.08,1.08
509,-0.02,-1.11,-0.02,-1.12,1.12,0.94,1.10,1.09,1.10
514,-0.02,-1.13,-0.02,-1.13,1.13,0.96,1.11,1.11,1.11
519,-0.02,-1.15,-0.01,-1.15,1.15,0.97,1.13,1.13,1.13
524,-0.02,-1.17,-0.01,-1.16,1.16,0.98,1.14,1.15,1.15
529,-0.02,-1.19,-0.00,-1.17,1.17,0.99,1.16,1.17,1.17
535,0.02,-1.17,0.01,-1.19,1.19,1.01,1.21,1.19,1.19
540,0.02,-1.19,0.01,-1.20,1.20,1.02,1.22,1.22,1.21
545,0.02,-1.22,0.03,-1.21,1.21,1.03,1.24,1.24,1.24
551,0.02,-1.24,0.04,-1.23,1.23,1.05,1.25,1.26,1.26
556,0.05,-1.23,0.05,-1.24,1.24,1.06,1.29,1.28,1.29
562,0.07,-1.24,0.06,-1.25,1.25,1.07,1.32,1.31,1.31
568,0.07,-1.26,0.07,-1.26,1.26,1.09,1.33,1.33,1.33
573,0.07,-1.28,0.08,-1.27,1.27,1.10,1.34,1.35,1.36
579,0.08,-1.29,0.09,-1.28,1.28,1.11,1.36,1.37,1.38
585,0.12,-1.27,0.10,-1.29,1.29,1.13,1.41,1.39,1.39
591,0.12,-1.29,0.11,-1.29,1.29,1.14,1.42,1.41,1.41
596,0.12,-1.31,0.12,-1.30,1.30,1.16,1.42,1.42,1.43
602,0.12,-1.32,0.13,-1.31,1.31,1.17,1.43,1.44,1.44
608,0.14,-1.31,0.14,-1.31,1.31,1.19,1.45,1.45,1.46
615,0.16,-1.31,0.15,-1.32,1.32,1.21,1.48,1.47,1.47
621,0.16,-1.32,0.16,-1.32,1.32,1.23,1.48,1.48,1.48
627,0.16,-1.33,0.17,-1.33,1.33,1.25,1.49,1.50,1.49
633,0.16,-1.35,0.18,-1.33,1.33,1.27,1.49,1.51,1.51
639,0.21,-1.31,0.19,-1.33,1.33,1.29,1.54,1.53,1.52
646,0.21,-1.33,0.21,-1.33,1.33,1.31,1.55,1.54,1.54
652,0.21,-1.34,0.22,-1.34,1.34,1.34,1.55,1.56,1.55
659,0.21,-1.36,0.23,-1.34,1.34,1.36,1.55,1.57,1.57
665,0.26,-1.32,0.24,-1.34,1.34,1.39,1.60,1.58,1.58
672,0.26,-1.34,0.25,-1.34,1.34,1.42,1.60,1.59,1.60
679,0.26,-1.35,0.26,-1.34,1.34,1.45,1.60,1.60,1.61
686,0.26,-1.36,0.27,-1.34,1.34,1.48,1.60,1.62,1.62
692,0.29,-1.34,0.28,-1.34,1.34,1.51,1.63,1.62,1.63
699,0.30,-1.34,0.29,-1.34,1.34,1.54,1.64,1.63,1.64
706,0.30,-1.34,0.30,-1.34,1.34,1.57,1.64,1.64,1.64
713,0.30,-1.35,0.31,-1.33,1.33,1.61,1.63,1.65,1.65
721,0.30,-1.35,0.33,-1.33,1.33,1.65,1.63,1.65,1.65
728,0.35,-1.31,0.34,-1.32,1.32,1.69,1.67,1.66,1.66
735,0.35,-1.31,0.34,-1.32,1.32,1.73,1.67,1.66,1.66
742,0.35,-1.32,0.36,-1.31,1.31,1.76,1.67,1.67,1.67
750,0.35,-1.32,0.37,-1.31,1.31,1.81,1.66,1.68,1.67
757,0.36,-1.32,0.38,-1.31,1.31,1.85,1.67,1.69,1.68
765,0.40,-1.29,0.39,-1.31,1.31,1.89,1.71,1.69,1.69
773,0.40,-1.30,0.39,-1.31,1.31,1.94,1.71,1.70,1.70
780,0.40,-1.30,0.40,-1.31,1.31,1.98,1.71,1.71,1.71
788,0.40,-1.31,0.40,-1.32,1.32,2.03,1.72,1.72,1.72
796,0.40,-1.32,0.41,-1.32,1.32,2.08,1.72,1.73,1.73
804,0.40,-1.33,0.40,-1.33,1.33,2.12,1.73,1.73,1.74
812,0.40,-1.34,0.40,-1.34,1.34,2.17,1.74,1.74,1.74
820,0.40,-1.35,0.39,-1.36,1.36,2.22,1.76,1.75,1.75
828,0.38,-1.37,0.38,-1.37,1.37,2.26,1.75,1.75,1.76
837,0.35,-1.41,0.36,-1.39,1.39,2.31,1.74,1.76,1.76
845,0.35,-1.41,0.34,-1.41,1.41,2.36,1.76,1.76,1.76
853,0.34,-1.42,0.32,-1.44,1.44,2.40,1.78,1.76,1.76
862,0.30,-1.46,0.30,-1.46,1.46,2.45,1.76,1.76,1.76
871,0.27,-1.49,0.27,-1.49,1.49,2.49,1.76,1.76,1.76
879,0.24,-1.51,0.24,-1.52,1.52,2.53,1.76,1.76,1.76
888,0.21,-1.54,0.21,-1.55,1.55,2.56,1.76,1.76,1.75
897,0.18,-1.57,0.18,-1.58,1.58,2.60,1.76,1.76,1.76
906,0.15,-1.61,0.15,-1.61,1.61,2.63,1.76,1.76,1.76
915,0.12,-1.64,0.11,-1.64,1.64,2.66,1.77,1.76,1.76
924,0.07,-1.69,0.09,-1.68,1.68,2.68,1.75,1.76,1.76
933,0.06,-1.71,0.06,-1.71,1.71,2.70,1.77,1.77,1.77
943,0.02,-1.76,0.04,-1.74,1.74,2.72,1.76,1.78,1.78
952,0.02,-1.77,0.02,-1.77,1.77,2.73,1.79,1.79,1.79
962,-0.02,-1.82,0.01,-1.79,1.79,2.73,1.77,1.80,1.80
971,-0.02,-1.84,-0.00,-1.81,1.81,2.73,1.80,1.81,1.82
981,-0.02,-1.85,-0.00,-1.84,1.84,2.73,1.82,1.83,1.83
991,-0.02,-1.87,-0.00,-1.86,1.86,2.71,1.84,1.85,1.85
1001,0.00,-1.87,0.00,-1.87,1.87,2.70,1.88,1.88,1.88
1011,0.02,-1.88,0.01,-1.89,1.89,2.67,1.91,1.90,1.90
1021,0.02,-1.90,0.02,-1.91,1.91,2.65,1.93,1.92,1.93
1031,0.02,-1.93,0.02,-1.93,1.93,2.61,1.95,1.95,1.95
1041,0.04,-1.94,0.04,-1.94,1.94,2.57,1.99,1.98,1.98
1052,0.07,-1.93,0.05,-1.96,1.96,2.52,2.03,2.01,2.01
1062,0.07,-1.96,0.06,-1.98,1.98,2.48,2.05,2.04,2.03
1073,0.07,-1.99,0.06,-2.00,2.00,2.42,2.07,2.06,2.06
1084,0.07,-2.02,0.07,-2.02,2.02,2.36,2.10,2.09,2.09
1094,0.07,-2.05,0.08,-2.04,2.04,2.30,2.12,2.12,2.12
1105,0.07,-2.08,0.08,-2.06,2.06,2.23,2.14,2.15,2.15
1116,0.10,-2.08,0.09,-2.08,2.08,2.15,2.19,2.18,2.18
1128,0.12,-2.09,0.11,-2.10,2.10,2.07,2.22,2.21,2.21
1139,0.12,-2.13,0.13,-2.12,2.12,1.99,2.24,2.24,2.25
1150,0.12,-2.16,0.15,-2.13,2.13,1.91,2.25,2.28,2.28
1162,0.16,-2.16,0.17,-2.14,2.14,1.82,2.30,2.31,2.32
1173,0.19,-2.17,0.21,-2.15,2.15,1.74,2.34,2.35,2.36
1185,0.23,-2.17,0.25,-2.15,2.15,1.65,2.38,2.40,2.40
1197,0.28,-2.16,0.29,-2.15,2.15,1.55,2.43,2.44,2.44
1209,0.34,-2.15,0.34,-2.15,2.15,1.46,2.49,2.49,2.49
1221,0.41,-2.12,0.40,-2.14,2.14,1.36,2.55,2.54,2.54
1233,0.47,-2.11,0.45,-2.13,2.13,1.27,2.60,2.59,2.59
1246,0.52,-2.12,0.52,-2.12,2.12,1.17,2.64,2.64,2.64
1258,0.58,-2.11,0.59,-2.11,2.11,1.07,2.69,2.70,2.69
1271,0.66,-2.09,0.66,-2.10,2.10,0.97,2.76,2.76,2.75
1283,0.73,-2.07,0.73,-2.08,2.08,0.88,2.81,2.81,2.81
1296,0.80,-2.07,0.81,-2.06,2.06,0.78,2.86,2.87,2.87
1309,0.91,-2.02,0.89,-2.04,2.04,0.67,2.95,2.93,2.93
1322,0.97,-2.02,0.98,-2.02,2.02,0.57,2.99,3.00,3.00
1335,1.08,-1.98,1.07,-1.99,1.99,0.47,3.08,3.06,3.06
1349,1.15,-1.98,1.16,-1.97,1.97,0.37,3.12,3.12,3.13
1362,1.25,-1.95,1.26,-1.93,1.93,0.27,3.19,3.19,3.20
1376,1.37,-1.90,1.36,-1.90,1.90,0.17,3.27,3.26,3.27
1390,1.45,-1.89,1.47,-1.86,1.86,0.06,3.31,3.33,3.34
1404,1.58,-1.83,1.58,-1.81,1.81,-0.04,3.39,3.40,3.41
1418,1.70,-1.78,1.70,-1.76,1.76,-0.14,3.46,3.46,3.48
1432,1.83,-1.72,1.83,-1.70,1.70,-0.24,3.54,3.53,3.55
1446,1.96,-1.66,1.96,-1.64,1.64,-0.34,3.60,3.60,3.63
1461,2.11,-1.59,2.10,-1.58,1.58,-0.45,3.69,3.68,3.70
1475,2.24,-1.53,2.25,-1.50,1.50,-0.55,3.75,3.75,3.77
1490,2.39,-1.46,2.40,-1.43,1.43,-0.65,3.82,3.83,3.85
1505,2.55,-1.37,2.56,-1.35,1.35,-0.76,3.90,3.91,3.92
1520,2.72,-1.28,2.72,-1.26,1.26,-0.86,3.98,3.98,4.00
1535,2.89,-1.19,2.89,-1.17,1.17,-0.96,4.06,4.06,4.08
1550,3.08,-1.08,3.07,-1.07,1.07,-1.06,4.15,4.14,4.16
1566,3.26,-0.98,3.25,-0.97,0.97,-1.17,4.23,4.22,4.25
1582,3.45,-0.88,3.44,-0.87,0.87,-1.27,4.32,4.30,4.33
1597,3.63,-0.79,3.63,-0.76,0.76,-1.37,4.39,4.39,4.42
1613,3.83,-0.68,3.84,-0.64,0.64,-1.47,4.47,4.48,4.51
1629,4.05,-0.55,4.05,-0.52,0.52,-1.57,4.57,4.57,4.60
1646,4.28,-0.41,4.27,-0.39,0.39,-1.67,4.67,4.66,4.69
1662,4.47,-0.32,4.50,-0.26,0.26,-1.76,4.73,4.76,4.79
1679,4.71,-0.18,4.74,-0.12,0.12,-1.86,4.83,4.86,4.89
1696,4.97,-0.02,4.99,0.02,-0.02,-1.96,4.95,4.97,5.00
1713,5.22,0.12,5.25,0.17,-0.17,-2.05,5.05,5.08,5.10
1730,5.51,0.30,5.52,0.32,-0.32,-2.14,5.19,5.20,5.21
1747,5.79,0.46,5.80,0.48,-0.48,-2.22,5.31,5.32,5.33
1764,6.07,0.62,6.08,0.64,-0.64,-2.30,5.44,5.44,5.45
1782,6.36,0.79,6.36,0.79,-0.79,-2.38,5.57,5.57,5.57
1800,6.65,0.96,6.65,0.95,-0.95,-2.45,5.70,5.70,5.69
1818,6.93,1.11,6.93,1.10,-1.10,-2.52,5.83,5.83,5.82
1836,7.23,1.29,7.21,1.25,-1.25,-2.59,5.98,5.96,5.95
1854,7.49,1.42,7.48,1.39,-1.39,-2.64,6.10,6.09,6.08
1873,7.78,1.58,7.74,1.53,-1.53,-2.70,6.26,6.22,6.21
1892,8.03,1.69,8.00,1.66,-1.66,-2.74,6.38,6.34,6.34
1911,8.27,1.81,8.25,1.78,-1.78,-2.78,6.49,6.47,6.47
1930,8.48,1.89,8.49,1.89,-1.89,-2.82,6.59,6.60,6.59
1949,8.70,1.98,8.73,2.00,-2.00,-2.84,6.70,6.72,6.72
1969,8.94,2.10,8.95,2.10,-2.10,-2.86,6.84,6.85,6.85
1988,9.16,2.19,9.17,2.20,-2.20,-2.87,6.96,6.97,6.97
2008,9.37,2.28,9.39,2.30,-2.30,-2.87,7.08,7.09,7.09
2028,9.59,2.38,9.60,2.38,-2.38,-2.86,7.21,7.21,7.21
2048,9.81,2.48,9.80,2.47,-2.47,-2.85,7.34,7.32,7.33
2069,9.99,2.54,9.99,2.56,-2.56,-2.83,7.44,7.44,7.45
2090,10.20,2.64,10.19,2.64,-2.64,-2.80,7.56,7.55,7.56
2111,10.40,2.73,10.38,2.72,-2.72,-2.76,7.68,7.66,7.67
2132,10.57,2.79,10.57,2.80,-2.80,-2.72,7.77,7.77,7.78
2153,10.74,2.86,10.75,2.88,-2.88,-2.67,7.87,7.88,7.89
