frequency,raw,error,smoothed,error_smoothed,equalization,equalized_raw,equalized_smoothed,target
20,-12.49477412812925,-13.280660328975118,-12.40068011756479,-13.186550971184532,5.999999999999999,-6.494774128129252,-6.40068011756479,0.785886200845868
21,-11.56217076277276,-12.348038011381043,-11.740384528739252,-12.526254131599156,6.0,-5.562170762772761,-5.740384528739252,0.7858672486082812
22,-11.113140734072301,-11.898983190708734,-11.100382722141855,-11.88623749318316,6.0,-5.113140734072301,-5.100382722141855,0.7858424566364333
23,-10.558467162181085,-11.344277580882544,-10.480674697772601,-11.266501055936544,6.0,-4.558467162181085,-4.480674697772601,0.7858104187014585
24,-9.893119236746408,-10.678888712400541,-9.881260455631477,-10.667044819859289,5.999999999999997,-3.8931192367464105,-3.8812604556314794,0.7857694756541327
25,-9.289670960884331,-10.075388644862997,-9.301432328254073,-10.087162593821718,6.000000000000001,-3.2896709608843304,-3.301432328254072,0.7857176839786661
26,-8.80340077294799,-9.589053554997097,-8.742184681230164,-9.527847288847695,6.0,-2.80340077294799,-2.742184681230164,0.7856527820491079
27,-8.108527582482424,-8.894099736519964,-8.204253765153071,-8.989833586881293,5.999999999999999,-2.1085275824824246,-2.204253765153072,0.7855721540375402
28,-7.731236539950412,-8.516709331379124,-7.688419493618183,-8.473898817893751,6.000000000000001,-1.7312365399504115,-1.6884194936181824,0.785472791428711
29,-7.154475030715427,-7.939826282816879,-7.195284507271069,-7.980642002907682,6.000000000000002,-1.1544750307154255,-1.195284507271067,0.7853512521014525
30,-6.703197918628328,-7.48840153557334,-6.724809736072768,-7.510019992938231,5.999999999999998,-0.7031979186283301,-0.7248097360727694,0.7852036169450121
31,-6.273315738926582,-7.058341182913401,-6.276529364385852,-7.061562226900647,6.0,-0.27331573892658234,-0.2765293643858522,0.785025443986819
32,-5.86346972938295,-6.648281449401535,-5.8495670451746395,-6.634387104147075,5.934795132306858,0.07132540292390832,0.08522808713221863,0.784811720018586
33,-5.472426593536881,-6.256983403256663,-5.442738671907198,-6.227304755090081,5.799702525253529,0.32727593171664715,0.35696385334633085,0.7845568097197813
34,-5.099063513779066,-5.8833179160708795,-5.054617911936194,-5.838882470657566,5.601184046878976,0.5021205330999106,0.5465661349427826,0.7842544022918139
35,-4.66323417927512,-5.4471316349082,-4.683443151054391,-5.46735159735576,5.356663684191999,0.693429504916879,0.6732205331376084,0.7838974556330802
36,-4.260935328700406,-5.0444134668050395,-4.327041413478431,-5.110531354545525,5.0771998340442535,0.8162645053438471,0.750158420565822,0.7834781381046327
37,-3.9243647984886696,-4.707352566447733,-3.9828377971620297,-4.765838184808161,4.76583818480816,0.8414733863194908,0.7830003876461307,0.7829877679590638
38,-3.5846015453293205,-4.367018295860996,-3.648054902700264,-4.430485112936509,4.430485112936509,0.8458835676071885,0.782430210236245,0.7824167505316759
39,-3.523079352719102,-4.304833866042561,-3.320122388262009,-4.1018912302210415,4.1018912302210415,0.5788118775019395,0.7817688419590327,0.7817545133234582
40,-3.0407511396235014,-3.821740578763938,-2.997175839650997,-3.7781805025034236,3.7781805025034236,0.7374293628799222,0.7810046628524265,0.7809894391404364
41,-2.6522876197690968,-3.432396417262966,-2.6784646212635157,-3.458589557064524,3.458589557064524,0.8063019372954274,0.7801249358010085,0.7801087974938694
42,-2.339946274591144,-3.1190449491023373,-2.3644853284700753,-3.1436010676317916,3.143601067631792,0.8036547930406481,0.7791157391617167,0.7790986745111934
43,-2.0431308482285773,-2.8210747498874995,-2.0567534405325882,-2.8347153377277916,2.8347153377277907,0.7915844894992135,0.7779618971952025,0.7779439016589222
44,-1.746567512603363,-2.5231954962397616,-1.7572764266853937,-2.5339233343712357,2.5339233343712357,0.7873558217678727,0.776646907685842,0.7766279836363985
45,-1.454813001666826,-2.2299460275306666,-1.467918806303528,-2.2430716750731166,2.2430716750731157,0.7882586734062897,0.7751528687695877,0.7751330258638407
46,-1.2866559741387462,-2.0600956361985894,-1.1898980589688544,-1.9633584649033318,1.963358464903332,0.6767024907645858,0.7734604059344776,0.7734396620598432
47,-0.6825414849337367,-1.4540684674165432,-0.9235908458170875,-1.6951394456692581,1.695139445669258,1.0125979607355213,0.7715485998521704,0.7715269824828064
48,-0.7916072946762608,-1.56097975817408,-0.6686891257009521,-1.438084041533712,1.4380840415337117,0.6464767468574509,0.7693949158327597,0.7693724634978194
49,-0.47967840611700363,-1.2466303053425152,-0.4245921173444729,-1.1915672527875887,1.1915672527875887,0.711888846670585,0.7669751354431158,0.7669518992255115
50,-0.13927101439157624,-0.9035103505237569,-0.19082496198318388,-0.9550882530516067,0.9550882530516067,0.8158172386600304,0.7642632910684228,0.7642393361321806
51,-0.09916011817266876,-0.8603671297035768,0.032717957045029375,-0.7285136473244153,0.7285136473244149,0.6293535291517461,0.7612316043694443,0.761207011530908
52,0.26492674160041235,-0.49289855548045375,0.24580445830426473,-0.5120459714125434,0.5120459714125433,0.7769727130129556,0.757850429716808,0.7578252970808661
53,0.5777571069294972,-0.17630554156627165,0.4481254095856254,-0.3059627942631375,0.30596279426313755,0.8837199011926348,0.754088203848763,0.7540626484957689
54,0.7173428617205349,-0.03254270108074797,0.6396260203915498,-0.11028538271645652,0.1102853827164565,0.8276282444369913,0.7499114031080063,0.7498855628012828
55,0.73299243532077,-0.012266109292855543,0.8207183001030676,0.07543379036523873,-0.07543379036523876,0.6575586449555312,0.7452845097378288,0.7452585446136255
56,1.0015068545083468,0.2613627714629767,0.992249283151484,0.25207929429999115,-0.25207929429999126,0.7494275602083555,0.7401699888514928,0.74014408304537
57,1.029294538526932,0.2947918975497865,1.1552229434459864,0.42069466562780367,-0.4206946656278036,0.6085998728991284,0.7345282778181828,0.7345026409771456
58,1.401515388550702,0.6732227299885876,1.3103953854714345,0.5820775955304138,-0.5820775955304137,0.8194377930202882,0.7283177899410208,0.7282926585621143
59,1.4452224675258922,0.7237518945758901,1.4579252915366576,0.7364303571126607,-0.7364303571126609,0.7087921104132313,0.7214949344239967,0.7214705729500022
60,1.539706721151711,0.8257158648273459,1.597237665295207,0.8832235105638448,-0.8832235105638452,0.6564832105878659,0.7140141547313618,0.7139908563243651
61,1.7735475518953256,1.0677414774599718,1.727165048614502,1.0213370610832846,-1.0213370610832848,0.7522104908120408,0.7058279875312172,0.7058060744353538
62,1.8741223452160558,1.177255377341705,1.8463152137697194,1.1494280692918268,-1.1494280692918268,0.724694275924229,0.6968871444778926,0.6968669678743509
63,1.974697097106139,1.2875745387364845,1.9535269575274792,1.2663863384107117,-1.2663863384107117,0.7083107586954274,0.6871406191167675,0.6871225583696545
64,2.0752717258615587,1.3987514434852883,2.048250146560376,1.371714325340646,-1.3717143253406465,0.7035574005209122,0.6765358212197297,0.6765202823762704
65,1.9545817643050616,1.2895756101252536,2.130726987130249,1.4657082464919855,-1.4657082464919848,0.48887351781307675,0.6650187406382644,0.665006154179808
66,2.3971098952917465,1.7445849346658777,2.201936154671247,1.5494020117006653,-1.549402011700666,0.8477078835910805,0.6525341429705809,0.6525249606258687
67,2.280776769098084,1.6417562796845977,2.2633497496035937,1.6243239503770084,-1.6243239503770086,0.6564528187210752,0.6390257992265851,0.6390204894134861
68,2.276418390993994,1.6519825983485292,2.316609094314869,1.692172343683482,-1.692172343683482,0.5842460473105122,0.624436750631387,0.6244357926454649
69,2.1557281547368734,1.547014667735073,2.3632340668169505,1.7545244578363781,-1.7545244578363781,0.4012036969004953,0.6087096089805724,0.6087134870018005
70,2.5982574387169897,2.00646134722955,2.4044485985153257,1.812661704446732,-1.8126617044467321,0.7855957342702575,0.5917868940685935,0.5917960914874398
71,2.4775703959317767,1.9039439927349635,2.4411482726544453,1.8675368610474443,-1.8675368610474443,0.6100335348843324,0.573611411607001,0.5736264031968132
72,2.3695788643381577,1.8154309534072062,2.473979451325748,1.9198527772365925,-1.9198527772365925,0.44972608710156514,0.5541266740891553,0.5541479109309515
73,2.504844747727159,1.9715395019293935,2.503464657886833,1.9701872982385216,-1.9701872982385213,0.5346574494886378,0.5332773596483118,0.5333052457977656
74,2.5781705440940588,2.067125876969761,2.530107697375769,2.019097899361155,-2.019097899361155,0.559072644732904,0.511009798014614,0.5110446671242976
75,2.5781813874820627,2.0908668063640796,2.5544373626849324,2.0671648947330903,-2.06716489473309,0.5110164927489729,0.48727246795184254,0.4873145811179831
76,2.5731779596590343,2.111111870915997,2.5769858121606557,2.114969314966139,-2.1149693149661393,0.458208644692895,0.46201649719451643,0.46206608874303745
77,2.477605440015088,2.0423518817708857,2.5982315173196584,2.1630353271281826,-2.163035327128183,0.31457011288690495,0.4351961901914754,0.4352535582442023
78,2.678727094709981,2.2718918780351736,2.618553745886372,2.211784086202671,-2.211784086202671,0.4669430085073101,0.40676965968370116,0.4068352166748075
79,2.6786705182049837,2.3018967645081543,2.6382365426683436,2.2615368976021935,-2.261536897602194,0.4171336206027898,0.3766996450661497,0.3767737536968294
80,2.678581065148038,2.333544135298047,2.657529442782979,2.3125749517859964,-2.312574951785997,0.36600611336204114,0.34495449099698217,0.3450369298499911
81,2.664715360713604,2.353117180240722,2.6767348316608537,2.3652258031701674,-2.365225803170168,0.2994895575434362,0.31150902849068585,0.311598180472882
82,2.5978709847894814,2.3214337792460644,2.6962675325427785,2.419922646707291,-2.419922646707292,0.17794833808218957,0.27634488583548666,0.276437205543417
83,2.7731517220261046,2.5336111870926175,2.716632012976011,2.4771822570984403,-2.4771822570984408,0.29596946492766385,0.23944975587757034,0.23954053493348715
84,2.778745378917717,2.577843320928439,2.738290772250033,2.5374751574604337,-2.5374751574604346,0.24127022145728239,0.2008156147895983,0.20090205798927796
85,2.7788285263455705,2.6183050203462797,2.761446734141895,2.601009830801577,-2.6010098308015777,0.17781869554399288,0.16043690334031746,0.16052350599929088
86,2.7347740859048693,2.6163592098666837,2.785812988150277,2.6675021383527575,-2.6675021383527575,0.06727194755211174,0.1183108497975196,0.11841487603818557
87,2.7193167466942296,2.6447219617827358,2.810469358421436,2.7360268404803154,-2.7360268404803154,-0.01671009378608579,0.07444251794112056,0.07459478491149385
88,2.881095166690669,2.8520044241897002,2.833889987608637,2.8050341760670046,-2.805034176067004,0.07606099062366489,0.02885581154163308,0.02909074250096877
89,2.8822636800656163,2.900324345327446,2.854169833433728,2.872561601242829,-2.872561601242829,0.009702078822787286,-0.01839176780910101,-0.01806066526182981
90,2.8836776376011626,2.9504913298843123,2.869400146173388,2.936597514699324,-2.9365975146993235,-0.05291987709816093,-0.06719736852593572,-0.0668136922831497
91,2.885189900401243,3.002303354321652,2.8780737204918108,2.9954879951342352,-2.9954879951342352,-0.11029809473299235,-0.11741427464242449,-0.11711345392040906
92,2.8865588047062163,3.055454863954898,2.879373577499253,3.0482498453761706,-3.04824984537617,-0.16169104066995388,-0.16887626787691712,-0.16889605924868167
93,2.887447109486917,3.1095359661906414,2.8732332564521474,3.094681046012699,-3.094681046012699,-0.20723393652578181,-0.22144778956055156,-0.22208885670372425
94,2.8874339986086963,3.1640447920243773,2.8601453562686494,3.1352360902215595,-3.13523609022156,-0.2478020916128636,-0.2750907339529105,-0.27661079341568096
95,2.8207090941483206,3.153081980155433,2.840801673279551,3.170727227096158,-3.1707272270961573,-0.3500181329478367,-0.32992555381660615,-0.33237288600711246
96,2.7218505363719947,3.111129334414596,2.8157253223958154,3.2019820313551586,-3.201982031355158,-0.48013149498316343,-0.3862567089593427,-0.38927879804260135
97,2.797389263243685,3.244614780019762,2.7850645964105034,3.2296008376077037,-3.229600837607703,-0.4322115743640178,-0.44453624119719937,-0.447225516776077
98,2.8285659622903205,3.334670081730133,2.7486497473624802,3.253906168430225,-3.253906168430226,-0.4253402061399054,-0.5052564210677457,-0.5061041194398124
99,2.6838450457121663,3.249645662858738,2.7062921560154036,3.2750812092278334,-3.2750812092278334,-0.5912361635156671,-0.5687890532124298,-0.5658006171465715
100,2.6418454409057093,3.268042303522302,2.6581848606114153,3.293400181455996,-3.293400181455996,-0.6515547405502868,-0.6352153208445808,-0.6261968626165926
101,2.624411559689979,3.31158306615458,2.6052033488731485,3.3094074915700453,-3.3094074915700458,-0.6849959318800667,-0.7042041426968972,-0.6871715064646011
102,2.6150131698803274,3.36361415562407,2.5489389846101895,3.323929505823017,-3.323929505823017,-0.7089163359426895,-0.7749905212128274,-0.7486009857437428
104,2.5396658801968925,3.411991033237182,2.4914125376703513,3.3378903887329483,-3.3378903887329487,-0.7982245085360562,-0.8464778510625974,-0.8723251530402893
105,2.3215836328903787,3.255954291319199,2.434561329439468,3.3520093208711983,-3.3520093208711983,-1.0304256879808196,-0.9174479914317302,-0.9343706584288203
106,2.3014565635686277,3.2978311323392435,2.3797038943488964,3.366528361166324,-3.366528361166324,-1.0650717975976964,-0.9868244668174277,-0.9963745687706158
107,2.30816511111993,3.3663821497449167,2.3272077577133397,3.381120129598701,-3.3811201295987003,-1.0729550184787704,-1.0539123718853607,-1.0582170386249867
108,2.2847967564466543,3.4045784501383016,2.2765056956263754,3.395048342550451,-3.3950483425504507,-1.1102515861037965,-1.1185426469240753,-1.1197816936916474
109,2.2922233239077787,3.473179724115138,2.2264593080896384,3.4075368245665723,-3.4075368245665727,-1.115313500658794,-1.1810775164769343,-1.1809564002073594
110,2.2844616155048016,3.5260955691054745,2.1759234762154778,3.4182010770390687,-3.418201077039068,-1.1337394615342662,-1.24227760082359,-1.2416339536006729
111,2.118508893687596,3.420221573456811,2.1242854460510623,3.4273593031347263,-3.4273593031347267,-1.3088504094471305,-1.3030738570836644,-1.301712679769215
112,1.9744269112994577,3.3355238558697122,2.071768825352326,3.4360833025686173,-3.4360833025686177,-1.46165639126916,-1.3643144772162916,-1.3610969445702543
113,1.9776026658172727,3.3973002351142885,2.019394229615034,3.445953808433112,-3.445953808433112,-1.468351142615839,-1.426559578818078,-1.419697569297016
114,2.0004771684581364,3.477909320440384,1.9686280562265832,3.4586034652346407,-3.4586034652346416,-1.4581262967765052,-1.4899754090080584,-1.4774321519822475
115,2.0306036827548293,3.5648289790261076,1.920868471542256,3.475212346691463,-3.4752123466914635,-1.4446086639366342,-1.5543438751492076,-1.5342252962712783
117,1.7843822876650712,3.429103755072805,1.8769671396557728,3.4961333801549626,-3.496133380154962,-1.7117510924898909,-1.6191662404991893,-1.644721467407734
118,1.761597166393897,3.4599067402569,1.8369544992625173,3.520769112442134,-3.520769112442134,-1.759171946048237,-1.6838146131796166,-1.698309573863003
119,1.8023520176338168,3.5530783029845256,1.800047964232367,3.5477265630574593,-3.5477265630574584,-1.7453745454236416,-1.7476785988250914,-1.750726285350709
120,1.847713353779606,3.649645098818592,1.7649161376273494,3.5751829852984627,-3.5751829852984622,-1.7274696315188562,-1.8102668476711128,-1.8019317450389858
121,1.7798450287878955,3.63173784088043,1.7300874468608733,3.6013347392012633,-3.6013347392012642,-1.8214897104133687,-1.8712472923403909,-1.8518928120925344
123,1.6057873969597076,3.5537685835946315,1.6943553164877119,3.624790143602728,-3.624790143602728,-2.0190027466430203,-1.930434827115016,-1.947981186634924
124,1.6357300348099175,3.6298033002870635,1.6570506522848474,3.6448017517125937,-3.6448017517125937,-2.0090717169026764,-1.9877510994277463,-1.9940732654771458
125,1.6747459127119266,3.7135957223200236,1.6181119763525191,3.661295140500772,-3.6612951405007723,-1.9865492277888457,-2.043183164148253,-2.038849809608097
126,1.6905101051326992,3.772816796534579,1.5779583993243977,3.67471626960328,-3.67471626960328,-1.9842061644705806,-2.096757870278882,-2.0823066914018797
128,1.4270462775166854,3.592314446919282,1.5372346407748092,3.685768613585506,-3.6857686135855077,-2.2587223360688222,-2.1485339728106982,-2.1652681694025966
129,1.4255271830380305,3.630313747712833,1.4965314316557543,3.6951333684540497,-3.6951333684540497,-2.269606185416019,-2.1986019367982954,-2.204786564674803
130,1.4618163230527186,3.704828452984271,1.4561799890764848,3.7032577981027783,-3.7032577981027783,-2.2414414750500598,-2.2470778090262935,-2.2430121299315524
131,1.4800645809287123,3.7600250836681184,1.4161804186667342,3.7102637072130293,-3.71026370721303,-2.2301991262843175,-2.294083288546296,-2.279960502739406
133,1.4231835110996225,3.773285572595281,1.376267653981845,3.7159825796833017,-3.715982579683303,-2.2927990685836805,-2.339714925701458,-2.3501020614956585
134,1.2696353929690032,3.652974738577393,1.3360676494983519,3.7200821283711214,-3.7200821283711227,-2.4504467354021195,-2.384014478872771,-2.38333934560839
135,1.2576245091500082,3.673011505056962,1.2952691336549487,3.722223723506439,-3.7222237235064397,-2.4645992143564315,-2.426954589851491,-2.4153869959069536
137,1.3280159600934582,3.804036848747513,1.253740231376801,3.722188307960292,-3.7221883079602915,-2.3941723478668333,-2.4684480765834906,-2.476020888654055
138,1.2462023716391142,3.750866232482574,1.2115502567127656,3.7199289398720987,-3.7199289398720983,-2.4737265682329843,-2.5083786831593327,-2.5046638608434595
140,1.1208409979461451,3.679591136541482,1.1689000340804214,3.715541286358421,-3.71554128635842,-2.594700288412275,-2.5466412522779986,-2.558750138595337
141,1.0523816335814489,3.636636087602602,1.1260006267727114,3.7091756944503556,-3.709175694450356,-2.656794060868907,-2.5831750676776446,-2.5842544540211527
142,1.090436613057578,3.6992106836296994,1.0829570037820133,3.700934716281106,-3.700934716281107,-2.610498103223529,-2.6179777124990937,-2.6087740705721214
144,1.1338183525624204,3.788801617189682,1.0397061141610207,3.690802252155445,-3.6908022521554438,-2.5569838995930234,-2.651096137994423,-2.6549832646272615
145,1.0362290149326172,3.712963621955054,0.9960342142645635,3.6786360696134714,-3.6786360696134706,-2.642407054680853,-2.6826018553489073,-2.6767346070224365
147,0.8517554552790636,3.5694386760891144,0.951666575988729,3.6642299160453735,-3.6642299160453726,-2.812474460766309,-2.7125633400566436,-2.7176832208100508
148,0.8589018343437609,3.5958421177970603,0.9063956893113911,3.6474241162668513,-3.647424116266851,-2.7885222819230897,-2.7410284269554595,-2.7369402834532996
150,0.8963874891058536,3.669553026531636,0.860200335900497,3.6282238527389135,-3.628223852738914,-2.73183636363306,-2.768023516838417,-2.773165537425782
151,0.9248455510465056,3.715035736694946,0.8133102136261823,3.6068779892940444,-3.6068779892940444,-2.6820324382475387,-2.793567775667862,-2.79019018564844
153,0.7268308189076584,3.5490304834938504,0.7661874692783377,3.583880980050785,-3.5838809800507847,-2.8570501611431265,-2.817693510772447,-2.8221996645861918
154,0.6534339086736498,3.490670726251839,0.7194229587595697,3.5598846629016156,-3.5598846629016156,-2.906450754227966,-2.840461704142046,-2.837236817578189
156,0.6917107737336006,3.557211945658861,0.6735736116265276,3.5355384095197895,-3.5355384095197895,-2.843827635786189,-2.861964797893262,-2.8655011719252608
157,0.6467798989067433,3.525556075900885,0.6289894293547437,3.51130468395667,-3.5113046839566686,-2.8645247850499254,-2.882315254601925,-2.878776176994142
159,0.5756452709491104,3.479370857394922,0.5856865294493412,3.487311452350557,-3.4873114523505575,-2.911666181401447,-2.9016249229012163,-2.9037255864458116
