frequency,raw
20,-11.02
21,-11.02
22,-11.02
23,-11.02
24,-11.02
25,-11.02
26,-11.02
27,-11.02
28,-11.02
29,-11.02
30,-11.02
31,-11.02
32,-11.02
33,-11.02
34,-11.02
35,-11.02
36,-11.02
37,-10.75
38,-10.26
39,-9.73
40,-9.32
41,-8.76
42,-8.38
43,-7.89
44,-7.49
45,-7.06
46,-6.81
47,-6.32
48,-6.00
49,-5.61
50,-5.25
51,-4.83
52,-4.61
53,-4.26
54,-4.00
55,-3.65
56,-3.34
57,-3.09
58,-2.87
59,-2.54
60,-2.35
61,-2.16
62,-1.98
63,-1.80
64,-1.62
65,-1.29
66,-1.25
67,-0.97
68,-0.93
69,-0.77
70,-0.64
71,-0.61
72,-0.45
73,-0.32
74,-0.30
75,-0.15
76,-0.00
77,0.00
78,0.00
79,0.00
80,0.09
81,0.17
82,0.21
83,0.33
84,0.33
85,0.33
86,0.33
87,0.33
88,0.33
89,0.33
90,0.33
91,0.33
92,0.33
93,0.33
94,0.33
95,0.33
96,0.33
97,0.33
98,0.33
99,0.33
100,0.33
101,0.33
102,0.33
104,0.33
105,0.33
106,0.33
107,0.33
108,0.33
109,0.33
110,0.33
111,0.33
112,0.33
113,0.23
114,0.13
115,0.04
117,0.00
118,0.00
119,0.00
120,0.00
121,0.00
123,0.00
124,0.00
125,0.00
126,0.00
128,0.00
129,0.00
130,-0.05
131,-0.14
133,-0.31
134,-0.32
135,-0.32
137,-0.32
138,-0.32
140,-0.32
141,-0.32
142,-0.32
144,-0.32
145,-0.32
147,-0.47
148,-0.48
150,-0.53
151,-0.61
153,-0.64
154,-0.64
156,-0.64
157,-0.64
159,-0.64
160,-0.64
162,-0.64
164,-0.64
165,-0.64
167,-0.64
169,-0.64
170,-0.64
172,-0.64
174,-0.75
175,-0.81
177,-0.94
179,-0.97
181,-0.97
183,-0.97
184,-0.97
186,-0.97
188,-0.97
190,-0.97
192,-0.97
194,-0.97
196,-0.97
198,-0.97
200,-0.97
202,-0.97
204,-0.97
206,-0.97
208,-0.97
210,-0.97
212,-0.97
214,-0.97
216,-0.97
218,-0.97
221,-1.02
223,-1.12
225,-1.22
227,-1.29
229,-1.29
232,-1.29
234,-1.29
236,-1.29
239,-1.29
241,-1.29
244,-1.29
246,-1.29
248,-1.29
251,-1.29
253,-1.29
256,-1.29
259,-1.29
261,-1.29
264,-1.29
266,-1.29
269,-1.29
272,-1.29
274,-1.29
277,-1.29
280,-1.29
283,-1.29
286,-1.29
288,-1.29
291,-1.29
294,-1.29
297,-1.29
300,-1.29
303,-1.29
306,-1.29
309,-1.29
312,-1.29
316,-1.29
319,-1.29
322,-1.29
325,-1.29
328,-1.29
332,-1.29
335,-1.29
338,-1.29
342,-1.29
345,-1.29
349,-1.29
352,-1.29
356,-1.29
359,-1.29
363,-1.29
366,-1.29
370,-1.29
374,-1.29
377,-1.29
381,-1.29
385,-1.29
389,-1.29
393,-1.29
397,-1.29
401,-1.29
405,-1.29
409,-1.29
413,-1.29
417,-1.29
421,-1.29
425,-1.29
430,-1.29
434,-1.29
438,-1.29
443,-1.29
447,-1.29
451,-1.29
456,-1.29
460,-1.29
465,-1.29
470,-1.29
474,-1.29
479,-1.29
484,-1.29
489,-1.29
494,-1.29
499,-1.29
504,-1.29
509,-1.23
514,-1.13
519,-1.13
524,-1.07
529,-0.97
535,-0.97
540,-0.97
545,-0.97
551,-0.97
556,-0.97
562,-0.97
568,-0.97
573,-0.97
579,-1.03
585,-1.13
591,-1.13
596,-1.19
602,-1.29
608,-1.29
615,-1.29
621,-1.29
627,-1.29
633,-1.29
639,-1.29
646,-1.29
652,-1.29
659,-1.29
665,-1.29
672,-1.29
679,-1.29
686,-1.29
692,-1.29
699,-1.22
706,-1.13
713,-1.13
721,-1.03
728,-0.97
735,-0.97
742,-0.97
750,-0.97
757,-0.97
765,-0.97
773,-0.97
780,-0.97
788,-0.97
796,-0.97
804,-0.97
812,-0.97
820,-0.97
828,-0.97
837,-0.97
845,-0.97
853,-0.97
862,-0.96
871,-0.84
879,-0.74
888,-0.64
897,-0.64
906,-0.64
915,-0.64
924,-0.64
933,-0.55
943,-0.43
952,-0.32
962,-0.32
971,-0.26
981,-0.15
991,-0.03
1001,0.00
1011,0.00
1021,0.00
1031,0.17
1041,0.33
1052,0.33
1062,0.33
1073,0.43
1084,0.65
1094,0.65
1105,0.65
1116,0.66
1128,0.78
1139,0.89
1150,0.98
1162,0.98
1173,0.98
1185,1.05
1197,1.28
1209,1.30
1221,1.35
1233,1.46
1246,1.58
1258,1.63
1271,1.66
1283,1.87
1296,1.95
1309,1.97
1322,2.09
1335,2.20
1349,2.35
1362,2.57
1376,2.60
1390,2.71
1404,2.93
1418,3.04
1432,3.15
1446,3.27
1461,3.51
1475,3.57
1490,3.60
1505,3.71
1520,3.82
1535,3.90
1550,3.90
1566,3.90
1582,3.90
1597,3.90
1613,3.90
1629,3.96
1646,4.06
1662,4.06
1679,4.14
1696,4.22
1713,4.22
1730,4.22
1747,4.26
1764,4.37
1782,4.48
1800,4.54
1818,4.55
1836,4.77
1854,4.87
1873,4.90
1892,5.13
1911,5.27
1930,5.39
1949,5.50
1969,5.70
1988,5.88
2008,5.99
2028,6.21
2048,6.43
2069,6.66
2090,6.77
2111,6.88
2132,7.00
2153,7.11
2175,7.14
2196,7.14
2218,7.14
2240,7.14
2263,7.10
2285,6.99
2308,6.87
2331,6.81
2355,6.81
2378,6.81
2402,6.75
2426,6.63
2450,6.52
2475,6.41
2500,6.26
2525,6.04
2550,5.81
2575,5.59
2601,5.37
2627,4.93
2653,4.60
2680,4.35
2707,3.90
2734,3.59
2761,3.37
2789,3.14
2817,2.92
2845,2.69
2873,2.47
2902,2.25
2931,2.02
2960,1.80
2990,1.57
3020,1.23
3050,0.80
3080,0.58
3111,0.35
3142,0.11
3174,-0.24
3206,-0.49
3238,-0.68
3270,-0.79
3303,-0.90
3336,-0.97
3369,-0.97
3403,-0.97
3437,-0.85
3471,-0.64
3506,-0.52
3541,-0.34
3576,-0.12
3612,0.11
3648,0.33
3685,0.56
3721,0.78
3759,1.01
3796,1.32
3834,1.77
3873,2.01
3911,2.23
3950,2.45
3990,2.68
4030,2.83
4070,2.97
4111,3.19
4152,3.33
4193,3.44
4235,3.56
4278,3.77
4321,4.00
4364,4.22
4407,4.44
4451,4.66
4496,4.89
4541,5.12
4586,5.34
4632,5.56
4679,5.79
4725,5.93
4773,6.08
4820,6.30
4868,6.43
4917,6.59
4966,6.81
5016,7.04
5066,7.26
5117,7.48
5168,7.59
5220,7.70
5272,7.81
5325,7.93
5378,8.04
5432,8.11
5486,8.11
5541,8.11
5596,8.06
5652,7.95
5709,7.84
5766,7.79
5823,7.77
5882,7.66
5940,7.55
6000,7.46
6060,7.46
6120,7.29
6182,7.14
6244,7.14
6306,7.14
6369,7.14
6433,7.14
6497,7.14
6562,7.20
6628,7.33
6694,7.56
6761,7.78
6828,8.00
6897,8.23
6966,8.64
7035,9.00
7106,9.23
7177,9.66
7249,10.00
7321,10.23
7394,10.45
7468,10.61
7543,10.72
7618,10.83
7694,10.95
7771,11.03
7849,11.03
7928,11.03
8007,11.03
8087,11.03
8168,10.82
8250,10.65
8332,10.54
8415,10.31
8499,10.09
8584,9.85
8670,9.51
8757,9.17
8845,8.80
8933,8.35
9022,7.91
9113,7.45
9204,7.00
9296,6.77
9389,6.54
9483,6.32
9577,6.21
9673,6.17
9770,6.17
9868,6.17
9966,6.17
10066,6.17
10167,6.17
10268,6.17
10371,6.25
10475,6.48
10579,6.60
10685,6.77
10792,6.98
10900,7.10
11009,7.28
11119,7.48
11230,7.59
11343,7.79
11456,7.98
11571,8.09
11686,8.21
11803,8.32
11921,8.43
12040,8.65
12161,8.88
12282,9.09
12405,9.21
12529,9.32
12655,9.41
12781,9.41
12909,9.41
13038,9.41
13168,9.41
13300,9.41
13433,9.32
13567,9.09
13703,9.08
13840,9.03
13978,8.91
14118,8.80
14259,8.76
14402,8.72
14546,8.49
14692,8.35
14838,8.24
14987,8.13
15137,7.82
15288,7.48
15441,7.15
15595,6.70
15751,6.25
15909,5.78
16068,5.10
16229,4.58
16391,4.13
16555,3.68
16720,3.14
16888,2.58
17056,2.02
17227,1.56
17399,1.01
17573,0.34
17749,-0.34
17926,-0.95
18106,-1.53
18287,-2.20
18470,-2.87
18654,-3.55
18841,-4.22
19029,-4.81
19220,-5.41
19412,-6.08
19606,-6.66
19802,-7.22
20000,-7.78
