frequency,raw
20.00,-1.50
20.20,-1.49
20.40,-1.48
20.61,-1.47
20.81,-1.46
21.02,-1.45
21.23,-1.44
21.44,-1.43
21.66,-1.42
21.87,-1.41
22.09,-1.39
22.31,-1.38
22.54,-1.37
22.76,-1.35
22.99,-1.34
23.22,-1.32
23.45,-1.30
23.69,-1.28
23.92,-1.27
24.16,-1.24
24.40,-1.22
24.65,-1.19
24.89,-1.17
25.14,-1.15
25.39,-1.12
25.65,-1.10
25.91,-1.08
26.16,-1.06
26.43,-1.04
26.69,-1.01
26.96,-0.99
27.23,-0.97
27.50,-0.94
27.77,-0.92
28.05,-0.90
28.33,-0.87
28.62,-0.84
28.90,-0.82
29.19,-0.79
29.48,-0.77
29.78,-0.75
30.08,-0.72
30.38,-0.70
30.68,-0.68
30.99,-0.66
31.30,-0.65
31.61,-0.63
31.93,-0.61
32.24,-0.60
32.57,-0.59
32.89,-0.57
33.22,-0.56
33.55,-0.55
33.89,-0.53
34.23,-0.52
34.57,-0.51
34.92,-0.50
35.27,-0.49
35.62,-0.48
35.97,-0.46
36.33,-0.45
36.70,-0.44
37.06,-0.43
37.43,-0.43
37.81,-0.42
38.19,-0.41
38.57,-0.40
38.95,-0.39
39.34,-0.38
39.74,-0.38
40.14,-0.37
40.54,-0.36
40.94,-0.35
41.35,-0.34
41.76,-0.33
42.18,-0.33
42.60,-0.32
43.03,-0.32
43.46,-0.31
43.90,-0.30
44.33,-0.29
44.78,-0.28
45.23,-0.28
45.68,-0.27
46.13,-0.27
46.60,-0.26
47.06,-0.25
47.53,-0.24
48.01,-0.24
48.49,-0.24
48.97,-0.23
49.46,-0.22
49.96,-0.21
50.46,-0.21
50.96,-0.20
51.47,-0.20
51.99,-0.19
52.51,-0.18
53.03,-0.18
53.56,-0.17
54.10,-0.17
54.64,-0.16
55.18,-0.15
55.74,-0.14
56.29,-0.14
56.86,-0.13
57.42,-0.13
58.00,-0.12
58.58,-0.11
59.16,-0.10
59.76,-0.08
60.35,-0.07
60.96,-0.06
61.57,-0.04
62.18,-0.02
62.80,0.00
63.43,0.03
64.07,0.05
64.71,0.06
65.35,0.07
66.01,0.08
66.67,0.09
67.33,0.09
68.01,0.09
68.69,0.09
69.37,0.09
70.07,0.09
70.77,0.10
71.48,0.11
72.19,0.12
72.91,0.13
73.64,0.16
74.38,0.18
75.12,0.19
75.87,0.20
76.63,0.20
77.40,0.20
78.17,0.21
78.95,0.23
79.74,0.24
80.54,0.26
81.35,0.28
82.16,0.29
82.98,0.30
83.81,0.32
84.65,0.33
85.50,0.33
86.35,0.34
87.22,0.35
88.09,0.36
88.97,0.38
89.86,0.39
90.76,0.39
91.66,0.40
92.58,0.42
93.51,0.43
94.44,0.43
95.39,0.44
96.34,0.46
97.30,0.47
98.28,0.47
99.26,0.48
100.25,0.48
101.25,0.47
102.27,0.46
103.29,0.46
104.32,0.46
105.37,0.47
106.42,0.49
107.48,0.51
108.56,0.53
109.64,0.54
110.74,0.55
111.85,0.55
112.97,0.55
114.10,0.55
115.24,0.56
116.39,0.55
117.55,0.54
118.73,0.55
119.92,0.56
121.12,0.58
122.33,0.61
123.55,0.63
124.79,0.64
126.03,0.65
127.29,0.64
128.57,0.62
129.85,0.60
131.15,0.60
132.46,0.60
133.79,0.62
135.12,0.64
136.48,0.65
137.84,0.66
139.22,0.65
140.61,0.64
142.02,0.62
143.44,0.62
144.87,0.61
146.32,0.62
147.78,0.64
149.26,0.65
150.75,0.67
152.26,0.67
153.78,0.65
155.32,0.64
156.88,0.63
158.44,0.62
160.03,0.62
161.63,0.63
163.24,0.64
164.88,0.65
166.53,0.66
168.19,0.65
169.87,0.65
171.57,0.63
173.29,0.62
175.02,0.60
176.77,0.58
178.54,0.56
180.32,0.55
182.13,0.53
183.95,0.53
185.79,0.54
187.65,0.55
189.52,0.54
191.42,0.53
193.33,0.52
195.27,0.49
197.22,0.46
199.19,0.43
201.18,0.41
203.19,0.39
205.23,0.38
207.28,0.37
209.35,0.36
211.44,0.35
213.56,0.35
215.69,0.35
217.85,0.35
220.03,0.34
222.23,0.33
224.45,0.31
226.70,0.27
228.96,0.25
231.25,0.23
233.57,0.22
235.90,0.21
238.26,0.21
240.64,0.20
243.05,0.20
245.48,0.19
247.93,0.19
250.41,0.18
252.92,0.18
255.45,0.17
258.00,0.17
260.58,0.17
263.19,0.16
265.82,0.16
268.48,0.15
271.16,0.15
273.87,0.15
276.61,0.15
279.38,0.14
282.17,0.14
284.99,0.13
287.84,0.13
290.72,0.13
293.63,0.12
296.57,0.12
299.53,0.11
302.53,0.11
305.55,0.10
308.61,0.09
311.69,0.09
314.81,0.08
317.96,0.07
321.14,0.06
324.35,0.05
327.59,0.04
330.87,0.03
334.18,0.02
337.52,0.01
340.90,0.00
344.30,-0.02
347.75,-0.03
351.23,-0.04
354.74,-0.05
358.28,-0.06
361.87,-0.07
365.49,-0.08
369.14,-0.09
372.83,-0.10
376.56,-0.11
380.33,-0.12
384.13,-0.13
387.97,-0.14
391.85,-0.15
395.77,-0.17
399.73,-0.18
403.72,-0.19
407.76,-0.21
411.84,-0.23
415.96,-0.25
420.12,-0.28
424.32,-0.31
428.56,-0.35
432.85,-0.39
437.18,-0.42
441.55,-0.47
445.96,-0.50
450.42,-0.52
454.93,-0.50
459.48,-0.47
464.07,-0.42
468.71,-0.36
473.40,-0.31
478.13,-0.27
482.91,-0.25
487.74,-0.24
492.62,-0.24
497.55,-0.23
502.52,-0.23
507.55,-0.22
512.62,-0.21
517.75,-0.20
522.93,-0.19
528.16,-0.20
533.44,-0.19
538.77,-0.20
544.16,-0.20
549.60,-0.21
555.10,-0.21
560.65,-0.21
566.25,-0.22
571.92,-0.22
577.64,-0.22
583.41,-0.22
589.25,-0.22
595.14,-0.22
601.09,-0.22
607.10,-0.21
613.17,-0.21
619.30,-0.21
625.50,-0.20
631.75,-0.19
638.07,-0.18
644.45,-0.18
650.89,-0.17
657.40,-0.16
663.98,-0.17
670.62,-0.16
677.32,-0.16
684.10,-0.15
690.94,-0.15
697.85,-0.16
704.83,-0.15
711.87,-0.15
718.99,-0.14
726.18,-0.12
733.44,-0.09
740.78,-0.05
748.19,-0.01
755.67,0.03
763.23,0.06
770.86,0.08
778.57,0.10
786.35,0.12
794.22,0.12
802.16,0.12
810.18,0.13
818.28,0.12
826.46,0.12
834.73,0.13
843.08,0.14
851.51,0.16
860.02,0.18
868.62,0.20
877.31,0.21
886.08,0.21
894.94,0.21
903.89,0.20
912.93,0.19
922.06,0.17
931.28,0.16
940.59,0.14
950.00,0.12
959.50,0.10
969.09,0.08
978.78,0.06
988.57,0.04
998.46,0.01
1008.44,-0.04
1018.53,-0.10
1028.71,-0.16
1039.00,-0.25
1049.39,-0.34
1059.88,-0.42
1070.48,-0.50
1081.19,-0.58
1092.00,-0.65
1102.92,-0.72
1113.95,-0.79
1125.09,-0.85
1136.34,-0.91
1147.70,-0.96
1159.18,-1.00
1170.77,-1.03
1182.48,-1.06
1194.30,-1.07
1206.25,-1.09
1218.31,-1.11
1230.49,-1.13
1242.80,-1.17
1255.22,-1.22
1267.78,-1.27
1280.45,-1.32
1293.26,-1.39
1306.19,-1.47
1319.25,-1.56
1332.45,-1.66
1345.77,-1.76
1359.23,-1.87
1372.82,-1.98
1386.55,-2.08
1400.41,-2.17
1414.42,-2.27
1428.56,-2.34
1442.85,-2.42
1457.28,-2.49
1471.85,-2.55
1486.57,-2.58
1501.43,-2.57
1516.45,-2.52
1531.61,-2.42
1546.93,-2.27
1562.40,-2.08
1578.02,-1.89
1593.80,-1.71
1609.74,-1.55
1625.84,-1.46
1642.10,-1.39
1658.52,-1.36
1675.10,-1.37
1691.85,-1.37
1708.77,-1.37
1725.86,-1.35
1743.12,-1.31
1760.55,-1.24
1778.15,-1.15
1795.94,-1.04
1813.90,-0.92
1832.03,-0.81
1850.36,-0.72
1868.86,-0.62
1887.55,-0.53
1906.42,-0.46
1925.49,-0.42
1944.74,-0.38
1964.19,-0.37
1983.83,-0.36
2003.67,-0.34
2023.71,-0.32
2043.94,-0.30
2064.38,-0.27
2085.03,-0.24
2105.88,-0.21
2126.94,-0.19
2148.20,-0.18
2169.69,-0.19
2191.38,-0.20
2213.30,-0.20
2235.43,-0.19
2257.78,-0.16
2280.36,-0.11
2303.17,-0.04
2326.20,0.06
2349.46,0.18
2372.95,0.33
2396.68,0.52
2420.65,0.73
2444.86,0.97
2469.31,1.23
2494.00,1.50
2518.94,1.79
2544.13,2.09
2569.57,2.37
2595.27,2.65
2621.22,2.90
2647.43,3.14
2673.90,3.37
2700.64,3.59
2727.65,3.81
2754.93,4.05
2782.48,4.30
2810.30,4.57
2838.40,4.85
2866.79,5.11
2895.46,5.38
2924.41,5.63
2953.65,5.85
2983.19,6.05
3013.02,6.23
3043.15,6.39
3073.58,6.52
3104.32,6.59
3135.36,6.62
3166.72,6.60
3198.38,6.53
3230.37,6.43
3262.67,6.33
3295.30,6.20
3328.25,6.06
3361.53,5.94
3395.15,5.85
3429.10,5.78
3463.39,5.71
3498.03,5.64
3533.01,5.55
3568.34,5.46
3604.02,5.35
3640.06,5.23
3676.46,5.08
3713.22,4.94
3750.36,4.78
3787.86,4.63
3825.74,4.47
3864.00,4.32
3902.64,4.17
3941.66,4.01
3981.08,3.84
4020.89,3.64
4061.10,3.43
4101.71,3.19
4142.73,2.91
4184.15,2.60
4226.00,2.27
4268.26,1.91
4310.94,1.54
4354.05,1.17
4397.59,0.80
4441.56,0.43
4485.98,0.05
4530.84,-0.36
4576.15,-0.78
4621.91,-1.20
4668.13,-1.63
4714.81,-2.07
4761.96,-2.48
4809.58,-2.86
4857.67,-3.14
4906.25,-3.31
4955.31,-3.34
5004.87,-3.18
5054.91,-2.87
5105.46,-2.45
5156.52,-1.90
5208.08,-1.28
5260.16,-0.62
5312.77,0.08
5365.89,0.81
5419.55,1.56
5473.75,2.30
5528.49,3.03
5583.77,3.75
5639.61,4.42
5696.00,5.03
5752.96,5.60
5810.49,6.11
5868.60,6.56
5927.28,6.96
5986.56,7.34
6046.42,7.69
6106.89,8.01
6167.96,8.30
6229.64,8.52
6291.93,8.66
6354.85,8.73
6418.40,8.71
6482.58,8.55
6547.41,8.29
6612.88,7.87
6679.01,7.27
6745.80,6.60
6813.26,5.90
6881.39,5.24
6950.21,4.74
7019.71,4.42
7089.91,4.42
7160.81,4.65
7232.41,5.03
7304.74,5.53
7377.79,6.08
7451.56,6.64
7526.08,7.19
7601.34,7.71
7677.35,8.20
7754.13,8.66
7831.67,9.09
7909.98,9.53
7989.08,9.96
8068.98,10.45
8149.67,10.98
8231.16,11.55
8313.47,12.17
8396.61,12.78
8480.57,13.37
8565.38,13.91
8651.03,14.33
8737.54,14.59
8824.92,14.60
8913.17,14.42
9002.30,13.96
9092.32,13.06
9183.25,12.08
9275.08,11.13
9367.83,9.76
9461.51,8.27
9556.12,6.89
9651.68,5.59
9748.20,4.29
9845.68,2.99
9944.14,1.74
10043.58,0.55
10144.02,-0.50
10245.46,-1.40
10347.91,-2.13
10451.39,-2.65
10555.91,-2.92
10661.46,-2.93
10768.08,-2.65
10875.76,-2.19
10984.52,-1.62
11094.36,-0.90
11205.31,-0.09
11317.36,0.86
11430.53,1.89
11544.84,2.31
11660.29,2.33
11776.89,2.67
11894.66,2.54
12013.60,1.90
12133.74,1.27
12255.08,0.17
12377.63,-1.15
12501.41,-2.53
12626.42,-3.91
12752.68,-5.20
12880.21,-6.37
13009.01,-7.28
13139.10,-8.11
13270.49,-8.87
13403.20,-9.72
13537.23,-10.78
13672.60,-11.99
13809.33,-13.32
13947.42,-14.33
14086.90,-14.90
14227.77,-14.92
14370.04,-14.22
14513.74,-13.12
14658.88,-11.78
14805.47,-10.47
14953.52,-9.39
15103.06,-8.61
15254.09,-8.36
15406.63,-8.55
15560.70,-9.07
15716.30,-9.95
15873.47,-11.01
16032.20,-12.13
16192.52,-13.20
16354.45,-14.02
16517.99,-14.58
16683.17,-14.85
16850.01,-14.77
17018.51,-14.50
17188.69,-14.14
17360.58,-13.82
17534.18,-13.67
17709.53,-13.67
17886.62,-13.89
18065.49,-14.17
18246.14,-14.43
18428.60,-14.56
18612.89,-14.55
18799.02,-14.50
18987.01,-14.48
19176.88,-14.60
19368.65,-14.84
19562.33,-15.19
19757.96,-15.64
19955.54,-16.20
