frequency,raw,error,smoothed,error_smoothed,equalization,parametric_eq,fixed_band_eq,equalized_raw,equalized_smoothed,target
20.00,9.58,6.48,9.58,6.48,-6.48,-7.02,-4.09,3.11,3.11,3.11
20.20,9.66,6.57,9.66,6.57,-6.57,-7.07,-4.20,3.10,3.09,3.10
20.40,9.73,6.65,9.74,6.65,-6.66,-7.12,-4.31,3.08,3.08,3.09
20.61,9.81,6.74,9.81,6.74,-6.74,-7.16,-4.43,3.07,3.07,3.08
20.81,9.89,6.83,9.89,6.82,-6.82,-7.21,-4.54,3.07,3.07,3.07
21.02,9.96,6.91,9.97,6.91,-6.90,-7.26,-4.67,3.06,3.06,3.06
21.23,10.03,6.99,10.03,6.99,-6.98,-7.30,-4.79,3.05,3.05,3.05
21.44,10.10,7.07,10.10,7.06,-7.06,-7.35,-4.92,3.05,3.04,3.04
21.66,10.15,7.13,10.16,7.13,-7.13,-7.40,-5.05,3.02,3.03,3.03
21.87,10.21,7.20,10.21,7.20,-7.20,-7.45,-5.19,3.01,3.01,3.02
22.09,10.27,7.27,10.27,7.26,-7.27,-7.50,-5.32,3.01,3.00,3.01
22.31,10.32,7.33,10.33,7.33,-7.33,-7.55,-5.47,2.99,3.00,3.00
22.54,10.38,7.40,10.38,7.40,-7.40,-7.60,-5.61,2.99,2.99,2.99
22.76,10.44,7.47,10.44,7.46,-7.46,-7.64,-5.77,2.98,2.98,2.98
22.99,10.49,7.52,10.50,7.53,-7.53,-7.69,-5.92,2.97,2.97,2.98
23.22,10.55,7.59,10.55,7.59,-7.59,-7.75,-6.08,2.96,2.96,2.97
23.45,10.61,7.66,10.61,7.65,-7.66,-7.80,-6.24,2.96,2.95,2.96
23.69,10.66,7.72,10.67,7.72,-7.72,-7.85,-6.41,2.94,2.95,2.95
23.92,10.72,7.79,10.72,7.79,-7.79,-7.90,-6.57,2.94,2.94,2.94
24.16,10.78,7.86,10.78,7.85,-7.85,-7.95,-6.75,2.93,2.93,2.93
24.40,10.83,7.92,10.83,7.92,-7.91,-8.00,-6.92,2.92,2.92,2.92
24.65,10.88,7.97,10.89,7.97,-7.97,-8.05,-7.10,2.91,2.91,2.92
24.89,10.94,8.03,10.94,8.03,-8.03,-8.10,-7.28,2.91,2.91,2.92
25.14,10.99,8.08,11.00,8.08,-8.09,-8.16,-7.47,2.91,2.91,2.92
25.39,11.05,8.15,11.05,8.14,-8.14,-8.21,-7.65,2.91,2.91,2.91
25.65,11.10,8.20,11.10,8.20,-8.19,-8.26,-7.84,2.91,2.91,2.91
25.91,11.15,8.25,11.15,8.25,-8.24,-8.32,-8.03,2.91,2.91,2.91
26.16,11.20,8.30,11.20,8.30,-8.29,-8.37,-8.22,2.91,2.91,2.91
26.43,11.25,8.35,11.25,8.34,-8.34,-8.42,-8.42,2.91,2.91,2.91
26.69,11.29,8.39,11.30,8.39,-8.39,-8.48,-8.61,2.90,2.91,2.91
26.96,11.34,8.44,11.34,8.44,-8.44,-8.53,-8.80,2.91,2.91,2.91
27.23,11.39,8.49,11.39,8.48,-8.49,-8.59,-8.99,2.91,2.90,2.91
27.50,11.43,8.53,11.44,8.53,-8.54,-8.64,-9.17,2.90,2.90,2.91
27.77,11.48,8.58,11.49,8.58,-8.59,-8.69,-9.36,2.90,2.90,2.91
28.05,11.54,8.65,11.54,8.64,-8.64,-8.75,-9.54,2.90,2.90,2.90
28.33,11.59,8.70,11.60,8.70,-8.70,-8.80,-9.71,2.89,2.89,2.90
28.62,11.65,8.77,11.65,8.76,-8.76,-8.86,-9.88,2.89,2.89,2.89
28.90,11.70,8.82,11.71,8.82,-8.83,-8.91,-10.03,2.88,2.88,2.89
29.19,11.76,8.89,11.76,8.89,-8.89,-8.97,-10.19,2.87,2.87,2.88
29.48,11.82,8.96,11.82,8.95,-8.95,-9.03,-10.32,2.87,2.87,2.87
29.78,11.88,9.02,11.88,9.02,-9.02,-9.08,-10.46,2.87,2.87,2.87
30.08,11.94,9.09,11.94,9.08,-9.08,-9.14,-10.57,2.86,2.86,2.86
30.38,11.99,9.14,12.00,9.14,-9.14,-9.19,-10.68,2.85,2.86,2.86
30.68,12.05,9.20,12.05,9.20,-9.20,-9.25,-10.77,2.86,2.86,2.86
30.99,12.11,9.26,12.11,9.25,-9.25,-9.31,-10.86,2.86,2.85,2.86
31.30,12.16,9.31,12.17,9.31,-9.31,-9.36,-10.92,2.85,2.86,2.86
31.61,12.22,9.37,12.22,9.36,-9.36,-9.42,-10.98,2.86,2.86,2.86
31.93,12.28,9.42,12.28,9.42,-9.42,-9.47,-11.01,2.86,2.86,2.87
32.24,12.33,9.47,12.34,9.47,-9.47,-9.53,-11.04,2.86,2.86,2.87
32.57,12.40,9.54,12.40,9.53,-9.53,-9.59,-11.05,2.87,2.87,2.87
32.89,12.45,9.58,12.46,9.59,-9.59,-9.64,-11.06,2.87,2.87,2.88
33.22,12.52,9.65,12.52,9.65,-9.65,-9.70,-11.05,2.88,2.87,2.88
33.55,12.58,9.71,12.58,9.71,-9.71,-9.76,-11.03,2.88,2.87,2.88
33.89,12.63,9.77,12.64,9.77,-9.77,-9.81,-11.00,2.86,2.87,2.87
34.23,12.70,9.84,12.70,9.83,-9.84,-9.87,-10.97,2.87,2.87,2.87
34.57,12.76,9.90,12.76,9.90,-9.90,-9.93,-10.92,2.86,2.86,2.87
34.92,12.83,9.98,12.83,9.97,-9.98,-9.98,-10.88,2.86,2.85,2.86
35.27,12.89,10.05,12.89,10.05,-10.05,-10.04,-10.83,2.84,2.84,2.85
35.62,12.96,10.13,12.96,10.13,-10.13,-10.09,-10.78,2.84,2.84,2.84
35.97,13.03,10.21,13.03,10.21,-10.21,-10.15,-10.72,2.83,2.83,2.83
36.33,13.10,10.29,13.10,10.29,-10.29,-10.21,-10.66,2.82,2.81,2.82
36.70,13.16,10.37,13.17,10.37,-10.37,-10.26,-10.61,2.79,2.80,2.80
37.06,13.23,10.45,13.23,10.45,-10.45,-10.32,-10.55,2.78,2.78,2.79
37.43,13.30,10.54,13.30,10.53,-10.53,-10.38,-10.50,2.77,2.77,2.77
37.81,13.36,10.61,13.37,10.61,-10.61,-10.43,-10.45,2.75,2.75,2.76
38.19,13.43,10.70,13.43,10.69,-10.69,-10.49,-10.40,2.74,2.74,2.74
38.57,13.49,10.77,13.50,10.77,-10.77,-10.54,-10.36,2.72,2.72,2.73
38.95,13.56,10.85,13.56,10.85,-10.85,-10.60,-10.32,2.71,2.72,2.72
39.34,13.63,10.93,13.63,10.93,-10.93,-10.65,-10.29,2.71,2.71,2.71
39.74,13.70,11.01,13.70,11.00,-11.00,-10.71,-10.26,2.70,2.70,2.70
40.14,13.76,11.08,13.76,11.07,-11.07,-10.76,-10.23,2.69,2.69,2.69
40.54,13.82,11.14,13.83,11.14,-11.14,-10.82,-10.22,2.68,2.68,2.69
40.94,13.89,11.21,13.89,11.21,-11.21,-10.87,-10.20,2.68,2.68,2.69
41.35,13.95,11.28,13.96,11.28,-11.28,-10.92,-10.20,2.68,2.68,2.68
41.76,14.02,11.35,14.02,11.34,-11.34,-10.98,-10.20,2.69,2.68,2.68
42.18,14.08,11.40,14.08,11.40,-11.40,-11.03,-10.21,2.69,2.69,2.69
42.60,14.14,11.46,14.14,11.46,-11.45,-11.08,-10.22,2.69,2.69,2.69
43.03,14.19,11.51,14.20,11.51,-11.51,-11.14,-10.25,2.68,2.69,2.69
43.46,14.25,11.56,14.25,11.56,-11.56,-11.19,-10.27,2.69,2.69,2.70
43.90,14.31,11.61,14.31,11.61,-11.61,-11.24,-10.31,2.70,2.70,2.71
44.33,14.37,11.67,14.37,11.66,-11.66,-11.29,-10.35,2.71,2.71,2.71
44.78,14.42,11.71,14.43,11.71,-11.71,-11.34,-10.40,2.71,2.72,2.72
45.23,14.48,11.76,14.48,11.76,-11.76,-11.39,-10.46,2.72,2.72,2.73
45.68,14.53,11.81,14.53,11.81,-11.81,-11.44,-10.53,2.73,2.72,2.73
46.13,14.58,11.86,14.58,11.86,-11.85,-11.49,-10.60,2.73,2.73,2.73
46.60,14.63,11.90,14.63,11.90,-11.90,-11.54,-10.68,2.73,2.73,2.74
47.06,14.68,11.95,14.68,11.95,-11.94,-11.59,-10.77,2.74,2.74,2.74
47.53,14.72,11.99,14.73,11.99,-11.99,-11.64,-10.86,2.74,2.74,2.74
48.01,14.77,12.04,14.77,12.03,-12.03,-11.69,-10.96,2.74,2.74,2.74
48.49,14.80,12.07,14.81,12.07,-12.07,-11.74,-11.07,2.73,2.73,2.74
48.97,14.84,12.11,14.84,12.11,-12.11,-11.78,-11.19,2.73,2.73,2.74
49.46,14.88,12.15,14.88,12.15,-12.15,-11.83,-11.31,2.73,2.73,2.74
49.96,14.91,12.19,14.92,12.19,-12.19,-11.87,-11.43,2.72,2.73,2.73
50.46,14.95,12.23,14.95,12.23,-12.22,-11.92,-11.57,2.73,2.73,2.73
50.96,14.98,12.27,14.98,12.26,-12.26,-11.96,-11.71,2.73,2.72,2.72
51.47,15.00,12.29,15.01,12.29,-12.29,-12.01,-11.85,2.72,2.72,2.72
51.99,15.03,12.32,15.03,12.32,-12.32,-12.05,-12.00,2.72,2.71,2.72
52.51,15.05,12.34,15.06,12.34,-12.34,-12.09,-12.15,2.71,2.71,2.72
53.03,15.08,12.37,15.08,12.37,-12.37,-12.13,-12.30,2.72,2.72,2.72
53.56,15.10,12.39,15.10,12.39,-12.39,-12.17,-12.46,2.72,2.72,2.72
54.10,15.12,12.41,15.12,12.41,-12.40,-12.21,-12.62,2.72,2.72,2.72
54.64,15.13,12.42,15.14,12.42,-12.42,-12.25,-12.78,2.71,2.72,2.72
55.18,15.15,12.44,15.15,12.44,-12.44,-12.29,-12.93,2.71,2.71,2.72
55.74,15.17,12.46,15.17,12.45,-12.45,-12.33,-13.09,2.72,2.71,2.72
56.29,15.18,12.47,15.18,12.47,-12.47,-12.37,-13.24,2.71,2.71,2.72
56.86,15.19,12.48,15.20,12.48,-12.48,-12.40,-13.39,2.71,2.72,2.72
57.42,15.21,12.50,15.21,12.49,-12.49,-12.44,-13.52,2.72,2.72,2.72
58.00,15.22,12.51,15.22,12.51,-12.50,-12.47,-13.65,2.72,2.72,2.72
58.58,15.23,12.52,15.23,12.52,-12.51,-12.50,-13.77,2.72,2.72,2.72
59.16,15.24,12.53,15.24,12.53,-12.52,-12.53,-13.88,2.72,2.72,2.72
59.76,15.24,12.53,15.25,12.53,-12.53,-12.57,-13.97,2.71,2.71,2.72
60.35,15.25,12.54,15.25,12.54,-12.54,-12.60,-14.05,2.71,2.71,2.72
60.96,15.25,12.54,15.26,12.54,-12.55,-12.62,-14.11,2.71,2.71,2.72
61.57,15.26,12.56,15.26,12.55,-12.55,-12.65,-14.16,2.71,2.71,2.71
62.18,15.27,12.57,15.27,12.56,-12.56,-12.68,-14.18,2.71,2.71,2.71
62.80,15.27,12.57,15.27,12.57,-12.57,-12.70,-14.19,2.71,2.71,2.71
63.43,15.27,12.58,15.27,12.58,-12.57,-12.73,-14.18,2.70,2.70,2.70
64.07,15.27,12.58,15.28,12.58,-12.58,-12.75,-14.15,2.69,2.70,2.70
64.71,15.28,12.59,15.28,12.58,-12.58,-12.77,-14.11,2.70,2.69,2.70
65.35,15.28,12.59,15.28,12.59,-12.59,-12.80,-14.05,2.69,2.69,2.70
66.01,15.28,12.59,15.29,12.59,-12.59,-12.82,-13.97,2.69,2.69,2.70
66.67,15.29,12.60,15.29,12.60,-12.60,-12.83,-13.88,2.69,2.69,2.70
67.33,15.30,12.61,15.30,12.60,-12.60,-12.85,-13.77,2.70,2.70,2.70
68.01,15.30,12.61,15.31,12.61,-12.61,-12.87,-13.66,2.69,2.70,2.70
68.69,15.31,12.62,15.31,12.61,-12.61,-12.88,-13.54,2.70,2.70,2.70
69.37,15.31,12.62,15.32,12.62,-12.62,-12.90,-13.41,2.69,2.70,2.70
70.07,15.32,12.62,15.32,12.62,-12.62,-12.91,-13.27,2.70,2.70,2.71
70.77,15.33,12.63,15.33,12.63,-12.63,-12.92,-13.14,2.71,2.70,2.71
71.48,15.34,12.64,15.34,12.63,-12.63,-12.93,-13.00,2.71,2.71,2.71
72.19,15.34,12.64,15.35,12.64,-12.64,-12.94,-12.85,2.71,2.71,2.71
72.91,15.35,12.64,15.35,12.64,-12.64,-12.94,-12.71,2.71,2.71,2.72
73.64,15.35,12.64,15.36,12.64,-12.64,-12.95,-12.57,2.71,2.71,2.72
74.38,15.36,12.65,15.36,12.65,-12.65,-12.95,-12.43,2.72,2.72,2.72
75.12,15.37,12.66,15.37,12.65,-12.65,-12.96,-12.30,2.72,2.72,2.72
75.87,15.38,12.66,15.38,12.66,-12.66,-12.96,-12.17,2.73,2.72,2.73
76.63,15.38,12.66,15.39,12.66,-12.66,-12.96,-12.04,2.72,2.72,2.73
77.40,15.39,12.67,15.39,12.67,-12.67,-12.96,-11.92,2.72,2.73,2.73
78.17,15.40,12.68,15.40,12.67,-12.67,-12.96,-11.80,2.73,2.73,2.73
78.95,15.41,12.68,15.41,12.68,-12.68,-12.95,-11.70,2.73,2.73,2.74
79.74,15.42,12.69,15.42,12.69,-12.69,-12.95,-11.59,2.73,2.73,2.74
80.54,15.43,12.70,15.43,12.69,-12.70,-12.94,-11.50,2.74,2.74,2.74
81.35,15.44,12.70,15.44,12.70,-12.70,-12.93,-11.41,2.74,2.74,2.75
82.16,15.45,12.71,15.46,12.71,-12.71,-12.92,-11.32,2.75,2.75,2.75
82.98,15.46,12.72,15.46,12.71,-12.71,-12.91,-11.25,2.75,2.75,2.75
83.81,15.47,12.72,15.47,12.72,-12.71,-12.90,-11.18,2.76,2.75,2.76
84.65,15.46,12.71,15.47,12.71,-12.71,-12.88,-11.12,2.75,2.76,2.76
85.50,15.48,12.72,15.48,12.71,-12.71,-12.87,-11.07,2.77,2.76,2.77
86.35,15.48,12.71,15.48,12.71,-12.71,-12.85,-11.02,2.77,2.77,2.78
87.22,15.48,12.71,15.49,12.71,-12.71,-12.83,-10.99,2.78,2.78,2.78
88.09,15.49,12.71,15.49,12.70,-12.70,-12.81,-10.96,2.79,2.78,2.79
88.97,15.48,12.70,15.49,12.70,-12.70,-12.79,-10.94,2.79,2.79,2.79
89.86,15.48,12.69,15.48,12.69,-12.69,-12.77,-10.92,2.79,2.79,2.80
90.76,15.48,12.69,15.48,12.68,-12.68,-12.75,-10.92,2.80,2.80,2.80
91.66,15.47,12.67,15.48,12.67,-12.68,-12.72,-10.91,2.80,2.80,2.81
92.58,15.47,12.67,15.47,12.67,-12.67,-12.69,-10.93,2.81,2.80,2.81
93.51,15.46,12.66,15.47,12.66,-12.66,-12.67,-10.94,2.80,2.81,2.81
94.44,15.46,12.66,15.46,12.65,-12.65,-12.64,-10.96,2.81,2.81,2.81
95.39,15.44,12.64,15.45,12.64,-12.64,-12.61,-10.99,2.80,2.81,2.81
96.34,15.43,12.63,15.43,12.63,-12.63,-12.58,-11.03,2.80,2.80,2.81
97.30,15.41,12.61,15.42,12.61,-12.62,-12.55,-11.07,2.80,2.80,2.81
98.28,15.40,12.61,15.40,12.60,-12.60,-12.51,-11.13,2.80,2.80,2.80
99.26,15.38,12.59,15.38,12.59,-12.59,-12.48,-11.18,2.80,2.80,2.80
100.25,15.36,12.57,15.36,12.57,-12.57,-12.44,-11.24,2.80,2.79,2.80
101.25,15.33,12.55,15.34,12.55,-12.55,-12.41,-11.31,2.79,2.79,2.79
102.27,15.31,12.53,15.31,12.52,-12.52,-12.37,-11.38,2.79,2.79,2.79
103.29,15.28,12.50,15.28,12.50,-12.49,-12.33,-11.46,2.79,2.79,2.79
104.32,15.24,12.46,15.25,12.46,-12.46,-12.29,-11.54,2.78,2.79,2.79
105.37,15.21,12.43,15.21,12.43,-12.43,-12.25,-11.62,2.79,2.78,2.79
106.42,15.17,12.39,15.17,12.39,-12.39,-12.21,-11.71,2.78,2.78,2.79
107.48,15.13,12.35,15.13,12.35,-12.35,-12.17,-11.80,2.78,2.79,2.79
108.56,15.09,12.31,15.09,12.31,-12.30,-12.12,-11.89,2.79,2.79,2.79
109.64,15.05,12.26,15.05,12.26,-12.26,-12.08,-11.98,2.79,2.79,2.80
110.74,15.01,12.22,15.01,12.22,-12.21,-12.03,-12.06,2.80,2.80,2.80
111.85,14.96,12.17,14.96,12.17,-12.17,-11.99,-12.15,2.80,2.80,2.80
112.97,14.91,12.12,14.91,12.11,-12.12,-11.94,-12.23,2.80,2.79,2.80
114.10,14.85,12.06,14.86,12.07,-12.07,-11.89,-12.30,2.78,2.79,2.80
115.24,14.81,12.02,14.81,12.02,-12.02,-11.84,-12.37,2.79,2.79,2.80
116.39,14.76,11.98,14.76,11.97,-11.97,-11.80,-12.44,2.79,2.79,2.79
117.55,14.70,11.92,14.70,11.92,-11.92,-11.75,-12.49,2.78,2.79,2.79
118.73,14.64,11.87,14.65,11.87,-11.87,-11.70,-12.53,2.78,2.78,2.78
119.92,14.58,11.82,14.58,11.82,-11.82,-11.65,-12.56,2.77,2.77,2.77
121.12,14.52,11.77,14.52,11.77,-11.76,-11.60,-12.58,2.76,2.76,2.76
122.33,14.45,11.71,14.46,11.71,-11.71,-11.54,-12.59,2.74,2.75,2.75
123.55,14.39,11.66,14.39,11.65,-11.66,-11.49,-12.58,2.74,2.73,2.74
124.79,14.32,11.60,14.33,11.60,-11.60,-11.44,-12.56,2.72,2.72,2.73
126.03,14.26,11.55,14.26,11.55,-11.55,-11.39,-12.53,2.71,2.71,2.72
127.29,14.19,11.50,14.19,11.49,-11.50,-11.33,-12.47,2.70,2.70,2.70
128.57,14.12,11.44,14.13,11.44,-11.44,-11.28,-12.41,2.68,2.69,2.69
129.85,14.06,11.39,14.06,11.39,-11.38,-11.22,-12.33,2.68,2.68,2.68
131.15,13.99,11.33,13.99,11.33,-11.32,-11.17,-12.25,2.67,2.67,2.67
132.46,13.92,11.27,13.92,11.27,-11.26,-11.11,-12.14,2.66,2.66,2.66
133.79,13.85,11.20,13.85,11.20,-11.20,-11.06,-12.03,2.66,2.65,2.66
135.12,13.77,11.13,13.78,11.13,-11.13,-11.00,-11.91,2.64,2.65,2.65
136.48,13.70,11.06,13.70,11.06,-11.06,-10.95,-11.78,2.64,2.64,2.65
137.84,13.63,10.99,13.63,10.99,-10.99,-10.89,-11.64,2.64,2.64,2.65
139.22,13.56,10.92,13.56,10.92,-10.92,-10.84,-11.50,2.64,2.64,2.65
140.61,13.49,10.85,13.49,10.85,-10.85,-10.78,-11.35,2.64,2.64,2.65
142.02,13.42,10.78,13.42,10.78,-10.78,-10.72,-11.20,2.65,2.65,2.65
143.44,13.35,10.71,13.35,10.71,-10.71,-10.66,-11.05,2.65,2.65,2.65
144.87,13.28,10.64,13.28,10.64,-10.64,-10.61,-10.90,2.64,2.64,2.65
146.32,13.21,10.57,13.21,10.57,-10.57,-10.55,-10.74,2.64,2.65,2.65
147.78,13.14,10.50,13.15,10.50,-10.50,-10.49,-10.59,2.64,2.65,2.65
149.26,13.08,10.44,13.08,10.43,-10.43,-10.43,-10.44,2.65,2.65,2.65
150.75,13.00,10.36,13.00,10.36,-10.36,-10.38,-10.29,2.64,2.65,2.65
152.26,12.93,10.29,12.93,10.29,-10.29,-10.32,-10.14,2.64,2.65,2.65
153.78,12.86,10.22,12.87,10.22,-10.22,-10.26,-10.00,2.64,2.65,2.65
155.32,12.80,10.16,12.80,10.15,-10.15,-10.20,-9.86,2.65,2.65,2.65
156.88,12.73,10.09,12.73,10.08,-10.08,-10.14,-9.72,2.65,2.65,2.65
158.44,12.65,10.01,12.66,10.01,-10.02,-10.08,-9.59,2.64,2.64,2.65
160.03,12.59,9.95,12.59,9.95,-9.95,-10.02,-9.47,2.64,2.64,2.65
161.63,12.52,9.89,12.52,9.89,-9.89,-9.97,-9.35,2.64,2.63,2.64
163.24,12.45,9.83,12.46,9.83,-9.82,-9.91,-9.23,2.63,2.63,2.63
164.88,12.39,9.77,12.39,9.77,-9.76,-9.85,-9.13,2.63,2.63,2.63
166.53,12.33,9.71,12.33,9.70,-9.70,-9.79,-9.02,2.63,2.63,2.63
168.19,12.26,9.64,12.26,9.64,-9.64,-9.73,-8.93,2.62,2.62,2.63
169.87,12.19,9.57,12.20,9.58,-9.58,-9.67,-8.83,2.61,2.62,2.63
171.57,12.14,9.53,12.14,9.52,-9.52,-9.61,-8.75,2.62,2.62,2.62
173.29,12.07,9.46,12.08,9.46,-9.46,-9.55,-8.67,2.61,2.62,2.62
175.02,12.02,9.41,12.02,9.40,-9.40,-9.49,-8.60,2.62,2.62,2.62
176.77,11.95,9.34,11.96,9.34,-9.34,-9.43,-8.53,2.61,2.62,2.62
178.54,11.90,9.29,11.90,9.28,-9.28,-9.37,-8.47,2.62,2.62,2.62
180.32,11.84,9.23,11.84,9.23,-9.23,-9.31,-8.42,2.61,2.61,2.62
182.13,11.78,9.17,11.79,9.17,-9.17,-9.25,-8.37,2.61,2.61,2.62
183.95,11.73,9.12,11.73,9.12,-9.12,-9.19,-8.33,2.61,2.62,2.62
185.79,11.68,9.07,11.68,9.06,-9.07,-9.13,-8.29,2.62,2.61,2.62
187.65,11.63,9.02,11.63,9.01,-9.01,-9.07,-8.26,2.62,2.61,2.62
189.52,11.56,8.95,11.57,8.96,-8.96,-9.01,-8.24,2.60,2.61,2.62
191.42,11.52,8.92,11.52,8.91,-8.91,-8.95,-8.21,2.61,2.61,2.61
193.33,11.47,8.87,11.47,8.86,-8.86,-8.89,-8.20,2.61,2.61,2.61
195.27,11.41,8.81,11.41,8.81,-8.81,-8.83,-8.19,2.61,2.61,2.61
197.22,11.35,8.75,11.36,8.76,-8.76,-8.77,-8.19,2.60,2.61,2.61
199.19,11.31,8.71,11.31,8.70,-8.70,-8.71,-8.18,2.61,2.61,2.61
201.18,11.26,8.66,11.25,8.65,-8.65,-8.65,-8.19,2.61,2.61,2.61
203.19,11.19,8.59,11.20,8.60,-8.60,-8.58,-8.19,2.60,2.61,2.61
205.23,11.14,8.54,11.14,8.54,-8.54,-8.52,-8.20,2.60,2.60,2.61
207.28,11.09,8.49,11.09,8.48,-8.49,-8.46,-8.22,2.61,2.60,2.61
209.35,11.03,8.43,11.04,8.43,-8.43,-8.40,-8.23,2.60,2.61,2.61
211.44,10.98,8.38,10.98,8.38,-8.38,-8.34,-8.25,2.61,2.60,2.61
213.56,10.92,8.33,10.92,8.32,-8.32,-8.28,-8.27,2.60,2.60,2.60
215.69,10.86,8.27,10.86,8.27,-8.27,-8.22,-8.29,2.60,2.60,2.60
217.85,10.80,8.21,10.80,8.21,-8.21,-8.16,-8.31,2.59,2.60,2.60
220.03,10.74,8.15,10.75,8.15,-8.15,-8.09,-8.33,2.59,2.60,2.60
222.23,10.69,8.10,10.69,8.09,-8.09,-8.03,-8.35,2.60,2.60,2.60
224.45,10.63,8.04,10.63,8.04,-8.03,-7.97,-8.37,2.60,2.60,2.60
226.70,10.56,7.97,10.57,7.97,-7.97,-7.91,-8.38,2.59,2.60,2.60
228.96,10.51,7.92,10.51,7.91,-7.92,-7.85,-8.39,2.60,2.59,2.60
231.25,10.44,7.85,10.45,7.85,-7.86,-7.78,-8.40,2.58,2.59,2.60
233.57,10.39,7.80,10.39,7.80,-7.81,-7.72,-8.40,2.59,2.59,2.60
235.90,10.33,7.76,10.33,7.75,-7.75,-7.66,-8.40,2.58,2.58,2.58
238.26,10.28,7.71,10.28,7.71,-7.70,-7.60,-8.39,2.59,2.58,2.58
240.64,10.22,7.65,10.22,7.65,-7.64,-7.54,-8.38,2.58,2.58,2.58
243.05,10.17,7.60,10.17,7.59,-7.59,-7.47,-8.36,2.58,2.58,2.58
245.48,10.10,7.53,10.11,7.53,-7.54,-7.41,-8.33,2.57,2.57,2.58
247.93,10.05,7.48,10.05,7.48,-7.48,-7.35,-8.29,2.57,2.57,2.58
250.41,10.00,7.43,10.00,7.42,-7.42,-7.29,-8.25,2.58,2.57,2.58
252.92,9.94,7.37,9.94,7.37,-7.37,-7.22,-8.20,2.57,2.57,2.58
255.45,9.88,7.31,9.89,7.31,-7.31,-7.16,-8.14,2.57,2.57,2.58
258.00,9.83,7.26,9.83,7.26,-7.26,-7.10,-8.08,2.57,2.57,2.58
260.58,9.78,7.21,9.78,7.21,-7.21,-7.04,-8.00,2.58,2.57,2.58
263.19,9.72,7.16,9.72,7.15,-7.15,-6.97,-7.93,2.57,2.57,2.57
265.82,9.66,7.10,9.66,7.10,-7.10,-6.91,-7.84,2.56,2.56,2.57
268.48,9.60,7.04,9.61,7.04,-7.05,-6.85,-7.75,2.56,2.56,2.57
271.16,9.55,7.00,9.55,6.99,-6.99,-6.78,-7.65,2.56,2.56,2.56
273.87,9.49,6.94,9.49,6.94,-6.94,-6.72,-7.55,2.55,2.55,2.56
276.61,9.43,6.89,9.43,6.89,-6.88,-6.66,-7.44,2.55,2.55,2.55
279.38,9.37,6.83,9.37,6.83,-6.83,-6.60,-7.33,2.55,2.55,2.55
282.17,9.31,6.78,9.31,6.77,-6.77,-6.53,-7.22,2.55,2.54,2.54
284.99,9.24,6.70,9.25,6.71,-6.71,-6.47,-7.10,2.54,2.54,2.55
287.84,9.18,6.64,9.18,6.64,-6.64,-6.41,-6.99,2.54,2.54,2.55
290.72,9.12,6.59,9.12,6.58,-6.58,-6.34,-6.87,2.54,2.54,2.54
293.63,9.05,6.52,9.05,6.52,-6.51,-6.28,-6.75,2.54,2.54,2.54
296.57,8.98,6.45,8.98,6.45,-6.44,-6.22,-6.63,2.54,2.54,2.54
299.53,8.91,6.37,8.91,6.37,-6.38,-6.15,-6.51,2.54,2.54,2.55
302.53,8.84,6.31,8.84,6.30,-6.31,-6.09,-6.40,2.54,2.54,2.54
305.55,8.77,6.23,8.77,6.23,-6.24,-6.02,-6.28,2.54,2.54,2.55
308.61,8.70,6.17,8.70,6.17,-6.16,-5.96,-6.17,2.54,2.54,2.54
311.69,8.63,6.09,8.63,6.09,-6.09,-5.90,-6.06,2.54,2.54,2.55
314.81,8.56,6.03,8.56,6.02,-6.01,-5.83,-5.95,2.55,2.55,2.54
317.96,8.47,5.93,8.48,5.94,-5.93,-5.77,-5.84,2.54,2.55,2.55
321.14,8.40,5.86,8.40,5.86,-5.86,-5.71,-5.73,2.55,2.54,2.55
324.35,8.32,5.78,8.32,5.77,-5.78,-5.64,-5.63,2.55,2.55,2.55
327.59,8.24,5.69,8.24,5.69,-5.69,-5.58,-5.54,2.55,2.55,2.56
330.87,8.16,5.61,8.16,5.61,-5.61,-5.51,-5.44,2.55,2.55,2.56
334.18,8.07,5.52,8.08,5.52,-5.52,-5.45,-5.35,2.55,2.56,2.56
337.52,8.00,5.45,8.00,5.44,-5.44,-5.39,-5.26,2.57,2.56,2.56
340.90,7.91,5.36,7.91,5.35,-5.35,-5.32,-5.18,2.56,2.56,2.56
344.30,7.82,5.26,7.83,5.27,-5.26,-5.26,-5.10,2.56,2.57,2.57
347.75,7.74,5.17,7.74,5.17,-5.17,-5.19,-5.02,2.57,2.57,2.58
351.23,7.65,5.09,7.65,5.08,-5.08,-5.13,-4.95,2.57,2.57,2.57
354.74,7.56,4.98,7.57,4.99,-4.98,-5.07,-4.88,2.58,2.58,2.59
358.28,7.47,4.90,7.47,4.89,-4.89,-5.00,-4.81,2.58,2.58,2.58
361.87,7.38,4.80,7.38,4.80,-4.80,-4.94,-4.75,2.59,2.58,2.59
365.49,7.28,4.70,7.29,4.70,-4.70,-4.87,-4.69,2.58,2.58,2.59
369.14,7.19,4.61,7.20,4.61,-4.61,-4.81,-4.63,2.59,2.59,2.59
372.83,7.10,4.51,7.10,4.51,-4.51,-4.74,-4.58,2.59,2.59,2.60
376.56,7.02,4.43,7.02,4.42,-4.42,-4.68,-4.53,2.60,2.59,2.60
380.33,6.92,4.33,6.93,4.34,-4.33,-4.62,-4.49,2.59,2.60,2.60
384.13,6.84,4.26,6.84,4.25,-4.24,-4.55,-4.45,2.60,2.60,2.59
387.97,6.75,4.16,6.75,4.16,-4.16,-4.49,-4.41,2.60,2.60,2.60
391.85,6.67,4.07,6.67,4.07,-4.07,-4.42,-4.37,2.60,2.60,2.61
395.77,6.59,3.99,6.60,3.99,-4.00,-4.36,-4.33,2.60,2.60,2.61
399.73,6.52,3.92,6.52,3.92,-3.92,-4.29,-4.30,2.60,2.60,2.61
403.72,6.45,3.85,6.45,3.85,-3.85,-4.23,-4.27,2.61,2.60,2.61
407.76,6.38,3.78,6.39,3.78,-3.78,-4.16,-4.24,2.60,2.61,2.61
411.84,6.32,3.72,6.33,3.72,-3.72,-4.10,-4.22,2.61,2.61,2.61
415.96,6.27,3.66,6.27,3.66,-3.66,-4.03,-4.19,2.61,2.61,2.62
420.12,6.21,3.61,6.21,3.60,-3.60,-3.97,-4.16,2.61,2.61,2.61
424.32,6.15,3.55,6.16,3.55,-3.55,-3.90,-4.14,2.60,2.60,2.61
428.56,6.10,3.50,6.10,3.50,-3.50,-3.83,-4.12,2.60,2.60,2.61
432.85,6.05,3.45,6.06,3.45,-3.45,-3.77,-4.09,2.60,2.60,2.61
437.18,6.01,3.42,6.01,3.41,-3.40,-3.70,-4.07,2.61,2.60,2.60
441.55,5.96,3.37,5.96,3.37,-3.36,-3.64,-4.04,2.60,2.60,2.60
