frequency,raw
20,-1.13
21,-0.79
22,-0.39
23,0.00
24,0.36
25,0.66
26,0.90
27,1.13
28,1.35
29,1.54
30,1.77
31,1.96
32,2.15
33,2.35
34,2.53
35,2.71
36,2.88
37,3.01
38,3.14
39,3.22
40,3.32
41,3.44
42,3.52
43,3.58
44,3.62
45,3.66
46,3.66
47,3.71
48,3.81
49,3.92
50,4.01
51,4.08
52,4.13
53,4.21
54,4.27
55,4.34
56,4.42
57,4.48
58,4.52
59,4.55
60,4.56
61,4.60
62,4.60
63,4.60
64,4.60
65,4.64
66,4.64
67,4.69
68,4.74
69,4.77
70,4.78
71,4.81
72,4.83
73,4.83
74,4.83
75,4.83
76,4.83
77,4.83
78,4.83
79,4.83
80,4.86
81,4.88
82,4.88
83,4.88
84,4.88
85,4.88
86,4.88
87,4.88
88,4.88
89,4.88
90,4.88
91,4.88
92,4.92
93,4.92
94,4.92
95,4.92
96,4.90
97,4.88
98,4.88
99,4.88
100,4.88
101,4.88
102,4.88
104,4.88
105,4.88
106,4.88
107,4.86
108,4.83
109,4.83
110,4.83
111,4.83
112,4.83
113,4.83
114,4.78
115,4.78
117,4.77
118,4.74
119,4.74
120,4.71
121,4.69
123,4.69
124,4.67
125,4.64
126,4.64
128,4.64
129,4.64
130,4.60
131,4.60
133,4.58
134,4.55
135,4.55
137,4.54
138,4.50
140,4.50
141,4.46
142,4.46
144,4.46
145,4.43
147,4.41
148,4.39
150,4.36
151,4.32
153,4.31
154,4.27
156,4.25
157,4.22
159,4.19
160,4.18
162,4.14
164,4.13
165,4.09
167,4.08
169,4.05
170,4.04
172,4.00
174,3.98
175,3.95
177,3.93
179,3.90
181,3.88
183,3.85
184,3.84
186,3.80
188,3.77
190,3.76
192,3.71
194,3.69
196,3.66
198,3.62
200,3.61
202,3.57
204,3.55
206,3.52
208,3.49
210,3.46
212,3.41
214,3.39
216,3.36
218,3.33
221,3.28
223,3.25
225,3.20
227,3.18
229,3.15
232,3.11
234,3.08
236,3.06
239,3.01
241,2.99
244,2.97
246,2.93
248,2.90
251,2.86
253,2.83
256,2.78
259,2.74
261,2.71
264,2.66
266,2.64
269,2.60
272,2.56
274,2.55
277,2.51
280,2.47
283,2.44
286,2.40
288,2.37
291,2.33
294,2.29
297,2.24
300,2.21
303,2.17
306,2.13
309,2.10
312,2.08
316,2.03
319,1.99
322,1.96
325,1.94
328,1.89
332,1.85
335,1.82
338,1.79
342,1.75
345,1.73
349,1.68
352,1.64
356,1.60
359,1.58
363,1.52
366,1.52
370,1.47
374,1.43
377,1.40
381,1.38
385,1.34
389,1.31
393,1.27
397,1.24
401,1.21
405,1.17
409,1.15
413,1.10
417,1.06
421,1.03
425,1.01
430,0.96
434,0.94
438,0.91
443,0.87
447,0.82
451,0.82
456,0.77
460,0.74
465,0.70
470,0.68
474,0.64
479,0.63
484,0.59
489,0.56
494,0.54
499,0.50
504,0.49
509,0.45
514,0.43
519,0.40
524,0.39
529,0.35
535,0.33
540,0.30
545,0.26
551,0.24
556,0.21
562,0.18
568,0.17
573,0.12
579,0.12
585,0.07
591,0.06
596,0.03
602,0.01
608,-0.02
615,-0.06
621,-0.07
627,-0.11
633,-0.13
639,-0.16
646,-0.17
652,-0.21
659,-0.21
665,-0.25
672,-0.25
679,-0.30
686,-0.30
692,-0.33
699,-0.35
706,-0.35
713,-0.39
721,-0.39
728,-0.42
735,-0.44
742,-0.44
750,-0.44
757,-0.46
765,-0.49
773,-0.49
780,-0.49
788,-0.53
796,-0.53
804,-0.53
812,-0.53
820,-0.53
828,-0.53
837,-0.53
845,-0.53
853,-0.53
862,-0.53
871,-0.53
879,-0.50
888,-0.49
897,-0.45
906,-0.44
915,-0.42
924,-0.39
933,-0.35
943,-0.30
952,-0.27
962,-0.21
971,-0.18
981,-0.12
991,-0.05
1001,0.01
1011,0.07
1021,0.16
1031,0.22
1041,0.32
1052,0.41
1062,0.52
1073,0.63
1084,0.74
1094,0.84
1105,0.97
1116,1.10
1128,1.22
1139,1.35
1150,1.46
1162,1.62
1173,1.74
1185,1.88
1197,2.04
1209,2.16
1221,2.30
1233,2.43
1246,2.55
1258,2.67
1271,2.81
1283,2.91
1296,3.02
1309,3.13
1322,3.24
1335,3.35
1349,3.46
1362,3.57
1376,3.66
1390,3.77
1404,3.85
1418,3.94
1432,4.02
1446,4.09
1461,4.17
1475,4.25
1490,4.32
1505,4.38
1520,4.44
1535,4.50
1550,4.57
1566,4.63
1582,4.72
1597,4.78
1613,4.88
1629,4.94
1646,5.06
1662,5.12
1679,5.23
1696,5.32
1713,5.40
1730,5.51
1747,5.60
1764,5.67
1782,5.79
1800,5.90
1818,5.98
1836,6.09
1854,6.20
1873,6.31
1892,6.42
1911,6.53
1930,6.64
1949,6.77
1969,6.90
1988,7.03
2008,7.15
2028,7.29
2048,7.41
2069,7.56
2090,7.71
2111,7.83
2132,8.00
2153,8.13
2175,8.28
2196,8.45
2218,8.62
2240,8.78
2263,8.95
2285,9.13
2308,9.32
2331,9.52
2355,9.70
2378,9.91
2402,10.11
2426,10.30
2450,10.51
2475,10.70
2500,10.91
2525,11.13
2550,11.33
2575,11.54
2601,11.75
2627,11.95
2653,12.17
2680,12.34
2707,12.56
2734,12.75
2761,12.92
2789,13.09
2817,13.25
2845,13.38
2873,13.51
2902,13.62
2931,13.71
2960,13.80
2990,13.83
3020,13.88
3050,13.88
3080,13.88
3111,13.88
3142,13.83
3174,13.76
3206,13.69
3238,13.59
3270,13.49
3303,13.35
3336,13.23
3369,13.09
3403,12.92
3437,12.76
3471,12.58
3506,12.41
3541,12.23
3576,12.06
3612,11.90
3648,11.71
3685,11.57
3721,11.40
3759,11.22
3796,11.06
3834,10.90
3873,10.71
3911,10.57
3950,10.43
3990,10.30
4030,10.15
4070,10.03
4111,9.91
4152,9.80
4193,9.69
4235,9.56
4278,9.45
4321,9.37
4364,9.28
4407,9.19
4451,9.11
4496,9.04
4541,8.96
4586,8.90
4632,8.83
4679,8.77
4725,8.72
4773,8.65
4820,8.59
4868,8.54
4917,8.49
4966,8.42
5016,8.39
5066,8.34
5117,8.30
5168,8.25
5220,8.24
5272,8.19
5325,8.16
5378,8.13
5432,8.09
5486,8.06
5541,8.01
5596,7.98
5652,7.92
5709,7.87
5766,7.81
5823,7.75
5882,7.70
5940,7.65
6000,7.57
6060,7.51
6120,7.44
6182,7.36
6244,7.29
6306,7.23
6369,7.18
6433,7.10
6497,7.05
6562,7.00
6628,6.95
6694,6.90
6761,6.85
6828,6.80
6897,6.76
6966,6.72
7035,6.70
7106,6.65
7177,6.65
7249,6.65
7321,6.65
7394,6.70
7468,6.70
7543,6.75
7618,6.78
7694,6.83
7771,6.89
7849,6.92
7928,6.93
8007,6.93
8087,6.88
8168,6.78
8250,6.63
8332,6.40
8415,6.12
8499,5.76
8584,5.33
8670,4.87
8757,4.35
8845,3.75
8933,3.15
9022,2.50
9113,1.82
9204,1.10
9296,0.42
9389,-0.29
9483,-0.98
9577,-1.63
9673,-2.30
9770,-2.92
9868,-3.57
9966,-4.17
10066,-4.74
10167,-5.31
10268,-5.84
10371,-6.29
10475,-6.73
10579,-7.15
10685,-7.49
10792,-7.81
10900,-8.06
11009,-8.27
11119,-8.43
11230,-8.52
11343,-8.60
11456,-8.60
11571,-8.54
11686,-8.42
11803,-8.25
11921,-8.02
12040,-7.77
12161,-7.49
12282,-7.15
12405,-6.80
12529,-6.41
12655,-6.01
12781,-5.63
12909,-5.26
13038,-4.89
13168,-4.56
13300,-4.20
13433,-3.83
13567,-3.44
13703,-3.03
13840,-2.58
13978,-2.11
14118,-1.59
14259,-1.05
14402,-0.48
14546,0.08
14692,0.61
14838,1.09
14987,1.51
15137,1.84
15288,2.05
15441,2.16
15595,1.98
15751,1.67
15909,1.23
16068,0.67
16229,0.04
16391,-0.68
16555,-1.44
16720,-2.22
16888,-2.91
17056,-3.55
17227,-4.09
17399,-4.52
17573,-4.85
17749,-5.08
17926,-5.20
18106,-5.19
18287,-5.10
18470,-5.00
18654,-4.90
18841,-4.82
19029,-4.83
19220,-4.89
19412,-4.99
19606,-5.10
19802,-5.19
20000,-5.29
