frequency,raw
20,-12.24
21,-11.84
22,-11.63
23,-11.32
24,-11.13
25,-10.88
26,-10.63
27,-10.42
28,-10.32
29,-10.09
30,-9.82
31,-9.70
32,-9.62
33,-9.42
34,-9.22
35,-9.11
36,-9.02
37,-8.92
38,-8.82
39,-8.72
40,-8.55
41,-8.51
42,-8.41
43,-8.31
44,-8.21
45,-8.13
46,-8.01
47,-8.01
48,-8.01
49,-7.91
50,-7.81
51,-7.69
52,-7.71
53,-7.73
54,-7.51
55,-7.51
56,-7.51
57,-7.51
58,-7.37
59,-7.41
60,-7.41
61,-7.41
62,-7.41
63,-7.41
64,-7.45
65,-7.17
66,-7.21
67,-7.21
68,-7.21
69,-7.05
70,-7.11
71,-7.11
72,-6.95
73,-7.06
74,-7.09
75,-6.81
76,-6.72
77,-6.80
78,-6.80
79,-6.80
80,-6.62
81,-6.60
82,-6.70
83,-6.70
84,-6.70
85,-6.70
86,-6.70
87,-6.70
88,-6.72
89,-6.92
90,-6.84
91,-6.80
92,-6.88
93,-7.04
94,-6.92
95,-6.94
96,-7.00
97,-7.10
98,-7.12
99,-7.13
100,-7.14
101,-7.23
102,-7.44
104,-7.46
105,-7.37
106,-7.25
107,-7.39
108,-7.40
109,-7.22
110,-7.20
111,-7.15
112,-7.10
113,-7.07
114,-6.96
115,-7.00
117,-7.03
118,-6.88
119,-6.83
120,-6.86
121,-6.80
123,-6.49
124,-6.46
125,-6.43
126,-6.37
128,-6.31
129,-6.10
130,-5.99
131,-5.96
133,-5.93
134,-5.88
135,-5.74
137,-5.58
138,-5.58
140,-5.68
141,-5.67
142,-5.52
144,-5.45
145,-5.54
147,-5.57
148,-5.57
150,-5.60
151,-5.75
153,-5.76
154,-5.67
156,-5.67
157,-5.67
159,-5.67
160,-5.63
162,-5.53
164,-5.70
165,-5.74
167,-5.92
169,-6.09
170,-6.20
172,-6.07
174,-6.11
175,-6.01
177,-5.83
179,-5.72
181,-5.74
183,-5.38
184,-5.29
186,-5.39
188,-5.37
190,-5.26
192,-5.10
194,-5.24
196,-5.31
198,-4.93
200,-4.86
202,-4.98
204,-4.97
206,-4.71
208,-4.71
210,-4.87
212,-4.88
214,-4.88
216,-4.88
218,-4.89
221,-4.89
223,-4.89
225,-4.89
227,-4.89
229,-4.89
232,-4.88
234,-4.87
236,-4.86
239,-4.84
241,-4.96
244,-5.07
246,-4.99
248,-5.05
251,-4.79
253,-4.73
256,-4.72
259,-4.71
261,-4.70
264,-4.70
266,-4.70
269,-4.55
272,-4.68
274,-4.82
277,-4.82
280,-4.82
283,-4.81
286,-4.81
288,-4.80
291,-4.79
294,-4.78
297,-4.77
300,-4.75
303,-4.74
306,-4.73
309,-4.72
312,-4.69
316,-4.57
319,-4.75
322,-4.81
325,-4.81
328,-4.81
332,-4.81
335,-4.81
338,-4.82
342,-4.82
345,-4.82
349,-4.71
352,-4.74
356,-4.91
359,-4.93
363,-5.01
366,-5.00
370,-4.79
374,-4.78
377,-4.78
381,-4.77
385,-4.73
389,-4.68
393,-4.80
397,-4.85
401,-4.85
405,-4.85
409,-4.86
413,-4.86
417,-4.86
421,-4.86
425,-4.81
430,-4.84
434,-4.96
438,-4.92
443,-4.76
447,-4.72
451,-4.66
456,-4.62
460,-4.56
465,-4.40
470,-4.18
474,-4.10
479,-4.01
484,-3.90
489,-3.72
494,-3.69
499,-3.66
504,-3.63
509,-3.62
514,-3.60
519,-3.60
524,-3.60
529,-3.61
535,-3.57
540,-3.62
545,-3.71
551,-3.75
556,-3.80
562,-3.85
568,-3.90
573,-3.95
579,-3.94
585,-3.98
591,-4.14
596,-4.02
602,-3.97
608,-3.87
615,-3.78
621,-3.72
627,-3.55
633,-3.52
639,-3.43
646,-3.27
652,-3.10
659,-2.98
665,-2.90
672,-2.75
679,-2.59
686,-2.45
692,-2.41
699,-2.30
706,-2.14
713,-2.09
721,-2.07
728,-1.92
735,-1.92
742,-1.94
750,-1.86
757,-1.85
765,-1.77
773,-1.64
780,-1.65
788,-1.59
796,-1.50
804,-1.45
812,-1.38
820,-1.24
828,-1.23
837,-1.13
845,-1.04
853,-1.04
862,-0.85
871,-0.85
879,-0.86
888,-0.69
897,-0.67
906,-0.68
915,-0.57
924,-0.53
933,-0.44
943,-0.29
952,-0.28
962,-0.20
971,-0.17
981,-0.11
991,-0.05
1001,0.01
1011,0.12
1021,0.21
1031,0.24
1041,0.37
1052,0.40
1062,0.48
1073,0.59
1084,0.72
1094,0.79
1105,0.85
1116,0.91
1128,0.99
1139,1.16
1150,1.24
1162,1.33
1173,1.42
1185,1.52
1197,1.62
1209,1.74
1221,1.86
1233,1.98
1246,2.05
1258,2.14
1271,2.19
1283,2.33
1296,2.48
1309,2.63
1322,2.78
1335,2.93
1349,3.09
1362,3.22
1376,3.28
1390,3.43
1404,3.57
1418,3.71
1432,3.84
1446,3.97
1461,4.08
1475,4.19
1490,4.29
1505,4.38
1520,4.53
1535,4.64
1550,4.72
1566,4.88
1582,5.09
1597,5.29
1613,5.44
1629,5.64
1646,5.86
1662,6.01
1679,6.23
1696,6.49
1713,6.65
1730,6.78
1747,7.01
1764,7.20
1782,7.36
1800,7.47
1818,7.58
1836,7.72
1854,7.92
1873,8.05
1892,8.18
1911,8.31
1930,8.44
1949,8.53
1969,8.60
1988,8.73
2008,8.86
2028,8.88
2048,8.91
2069,9.02
2090,9.10
2111,9.19
2132,9.19
2153,9.20
2175,9.26
2196,9.35
2218,9.35
2240,9.31
2263,9.30
2285,9.36
2308,9.32
2331,9.23
2355,9.23
2378,9.14
2402,8.99
2426,8.89
2450,8.82
2475,8.64
2500,8.62
2525,8.67
2550,8.69
2575,8.64
2601,8.59
2627,8.64
2653,8.64
2680,8.58
2707,8.61
2734,8.63
2761,8.58
2789,8.56
2817,8.40
2845,8.28
2873,8.14
2902,8.04
2931,7.97
2960,7.99
2990,7.99
3020,7.98
3050,8.03
3080,8.08
3111,8.05
3142,8.06
3174,8.10
3206,8.07
3238,8.05
3270,8.06
3303,8.02
3336,7.97
3369,7.92
3403,7.88
3437,7.89
3471,7.83
3506,7.81
3541,7.82
3576,7.82
3612,7.63
3648,7.48
3685,7.26
3721,6.99
3759,6.76
3796,6.48
3834,6.22
3873,5.96
3911,5.71
3950,5.49
3990,5.40
4030,5.26
4070,5.15
4111,5.03
4152,4.91
4193,4.80
4235,4.66
4278,4.53
4321,4.42
4364,4.26
4407,4.10
4451,3.93
4496,3.86
4541,3.73
4586,3.64
4632,3.42
4679,3.16
4725,2.99
4773,2.46
4820,2.18
4868,1.83
4917,1.52
4966,1.22
5016,0.59
5066,0.24
5117,0.02
5168,-0.22
5220,-0.63
5272,-1.04
5325,-1.51
5378,-2.14
5432,-2.48
5486,-3.24
5541,-4.25
5596,-4.90
5652,-5.73
5709,-7.06
5766,-8.38
5823,-9.63
5882,-11.09
5940,-12.22
6000,-12.67
6060,-13.23
6120,-12.60
6182,-11.87
6244,-11.42
6306,-11.02
6369,-10.79
6433,-10.69
6497,-11.11
6562,-11.99
6628,-12.71
6694,-14.14
6761,-15.44
6828,-16.77
6897,-17.29
6966,-17.33
7035,-17.65
7106,-18.45
7177,-19.13
7249,-19.25
7321,-19.42
7394,-18.32
7468,-19.25
7543,-19.53
7618,-19.63
7694,-19.04
7771,-18.33
7849,-17.54
7928,-16.80
8007,-16.46
8087,-16.40
8168,-15.87
8250,-15.22
8332,-14.10
8415,-13.17
8499,-11.66
8584,-11.66
8670,-12.04
8757,-12.80
8845,-11.30
8933,-10.46
9022,-8.97
9113,-11.32
9204,-12.85
9296,-12.52
9389,-11.85
9483,-12.05
9577,-11.59
9673,-10.33
9770,-9.88
9868,-9.92
9966,-9.42
10066,-9.47
10167,-9.67
10268,-9.86
10371,-9.52
10475,-9.57
10579,-9.11
10685,-7.93
10792,-6.24
10900,-5.18
11009,-4.02
11119,-3.62
11230,-3.13
11343,-3.17
11456,-3.74
11571,-5.24
11686,-6.20
11803,-7.29
11921,-8.11
12040,-9.16
12161,-10.17
12282,-10.95
12405,-11.95
12529,-12.82
12655,-12.48
12781,-14.69
12909,-15.09
13038,-14.12
13168,-16.43
13300,-17.71
13433,-17.79
13567,-17.16
13703,-16.19
13840,-15.92
13978,-15.84
14118,-15.57
14259,-15.66
14402,-15.07
14546,-14.59
14692,-15.57
14838,-18.16
14987,-19.87
15137,-21.22
15288,-21.07
15441,-20.64
15595,-18.13
15751,-17.11
15909,-15.00
16068,-14.01
16229,-12.75
16391,-11.41
16555,-10.65
16720,-9.95
16888,-9.47
17056,-9.29
17227,-10.07
17399,-10.27
17573,-10.33
17749,-10.54
17926,-10.80
18106,-11.46
18287,-12.47
18470,-13.09
18654,-13.41
18841,-13.43
19029,-13.29
19220,-13.07
19412,-12.97
19606,-13.20
19802,-14.21
20000,-14.82
