frequency,raw,error,smoothed,error_smoothed,equalization,parametric_eq,fixed_band_eq,equalized_raw,equalized_smoothed,target
20.00,-2.58,-5.16,-2.58,-5.16,5.18,4.76,2.02,2.60,2.60,2.58
20.20,-2.54,-5.17,-2.54,-5.17,5.18,4.76,2.08,2.63,2.63,2.63
20.40,-2.50,-5.18,-2.50,-5.18,5.17,4.76,2.14,2.67,2.67,2.68
20.61,-2.46,-5.17,-2.46,-5.18,5.16,4.75,2.21,2.70,2.70,2.70
20.81,-2.42,-5.18,-2.42,-5.18,5.16,4.75,2.27,2.73,2.73,2.76
21.02,-2.38,-5.18,-2.38,-5.17,5.15,4.75,2.34,2.76,2.77,2.79
21.23,-2.33,-5.15,-2.34,-5.15,5.14,4.75,2.40,2.80,2.80,2.81
21.44,-2.29,-5.13,-2.29,-5.13,5.13,4.74,2.48,2.83,2.84,2.83
21.66,-2.25,-5.11,-2.25,-5.10,5.11,4.74,2.55,2.86,2.87,2.85
21.87,-2.20,-5.07,-2.21,-5.08,5.10,4.74,2.62,2.89,2.89,2.86
22.09,-2.18,-5.06,-2.19,-5.07,5.08,4.73,2.70,2.90,2.90,2.88
22.31,-2.17,-5.06,-2.17,-5.06,5.07,4.73,2.78,2.90,2.90,2.89
22.54,-2.17,-5.06,-2.17,-5.06,5.05,4.73,2.86,2.88,2.88,2.89
22.76,-2.16,-5.05,-2.17,-5.05,5.03,4.72,2.94,2.87,2.87,2.89
22.99,-2.16,-5.04,-2.15,-5.03,5.01,4.72,3.02,2.85,2.86,2.88
23.22,-2.12,-5.00,-2.13,-5.00,4.99,4.72,3.11,2.87,2.87,2.88
23.45,-2.08,-4.96,-2.09,-4.96,4.96,4.71,3.20,2.88,2.88,2.88
23.69,-2.04,-4.93,-2.04,-4.92,4.93,4.71,3.29,2.89,2.90,2.89
23.92,-1.99,-4.88,-2.00,-4.89,4.90,4.70,3.38,2.91,2.90,2.89
24.16,-1.96,-4.86,-1.97,-4.86,4.87,4.70,3.47,2.91,2.90,2.90
24.40,-1.94,-4.85,-1.94,-4.83,4.84,4.70,3.57,2.90,2.90,2.90
24.65,-1.91,-4.81,-1.92,-4.81,4.81,4.69,3.66,2.90,2.90,2.89
24.89,-1.89,-4.79,-1.89,-4.79,4.79,4.69,3.76,2.89,2.89,2.89
25.14,-1.87,-4.76,-1.87,-4.76,4.76,4.68,3.86,2.89,2.89,2.89
25.39,-1.84,-4.74,-1.84,-4.74,4.73,4.68,3.96,2.89,2.89,2.90
25.65,-1.81,-4.71,-1.82,-4.71,4.71,4.67,4.06,2.89,2.89,2.90
25.91,-1.79,-4.68,-1.79,-4.68,4.68,4.67,4.16,2.89,2.89,2.89
26.16,-1.76,-4.65,-1.77,-4.65,4.65,4.66,4.26,2.89,2.89,2.89
26.43,-1.74,-4.63,-1.74,-4.62,4.63,4.66,4.36,2.89,2.89,2.89
26.69,-1.71,-4.60,-1.71,-4.60,4.61,4.65,4.45,2.90,2.90,2.88
26.96,-1.68,-4.58,-1.69,-4.58,4.59,4.65,4.55,2.91,2.90,2.89
27.23,-1.68,-4.58,-1.68,-4.57,4.58,4.64,4.65,2.90,2.90,2.89
27.50,-1.68,-4.57,-1.68,-4.57,4.57,4.64,4.74,2.89,2.89,2.89
27.77,-1.68,-4.56,-1.68,-4.57,4.56,4.63,4.83,2.88,2.88,2.88
28.05,-1.68,-4.56,-1.68,-4.56,4.55,4.63,4.91,2.87,2.87,2.88
28.33,-1.67,-4.54,-1.68,-4.55,4.54,4.62,4.99,2.86,2.86,2.87
28.62,-1.66,-4.53,-1.66,-4.53,4.52,4.62,5.07,2.85,2.85,2.87
28.90,-1.64,-4.52,-1.64,-4.51,4.49,4.61,5.14,2.85,2.85,2.87
29.19,-1.61,-4.48,-1.61,-4.48,4.46,4.60,5.21,2.85,2.86,2.86
29.48,-1.56,-4.44,-1.56,-4.44,4.44,4.60,5.27,2.87,2.87,2.88
29.78,-1.52,-4.39,-1.52,-4.40,4.41,4.59,5.33,2.89,2.89,2.87
30.08,-1.48,-4.36,-1.49,-4.37,4.39,4.59,5.37,2.90,2.89,2.88
30.38,-1.48,-4.35,-1.48,-4.35,4.37,4.58,5.41,2.89,2.89,2.86
30.68,-1.48,-4.35,-1.48,-4.34,4.36,4.57,5.44,2.87,2.88,2.86
30.99,-1.48,-4.34,-1.48,-4.34,4.34,4.57,5.47,2.86,2.86,2.86
31.30,-1.48,-4.34,-1.49,-4.34,4.33,4.56,5.49,2.85,2.85,2.86
31.61,-1.48,-4.34,-1.49,-4.34,4.32,4.55,5.50,2.84,2.83,2.86
31.93,-1.48,-4.34,-1.48,-4.33,4.31,4.54,5.50,2.82,2.83,2.85
32.24,-1.46,-4.30,-1.46,-4.30,4.29,4.54,5.49,2.83,2.84,2.84
32.57,-1.42,-4.27,-1.43,-4.27,4.27,4.53,5.47,2.85,2.85,2.85
32.89,-1.39,-4.24,-1.40,-4.24,4.26,4.52,5.46,2.86,2.86,2.85
33.22,-1.38,-4.22,-1.38,-4.22,4.24,4.51,5.43,2.85,2.85,2.83
33.55,-1.38,-4.21,-1.38,-4.21,4.22,4.50,5.39,2.84,2.84,2.83
33.89,-1.38,-4.20,-1.38,-4.21,4.21,4.50,5.35,2.82,2.82,2.82
34.23,-1.38,-4.21,-1.38,-4.20,4.20,4.49,5.31,2.81,2.81,2.82
34.57,-1.38,-4.19,-1.38,-4.20,4.19,4.48,5.26,2.81,2.81,2.81
34.92,-1.38,-4.19,-1.38,-4.19,4.19,4.47,5.21,2.81,2.81,2.81
35.27,-1.38,-4.19,-1.38,-4.19,4.19,4.46,5.15,2.81,2.81,2.81
35.62,-1.38,-4.18,-1.38,-4.19,4.19,4.45,5.09,2.81,2.81,2.80
35.97,-1.38,-4.18,-1.38,-4.19,4.18,4.44,5.03,2.80,2.80,2.80
36.33,-1.38,-4.19,-1.39,-4.18,4.17,4.43,4.96,2.79,2.79,2.80
36.70,-1.38,-4.17,-1.38,-4.18,4.16,4.42,4.90,2.78,2.78,2.79
37.06,-1.37,-4.16,-1.37,-4.16,4.15,4.41,4.83,2.77,2.78,2.79
37.43,-1.34,-4.14,-1.34,-4.13,4.13,4.40,4.77,2.79,2.79,2.80
37.81,-1.30,-4.10,-1.31,-4.11,4.12,4.39,4.70,2.81,2.81,2.80
38.19,-1.28,-4.08,-1.29,-4.09,4.10,4.38,4.64,2.82,2.82,2.79
38.57,-1.28,-4.08,-1.28,-4.08,4.09,4.37,4.57,2.81,2.81,2.80
38.95,-1.28,-4.09,-1.28,-4.08,4.08,4.36,4.51,2.80,2.80,2.80
39.34,-1.28,-4.08,-1.28,-4.08,4.08,4.34,4.45,2.79,2.79,2.80
39.74,-1.28,-4.08,-1.28,-4.08,4.07,4.33,4.39,2.79,2.79,2.79
40.14,-1.28,-4.08,-1.28,-4.08,4.07,4.32,4.33,2.79,2.79,2.80
40.54,-1.28,-4.08,-1.28,-4.08,4.07,4.31,4.27,2.79,2.79,2.79
40.94,-1.28,-4.07,-1.28,-4.07,4.07,4.29,4.22,2.78,2.78,2.79
41.35,-1.28,-4.06,-1.28,-4.07,4.06,4.28,4.17,2.78,2.78,2.78
41.76,-1.28,-4.06,-1.28,-4.06,4.06,4.27,4.12,2.78,2.78,2.77
42.18,-1.28,-4.06,-1.28,-4.05,4.06,4.25,4.07,2.78,2.78,2.78
42.60,-1.28,-4.04,-1.28,-4.05,4.06,4.24,4.03,2.78,2.78,2.76
43.03,-1.28,-4.04,-1.30,-4.06,4.07,4.22,3.99,2.78,2.77,2.75
43.46,-1.33,-4.08,-1.33,-4.07,4.07,4.21,3.96,2.73,2.74,2.75
43.90,-1.37,-4.09,-1.36,-4.08,4.07,4.19,3.92,2.69,2.71,2.72
44.33,-1.38,-4.08,-1.38,-4.09,4.06,4.18,3.89,2.68,2.68,2.70
44.78,-1.38,-4.07,-1.39,-4.07,4.06,4.16,3.86,2.67,2.67,2.68
45.23,-1.38,-4.06,-1.38,-4.05,4.05,4.15,3.84,2.67,2.67,2.68
45.68,-1.38,-4.04,-1.38,-4.04,4.05,4.13,3.82,2.67,2.67,2.66
46.13,-1.38,-4.02,-1.38,-4.02,4.05,4.11,3.80,2.66,2.67,2.64
46.60,-1.38,-4.02,-1.38,-4.01,4.04,4.10,3.78,2.66,2.66,2.64
47.06,-1.39,-4.01,-1.41,-4.03,4.04,4.08,3.77,2.65,2.64,2.62
47.53,-1.43,-4.04,-1.44,-4.05,4.04,4.06,3.76,2.61,2.61,2.61
48.01,-1.48,-4.09,-1.47,-4.07,4.04,4.04,3.75,2.56,2.58,2.61
48.49,-1.48,-4.07,-1.48,-4.07,4.04,4.02,3.75,2.56,2.56,2.59
48.97,-1.48,-4.05,-1.49,-4.05,4.04,4.00,3.75,2.56,2.55,2.57
49.46,-1.48,-4.03,-1.48,-4.03,4.03,3.98,3.74,2.55,2.55,2.55
49.96,-1.48,-4.01,-1.48,-4.01,4.02,3.96,3.75,2.54,2.54,2.52
50.46,-1.48,-4.00,-1.48,-4.00,4.01,3.94,3.75,2.52,2.52,2.52
50.96,-1.48,-3.99,-1.48,-3.99,3.99,3.92,3.75,2.51,2.51,2.51
51.47,-1.48,-3.97,-1.48,-3.97,3.98,3.90,3.76,2.49,2.49,2.49
51.99,-1.48,-3.96,-1.48,-3.96,3.96,3.87,3.77,2.48,2.48,2.47
52.51,-1.48,-3.95,-1.48,-3.95,3.94,3.85,3.78,2.46,2.46,2.47
53.03,-1.48,-3.95,-1.48,-3.94,3.93,3.83,3.79,2.45,2.45,2.46
53.56,-1.48,-3.93,-1.48,-3.93,3.92,3.80,3.80,2.44,2.44,2.45
54.10,-1.48,-3.92,-1.48,-3.92,3.91,3.78,3.80,2.43,2.43,2.43
54.64,-1.48,-3.90,-1.48,-3.90,3.91,3.75,3.81,2.43,2.43,2.42
55.18,-1.49,-3.90,-1.49,-3.90,3.91,3.73,3.82,2.42,2.42,2.41
55.74,-1.50,-3.90,-1.51,-3.91,3.93,3.70,3.83,2.42,2.41,2.39
56.29,-1.55,-3.94,-1.56,-3.94,3.95,3.67,3.83,2.40,2.39,2.39
56.86,-1.61,-3.98,-1.60,-3.97,3.98,3.65,3.84,2.37,2.38,2.37
57.42,-1.66,-4.00,-1.66,-4.01,4.02,3.62,3.84,2.36,2.36,2.34
58.00,-1.70,-4.03,-1.72,-4.05,4.06,3.59,3.84,2.36,2.34,2.33
58.58,-1.78,-4.10,-1.78,-4.10,4.10,3.56,3.84,2.32,2.32,2.32
59.16,-1.85,-4.15,-1.83,-4.13,4.13,3.53,3.83,2.28,2.30,2.30
59.76,-1.87,-4.15,-1.90,-4.17,4.14,3.50,3.82,2.27,2.25,2.28
60.35,-1.92,-4.16,-1.93,-4.17,4.14,3.47,3.81,2.22,2.21,2.24
60.96,-1.98,-4.19,-1.94,-4.14,4.12,3.44,3.79,2.14,2.18,2.20
61.57,-1.92,-4.09,-1.94,-4.10,4.09,3.40,3.77,2.16,2.15,2.16
62.18,-1.88,-4.00,-1.91,-4.03,4.03,3.37,3.74,2.15,2.12,2.12
62.80,-1.88,-3.96,-1.87,-3.94,3.96,3.34,3.72,2.08,2.09,2.07
63.43,-1.84,-3.87,-1.84,-3.86,3.87,3.30,3.68,2.03,2.04,2.03
64.07,-1.78,-3.77,-1.79,-3.78,3.77,3.27,3.65,1.99,1.98,1.98
64.71,-1.74,-3.68,-1.74,-3.68,3.67,3.23,3.60,1.93,1.93,1.94
65.35,-1.68,-3.58,-1.68,-3.58,3.57,3.19,3.56,1.89,1.89,1.90
66.01,-1.62,-3.47,-1.61,-3.46,3.47,3.15,3.51,1.85,1.86,1.85
66.67,-1.53,-3.33,-1.54,-3.35,3.36,3.12,3.46,1.83,1.82,1.80
67.33,-1.47,-3.22,-1.48,-3.24,3.25,3.08,3.40,1.78,1.77,1.75
68.01,-1.44,-3.15,-1.43,-3.14,3.14,3.04,3.34,1.70,1.71,1.71
68.69,-1.38,-3.04,-1.39,-3.05,3.02,3.00,3.28,1.64,1.63,1.66
69.37,-1.32,-2.93,-1.32,-2.93,2.91,2.96,3.21,1.58,1.58,1.61
70.07,-1.27,-2.83,-1.24,-2.80,2.79,2.91,3.14,1.52,1.55,1.55
70.77,-1.13,-2.64,-1.16,-2.67,2.68,2.87,3.07,1.54,1.51,1.51
71.48,-1.08,-2.54,-1.10,-2.55,2.57,2.83,3.00,1.48,1.47,1.46
72.19,-1.07,-2.46,-1.05,-2.44,2.46,2.78,2.93,1.39,1.42,1.39
72.91,-1.02,-2.36,-1.02,-2.36,2.37,2.74,2.85,1.34,1.34,1.34
73.64,-0.98,-2.26,-0.99,-2.27,2.28,2.69,2.78,1.29,1.28,1.28
74.38,-0.97,-2.19,-0.97,-2.19,2.20,2.64,2.70,1.23,1.23,1.22
75.12,-0.97,-2.14,-0.97,-2.13,2.13,2.60,2.62,1.16,1.16,1.16
75.87,-0.97,-2.08,-0.97,-2.08,2.07,2.55,2.55,1.10,1.10,1.10
76.63,-0.97,-2.03,-0.97,-2.02,2.02,2.50,2.47,1.05,1.05,1.05
77.40,-0.97,-1.98,-0.97,-1.97,1.97,2.45,2.39,1.00,1.00,1.00
78.17,-0.97,-1.91,-0.97,-1.92,1.92,2.40,2.32,0.95,0.95,0.94
78.95,-0.97,-1.88,-0.97,-1.87,1.87,2.35,2.24,0.90,0.90,0.91
79.74,-0.97,-1.83,-0.97,-1.83,1.83,2.30,2.16,0.85,0.85,0.85
80.54,-0.97,-1.78,-0.97,-1.78,1.78,2.25,2.09,0.81,0.81,0.81
81.35,-0.97,-1.73,-0.97,-1.73,1.74,2.19,2.01,0.76,0.76,0.76
82.16,-0.97,-1.68,-0.98,-1.69,1.69,2.14,1.94,0.72,0.71,0.71
82.98,-0.98,-1.66,-0.98,-1.64,1.65,2.09,1.87,0.66,0.67,0.67
83.81,-0.98,-1.60,-0.98,-1.60,1.60,2.03,1.80,0.62,0.62,0.62
84.65,-0.98,-1.55,-0.98,-1.56,1.55,1.98,1.73,0.57,0.57,0.57
85.50,-0.98,-1.51,-0.98,-1.51,1.50,1.92,1.66,0.52,0.52,0.53
86.35,-0.97,-1.45,-0.98,-1.46,1.46,1.87,1.59,0.48,0.48,0.48
87.22,-0.97,-1.40,-0.97,-1.41,1.41,1.81,1.52,0.43,0.43,0.43
88.09,-0.97,-1.35,-0.97,-1.35,1.35,1.75,1.45,0.38,0.38,0.38
88.97,-0.97,-1.30,-0.97,-1.30,1.30,1.70,1.39,0.33,0.33,0.33
89.86,-0.97,-1.25,-0.97,-1.25,1.25,1.64,1.32,0.28,0.28,0.28
90.76,-0.97,-1.20,-0.97,-1.20,1.20,1.58,1.26,0.23,0.23,0.23
91.66,-0.97,-1.16,-0.97,-1.15,1.15,1.53,1.20,0.18,0.18,0.18
92.58,-0.97,-1.09,-0.97,-1.10,1.10,1.47,1.14,0.13,0.13,0.12
93.51,-0.97,-1.05,-0.97,-1.05,1.05,1.41,1.07,0.08,0.08,0.08
94.44,-0.97,-1.01,-0.97,-1.00,1.00,1.35,1.02,0.03,0.03,0.03
95.39,-0.97,-0.96,-0.97,-0.96,0.96,1.29,0.96,-0.02,-0.02,-0.01
96.34,-0.97,-0.91,-0.98,-0.91,0.92,1.23,0.90,-0.06,-0.06,-0.07
97.30,-0.98,-0.87,-0.98,-0.87,0.88,1.18,0.84,-0.10,-0.10,-0.11
98.28,-0.99,-0.84,-0.99,-0.83,0.84,1.12,0.79,-0.15,-0.15,-0.16
99.26,-1.00,-0.80,-1.01,-0.80,0.81,1.06,0.73,-0.19,-0.20,-0.20
100.25,-1.02,-0.77,-1.02,-0.78,0.77,1.00,0.68,-0.25,-0.25,-0.25
101.25,-1.04,-0.75,-1.04,-0.75,0.73,0.94,0.63,-0.31,-0.31,-0.29
102.27,-1.05,-0.71,-1.06,-0.71,0.69,0.89,0.58,-0.36,-0.37,-0.34
103.29,-1.06,-0.67,-1.05,-0.66,0.65,0.83,0.53,-0.41,-0.40,-0.40
104.32,-1.05,-0.62,-1.04,-0.61,0.61,0.77,0.48,-0.45,-0.43,-0.43
105.37,-1.01,-0.53,-1.03,-0.55,0.57,0.72,0.43,-0.45,-0.47,-0.48
106.42,-1.03,-0.51,-1.03,-0.50,0.53,0.66,0.38,-0.51,-0.51,-0.53
107.48,-1.05,-0.47,-1.05,-0.47,0.49,0.61,0.33,-0.57,-0.56,-0.58
108.56,-1.08,-0.44,-1.08,-0.44,0.45,0.55,0.29,-0.64,-0.63,-0.64
109.64,-1.10,-0.42,-1.10,-0.42,0.41,0.50,0.24,-0.69,-0.69,-0.68
110.74,-1.12,-0.38,-1.12,-0.39,0.37,0.44,0.20,-0.75,-0.75,-0.74
111.85,-1.14,-0.37,-1.14,-0.35,0.33,0.39,0.16,-0.81,-0.80,-0.78
112.97,-1.14,-0.30,-1.15,-0.31,0.30,0.34,0.12,-0.85,-0.85,-0.84
114.10,-1.15,-0.27,-1.15,-0.27,0.26,0.29,0.07,-0.89,-0.89,-0.89
115.24,-1.15,-0.22,-1.15,-0.21,0.23,0.24,0.04,-0.92,-0.92,-0.93
116.39,-1.15,-0.17,-1.15,-0.17,0.20,0.19,-0.00,-0.96,-0.95,-0.99
117.55,-1.15,-0.13,-1.17,-0.14,0.17,0.15,-0.04,-0.99,-1.00,-1.02
118.73,-1.18,-0.12,-1.19,-0.13,0.14,0.10,-0.07,-1.05,-1.06,-1.06
119.92,-1.24,-0.16,-1.22,-0.12,0.11,0.06,-0.11,-1.13,-1.11,-1.09
121.12,-1.23,-0.10,-1.23,-0.10,0.08,0.02,-0.14,-1.15,-1.15,-1.13
122.33,-1.22,-0.06,-1.23,-0.07,0.06,-0.03,-0.17,-1.17,-1.17,-1.16
123.55,-1.21,-0.03,-1.22,-0.03,0.03,-0.07,-0.20,-1.18,-1.19,-1.18
124.79,-1.21,0.00,-1.21,0.01,-0.00,-0.10,-0.23,-1.21,-1.21,-1.22
126.03,-1.20,0.04,-1.20,0.04,-0.04,-0.14,-0.26,-1.24,-1.24,-1.25
127.29,-1.19,0.07,-1.20,0.08,-0.07,-0.18,-0.29,-1.27,-1.27,-1.27
128.57,-1.19,0.11,-1.19,0.11,-0.11,-0.21,-0.32,-1.31,-1.30,-1.31
129.85,-1.18,0.15,-1.18,0.15,-0.15,-0.24,-0.34,-1.33,-1.33,-1.33
131.15,-1.17,0.19,-1.18,0.18,-0.19,-0.27,-0.36,-1.36,-1.37,-1.36
132.46,-1.17,0.22,-1.17,0.22,-0.22,-0.30,-0.39,-1.39,-1.39,-1.39
133.79,-1.17,0.24,-1.17,0.25,-0.25,-0.33,-0.41,-1.42,-1.42,-1.42
135.12,-1.16,0.29,-1.16,0.28,-0.28,-0.35,-0.43,-1.44,-1.44,-1.45
136.48,-1.16,0.30,-1.16,0.31,-0.30,-0.38,-0.45,-1.46,-1.46,-1.47
137.84,-1.16,0.34,-1.17,0.33,-0.31,-0.40,-0.47,-1.48,-1.48,-1.50
139.22,-1.18,0.35,-1.19,0.34,-0.33,-0.42,-0.49,-1.51,-1.52,-1.54
140.61,-1.23,0.33,-1.22,0.34,-0.34,-0.45,-0.51,-1.57,-1.56,-1.57
142.02,-1.25,0.33,-1.25,0.34,-0.36,-0.47,-0.53,-1.61,-1.60,-1.58
143.44,-1.25,0.36,-1.26,0.36,-0.38,-0.49,-0.55,-1.63,-1.63,-1.61
144.87,-1.25,0.40,-1.26,0.39,-0.41,-0.51,-0.57,-1.66,-1.66,-1.65
146.32,-1.25,0.44,-1.25,0.43,-0.44,-0.54,-0.58,-1.69,-1.69,-1.69
147.78,-1.25,0.47,-1.25,0.47,-0.48,-0.56,-0.60,-1.74,-1.74,-1.72
149.26,-1.25,0.51,-1.25,0.52,-0.53,-0.59,-0.62,-1.78,-1.78,-1.77
150.75,-1.25,0.58,-1.25,0.58,-0.57,-0.62,-0.64,-1.83,-1.82,-1.84
152.26,-1.25,0.65,-1.25,0.65,-0.62,-0.65,-0.66,-1.87,-1.87,-1.90
153.78,-1.26,0.70,-1.28,0.69,-0.67,-0.68,-0.68,-1.93,-1.95,-1.97
155.32,-1.32,0.72,-1.33,0.71,-0.71,-0.72,-0.69,-2.03,-2.04,-2.04
156.88,-1.39,0.72,-1.39,0.73,-0.75,-0.75,-0.71,-2.14,-2.13,-2.12
158.44,-1.44,0.76,-1.43,0.77,-0.78,-0.80,-0.73,-2.22,-2.21,-2.20
160.03,-1.45,0.83,-1.45,0.82,-0.82,-0.84,-0.75,-2.27,-2.27,-2.28
161.63,-1.45,0.90,-1.48,0.87,-0.86,-0.88,-0.78,-2.31,-2.34,-2.35
163.24,-1.52,0.89,-1.52,0.89,-0.90,-0.93,-0.80,-2.42,-2.42,-2.41
164.88,-1.56,0.90,-1.54,0.92,-0.95,-0.98,-0.82,-2.52,-2.50,-2.46
166.53,-1.54,0.97,-1.54,0.97,-1.01,-1.02,-0.84,-2.55,-2.55,-2.51
168.19,-1.49,1.06,-1.49,1.06,-1.06,-1.07,-0.87,-2.56,-2.56,-2.55
169.87,-1.43,1.15,-1.44,1.14,-1.12,-1.12,-0.89,-2.55,-2.56,-2.59
171.57,-1.39,1.21,-1.41,1.19,-1.17,-1.17,-0.92,-2.56,-2.58,-2.60
173.29,-1.39,1.23,-1.39,1.23,-1.22,-1.22,-0.94,-2.61,-2.60,-2.62
175.02,-1.39,1.23,-1.36,1.27,-1.26,-1.27,-0.97,-2.65,-2.62,-2.63
176.77,-1.31,1.33,-1.34,1.30,-1.29,-1.32,-1.00,-2.60,-2.63,-2.64
178.54,-1.30,1.34,-1.31,1.33,-1.32,-1.37,-1.02,-2.62,-2.63,-2.65
180.32,-1.29,1.35,-1.29,1.35,-1.35,-1.42,-1.05,-2.64,-2.64,-2.64
182.13,-1.29,1.34,-1.28,1.36,-1.38,-1.47,-1.08,-2.67,-2.66,-2.63
183.95,-1.25,1.39,-1.25,1.39,-1.42,-1.52,-1.12,-2.67,-2.66,-2.64
185.79,-1.18,1.46,-1.20,1.45,-1.46,-1.57,-1.15,-2.65,-2.66,-2.64
187.65,-1.15,1.51,-1.15,1.51,-1.52,-1.62,-1.18,-2.67,-2.66,-2.66
189.52,-1.10,1.57,-1.10,1.58,-1.58,-1.67,-1.21,-2.68,-2.67,-2.68
191.42,-1.04,1.65,-1.04,1.65,-1.65,-1.72,-1.25,-2.69,-2.69,-2.69
193.33,-0.98,1.73,-0.99,1.73,-1.72,-1.77,-1.28,-2.71,-2.71,-2.71
195.27,-0.92,1.81,-0.92,1.81,-1.81,-1.82,-1.32,-2.73,-2.73,-2.73
197.22,-0.87,1.88,-0.87,1.88,-1.89,-1.87,-1.35,-2.77,-2.76,-2.75
199.19,-0.80,1.97,-0.82,1.96,-1.98,-1.92,-1.39,-2.78,-2.79,-2.78
201.18,-0.76,2.03,-0.75,2.04,-2.05,-1.97,-1.43,-2.82,-2.81,-2.79
203.19,-0.69,2.12,-0.68,2.14,-2.13,-2.03,-1.46,-2.82,-2.80,-2.81
205.23,-0.59,2.24,-0.61,2.21,-2.19,-2.08,-1.50,-2.78,-2.80,-2.83
207.28,-0.55,2.29,-0.57,2.28,-2.24,-2.13,-1.54,-2.80,-2.81,-2.84
209.35,-0.55,2.31,-0.55,2.32,-2.30,-2.19,-1.57,-2.85,-2.84,-2.86
211.44,-0.56,2.34,-0.56,2.32,-2.34,-2.24,-1.61,-2.90,-2.90,-2.90
213.56,-0.56,2.34,-0.56,2.34,-2.38,-2.30,-1.65,-2.94,-2.94,-2.90
215.69,-0.56,2.35,-0.54,2.38,-2.41,-2.35,-1.68,-2.97,-2.95,-2.92
217.85,-0.49,2.43,-0.51,2.42,-2.43,-2.40,-1.71,-2.92,-2.93,-2.93
220.03,-0.46,2.48,-0.48,2.47,-2.44,-2.45,-1.75,-2.90,-2.92,-2.94
222.23,-0.46,2.50,-0.46,2.49,-2.45,-2.50,-1.78,-2.92,-2.91,-2.96
224.45,-0.47,2.48,-0.47,2.49,-2.47,-2.55,-1.81,-2.94,-2.94,-2.95
226.70,-0.47,2.48,-0.48,2.48,-2.49,-2.58,-1.84,-2.97,-2.97,-2.96
228.96,-0.47,2.47,-0.48,2.47,-2.51,-2.62,-1.87,-2.99,-2.99,-2.95
231.25,-0.46,2.47,-0.45,2.49,-2.53,-2.64,-1.89,-2.99,-2.98,-2.94
233.57,-0.42,2.50,-0.40,2.53,-2.55,-2.66,-1.92,-2.97,-2.94,-2.93
235.90,-0.31,2.60,-0.35,2.57,-2.55,-2.67,-1.94,-2.87,-2.90,-2.92
238.26,-0.29,2.61,-0.31,2.60,-2.56,-2.67,-1.96,-2.85,-2.87,-2.91
240.64,-0.30,2.58,-0.29,2.60,-2.56,-2.66,-1.97,-2.86,-2.85,-2.88
243.05,-0.29,2.56,-0.28,2.58,-2.56,-2.64,-1.98,-2.85,-2.83,-2.85
245.48,-0.27,2.56,-0.29,2.54,-2.54,-2.60,-1.99,-2.81,-2.83,-2.83
247.93,-0.28,2.52,-0.31,2.49,-2.51,-2.57,-2.00,-2.80,-2.82,-2.80
250.41,-0.37,2.41,-0.33,2.45,-2.48,-2.52,-2.01,-2.85,-2.81,-2.79
252.92,-0.34,2.41,-0.33,2.43,-2.44,-2.46,-2.01,-2.78,-2.77,-2.76
255.45,-0.31,2.42,-0.35,2.39,-2.40,-2.40,-2.01,-2.71,-2.74,-2.73
258.00,-0.33,2.38,-0.37,2.34,-2.35,-2.33,-2.00,-2.68,-2.71,-2.71
260.58,-0.44,2.25,-0.38,2.31,-2.29,-2.25,-1.99,-2.74,-2.68,-2.70
263.19,-0.43,2.23,-0.42,2.25,-2.23,-2.17,-1.98,-2.67,-2.65,-2.66
265.82,-0.38,2.27,-0.46,2.18,-2.16,-2.09,-1.97,-2.55,-2.63,-2.65
268.48,-0.55,2.07,-0.53,2.09,-2.08,-2.01,-1.96,-2.63,-2.61,-2.63
271.16,-0.64,1.95,-0.62,1.98,-1.99,-1.92,-1.94,-2.63,-2.60,-2.59
273.87,-0.72,1.85,-0.70,1.87,-1.88,-1.84,-1.92,-2.60,-2.58,-2.58
276.61,-0.72,1.82,-0.76,1.79,-1.77,-1.75,-1.90,-2.49,-2.53,-2.54
279.38,-0.81,1.70,-0.85,1.67,-1.66,-1.66,-1.88,-2.47,-2.51,-2.52
282.17,-0.98,1.51,-0.94,1.55,-1.55,-1.57,-1.85,-2.54,-2.50,-2.49
284.99,-1.05,1.40,-1.03,1.43,-1.46,-1.48,-1.83,-2.51,-2.49,-2.46
287.84,-1.09,1.35,-1.11,1.33,-1.37,-1.39,-1.80,-2.46,-2.48,-2.44
290.72,-1.12,1.28,-1.17,1.24,-1.28,-1.30,-1.77,-2.40,-2.44,-2.41
293.63,-1.24,1.14,-1.18,1.20,-1.19,-1.21,-1.74,-2.43,-2.37,-2.38
296.57,-1.23,1.11,-1.20,1.15,-1.11,-1.12,-1.71,-2.34,-2.31,-2.35
299.53,-1.15,1.17,-1.27,1.05,-1.03,-1.02,-1.68,-2.19,-2.30,-2.32
302.53,-1.33,0.97,-1.33,0.96,-0.95,-0.93,-1.65,-2.29,-2.28,-2.30
305.55,-1.52,0.73,-1.41,0.86,-0.86,-0.84,-1.62,-2.38,-2.27,-2.26
308.61,-1.45,0.79,-1.50,0.74,-0.76,-0.75,-1.59,-2.21,-2.26,-2.24
311.69,-1.50,0.71,-1.54,0.67,-0.65,-0.66,-1.57,-2.15,-2.19,-2.21
314.81,-1.62,0.56,-1.61,0.59,-0.53,-0.56,-1.54,-2.16,-2.14,-2.19
317.96,-1.73,0.44,-1.74,0.43,-0.42,-0.48,-1.51,-2.16,-2.16,-2.17
321.14,-1.86,0.30,-1.87,0.29,-0.32,-0.39,-1.48,-2.18,-2.18,-2.16
324.35,-1.98,0.16,-1.96,0.19,-0.22,-0.31,-1.45,-2.20,-2.18,-2.15
327.59,-2.03,0.10,-2.03,0.11,-0.13,-0.24,-1.42,-2.16,-2.16,-2.13
330.87,-2.05,0.07,-2.07,0.05,-0.05,-0.17,-1.40,-2.10,-2.12,-2.12
334.18,-2.09,0.01,-2.11,0.00,0.01,-0.12,-1.37,-2.08,-2.09,-2.11
337.52,-2.14,-0.04,-2.15,-0.05,0.05,-0.07,-1.35,-2.09,-2.09,-2.10
340.90,-2.19,-0.11,-2.17,-0.08,0.07,-0.03,-1.33,-2.12,-2.10,-2.08
344.30,-2.16,-0.09,-2.17,-0.09,0.07,-0.01,-1.30,-2.09,-2.10,-2.07
347.75,-2.12,-0.05,-2.14,-0.07,0.06,0.00,-1.28,-2.07,-2.09,-2.08
351.23,-2.11,-0.05,-2.11,-0.04,0.03,0.00,-1.26,-2.08,-2.08,-2.07
354.74,-2.07,-0.00,-2.06,0.01,-0.01,-0.00,-1.24,-2.08,-2.07,-2.07
358.28,-2.00,0.06,-2.00,0.06,-0.06,-0.02,-1.22,-2.06,-2.06,-2.06
361.87,-1.92,0.14,-1.95,0.12,-0.11,-0.05,-1.20,-2.04,-2.06,-2.06
365.49,-1.89,0.16,-1.90,0.17,-0.17,-0.09,-1.19,-2.06,-2.06,-2.06
369.14,-1.88,0.19,-1.85,0.21,-0.21,-0.13,-1.17,-2.09,-2.06,-2.07
372.83,-1.80,0.27,-1.81,0.26,-0.24,-0.17,-1.16,-2.05,-2.05,-2.07
376.56,-1.76,0.31,-1.77,0.30,-0.26,-0.22,-1.14,-2.03,-2.04,-2.07
380.33,-1.75,0.31,-1.76,0.31,-0.28,-0.26,-1.13,-2.03,-2.03,-2.06
384.13,-1.77,0.29,-1.78,0.29,-0.28,-0.31,-1.12,-2.05,-2.06,-2.07
387.97,-1.82,0.25,-1.81,0.26,-0.28,-0.36,-1.11,-2.10,-2.09,-2.08
391.85,-1.84,0.25,-1.84,0.25,-0.27,-0.41,-1.10,-2.11,-2.11,-2.09
395.77,-1.84,0.24,-1.85,0.24,-0.26,-0.45,-1.09,-2.10,-2.11,-2.08
399.73,-1.84,0.25,-1.84,0.25,-0.25,-0.49,-1.08,-2.09,-2.09,-2.09
403.72,-1.84,0.25,-1.84,0.25,-0.24,-0.53,-1.07,-2.08,-2.08,-2.09
407.76,-1.84,0.26,-1.85,0.25,-0.24,-0.57,-1.06,-2.08,-2.09,-2.10
411.84,-1.85,0.25,-1.85,0.25,-0.25,-0.61,-1.06,-2.10,-2.10,-2.11
415.96,-1.85,0.25,-1.86,0.25,-0.26,-0.64,-1.05,-2.11,-2.11,-2.11
420.12,-1.85,0.25,-1.84,0.27,-0.27,-0.67,-1.05,-2.13,-2.11,-2.11
424.32,-1.81,0.30,-1.81,0.30,-0.30,-0.70,-1.04,-2.11,-2.11,-2.11
428.56,-1.75,0.35,-1.77,0.33,-0.34,-0.73,-1.04,-2.09,-2.11,-2.10
432.85,-1.72,0.37,-1.72,0.37,-0.38,-0.76,-1.03,-2.11,-2.11,-2.09
437.18,-1.67,0.41,-1.65,0.42,-0.44,-0.78,-1.03,-2.11,-2.09,-2.08
441.55,-1.55,0.49,-1.55,0.50,-0.51,-0.81,-1.03,-2.06,-2.06,-2.04
445.96,-1.42,0.59,-1.43,0.59,-0.58,-0.83,-1.03,-2.00,-2.00,-2.01
450.42,-1.28,0.70,-1.31,0.67,-0.65,-0.85,-1.02,-1.94,-1.97,-1.98
454.93,-1.20,0.73,-1.19,0.74,-0.73,-0.87,-1.02,-1.93,-1.92,-1.94
459.48,-1.11,0.77,-1.07,0.82,-0.81,-0.88,-1.02,-1.92,-1.88,-1.89
464.07,-0.91,0.92,-0.96,0.88,-0.88,-0.90,-1.02,-1.79,-1.84,-1.84
468.71,-0.82,0.95,-0.83,0.95,-0.95,-0.92,-1.02,-1.78,-1.79,-1.78
