frequency,raw,error,smoothed,error_smoothed,equalization,parametric_eq,equalized_raw,equalized_smoothed,target
20,-8.11,-8.77,-8.14,-8.79,6.00,1.32,-2.11,-2.14,0.66
21,-7.56,-8.22,-7.51,-8.15,6.00,1.54,-1.56,-1.51,0.66
22,-6.93,-7.59,-6.89,-7.53,6.00,1.77,-0.93,-0.89,0.66
23,-6.37,-7.03,-6.30,-6.94,5.91,2.03,-0.46,-0.39,0.66
24,-5.73,-6.39,-5.73,-6.36,5.72,2.31,-0.01,-0.01,0.66
25,-5.10,-5.76,-5.17,-5.81,5.44,2.59,0.34,0.27,0.66
26,-4.50,-5.16,-4.64,-5.27,5.10,2.86,0.60,0.46,0.66
27,-4.07,-4.73,-4.13,-4.76,4.71,3.12,0.64,0.58,0.66
28,-3.57,-4.23,-3.63,-4.27,4.27,3.34,0.70,0.63,0.66
29,-3.24,-3.90,-3.16,-3.79,3.79,3.50,0.55,0.63,0.66
30,-2.72,-3.38,-2.71,-3.34,3.34,3.59,0.62,0.63,0.66
31,-2.35,-3.01,-2.27,-2.91,2.91,3.60,0.56,0.64,0.66
32,-1.99,-2.65,-1.85,-2.50,2.50,3.54,0.51,0.64,0.66
33,-1.48,-2.14,-1.46,-2.11,2.11,3.41,0.63,0.64,0.66
34,-1.14,-1.80,-1.10,-1.74,1.74,3.22,0.60,0.63,0.66
35,-0.66,-1.32,-0.75,-1.39,1.39,2.99,0.73,0.63,0.66
36,-0.35,-1.01,-0.43,-1.06,1.06,2.73,0.71,0.63,0.66
37,-0.05,-0.71,-0.11,-0.75,0.75,2.46,0.70,0.64,0.66
38,0.22,-0.44,0.19,-0.45,0.45,2.18,0.67,0.64,0.66
39,0.49,-0.17,0.47,-0.18,0.18,1.89,0.67,0.65,0.66
40,0.69,0.03,0.72,0.07,-0.07,1.62,0.62,0.65,0.66
41,0.97,0.31,0.95,0.30,-0.30,1.34,0.67,0.66,0.66
42,1.08,0.42,1.16,0.51,-0.51,1.08,0.57,0.65,0.66
43,1.30,0.64,1.35,0.71,-0.71,0.82,0.59,0.64,0.66
44,1.59,0.93,1.53,0.89,-0.89,0.57,0.70,0.64,0.66
45,1.62,0.96,1.70,1.06,-1.06,0.33,0.56,0.64,0.66
46,1.94,1.28,1.86,1.21,-1.21,0.10,0.73,0.64,0.66
47,1.95,1.29,2.00,1.35,-1.35,-0.13,0.60,0.65,0.66
48,2.10,1.44,2.13,1.48,-1.48,-0.35,0.62,0.65,0.66
49,2.27,1.61,2.24,1.59,-1.59,-0.57,0.68,0.65,0.66
50,2.27,1.61,2.34,1.68,-1.68,-0.77,0.59,0.66,0.66
51,2.46,1.80,2.42,1.76,-1.76,-0.97,0.70,0.66,0.66
52,2.59,1.93,2.49,1.83,-1.83,-1.16,0.76,0.66,0.66
53,2.59,1.93,2.53,1.88,-1.88,-1.34,0.71,0.65,0.66
54,2.59,1.93,2.57,1.92,-1.92,-1.51,0.67,0.64,0.66
55,2.59,1.93,2.60,1.95,-1.95,-1.66,0.64,0.65,0.66
56,2.59,1.93,2.61,1.97,-1.97,-1.81,0.62,0.64,0.66
57,2.59,1.93,2.62,1.98,-1.98,-1.94,0.61,0.64,0.66
58,2.59,1.93,2.62,1.99,-1.99,-2.05,0.60,0.63,0.66
59,2.59,1.93,2.63,1.99,-1.99,-2.15,0.60,0.63,0.66
60,2.59,1.93,2.63,1.99,-1.99,-2.23,0.60,0.65,0.66
61,2.59,1.93,2.62,1.98,-1.98,-2.30,0.61,0.64,0.66
62,2.59,1.93,2.61,1.97,-1.97,-2.35,0.62,0.64,0.66
63,2.59,1.93,2.59,1.95,-1.95,-2.38,0.64,0.64,0.66
64,2.59,1.93,2.58,1.94,-1.94,-2.40,0.65,0.64,0.66
65,2.59,1.93,2.55,1.91,-1.91,-2.40,0.68,0.64,0.66
66,2.59,1.93,2.52,1.89,-1.89,-2.40,0.70,0.63,0.66
67,2.59,1.93,2.49,1.86,-1.86,-2.38,0.73,0.63,0.66
68,2.56,1.90,2.46,1.84,-1.84,-2.35,0.72,0.63,0.66
69,2.40,1.74,2.44,1.81,-1.81,-2.31,0.59,0.64,0.66
70,2.27,1.61,2.41,1.77,-1.77,-2.27,0.50,0.64,0.66
71,2.27,1.61,2.38,1.74,-1.74,-2.22,0.53,0.64,0.66
72,2.27,1.61,2.34,1.71,-1.71,-2.17,0.56,0.63,0.66
73,2.27,1.61,2.29,1.67,-1.67,-2.11,0.60,0.63,0.66
74,2.27,1.61,2.25,1.63,-1.63,-2.05,0.64,0.62,0.66
75,2.27,1.61,2.21,1.59,-1.59,-1.99,0.68,0.62,0.66
76,2.27,1.61,2.18,1.55,-1.55,-1.93,0.72,0.63,0.66
77,2.27,1.61,2.15,1.52,-1.52,-1.87,0.75,0.64,0.66
78,2.15,1.49,2.12,1.47,-1.47,-1.81,0.68,0.65,0.66
79,2.00,1.34,2.09,1.43,-1.43,-1.75,0.57,0.66,0.66
80,1.95,1.29,2.05,1.38,-1.38,-1.70,0.57,0.66,0.66
81,1.95,1.29,1.99,1.34,-1.34,-1.64,0.61,0.66,0.66
82,1.95,1.29,1.94,1.29,-1.29,-1.59,0.66,0.65,0.66
83,1.95,1.29,1.88,1.24,-1.24,-1.53,0.71,0.64,0.66
84,1.95,1.29,1.83,1.19,-1.19,-1.48,0.76,0.64,0.66
85,1.82,1.16,1.78,1.15,-1.15,-1.44,0.67,0.63,0.66
86,1.69,1.03,1.74,1.11,-1.11,-1.39,0.58,0.63,0.66
87,1.62,0.96,1.70,1.08,-1.08,-1.34,0.54,0.63,0.66
88,1.62,0.96,1.69,1.05,-1.05,-1.30,0.57,0.64,0.66
89,1.62,0.96,1.67,1.03,-1.03,-1.26,0.59,0.64,0.66
90,1.62,0.96,1.65,1.01,-1.01,-1.22,0.61,0.64,0.66
91,1.62,0.96,1.63,0.99,-0.99,-1.19,0.63,0.64,0.66
92,1.62,0.96,1.62,0.98,-0.98,-1.15,0.64,0.64,0.66
93,1.62,0.96,1.60,0.96,-0.96,-1.12,0.66,0.64,0.66
94,1.62,0.96,1.59,0.95,-0.95,-1.09,0.67,0.64,0.66
95,1.62,0.96,1.57,0.93,-0.93,-1.05,0.69,0.65,0.66
96,1.62,0.96,1.56,0.91,-0.91,-1.03,0.71,0.65,0.66
97,1.62,0.96,1.53,0.88,-0.88,-1.00,0.74,0.65,0.66
98,1.51,0.85,1.50,0.85,-0.85,-0.97,0.66,0.65,0.66
99,1.46,0.80,1.47,0.82,-0.82,-0.95,0.64,0.64,0.66
100,1.45,0.79,1.44,0.79,-0.79,-0.92,0.66,0.64,0.66
101,1.34,0.68,1.40,0.76,-0.76,-0.90,0.58,0.64,0.66
102,1.30,0.64,1.37,0.74,-0.74,-0.87,0.56,0.64,0.66
104,1.30,0.64,1.34,0.71,-0.71,-0.83,0.59,0.63,0.66
105,1.30,0.64,1.32,0.69,-0.69,-0.81,0.61,0.63,0.66
106,1.30,0.64,1.31,0.68,-0.68,-0.79,0.62,0.63,0.66
107,1.30,0.64,1.31,0.67,-0.67,-0.77,0.63,0.64,0.66
108,1.30,0.64,1.31,0.66,-0.66,-0.75,0.64,0.65,0.66
109,1.30,0.64,1.31,0.65,-0.65,-0.72,0.65,0.66,0.66
110,1.30,0.64,1.30,0.64,-0.64,-0.70,0.66,0.66,0.66
111,1.30,0.64,1.28,0.63,-0.63,-0.68,0.67,0.65,0.66
112,1.30,0.64,1.27,0.62,-0.62,-0.66,0.68,0.65,0.66
113,1.30,0.64,1.24,0.60,-0.60,-0.64,0.70,0.65,0.66
114,1.30,0.64,1.21,0.57,-0.57,-0.62,0.73,0.64,0.66
115,1.30,0.64,1.18,0.55,-0.55,-0.59,0.75,0.63,0.66
117,1.14,0.48,1.15,0.52,-0.52,-0.55,0.62,0.63,0.66
118,1.04,0.38,1.12,0.49,-0.49,-0.52,0.55,0.63,0.66
119,0.97,0.31,1.09,0.46,-0.46,-0.50,0.51,0.64,0.66
120,0.97,0.31,1.06,0.42,-0.42,-0.47,0.55,0.64,0.66
121,0.97,0.31,1.02,0.39,-0.39,-0.45,0.58,0.63,0.66
123,0.97,0.31,0.98,0.35,-0.35,-0.39,0.62,0.63,0.66
124,0.97,0.31,0.94,0.32,-0.32,-0.36,0.65,0.62,0.66
125,0.97,0.31,0.90,0.28,-0.28,-0.33,0.69,0.62,0.66
126,0.97,0.31,0.88,0.25,-0.25,-0.30,0.72,0.63,0.66
128,0.93,0.27,0.86,0.22,-0.22,-0.23,0.71,0.64,0.66
129,0.84,0.18,0.83,0.18,-0.18,-0.20,0.66,0.65,0.66
130,0.76,0.10,0.80,0.14,-0.14,-0.16,0.62,0.66,0.66
131,0.67,0.01,0.76,0.10,-0.10,-0.13,0.57,0.65,0.66
133,0.65,-0.01,0.71,0.06,-0.06,-0.06,0.59,0.65,0.66
134,0.65,-0.01,0.66,0.01,-0.01,-0.02,0.64,0.65,0.66
135,0.65,-0.01,0.62,-0.04,0.04,0.02,0.69,0.65,0.66
137,0.65,-0.01,0.56,-0.09,0.09,0.10,0.74,0.65,0.66
138,0.57,-0.09,0.50,-0.14,0.14,0.14,0.71,0.64,0.66
140,0.41,-0.25,0.45,-0.19,0.19,0.22,0.60,0.64,0.66
141,0.33,-0.33,0.40,-0.25,0.25,0.26,0.58,0.65,0.66
142,0.32,-0.34,0.35,-0.30,0.30,0.31,0.62,0.65,0.66
144,0.32,-0.34,0.31,-0.35,0.35,0.39,0.67,0.66,0.66
145,0.32,-0.34,0.25,-0.41,0.41,0.44,0.73,0.66,0.66
147,0.18,-0.48,0.18,-0.46,0.46,0.53,0.64,0.65,0.66
148,0.10,-0.56,0.13,-0.52,0.52,0.57,0.62,0.65,0.66
150,0.00,-0.66,0.07,-0.58,0.58,0.66,0.58,0.65,0.66
151,0.00,-0.66,0.02,-0.63,0.63,0.71,0.63,0.65,0.66
153,0.00,-0.66,-0.04,-0.69,0.69,0.80,0.69,0.65,0.66
154,-0.02,-0.68,-0.10,-0.75,0.75,0.85,0.73,0.65,0.66
156,-0.17,-0.83,-0.15,-0.81,0.81,0.94,0.64,0.66,0.66
157,-0.24,-0.90,-0.21,-0.87,0.87,0.99,0.63,0.66,0.66
159,-0.32,-0.98,-0.28,-0.93,0.93,1.09,0.61,0.65,0.66
160,-0.32,-0.98,-0.35,-1.00,1.00,1.14,0.68,0.64,0.66
162,-0.32,-0.98,-0.41,-1.06,1.06,1.24,0.74,0.65,0.66
164,-0.49,-1.15,-0.47,-1.13,1.13,1.33,0.64,0.66,0.66
165,-0.63,-1.29,-0.54,-1.20,1.20,1.38,0.57,0.66,0.66
167,-0.65,-1.31,-0.62,-1.27,1.27,1.48,0.62,0.65,0.66
169,-0.65,-1.31,-0.69,-1.34,1.34,1.59,0.69,0.65,0.66
170,-0.65,-1.31,-0.76,-1.41,1.41,1.64,0.76,0.65,0.66
172,-0.92,-1.58,-0.84,-1.49,1.49,1.74,0.57,0.65,0.66
174,-0.97,-1.63,-0.91,-1.57,1.57,1.84,0.60,0.65,0.66
175,-0.97,-1.63,-0.99,-1.64,1.64,1.90,0.67,0.66,0.66
177,-0.97,-1.63,-1.07,-1.72,1.72,2.00,0.75,0.65,0.66
179,-1.17,-1.83,-1.16,-1.80,1.80,2.11,0.63,0.65,0.66
181,-1.30,-1.96,-1.23,-1.89,1.89,2.21,0.59,0.65,0.66
183,-1.32,-1.98,-1.32,-1.97,1.97,2.32,0.65,0.66,0.66
184,-1.38,-2.04,-1.40,-2.06,2.06,2.37,0.68,0.66,0.66
186,-1.50,-2.16,-1.49,-2.15,2.15,2.48,0.65,0.65,0.66
188,-1.62,-2.28,-1.59,-2.24,2.24,2.59,0.62,0.65,0.66
190,-1.62,-2.28,-1.67,-2.33,2.33,2.70,0.71,0.66,0.66
192,-1.78,-2.44,-1.78,-2.43,2.43,2.81,0.65,0.66,0.66
194,-1.95,-2.61,-1.89,-2.53,2.53,2.92,0.58,0.64,0.66
196,-1.95,-2.61,-1.99,-2.64,2.64,3.02,0.69,0.64,0.66
198,-2.05,-2.71,-2.09,-2.74,2.74,3.13,0.69,0.65,0.66
200,-2.16,-2.82,-2.19,-2.85,2.85,3.24,0.69,0.66,0.66
202,-2.28,-2.94,-2.31,-2.96,2.96,3.35,0.68,0.66,0.66
204,-2.50,-3.16,-2.43,-3.08,3.08,3.45,0.58,0.65,0.66
206,-2.59,-3.25,-2.54,-3.20,3.20,3.56,0.61,0.65,0.66
208,-2.62,-3.28,-2.67,-3.32,3.32,3.66,0.70,0.65,0.66
210,-2.83,-3.49,-2.79,-3.44,3.44,3.76,0.61,0.65,0.66
212,-2.92,-3.58,-2.91,-3.56,3.56,3.86,0.64,0.66,0.66
214,-2.93,-3.59,-3.03,-3.69,3.69,3.96,0.76,0.66,0.66
216,-3.14,-3.80,-3.17,-3.81,3.81,4.05,0.67,0.65,0.66
218,-3.30,-3.96,-3.29,-3.94,3.94,4.15,0.64,0.65,0.66
221,-3.45,-4.11,-3.40,-4.06,4.06,4.28,0.61,0.66,0.66
223,-3.55,-4.21,-3.52,-4.18,4.18,4.36,0.63,0.66,0.66
225,-3.65,-4.31,-3.64,-4.30,4.30,4.43,0.65,0.66,0.66
227,-3.75,-4.41,-3.77,-4.42,4.42,4.51,0.67,0.65,0.66
229,-3.85,-4.51,-3.89,-4.53,4.53,4.57,0.68,0.64,0.66
232,-4.00,-4.66,-4.00,-4.64,4.64,4.67,0.64,0.64,0.66
234,-4.10,-4.76,-4.10,-4.74,4.74,4.72,0.64,0.64,0.66
236,-4.19,-4.85,-4.19,-4.83,4.83,4.77,0.64,0.64,0.66
239,-4.22,-4.88,-4.27,-4.92,4.92,4.83,0.70,0.65,0.66
241,-4.32,-4.98,-4.35,-4.99,4.99,4.86,0.67,0.65,0.66
244,-4.54,-5.20,-4.41,-5.06,5.06,4.90,0.52,0.65,0.66
246,-4.54,-5.20,-4.47,-5.12,5.12,4.92,0.58,0.65,0.66
248,-4.54,-5.20,-4.52,-5.17,5.17,4.93,0.63,0.65,0.66
251,-4.54,-5.20,-4.56,-5.21,5.21,4.94,0.67,0.65,0.66
253,-4.54,-5.20,-4.59,-5.24,5.24,4.93,0.70,0.64,0.66
256,-4.54,-5.20,-4.61,-5.26,5.26,4.92,0.72,0.65,0.66
259,-4.59,-5.25,-4.61,-5.26,5.26,4.89,0.67,0.65,0.66
261,-4.68,-5.34,-4.61,-5.26,5.26,4.86,0.58,0.65,0.66
264,-4.59,-5.25,-4.60,-5.25,5.25,4.82,0.66,0.64,0.66
266,-4.54,-5.20,-4.58,-5.22,5.22,4.78,0.68,0.65,0.66
269,-4.54,-5.20,-4.54,-5.19,5.19,4.72,0.65,0.65,0.66
272,-4.54,-5.20,-4.49,-5.14,5.14,4.65,0.60,0.65,0.66
274,-4.50,-5.16,-4.44,-5.08,5.08,4.60,0.58,0.65,0.66
277,-4.38,-5.04,-4.37,-5.01,5.01,4.52,0.63,0.65,0.66
280,-4.25,-4.91,-4.29,-4.93,4.93,4.44,0.68,0.64,0.66
283,-4.22,-4.88,-4.20,-4.84,4.84,4.35,0.62,0.64,0.66
286,-4.14,-4.80,-4.10,-4.74,4.74,4.25,0.60,0.65,0.66
288,-3.98,-4.64,-3.98,-4.63,4.63,4.19,0.65,0.65,0.66
291,-3.82,-4.48,-3.87,-4.52,4.52,4.09,0.70,0.65,0.66
294,-3.70,-4.36,-3.75,-4.39,4.39,4.00,0.69,0.64,0.66
297,-3.59,-4.25,-3.60,-4.26,4.26,3.90,0.67,0.66,0.66
300,-3.48,-4.14,-3.46,-4.12,4.12,3.80,0.64,0.66,0.66
303,-3.36,-4.02,-3.33,-3.98,3.98,3.70,0.62,0.66,0.66
306,-3.25,-3.91,-3.19,-3.84,3.84,3.60,0.59,0.65,0.66
309,-3.04,-3.70,-3.04,-3.70,3.70,3.50,0.66,0.65,0.66
312,-2.87,-3.53,-2.90,-3.55,3.55,3.40,0.68,0.65,0.66
316,-2.73,-3.39,-2.75,-3.41,3.41,3.28,0.68,0.65,0.66
319,-2.62,-3.28,-2.61,-3.26,3.26,3.18,0.64,0.65,0.66
322,-2.43,-3.09,-2.47,-3.12,3.12,3.09,0.69,0.65,0.66
325,-2.27,-2.93,-2.32,-2.98,2.98,3.00,0.71,0.66,0.66
328,-2.27,-2.93,-2.19,-2.84,2.84,2.91,0.57,0.65,0.66
332,-2.07,-2.73,-2.06,-2.71,2.71,2.80,0.64,0.65,0.66
335,-1.91,-2.57,-1.92,-2.58,2.58,2.71,0.67,0.66,0.66
338,-1.80,-2.46,-1.80,-2.46,2.46,2.63,0.66,0.66,0.66
342,-1.67,-2.33,-1.68,-2.34,2.34,2.53,0.67,0.66,0.66
345,-1.57,-2.23,-1.57,-2.23,2.23,2.45,0.66,0.66,0.66
349,-1.44,-2.10,-1.47,-2.13,2.13,2.35,0.69,0.65,0.66
352,-1.35,-2.01,-1.38,-2.03,2.03,2.28,0.68,0.65,0.66
356,-1.30,-1.96,-1.28,-1.94,1.94,2.18,0.64,0.65,0.66
359,-1.28,-1.94,-1.19,-1.85,1.85,2.11,0.57,0.66,0.66
363,-1.02,-1.68,-1.10,-1.77,1.77,2.03,0.75,0.66,0.66
366,-0.97,-1.63,-1.04,-1.69,1.69,1.96,0.72,0.65,0.66
370,-0.97,-1.63,-0.98,-1.62,1.62,1.88,0.65,0.64,0.66
374,-0.97,-1.63,-0.91,-1.55,1.55,1.80,0.58,0.64,0.66
377,-0.90,-1.56,-0.85,-1.49,1.49,1.74,0.59,0.65,0.66
381,-0.78,-1.44,-0.78,-1.43,1.43,1.67,0.65,0.65,0.66
385,-0.66,-1.32,-0.72,-1.37,1.37,1.59,0.71,0.66,0.66
389,-0.65,-1.31,-0.66,-1.32,1.32,1.52,0.67,0.66,0.66
393,-0.65,-1.31,-0.61,-1.26,1.26,1.46,0.61,0.65,0.66
397,-0.64,-1.30,-0.56,-1.21,1.21,1.39,0.57,0.64,0.66
401,-0.52,-1.18,-0.52,-1.16,1.16,1.33,0.64,0.63,0.66
405,-0.41,-1.07,-0.47,-1.10,1.10,1.27,0.69,0.64,0.66
409,-0.32,-0.98,-0.41,-1.05,1.05,1.21,0.73,0.64,0.66
413,-0.32,-0.98,-0.35,-1.00,1.00,1.15,0.68,0.65,0.66
417,-0.32,-0.98,-0.30,-0.95,0.95,1.10,0.63,0.65,0.66
421,-0.32,-0.98,-0.26,-0.91,0.91,1.04,0.59,0.65,0.66
425,-0.32,-0.98,-0.21,-0.86,0.86,0.99,0.54,0.65,0.66
430,-0.22,-0.88,-0.16,-0.82,0.82,0.93,0.60,0.66,0.66
434,-0.12,-0.78,-0.12,-0.78,0.78,0.89,0.66,0.66,0.66
438,-0.01,-0.67,-0.10,-0.75,0.75,0.84,0.74,0.65,0.66
443,0.00,-0.66,-0.09,-0.72,0.72,0.79,0.72,0.64,0.66
447,0.00,-0.66,-0.07,-0.69,0.69,0.75,0.69,0.62,0.66
451,0.00,-0.66,-0.05,-0.67,0.67,0.71,0.67,0.62,0.66
456,0.00,-0.66,-0.01,-0.64,0.64,0.67,0.64,0.63,0.66
460,0.00,-0.66,0.02,-0.62,0.62,0.63,0.62,0.64,0.66
465,0.00,-0.66,0.05,-0.59,0.59,0.59,0.59,0.64,0.66
470,0.00,-0.66,0.08,-0.56,0.56,0.55,0.56,0.64,0.66
474,0.00,-0.66,0.10,-0.53,0.53,0.52,0.53,0.63,0.66
479,0.02,-0.64,0.13,-0.50,0.50,0.49,0.52,0.63,0.66
484,0.14,-0.52,0.15,-0.48,0.48,0.46,0.62,0.63,0.66
489,0.26,-0.40,0.19,-0.45,0.45,0.43,0.71,0.63,0.66
494,0.32,-0.34,0.22,-0.42,0.42,0.40,0.74,0.64,0.66
499,0.32,-0.34,0.25,-0.39,0.39,0.38,0.71,0.64,0.66
504,0.32,-0.34,0.28,-0.37,0.37,0.36,0.69,0.65,0.66
509,0.32,-0.34,0.30,-0.35,0.35,0.33,0.67,0.65,0.66
514,0.32,-0.34,0.32,-0.34,0.34,0.32,0.66,0.66,0.66
519,0.32,-0.34,0.34,-0.33,0.33,0.30,0.65,0.66,0.66
524,0.32,-0.34,0.34,-0.32,0.32,0.29,0.64,0.66,0.66
529,0.32,-0.34,0.34,-0.32,0.32,0.27,0.64,0.66,0.66
535,0.32,-0.34,0.33,-0.32,0.32,0.26,0.64,0.65,0.66
540,0.32,-0.34,0.32,-0.32,0.32,0.25,0.64,0.64,0.66
545,0.32,-0.34,0.32,-0.33,0.33,0.24,0.65,0.65,0.66
551,0.32,-0.34,0.32,-0.33,0.33,0.23,0.65,0.65,0.66
556,0.32,-0.34,0.32,-0.33,0.33,0.23,0.65,0.65,0.66
562,0.32,-0.34,0.32,-0.33,0.33,0.22,0.65,0.65,0.66
568,0.32,-0.34,0.32,-0.34,0.34,0.22,0.66,0.66,0.66
573,0.32,-0.34,0.32,-0.34,0.34,0.22,0.66,0.66,0.66
579,0.32,-0.34,0.32,-0.34,0.34,0.21,0.66,0.66,0.66
585,0.32,-0.34,0.32,-0.34,0.34,0.21,0.66,0.66,0.66
591,0.32,-0.34,0.32,-0.34,0.34,0.21,0.66,0.66,0.66
596,0.32,-0.34,0.32,-0.34,0.34,0.21,0.66,0.66,0.66
602,0.32,-0.34,0.32,-0.34,0.34,0.22,0.66,0.66,0.66
608,0.32,-0.34,0.32,-0.34,0.34,0.22,0.66,0.66,0.66
615,0.32,-0.34,0.32,-0.34,0.34,0.22,0.66,0.66,0.66
621,0.32,-0.34,0.32,-0.34,0.34,0.23,0.66,0.66,0.66
627,0.32,-0.34,0.32,-0.34,0.34,0.23,0.66,0.66,0.66
633,0.32,-0.34,0.32,-0.34,0.34,0.23,0.66,0.66,0.66
639,0.32,-0.34,0.32,-0.34,0.34,0.24,0.66,0.66,0.66
646,0.32,-0.34,0.32,-0.34,0.34,0.25,0.66,0.66,0.66
652,0.32,-0.34,0.32,-0.34,0.34,0.25,0.66,0.66,0.66
659,0.32,-0.34,0.32,-0.34,0.34,0.26,0.66,0.66,0.66
665,0.32,-0.34,0.32,-0.34,0.34,0.26,0.66,0.66,0.66
672,0.32,-0.34,0.32,-0.34,0.34,0.27,0.66,0.66,0.66
679,0.32,-0.34,0.32,-0.34,0.34,0.28,0.66,0.66,0.66
686,0.32,-0.34,0.32,-0.34,0.34,0.29,0.66,0.66,0.66
692,0.32,-0.34,0.32,-0.34,0.34,0.30,0.66,0.66,0.66
699,0.32,-0.34,0.32,-0.34,0.34,0.30,0.66,0.66,0.66
706,0.32,-0.34,0.32,-0.33,0.33,0.31,0.65,0.65,0.66
713,0.32,-0.34,0.32,-0.33,0.33,0.32,0.65,0.65,0.66
721,0.32,-0.34,0.32,-0.33,0.33,0.33,0.65,0.65,0.66
728,0.32,-0.34,0.32,-0.33,0.33,0.34,0.65,0.65,0.66
735,0.32,-0.34,0.33,-0.32,0.32,0.35,0.64,0.65,0.66
742,0.32,-0.34,0.33,-0.32,0.32,0.36,0.64,0.65,0.66
750,0.32,-0.34,0.33,-0.32,0.32,0.37,0.64,0.65,0.66
757,0.32,-0.34,0.34,-0.32,0.32,0.38,0.64,0.66,0.66
765,0.32,-0.34,0.33,-0.33,0.33,0.39,0.65,0.66,0.66
773,0.32,-0.34,0.32,-0.34,0.34,0.40,0.66,0.66,0.66
780,0.32,-0.34,0.30,-0.36,0.36,0.41,0.68,0.66,0.66
788,0.32,-0.34,0.28,-0.38,0.38,0.42,0.70,0.66,0.66
796,0.32,-0.34,0.25,-0.40,0.40,0.43,0.72,0.65,0.66
804,0.29,-0.37,0.22,-0.43,0.43,0.44,0.72,0.65,0.66
812,0.18,-0.48,0.19,-0.46,0.46,0.45,0.64,0.65,0.66
820,0.16,-0.50,0.15,-0.49,0.49,0.46,0.65,0.65,0.66
828,0.12,-0.54,0.12,-0.52,0.52,0.47,0.64,0.65,0.66
837,0.00,-0.66,0.09,-0.55,0.55,0.47,0.55,0.64,0.66
845,0.00,-0.66,0.06,-0.58,0.58,0.48,0.58,0.64,0.66
853,0.00,-0.66,0.03,-0.61,0.61,0.49,0.61,0.64,0.66
862,0.00,-0.66,0.01,-0.63,0.63,0.50,0.63,0.64,0.66
871,0.00,-0.66,-0.00,-0.64,0.64,0.50,0.64,0.64,0.66
879,0.00,-0.66,-0.01,-0.66,0.66,0.51,0.66,0.64,0.66
888,0.00,-0.66,-0.02,-0.66,0.66,0.51,0.66,0.65,0.66
897,0.00,-0.66,-0.01,-0.67,0.67,0.51,0.67,0.65,0.66
906,0.00,-0.66,-0.01,-0.67,0.67,0.52,0.67,0.66,0.66
915,0.00,-0.66,-0.01,-0.67,0.67,0.52,0.67,0.67,0.66
924,0.00,-0.66,0.00,-0.67,0.67,0.52,0.67,0.67,0.66
933,0.00,-0.66,-0.01,-0.67,0.67,0.51,0.67,0.67,0.66
943,0.00,-0.66,-0.01,-0.67,0.67,0.51,0.67,0.66,0.66
952,0.00,-0.66,-0.02,-0.67,0.67,0.50,0.67,0.65,0.66
962,0.00,-0.66,-0.02,-0.66,0.66,0.50,0.66,0.64,0.66
971,0.00,-0.66,-0.02,-0.66,0.66,0.49,0.66,0.64,0.66
981,0.00,-0.66,-0.00,-0.65,0.65,0.48,0.65,0.65,0.66
991,0.00,-0.66,0.02,-0.63,0.63,0.46,0.63,0.65,0.66
1001,0.00,-0.66,0.04,-0.62,0.62,0.45,0.62,0.65,0.66
1011,0.00,-0.66,0.05,-0.59,0.59,0.43,0.59,0.64,0.66
1021,0.00,-0.66,0.08,-0.56,0.56,0.41,0.56,0.64,0.66
1031,0.09,-0.57,0.12,-0.53,0.53,0.39,0.62,0.64,0.66
1041,0.19,-0.47,0.16,-0.49,0.49,0.37,0.68,0.65,0.66
1052,0.31,-0.35,0.20,-0.44,0.44,0.34,0.75,0.64,0.66
1062,0.32,-0.34,0.24,-0.39,0.39,0.31,0.71,0.64,0.66
1073,0.32,-0.34,0.30,-0.34,0.34,0.28,0.66,0.64,0.66
1084,0.32,-0.34,0.37,-0.28,0.28,0.25,0.60,0.65,0.66
1094,0.32,-0.34,0.44,-0.22,0.22,0.22,0.54,0.66,0.66
1105,0.44,-0.22,0.50,-0.16,0.16,0.19,0.60,0.66,0.66
1116,0.65,-0.01,0.56,-0.09,0.09,0.15,0.74,0.65,0.66
1128,0.65,-0.01,0.63,-0.03,0.03,0.11,0.68,0.65,0.66
1139,0.65,-0.01,0.69,0.04,-0.04,0.07,0.61,0.65,0.66
1150,0.69,0.03,0.76,0.11,-0.11,0.03,0.58,0.65,0.66
1162,0.93,0.27,0.82,0.18,-0.18,-0.01,0.75,0.64,0.66
1173,0.97,0.31,0.89,0.25,-0.25,-0.05,0.72,0.64,0.66
1185,0.97,0.31,0.97,0.31,-0.31,-0.09,0.66,0.65,0.66
1197,0.97,0.31,1.04,0.38,-0.38,-0.14,0.59,0.66,0.66
1209,1.07,0.41,1.12,0.45,-0.45,-0.19,0.62,0.67,0.66
1221,1.18,0.52,1.18,0.51,-0.51,-0.23,0.67,0.66,0.66
1233,1.30,0.64,1.23,0.58,-0.58,-0.28,0.72,0.66,0.66
1246,1.30,0.64,1.30,0.64,-0.64,-0.33,0.66,0.66,0.66
1258,1.30,0.64,1.35,0.70,-0.70,-0.38,0.60,0.66,0.66
1271,1.33,0.67,1.41,0.76,-0.76,-0.43,0.57,0.65,0.66
1283,1.54,0.88,1.46,0.81,-0.81,-0.48,0.73,0.65,0.66
1296,1.62,0.96,1.53,0.87,-0.87,-0.54,0.75,0.66,0.66
1309,1.62,0.96,1.58,0.92,-0.92,-0.59,0.70,0.66,0.66
1322,1.62,0.96,1.63,0.98,-0.98,-0.64,0.64,0.66,0.66
1335,1.62,0.96,1.68,1.03,-1.03,-0.70,0.59,0.65,0.66
1349,1.66,1.00,1.73,1.09,-1.09,-0.76,0.57,0.64,0.66
1362,1.77,1.11,1.79,1.14,-1.14,-0.81,0.63,0.65,0.66
1376,1.89,1.23,1.85,1.20,-1.20,-0.87,0.69,0.66,0.66
1390,1.95,1.29,1.91,1.25,-1.25,-0.93,0.70,0.66,0.66
1404,1.95,1.29,1.97,1.30,-1.30,-0.99,0.65,0.67,0.66
1418,1.95,1.29,2.01,1.35,-1.35,-1.05,0.60,0.66,0.66
1432,2.01,1.35,2.06,1.40,-1.40,-1.11,0.61,0.66,0.66
1446,2.12,1.46,2.11,1.44,-1.44,-1.17,0.68,0.66,0.66
1461,2.24,1.58,2.15,1.49,-1.49,-1.23,0.75,0.66,0.66
1475,2.27,1.61,2.18,1.53,-1.53,-1.30,0.74,0.65,0.66
1490,2.27,1.61,2.21,1.57,-1.57,-1.36,0.70,0.65,0.66
1505,2.27,1.61,2.24,1.60,-1.60,-1.43,0.67,0.64,0.66
1520,2.27,1.61,2.28,1.63,-1.63,-1.49,0.64,0.64,0.66
1535,2.27,1.61,2.31,1.66,-1.66,-1.56,0.61,0.65,0.66
1550,2.27,1.61,2.35,1.69,-1.69,-1.62,0.58,0.66,0.66
1566,2.27,1.61,2.39,1.72,-1.72,-1.69,0.55,0.67,0.66
1582,2.33,1.67,2.41,1.75,-1.75,-1.76,0.58,0.66,0.66
1597,2.43,1.77,2.43,1.78,-1.78,-1.82,0.65,0.65,0.66
1613,2.54,1.88,2.45,1.81,-1.81,-1.89,0.73,0.63,0.66
1629,2.59,1.93,2.47,1.85,-1.85,-1.96,0.74,0.63,0.66
1646,2.59,1.93,2.51,1.88,-1.88,-2.03,0.71,0.63,0.66
1662,2.59,1.93,2.55,1.91,-1.91,-2.10,0.68,0.64,0.66
1679,2.59,1.93,2.59,1.94,-1.94,-2.17,0.65,0.64,0.66
1696,2.59,1.93,2.63,1.98,-1.98,-2.23,0.61,0.65,0.66
1713,2.59,1.93,2.67,2.01,-2.01,-2.30,0.58,0.66,0.66
1730,2.59,1.93,2.71,2.04,-2.04,-2.36,0.55,0.67,0.66
1747,2.63,1.97,2.73,2.07,-2.07,-2.42,0.56,0.66,0.66
1764,2.74,2.08,2.75,2.11,-2.11,-2.48,0.63,0.64,0.66
1782,2.86,2.20,2.77,2.14,-2.14,-2.54,0.72,0.63,0.66
1800,2.92,2.26,2.80,2.18,-2.18,-2.60,0.74,0.62,0.66
1818,2.92,2.26,2.83,2.21,-2.21,-2.65,0.71,0.62,0.66
1836,2.92,2.26,2.87,2.24,-2.24,-2.70,0.68,0.63,0.66
1854,2.92,2.26,2.91,2.28,-2.28,-2.74,0.64,0.64,0.66
1873,2.92,2.26,2.96,2.31,-2.31,-2.79,0.61,0.65,0.66
1892,2.92,2.26,3.00,2.34,-2.34,-2.83,0.58,0.66,0.66
1911,2.92,2.26,3.03,2.37,-2.37,-2.86,0.55,0.66,0.66
1930,2.95,2.29,3.06,2.40,-2.40,-2.89,0.55,0.66,0.66
1949,3.06,2.40,3.08,2.44,-2.44,-2.92,0.62,0.64,0.66
1969,3.17,2.51,3.09,2.47,-2.47,-2.94,0.70,0.63,0.66
1988,3.24,2.58,3.12,2.50,-2.50,-2.96,0.74,0.62,0.66
2008,3.24,2.58,3.15,2.53,-2.53,-2.97,0.71,0.62,0.66
2028,3.24,2.58,3.19,2.56,-2.56,-2.98,0.68,0.63,0.66
2048,3.24,2.58,3.23,2.59,-2.59,-2.98,0.65,0.64,0.66
