frequency,raw,error,smoothed,error_smoothed,equalization,parametric_eq,fixed_band_eq,equalized_raw,equalized_smoothed,target
20.00,-1.45,-5.39,-1.48,-5.42,5.42,5.16,1.64,3.97,3.94,3.94
20.20,-1.40,-5.35,-1.41,-5.36,5.36,5.13,1.69,3.96,3.95,3.95
20.40,-1.34,-5.30,-1.35,-5.31,5.31,5.10,1.74,3.97,3.96,3.96
20.61,-1.29,-5.26,-1.28,-5.25,5.25,5.07,1.79,3.96,3.97,3.97
20.81,-1.24,-5.21,-1.22,-5.19,5.19,5.03,1.84,3.96,3.98,3.97
21.02,-1.18,-5.16,-1.15,-5.14,5.14,5.00,1.90,3.96,3.98,3.98
21.23,-1.11,-5.10,-1.09,-5.08,5.08,4.97,1.95,3.97,3.99,3.99
21.44,-1.04,-5.05,-1.03,-5.03,5.03,4.93,2.01,3.99,4.00,4.01
21.66,-0.97,-4.98,-0.96,-4.97,4.97,4.90,2.07,4.00,4.01,4.01
21.87,-0.90,-4.92,-0.90,-4.91,4.91,4.86,2.13,4.01,4.01,4.02
22.09,-0.83,-4.85,-0.84,-4.86,4.86,4.82,2.20,4.03,4.02,4.02
22.31,-0.77,-4.80,-0.78,-4.80,4.80,4.79,2.26,4.03,4.02,4.03
22.54,-0.71,-4.74,-0.71,-4.74,4.74,4.75,2.33,4.03,4.03,4.03
22.76,-0.65,-4.69,-0.65,-4.68,4.68,4.71,2.39,4.03,4.03,4.04
22.99,-0.59,-4.63,-0.59,-4.62,4.62,4.67,2.46,4.03,4.04,4.04
23.22,-0.53,-4.57,-0.52,-4.57,4.57,4.63,2.54,4.04,4.04,4.03
23.45,-0.47,-4.51,-0.46,-4.51,4.51,4.59,2.61,4.04,4.04,4.04
23.69,-0.40,-4.44,-0.41,-4.45,4.45,4.55,2.68,4.05,4.05,4.04
23.92,-0.34,-4.38,-0.35,-4.40,4.40,4.50,2.76,4.06,4.05,4.04
24.16,-0.29,-4.34,-0.30,-4.35,4.35,4.46,2.83,4.06,4.05,4.05
24.40,-0.24,-4.30,-0.24,-4.30,4.30,4.42,2.91,4.06,4.05,4.06
24.65,-0.19,-4.25,-0.19,-4.25,4.25,4.37,2.99,4.06,4.06,4.06
24.89,-0.14,-4.20,-0.14,-4.20,4.20,4.33,3.07,4.06,4.06,4.06
25.14,-0.09,-4.15,-0.09,-4.15,4.15,4.28,3.15,4.06,4.06,4.06
25.39,-0.04,-4.10,-0.04,-4.10,4.10,4.24,3.23,4.06,4.06,4.06
25.65,0.01,-4.05,0.01,-4.05,4.05,4.19,3.30,4.06,4.06,4.06
25.91,0.06,-4.00,0.06,-4.00,4.00,4.15,3.38,4.06,4.06,4.06
26.16,0.11,-3.96,0.11,-3.95,3.95,4.10,3.46,4.06,4.06,4.07
26.43,0.16,-3.91,0.16,-3.90,3.90,4.05,3.54,4.06,4.06,4.07
26.69,0.20,-3.86,0.21,-3.86,3.86,4.00,3.61,4.06,4.06,4.06
26.96,0.25,-3.81,0.26,-3.81,3.81,3.96,3.69,4.06,4.06,4.06
27.23,0.30,-3.76,0.30,-3.76,3.76,3.91,3.76,4.06,4.06,4.06
27.50,0.35,-3.71,0.34,-3.72,3.72,3.86,3.83,4.07,4.07,4.06
27.77,0.40,-3.67,0.39,-3.68,3.68,3.81,3.89,4.08,4.07,4.07
28.05,0.45,-3.62,0.43,-3.64,3.64,3.76,3.96,4.09,4.07,4.07
28.33,0.48,-3.59,0.47,-3.60,3.60,3.71,4.01,4.08,4.07,4.07
28.62,0.51,-3.56,0.51,-3.56,3.56,3.66,4.07,4.07,4.07,4.07
28.90,0.55,-3.52,0.55,-3.52,3.52,3.61,4.12,4.07,4.07,4.07
29.19,0.58,-3.49,0.59,-3.48,3.48,3.56,4.16,4.06,4.07,4.07
29.48,0.62,-3.45,0.63,-3.44,3.44,3.51,4.19,4.06,4.07,4.07
29.78,0.65,-3.42,0.67,-3.41,3.41,3.46,4.22,4.05,4.07,4.07
30.08,0.69,-3.39,0.70,-3.37,3.37,3.41,4.25,4.06,4.07,4.08
30.38,0.74,-3.33,0.74,-3.33,3.33,3.36,4.26,4.07,4.07,4.07
30.68,0.78,-3.29,0.77,-3.29,3.29,3.31,4.27,4.07,4.07,4.07
30.99,0.83,-3.23,0.81,-3.25,3.25,3.26,4.27,4.08,4.06,4.06
31.30,0.86,-3.20,0.85,-3.21,3.21,3.21,4.27,4.07,4.06,4.06
31.61,0.89,-3.17,0.89,-3.17,3.17,3.16,4.25,4.06,4.06,4.06
31.93,0.92,-3.13,0.93,-3.13,3.13,3.11,4.23,4.05,4.06,4.05
32.24,0.96,-3.09,0.97,-3.08,3.08,3.06,4.20,4.04,4.05,4.06
32.57,1.00,-3.04,1.01,-3.04,3.04,3.01,4.17,4.04,4.05,4.04
32.89,1.04,-3.00,1.05,-2.99,2.99,2.95,4.12,4.03,4.04,4.04
33.22,1.08,-2.96,1.09,-2.95,2.95,2.90,4.07,4.03,4.04,4.04
33.55,1.13,-2.91,1.13,-2.90,2.90,2.85,4.02,4.03,4.03,4.04
33.89,1.17,-2.86,1.17,-2.86,2.86,2.80,3.96,4.03,4.03,4.03
34.23,1.22,-2.80,1.21,-2.82,2.82,2.75,3.89,4.03,4.02,4.02
34.57,1.26,-2.76,1.25,-2.77,2.77,2.70,3.82,4.03,4.02,4.02
34.92,1.30,-2.71,1.29,-2.72,2.72,2.65,3.75,4.02,4.01,4.01
35.27,1.33,-2.68,1.32,-2.68,2.68,2.60,3.67,4.01,4.00,4.01
35.62,1.37,-2.62,1.36,-2.63,2.63,2.54,3.58,4.00,3.99,3.99
35.97,1.40,-2.59,1.40,-2.58,2.58,2.49,3.50,3.98,3.98,3.99
36.33,1.43,-2.54,1.43,-2.54,2.54,2.44,3.41,3.97,3.97,3.97
36.70,1.46,-2.50,1.47,-2.49,2.49,2.39,3.32,3.95,3.96,3.96
37.06,1.50,-2.44,1.51,-2.44,2.44,2.34,3.23,3.94,3.95,3.94
37.43,1.53,-2.40,1.55,-2.39,2.39,2.29,3.14,3.92,3.93,3.93
37.81,1.57,-2.35,1.58,-2.34,2.34,2.24,3.04,3.91,3.92,3.92
38.19,1.61,-2.29,1.62,-2.28,2.28,2.19,2.95,3.89,3.90,3.90
38.57,1.65,-2.24,1.66,-2.23,2.23,2.13,2.86,3.88,3.89,3.89
38.95,1.69,-2.18,1.69,-2.18,2.18,2.08,2.76,3.87,3.87,3.87
39.34,1.73,-2.12,1.73,-2.13,2.13,2.03,2.67,3.86,3.86,3.85
39.74,1.77,-2.07,1.76,-2.08,2.08,1.98,2.58,3.85,3.84,3.83
40.14,1.81,-2.01,1.79,-2.03,2.03,1.93,2.48,3.84,3.82,3.82
40.54,1.84,-1.96,1.82,-1.98,1.98,1.88,2.39,3.82,3.80,3.80
40.94,1.87,-1.91,1.85,-1.93,1.93,1.83,2.30,3.80,3.78,3.78
41.35,1.88,-1.88,1.88,-1.88,1.88,1.78,2.21,3.76,3.76,3.76
41.76,1.90,-1.84,1.90,-1.84,1.84,1.73,2.12,3.74,3.74,3.74
42.18,1.92,-1.80,1.92,-1.79,1.79,1.68,2.03,3.71,3.72,3.72
42.60,1.94,-1.75,1.94,-1.75,1.75,1.63,1.95,3.69,3.69,3.70
43.03,1.96,-1.71,1.96,-1.71,1.71,1.58,1.86,3.67,3.67,3.67
43.46,1.97,-1.67,1.98,-1.67,1.67,1.53,1.78,3.64,3.64,3.64
43.90,1.99,-1.63,1.99,-1.63,1.63,1.48,1.69,3.62,3.62,3.62
44.33,2.00,-1.59,2.00,-1.59,1.59,1.43,1.61,3.59,3.59,3.59
44.78,2.02,-1.54,2.02,-1.55,1.55,1.38,1.53,3.57,3.56,3.56
45.23,2.04,-1.50,2.03,-1.50,1.50,1.33,1.45,3.54,3.53,3.54
45.68,2.06,-1.44,2.05,-1.45,1.45,1.28,1.38,3.51,3.50,3.50
46.13,2.08,-1.39,2.08,-1.39,1.39,1.23,1.30,3.47,3.47,3.47
46.60,2.09,-1.35,2.10,-1.34,1.34,1.18,1.22,3.43,3.44,3.44
47.06,2.10,-1.31,2.13,-1.28,1.28,1.13,1.15,3.38,3.40,3.41
47.53,2.13,-1.25,2.15,-1.21,1.21,1.08,1.08,3.34,3.37,3.38
48.01,2.15,-1.18,2.18,-1.15,1.15,1.04,1.01,3.30,3.33,3.33
48.49,2.19,-1.11,2.21,-1.09,1.09,0.99,0.94,3.27,3.30,3.30
48.97,2.24,-1.02,2.24,-1.02,1.02,0.94,0.87,3.26,3.26,3.26
49.46,2.28,-0.95,2.27,-0.96,0.96,0.89,0.80,3.24,3.22,3.23
49.96,2.33,-0.85,2.30,-0.89,0.89,0.84,0.74,3.22,3.19,3.18
50.46,2.35,-0.79,2.32,-0.83,0.83,0.79,0.67,3.18,3.15,3.14
50.96,2.38,-0.73,2.35,-0.77,0.77,0.74,0.61,3.15,3.11,3.11
51.47,2.38,-0.70,2.37,-0.71,0.71,0.70,0.54,3.09,3.08,3.08
51.99,2.38,-0.66,2.39,-0.65,0.65,0.65,0.48,3.03,3.04,3.04
52.51,2.41,-0.59,2.41,-0.59,0.59,0.60,0.42,3.00,3.00,3.00
53.03,2.43,-0.55,2.42,-0.54,0.54,0.55,0.36,2.97,2.96,2.98
53.56,2.43,-0.50,2.43,-0.49,0.49,0.50,0.30,2.92,2.92,2.93
54.10,2.43,-0.46,2.44,-0.45,0.45,0.46,0.25,2.88,2.89,2.89
54.64,2.44,-0.41,2.45,-0.41,0.41,0.41,0.19,2.85,2.85,2.85
55.18,2.45,-0.36,2.46,-0.36,0.36,0.36,0.13,2.81,2.82,2.81
55.74,2.46,-0.31,2.47,-0.32,0.32,0.31,0.08,2.78,2.79,2.77
56.29,2.47,-0.27,2.48,-0.27,0.27,0.27,0.03,2.74,2.75,2.74
56.86,2.47,-0.24,2.49,-0.23,0.23,0.22,-0.02,2.70,2.72,2.71
57.42,2.49,-0.18,2.50,-0.18,0.18,0.17,-0.07,2.67,2.68,2.67
58.00,2.52,-0.12,2.51,-0.13,0.13,0.13,-0.12,2.65,2.64,2.64
58.58,2.52,-0.10,2.52,-0.08,0.08,0.08,-0.17,2.60,2.61,2.62
59.16,2.53,-0.06,2.53,-0.03,0.03,0.03,-0.22,2.56,2.57,2.59
59.76,2.56,0.00,2.55,0.02,-0.02,-0.01,-0.26,2.54,2.53,2.56
60.35,2.57,0.07,2.56,0.07,-0.07,-0.06,-0.31,2.50,2.49,2.50
60.96,2.57,0.11,2.56,0.11,-0.11,-0.11,-0.35,2.46,2.45,2.46
61.57,2.58,0.17,2.57,0.16,-0.16,-0.15,-0.39,2.42,2.41,2.41
62.18,2.59,0.23,2.58,0.21,-0.21,-0.20,-0.43,2.38,2.37,2.36
62.80,2.59,0.28,2.59,0.26,-0.26,-0.25,-0.47,2.33,2.33,2.31
63.43,2.59,0.32,2.59,0.31,-0.31,-0.29,-0.51,2.28,2.28,2.27
64.07,2.59,0.36,2.59,0.35,-0.35,-0.34,-0.54,2.24,2.24,2.23
64.71,2.59,0.40,2.60,0.40,-0.40,-0.39,-0.58,2.19,2.20,2.19
65.35,2.60,0.44,2.60,0.45,-0.45,-0.43,-0.61,2.15,2.16,2.16
66.01,2.61,0.49,2.61,0.49,-0.49,-0.48,-0.65,2.12,2.12,2.12
66.67,2.61,0.52,2.62,0.54,-0.54,-0.53,-0.68,2.07,2.08,2.09
67.33,2.62,0.58,2.63,0.59,-0.59,-0.57,-0.71,2.03,2.04,2.04
68.01,2.63,0.63,2.64,0.64,-0.64,-0.62,-0.75,1.99,2.00,2.00
68.69,2.65,0.69,2.65,0.69,-0.69,-0.66,-0.78,1.96,1.96,1.96
69.37,2.66,0.73,2.66,0.75,-0.75,-0.71,-0.81,1.91,1.92,1.93
70.07,2.66,0.78,2.68,0.80,-0.80,-0.75,-0.84,1.86,1.88,1.88
70.77,2.70,0.86,2.69,0.86,-0.86,-0.80,-0.87,1.84,1.83,1.84
71.48,2.71,0.92,2.71,0.92,-0.92,-0.85,-0.90,1.79,1.79,1.79
72.19,2.72,0.97,2.72,0.98,-0.98,-0.89,-0.93,1.74,1.75,1.75
72.91,2.75,1.05,2.74,1.03,-1.03,-0.94,-0.96,1.72,1.71,1.70
73.64,2.75,1.09,2.75,1.09,-1.09,-0.98,-0.99,1.66,1.67,1.66
74.38,2.77,1.15,2.77,1.14,-1.14,-1.03,-1.02,1.63,1.63,1.62
75.12,2.79,1.21,2.78,1.19,-1.19,-1.07,-1.05,1.60,1.59,1.58
75.87,2.80,1.25,2.79,1.24,-1.24,-1.12,-1.08,1.56,1.55,1.55
76.63,2.80,1.29,2.80,1.29,-1.29,-1.16,-1.12,1.51,1.51,1.51
77.40,2.81,1.33,2.81,1.33,-1.33,-1.21,-1.15,1.48,1.48,1.48
78.17,2.82,1.39,2.81,1.37,-1.37,-1.25,-1.18,1.45,1.44,1.43
78.95,2.82,1.41,2.82,1.41,-1.41,-1.30,-1.22,1.41,1.41,1.41
79.74,2.82,1.44,2.82,1.45,-1.45,-1.34,-1.25,1.37,1.37,1.38
80.54,2.82,1.48,2.82,1.48,-1.48,-1.39,-1.29,1.34,1.34,1.34
81.35,2.82,1.51,2.82,1.52,-1.52,-1.43,-1.32,1.30,1.31,1.31
82.16,2.82,1.54,2.82,1.55,-1.55,-1.48,-1.36,1.27,1.27,1.28
82.98,2.82,1.58,2.82,1.58,-1.58,-1.52,-1.40,1.24,1.24,1.24
83.81,2.82,1.62,2.82,1.62,-1.62,-1.57,-1.44,1.20,1.20,1.20
84.65,2.82,1.65,2.82,1.65,-1.65,-1.61,-1.48,1.17,1.17,1.17
85.50,2.82,1.69,2.82,1.69,-1.69,-1.66,-1.53,1.13,1.13,1.13
86.35,2.82,1.72,2.82,1.72,-1.72,-1.70,-1.57,1.10,1.10,1.10
87.22,2.82,1.76,2.82,1.76,-1.76,-1.74,-1.61,1.06,1.06,1.06
88.09,2.82,1.80,2.82,1.79,-1.79,-1.79,-1.66,1.03,1.03,1.02
88.97,2.82,1.83,2.82,1.83,-1.83,-1.83,-1.71,0.99,0.99,0.99
89.86,2.82,1.87,2.82,1.87,-1.87,-1.88,-1.76,0.95,0.95,0.95
90.76,2.82,1.91,2.82,1.91,-1.91,-1.92,-1.81,0.91,0.91,0.91
91.66,2.82,1.95,2.82,1.94,-1.94,-1.96,-1.86,0.88,0.87,0.87
92.58,2.82,1.98,2.82,1.98,-1.98,-2.01,-1.91,0.84,0.83,0.84
93.51,2.82,2.02,2.82,2.02,-2.02,-2.05,-1.97,0.80,0.80,0.80
94.44,2.82,2.05,2.82,2.06,-2.06,-2.10,-2.02,0.76,0.76,0.77
95.39,2.82,2.10,2.82,2.11,-2.11,-2.14,-2.08,0.71,0.71,0.72
96.34,2.82,2.15,2.82,2.15,-2.15,-2.18,-2.14,0.67,0.68,0.67
97.30,2.82,2.18,2.83,2.19,-2.19,-2.23,-2.19,0.63,0.64,0.64
98.28,2.82,2.23,2.83,2.23,-2.23,-2.27,-2.25,0.59,0.60,0.59
99.26,2.82,2.28,2.83,2.27,-2.27,-2.31,-2.31,0.55,0.56,0.54
100.25,2.83,2.32,2.83,2.31,-2.31,-2.36,-2.38,0.52,0.52,0.51
101.25,2.84,2.36,2.83,2.35,-2.35,-2.40,-2.44,0.49,0.48,0.48
102.27,2.85,2.41,2.84,2.39,-2.39,-2.44,-2.50,0.46,0.44,0.44
103.29,2.85,2.45,2.84,2.43,-2.43,-2.48,-2.56,0.42,0.41,0.40
104.32,2.85,2.47,2.84,2.47,-2.47,-2.53,-2.63,0.38,0.37,0.38
105.37,2.85,2.51,2.85,2.51,-2.51,-2.57,-2.69,0.34,0.34,0.34
106.42,2.85,2.54,2.85,2.55,-2.55,-2.61,-2.75,0.30,0.30,0.31
107.48,2.85,2.59,2.86,2.59,-2.59,-2.65,-2.81,0.26,0.27,0.26
108.56,2.85,2.62,2.86,2.63,-2.63,-2.69,-2.88,0.22,0.23,0.23
109.64,2.85,2.65,2.86,2.67,-2.67,-2.74,-2.94,0.18,0.19,0.20
110.74,2.86,2.70,2.87,2.71,-2.71,-2.78,-3.00,0.15,0.16,0.16
111.85,2.89,2.77,2.87,2.75,-2.75,-2.82,-3.05,0.14,0.12,0.12
112.97,2.89,2.80,2.87,2.79,-2.79,-2.86,-3.11,0.10,0.08,0.09
114.10,2.89,2.84,2.88,2.84,-2.84,-2.90,-3.17,0.05,0.04,0.05
115.24,2.89,2.89,2.89,2.88,-2.88,-2.94,-3.22,0.01,0.00,0.00
116.39,2.89,2.93,2.89,2.93,-2.93,-2.98,-3.27,-0.04,-0.03,-0.04
117.55,2.89,2.97,2.90,2.97,-2.97,-3.02,-3.32,-0.08,-0.07,-0.08
118.73,2.89,3.01,2.91,3.02,-3.02,-3.06,-3.36,-0.13,-0.11,-0.12
119.92,2.89,3.05,2.91,3.06,-3.06,-3.10,-3.40,-0.17,-0.15,-0.16
121.12,2.90,3.08,2.92,3.11,-3.11,-3.14,-3.44,-0.21,-0.19,-0.18
122.33,2.93,3.16,2.93,3.15,-3.15,-3.18,-3.47,-0.22,-0.23,-0.23
123.55,2.94,3.20,2.93,3.19,-3.19,-3.22,-3.51,-0.25,-0.27,-0.26
124.79,2.94,3.23,2.93,3.23,-3.23,-3.26,-3.53,-0.29,-0.30,-0.29
126.03,2.94,3.27,2.93,3.27,-3.27,-3.30,-3.56,-0.33,-0.34,-0.33
127.29,2.94,3.31,2.93,3.31,-3.31,-3.34,-3.58,-0.37,-0.38,-0.37
128.57,2.94,3.36,2.93,3.34,-3.34,-3.37,-3.60,-0.40,-0.42,-0.42
129.85,2.94,3.39,2.92,3.38,-3.38,-3.41,-3.61,-0.44,-0.45,-0.45
131.15,2.94,3.43,2.92,3.41,-3.41,-3.45,-3.62,-0.47,-0.49,-0.49
132.46,2.90,3.43,2.91,3.44,-3.44,-3.49,-3.63,-0.54,-0.53,-0.53
133.79,2.89,3.46,2.90,3.46,-3.46,-3.52,-3.64,-0.57,-0.56,-0.57
135.12,2.89,3.50,2.89,3.49,-3.49,-3.56,-3.64,-0.60,-0.60,-0.61
136.48,2.86,3.49,2.87,3.51,-3.51,-3.60,-3.64,-0.65,-0.64,-0.63
137.84,2.85,3.52,2.86,3.53,-3.53,-3.63,-3.64,-0.68,-0.67,-0.67
139.22,2.85,3.56,2.85,3.56,-3.56,-3.67,-3.64,-0.71,-0.70,-0.71
140.61,2.85,3.59,2.84,3.58,-3.58,-3.70,-3.64,-0.73,-0.73,-0.74
142.02,2.83,3.60,2.84,3.60,-3.60,-3.74,-3.63,-0.77,-0.76,-0.77
143.44,2.82,3.62,2.83,3.62,-3.62,-3.77,-3.63,-0.80,-0.79,-0.80
144.87,2.82,3.64,2.82,3.65,-3.65,-3.81,-3.62,-0.83,-0.82,-0.82
146.32,2.82,3.67,2.82,3.67,-3.67,-3.84,-3.62,-0.85,-0.85,-0.85
147.78,2.82,3.70,2.82,3.70,-3.70,-3.88,-3.61,-0.88,-0.88,-0.88
149.26,2.82,3.73,2.82,3.73,-3.73,-3.91,-3.61,-0.91,-0.91,-0.91
150.75,2.82,3.77,2.82,3.76,-3.76,-3.94,-3.61,-0.94,-0.94,-0.95
152.26,2.82,3.78,2.82,3.79,-3.79,-3.97,-3.60,-0.97,-0.97,-0.96
153.78,2.82,3.82,2.82,3.82,-3.82,-4.01,-3.60,-1.00,-1.00,-1.00
155.32,2.82,3.84,2.82,3.85,-3.85,-4.04,-3.60,-1.03,-1.03,-1.02
156.88,2.82,3.88,2.82,3.88,-3.88,-4.07,-3.60,-1.06,-1.06,-1.06
158.44,2.82,3.91,2.82,3.91,-3.91,-4.10,-3.61,-1.09,-1.09,-1.09
160.03,2.82,3.94,2.82,3.94,-3.94,-4.13,-3.62,-1.12,-1.12,-1.12
161.63,2.82,3.97,2.82,3.98,-3.98,-4.16,-3.62,-1.16,-1.16,-1.15
163.24,2.82,4.02,2.82,4.01,-4.01,-4.19,-3.63,-1.19,-1.19,-1.20
164.88,2.82,4.05,2.82,4.05,-4.05,-4.22,-3.65,-1.23,-1.23,-1.23
166.53,2.82,4.08,2.82,4.08,-4.08,-4.25,-3.66,-1.26,-1.26,-1.26
168.19,2.82,4.11,2.82,4.12,-4.12,-4.28,-3.68,-1.30,-1.30,-1.29
169.87,2.82,4.15,2.82,4.15,-4.15,-4.30,-3.70,-1.33,-1.33,-1.33
171.57,2.82,4.19,2.82,4.19,-4.19,-4.33,-3.73,-1.37,-1.37,-1.37
173.29,2.82,4.22,2.82,4.22,-4.22,-4.36,-3.75,-1.40,-1.40,-1.40
175.02,2.82,4.26,2.82,4.26,-4.26,-4.38,-3.78,-1.44,-1.44,-1.44
176.77,2.82,4.29,2.82,4.29,-4.29,-4.41,-3.82,-1.47,-1.47,-1.47
178.54,2.82,4.33,2.82,4.33,-4.33,-4.44,-3.85,-1.51,-1.51,-1.51
180.32,2.82,4.37,2.82,4.37,-4.37,-4.46,-3.89,-1.55,-1.55,-1.55
182.13,2.82,4.40,2.82,4.40,-4.40,-4.48,-3.93,-1.58,-1.58,-1.58
183.95,2.82,4.43,2.82,4.44,-4.44,-4.51,-3.98,-1.62,-1.62,-1.61
185.79,2.82,4.48,2.82,4.47,-4.47,-4.53,-4.03,-1.65,-1.65,-1.66
187.65,2.82,4.51,2.82,4.51,-4.51,-4.55,-4.08,-1.69,-1.69,-1.69
189.52,2.82,4.55,2.82,4.55,-4.55,-4.58,-4.13,-1.73,-1.73,-1.73
191.42,2.82,4.57,2.82,4.58,-4.58,-4.60,-4.18,-1.76,-1.76,-1.75
193.33,2.82,4.61,2.83,4.62,-4.62,-4.62,-4.24,-1.80,-1.79,-1.79
195.27,2.82,4.65,2.83,4.66,-4.66,-4.64,-4.30,-1.84,-1.83,-1.83
197.22,2.82,4.69,2.83,4.69,-4.69,-4.66,-4.37,-1.87,-1.86,-1.87
199.19,2.82,4.72,2.83,4.72,-4.72,-4.68,-4.43,-1.90,-1.89,-1.90
201.18,2.82,4.75,2.82,4.75,-4.75,-4.70,-4.50,-1.93,-1.92,-1.93
203.19,2.82,4.78,2.82,4.77,-4.77,-4.71,-4.56,-1.95,-1.95,-1.96
205.23,2.84,4.82,2.81,4.80,-4.80,-4.73,-4.63,-1.96,-1.98,-1.98
207.28,2.84,4.85,2.80,4.82,-4.82,-4.75,-4.70,-1.98,-2.01,-2.01
209.35,2.81,4.85,2.80,4.84,-4.84,-4.76,-4.77,-2.03,-2.04,-2.04
211.44,2.80,4.87,2.79,4.85,-4.85,-4.78,-4.85,-2.05,-2.07,-2.07
213.56,2.78,4.87,2.78,4.87,-4.87,-4.79,-4.92,-2.09,-2.09,-2.09
215.69,2.75,4.86,2.76,4.88,-4.88,-4.81,-4.99,-2.13,-2.12,-2.11
217.85,2.75,4.88,2.75,4.89,-4.89,-4.82,-5.06,-2.14,-2.14,-2.13
220.03,2.72,4.89,2.74,4.90,-4.90,-4.83,-5.12,-2.18,-2.16,-2.17
222.23,2.71,4.90,2.73,4.92,-4.92,-4.85,-5.19,-2.21,-2.18,-2.19
224.45,2.71,4.92,2.72,4.93,-4.93,-4.86,-5.25,-2.22,-2.20,-2.21
226.70,2.71,4.94,2.72,4.94,-4.94,-4.87,-5.31,-2.23,-2.22,-2.23
228.96,2.71,4.95,2.71,4.95,-4.95,-4.88,-5.37,-2.24,-2.24,-2.24
231.25,2.71,4.97,2.71,4.97,-4.97,-4.89,-5.42,-2.26,-2.26,-2.26
233.57,2.71,4.99,2.71,4.98,-4.98,-4.90,-5.47,-2.27,-2.28,-2.28
235.90,2.71,5.01,2.71,5.00,-5.00,-4.91,-5.51,-2.29,-2.29,-2.30
238.26,2.71,5.03,2.71,5.02,-5.02,-4.92,-5.55,-2.31,-2.31,-2.32
240.64,2.71,5.03,2.71,5.03,-5.03,-4.92,-5.58,-2.32,-2.32,-2.32
243.05,2.71,5.04,2.71,5.05,-5.05,-4.93,-5.60,-2.34,-2.34,-2.33
245.48,2.71,5.06,2.71,5.06,-5.06,-4.94,-5.62,-2.35,-2.35,-2.35
247.93,2.71,5.08,2.71,5.07,-5.07,-4.94,-5.64,-2.36,-2.36,-2.37
250.41,2.71,5.08,2.71,5.08,-5.08,-4.94,-5.64,-2.37,-2.37,-2.37
252.92,2.71,5.08,2.71,5.09,-5.09,-4.95,-5.64,-2.38,-2.38,-2.37
255.45,2.71,5.10,2.70,5.09,-5.09,-4.95,-5.63,-2.38,-2.39,-2.39
258.00,2.71,5.11,2.69,5.09,-5.09,-4.95,-5.62,-2.38,-2.40,-2.40
260.58,2.71,5.11,2.68,5.09,-5.09,-4.96,-5.60,-2.38,-2.40,-2.40
263.19,2.67,5.08,2.67,5.08,-5.08,-4.96,-5.57,-2.41,-2.41,-2.41
265.82,2.66,5.08,2.66,5.08,-5.08,-4.96,-5.54,-2.42,-2.42,-2.42
268.48,2.66,5.08,2.65,5.07,-5.07,-4.96,-5.50,-2.41,-2.42,-2.42
271.16,2.62,5.05,2.63,5.06,-5.06,-4.96,-5.46,-2.44,-2.43,-2.43
273.87,2.61,5.04,2.62,5.05,-5.05,-4.95,-5.42,-2.44,-2.43,-2.43
276.61,2.59,5.03,2.61,5.04,-5.04,-4.95,-5.37,-2.45,-2.44,-2.44
279.38,2.57,5.02,2.59,5.03,-5.03,-4.95,-5.31,-2.46,-2.44,-2.45
282.17,2.57,5.02,2.57,5.02,-5.02,-4.95,-5.26,-2.45,-2.44,-2.45
284.99,2.57,5.01,2.56,5.00,-5.00,-4.94,-5.20,-2.43,-2.44,-2.44
287.84,2.57,5.01,2.54,4.99,-4.99,-4.94,-5.14,-2.42,-2.44,-2.44
290.72,2.52,4.97,2.53,4.98,-4.98,-4.93,-5.08,-2.46,-2.44,-2.45
293.63,2.52,4.96,2.52,4.97,-4.97,-4.92,-5.01,-2.45,-2.44,-2.44
296.57,2.52,4.96,2.51,4.96,-4.96,-4.92,-4.95,-2.44,-2.44,-2.44
299.53,2.52,4.96,2.51,4.95,-4.95,-4.91,-4.89,-2.43,-2.44,-2.44
302.53,2.49,4.93,2.50,4.94,-4.94,-4.90,-4.83,-2.45,-2.44,-2.44
305.55,2.47,4.91,2.49,4.93,-4.93,-4.89,-4.77,-2.46,-2.44,-2.44
308.61,2.47,4.90,2.49,4.92,-4.92,-4.88,-4.71,-2.45,-2.44,-2.43
311.69,2.47,4.91,2.48,4.91,-4.91,-4.87,-4.65,-2.44,-2.43,-2.44
314.81,2.47,4.90,2.47,4.90,-4.90,-4.86,-4.59,-2.43,-2.43,-2.43
317.96,2.47,4.90,2.46,4.89,-4.89,-4.85,-4.54,-2.42,-2.43,-2.43
321.14,2.47,4.89,2.46,4.88,-4.88,-4.84,-4.48,-2.41,-2.42,-2.42
324.35,2.47,4.90,2.46,4.88,-4.88,-4.82,-4.43,-2.41,-2.42,-2.43
327.59,2.46,4.87,2.45,4.86,-4.86,-4.81,-4.39,-2.40,-2.42,-2.41
330.87,2.44,4.85,2.44,4.85,-4.85,-4.80,-4.34,-2.41,-2.41,-2.41
334.18,2.43,4.84,2.43,4.84,-4.84,-4.78,-4.30,-2.41,-2.41,-2.41
337.52,2.43,4.84,2.42,4.83,-4.83,-4.77,-4.26,-2.40,-2.40,-2.41
340.90,2.42,4.82,2.41,4.81,-4.81,-4.75,-4.23,-2.39,-2.40,-2.40
344.30,2.39,4.78,2.40,4.79,-4.79,-4.73,-4.19,-2.40,-2.39,-2.39
347.75,2.38,4.76,2.39,4.78,-4.78,-4.72,-4.16,-2.40,-2.39,-2.38
351.23,2.38,4.77,2.38,4.76,-4.76,-4.70,-4.14,-2.38,-2.38,-2.39
354.74,2.38,4.75,2.37,4.74,-4.74,-4.68,-4.11,-2.36,-2.37,-2.37
358.28,2.34,4.71,2.35,4.72,-4.72,-4.66,-4.09,-2.38,-2.37,-2.37
361.87,2.33,4.69,2.34,4.70,-4.70,-4.64,-4.08,-2.37,-2.36,-2.36
365.49,2.33,4.68,2.33,4.68,-4.68,-4.62,-4.06,-2.35,-2.35,-2.35
369.14,2.33,4.67,2.32,4.67,-4.67,-4.60,-4.05,-2.34,-2.35,-2.34
372.83,2.30,4.64,2.31,4.65,-4.65,-4.58,-4.05,-2.35,-2.34,-2.34
376.56,2.29,4.63,2.30,4.63,-4.63,-4.56,-4.04,-2.34,-2.33,-2.34
380.33,2.29,4.62,2.28,4.61,-4.61,-4.53,-4.04,-2.32,-2.33,-2.33
384.13,2.29,4.61,2.27,4.59,-4.59,-4.51,-4.04,-2.30,-2.32,-2.32
387.97,2.25,4.56,2.26,4.57,-4.57,-4.49,-4.04,-2.32,-2.31,-2.31
391.85,2.24,4.54,2.24,4.55,-4.55,-4.46,-4.05,-2.31,-2.31,-2.30
395.77,2.24,4.54,2.23,4.53,-4.53,-4.44,-4.06,-2.29,-2.30,-2.30
399.73,2.22,4.51,2.22,4.51,-4.51,-4.41,-4.07,-2.29,-2.29,-2.29
403.72,2.20,4.48,2.20,4.49,-4.49,-4.39,-4.08,-2.29,-2.28,-2.28
407.76,2.19,4.47,2.19,4.46,-4.46,-4.36,-4.10,-2.27,-2.28,-2.28
411.84,2.16,4.43,2.17,4.44,-4.44,-4.33,-4.11,-2.28,-2.27,-2.27
415.96,2.15,4.41,2.15,4.42,-4.42,-4.31,-4.13,-2.27,-2.26,-2.26
420.12,2.15,4.41,2.14,4.39,-4.39,-4.28,-4.15,-2.24,-2.25,-2.26
424.32,2.11,4.36,2.12,4.37,-4.37,-4.25,-4.17,-2.26,-2.25,-2.25
428.56,2.10,4.33,2.10,4.34,-4.34,-4.22,-4.18,-2.24,-2.24,-2.23
432.85,2.10,4.32,2.09,4.31,-4.31,-4.19,-4.20,-2.21,-2.23,-2.22
437.18,2.06,4.28,2.07,4.29,-4.29,-4.16,-4.22,-2.23,-2.22,-2.22
441.55,2.05,4.26,2.05,4.26,-4.26,-4.13,-4.24,-2.21,-2.21,-2.21
445.96,2.02,4.22,2.03,4.23,-4.23,-4.10,-4.26,-2.21,-2.20,-2.20
450.42,2.01,4.21,2.01,4.21,-4.21,-4.07,-4.27,-2.20,-2.19,-2.20
454.93,2.01,4.20,2.00,4.18,-4.18,-4.04,-4.28,-2.17,-2.18,-2.19
459.48,1.97,4.15,1.98,4.15,-4.15,-4.01,-4.30,-2.18,-2.17,-2.18
464.07,1.96,4.12,1.96,4.12,-4.12,-3.97,-4.30,-2.16,-2.16,-2.16
468.71,1.94,4.09,1.94,4.09,-4.09,-3.94,-4.31,-2.15,-2.15,-2.15
473.40,1.91,4.05,1.92,4.06,-4.06,-3.91,-4.31,-2.15,-2.14,-2.14
478.13,1.91,4.04,1.90,4.03,-4.03,-3.87,-4.31,-2.12,-2.13,-2.13
482.91,1.88,4.00,1.88,4.00,-4.00,-3.84,-4.30,-2.12,-2.12,-2.12
487.74,1.87,3.98,1.86,3.97,-3.97,-3.81,-4.29,-2.10,-2.11,-2.11
492.62,1.83,3.93,1.83,3.93,-3.93,-3.77,-4.28,-2.10,-2.10,-2.10
497.55,1.82,3.91,1.81,3.90,-3.90,-3.74,-4.26,-2.08,-2.09,-2.09
502.52,1.78,3.86,1.79,3.86,-3.86,-3.70,-4.24,-2.08,-2.08,-2.08
507.55,1.77,3.83,1.76,3.83,-3.83,-3.66,-4.21,-2.06,-2.06,-2.06
512.62,1.74,3.79,1.74,3.79,-3.79,-3.63,-4.18,-2.05,-2.05,-2.05
