frequency,raw,error,smoothed,error_smoothed,equalization,parametric_eq,equalized_raw,equalized_smoothed,target
20,-11.96,-16.95,-12.05,-17.04,6.00,2.50,-5.96,-6.05,4.99
21,-11.14,-16.13,-11.11,-16.08,6.00,2.87,-5.14,-5.11,4.99
22,-10.22,-15.20,-10.18,-15.16,6.00,3.28,-4.22,-4.18,4.98
23,-9.31,-14.29,-9.29,-14.26,6.00,3.72,-3.31,-3.29,4.98
24,-8.44,-13.41,-8.42,-13.38,6.00,4.19,-2.44,-2.42,4.97
25,-7.59,-12.56,-7.57,-12.53,6.00,4.66,-1.59,-1.57,4.97
26,-6.78,-11.74,-6.75,-11.70,6.00,5.13,-0.78,-0.75,4.96
27,-5.95,-10.90,-5.96,-10.90,6.00,5.57,0.05,0.04,4.95
28,-5.20,-10.15,-5.19,-10.13,6.00,5.95,0.80,0.81,4.95
29,-4.42,-9.36,-4.45,-9.38,6.00,6.24,1.58,1.55,4.94
30,-3.72,-8.65,-3.73,-8.65,6.00,6.41,2.28,2.27,4.93
31,-3.04,-7.96,-3.03,-7.95,6.00,6.45,2.96,2.97,4.92
32,-2.38,-7.29,-2.36,-7.27,5.92,6.36,3.54,3.56,4.91
33,-1.74,-6.64,-1.72,-6.62,5.74,6.16,4.00,4.02,4.90
34,-1.12,-6.01,-1.10,-5.99,5.49,5.87,4.37,4.38,4.89
35,-0.52,-5.40,-0.52,-5.40,5.15,5.52,4.64,4.64,4.88
36,0.04,-4.83,0.04,-4.83,4.75,5.13,4.79,4.79,4.87
37,0.57,-4.29,0.57,-4.29,4.29,4.73,4.86,4.86,4.86
38,1.08,-3.77,1.07,-3.78,3.78,4.32,4.86,4.85,4.85
39,1.55,-3.28,1.53,-3.30,3.30,3.92,4.85,4.83,4.84
40,1.99,-2.83,1.97,-2.86,2.86,3.53,4.85,4.82,4.82
41,2.37,-2.44,2.37,-2.44,2.44,3.16,4.81,4.81,4.81
42,2.75,-2.04,2.74,-2.06,2.06,2.80,4.81,4.80,4.79
43,3.09,-1.69,3.07,-1.71,1.71,2.46,4.80,4.78,4.78
44,3.41,-1.35,3.38,-1.39,1.39,2.14,4.80,4.76,4.76
45,3.67,-1.07,3.65,-1.09,1.09,1.83,4.76,4.74,4.74
46,3.90,-0.82,3.90,-0.83,0.83,1.53,4.73,4.72,4.72
47,4.12,-0.59,4.12,-0.58,0.58,1.25,4.70,4.70,4.71
48,4.32,-0.37,4.32,-0.36,0.36,0.98,4.68,4.68,4.69
49,4.49,-0.18,4.50,-0.16,0.16,0.72,4.65,4.65,4.67
50,4.65,0.01,4.66,0.03,-0.03,0.47,4.62,4.63,4.65
51,4.79,0.17,4.81,0.20,-0.20,0.24,4.59,4.61,4.62
52,4.91,0.31,4.95,0.37,-0.37,0.01,4.55,4.59,4.60
53,5.06,0.48,5.08,0.52,-0.52,-0.20,4.54,4.56,4.58
54,5.17,0.62,5.20,0.66,-0.66,-0.40,4.51,4.54,4.56
55,5.29,0.76,5.31,0.80,-0.80,-0.58,4.49,4.52,4.53
56,5.41,0.91,5.42,0.92,-0.92,-0.76,4.49,4.49,4.51
57,5.51,1.03,5.51,1.04,-1.04,-0.92,4.47,4.47,4.48
58,5.61,1.16,5.60,1.15,-1.15,-1.06,4.46,4.45,4.45
59,5.68,1.25,5.67,1.25,-1.25,-1.20,4.43,4.42,4.43
60,5.76,1.36,5.74,1.34,-1.34,-1.31,4.42,4.40,4.40
61,5.81,1.44,5.79,1.42,-1.42,-1.42,4.39,4.37,4.37
62,5.85,1.51,5.84,1.50,-1.50,-1.51,4.36,4.34,4.34
63,5.88,1.57,5.87,1.56,-1.56,-1.58,4.32,4.31,4.31
64,5.89,1.61,5.89,1.61,-1.61,-1.65,4.28,4.28,4.28
65,5.89,1.64,5.90,1.65,-1.65,-1.70,4.24,4.25,4.25
66,5.89,1.67,5.90,1.69,-1.69,-1.74,4.20,4.22,4.22
67,5.89,1.70,5.90,1.72,-1.72,-1.78,4.17,4.18,4.19
68,5.89,1.74,5.89,1.74,-1.74,-1.80,4.15,4.15,4.15
69,5.85,1.73,5.87,1.75,-1.75,-1.82,4.10,4.12,4.12
70,5.85,1.76,5.85,1.76,-1.76,-1.83,4.09,4.08,4.09
71,5.81,1.76,5.82,1.77,-1.77,-1.84,4.04,4.05,4.05
72,5.79,1.77,5.79,1.77,-1.77,-1.84,4.02,4.02,4.02
73,5.76,1.77,5.75,1.77,-1.77,-1.85,3.99,3.98,3.99
74,5.71,1.76,5.71,1.76,-1.76,-1.85,3.95,3.95,3.95
75,5.67,1.75,5.66,1.75,-1.75,-1.85,3.92,3.92,3.92
76,5.62,1.74,5.62,1.74,-1.74,-1.84,3.89,3.88,3.88
77,5.57,1.73,5.56,1.72,-1.72,-1.84,3.85,3.84,3.85
78,5.51,1.70,5.51,1.70,-1.70,-1.84,3.81,3.81,3.81
79,5.44,1.67,5.45,1.68,-1.68,-1.84,3.76,3.77,3.77
80,5.40,1.66,5.40,1.66,-1.66,-1.84,3.74,3.74,3.74
81,5.33,1.63,5.34,1.64,-1.64,-1.84,3.69,3.70,3.70
82,5.27,1.61,5.28,1.62,-1.62,-1.85,3.65,3.66,3.67
83,5.22,1.59,5.22,1.60,-1.60,-1.85,3.63,3.63,3.63
84,5.17,1.58,5.17,1.58,-1.58,-1.86,3.60,3.59,3.59
85,5.10,1.54,5.11,1.56,-1.56,-1.87,3.54,3.55,3.56
86,5.05,1.53,5.06,1.54,-1.54,-1.88,3.51,3.52,3.52
87,5.01,1.53,5.01,1.53,-1.53,-1.89,3.48,3.48,3.48
88,4.96,1.51,4.96,1.51,-1.51,-1.91,3.45,3.45,3.45
89,4.91,1.50,4.91,1.50,-1.50,-1.93,3.41,3.41,3.41
90,4.87,1.50,4.87,1.50,-1.50,-1.95,3.38,3.37,3.38
91,4.83,1.49,4.83,1.49,-1.49,-1.97,3.34,3.34,3.34
92,4.79,1.49,4.79,1.49,-1.49,-1.99,3.30,3.30,3.30
93,4.75,1.48,4.76,1.49,-1.49,-2.01,3.27,3.27,3.27
94,4.72,1.49,4.72,1.49,-1.49,-2.04,3.23,3.24,3.23
95,4.68,1.48,4.69,1.49,-1.49,-2.06,3.19,3.20,3.20
96,4.67,1.51,4.66,1.50,-1.50,-2.09,3.17,3.16,3.16
97,4.64,1.51,4.63,1.51,-1.51,-2.12,3.13,3.13,3.13
98,4.60,1.51,4.61,1.52,-1.52,-2.15,3.08,3.09,3.10
99,4.59,1.53,4.59,1.54,-1.54,-2.18,3.06,3.05,3.06
100,4.58,1.55,4.57,1.55,-1.55,-2.22,3.03,3.02,3.03
101,4.55,1.56,4.55,1.57,-1.57,-2.25,2.98,2.98,2.99
102,4.55,1.59,4.54,1.60,-1.60,-2.28,2.96,2.95,2.96
104,4.51,1.61,4.53,1.62,-1.62,-2.35,2.89,2.91,2.90
105,4.51,1.65,4.52,1.65,-1.65,-2.38,2.87,2.88,2.87
106,4.51,1.68,4.51,1.67,-1.67,-2.42,2.84,2.84,2.83
107,4.51,1.71,4.51,1.70,-1.70,-2.45,2.81,2.81,2.80
108,4.51,1.74,4.51,1.73,-1.73,-2.48,2.78,2.77,2.77
109,4.51,1.77,4.51,1.76,-1.76,-2.51,2.75,2.74,2.74
110,4.51,1.80,4.50,1.79,-1.79,-2.55,2.72,2.71,2.71
111,4.51,1.83,4.51,1.83,-1.83,-2.58,2.68,2.68,2.68
112,4.51,1.86,4.51,1.86,-1.86,-2.60,2.65,2.65,2.65
113,4.51,1.88,4.51,1.90,-1.90,-2.63,2.62,2.62,2.63
114,4.51,1.91,4.52,1.93,-1.93,-2.66,2.58,2.59,2.60
115,4.51,1.94,4.53,1.97,-1.97,-2.68,2.54,2.56,2.57
117,4.55,2.03,4.53,2.01,-2.01,-2.73,2.54,2.53,2.52
118,4.55,2.06,4.54,2.05,-2.05,-2.75,2.50,2.49,2.49
119,4.55,2.09,4.55,2.09,-2.09,-2.77,2.46,2.46,2.46
120,4.55,2.11,4.57,2.13,-2.13,-2.78,2.42,2.43,2.44
121,4.59,2.18,4.58,2.18,-2.18,-2.80,2.41,2.40,2.41
123,4.59,2.23,4.60,2.22,-2.22,-2.82,2.37,2.37,2.36
124,4.61,2.27,4.61,2.27,-2.27,-2.83,2.34,2.34,2.34
125,4.64,2.32,4.63,2.31,-2.31,-2.83,2.33,2.32,2.32
126,4.64,2.35,4.65,2.36,-2.36,-2.84,2.28,2.29,2.29
128,4.68,2.43,4.67,2.41,-2.41,-2.84,2.27,2.26,2.25
129,4.68,2.45,4.69,2.46,-2.46,-2.84,2.23,2.23,2.23
130,4.72,2.51,4.71,2.50,-2.50,-2.84,2.22,2.21,2.21
131,4.72,2.53,4.73,2.55,-2.55,-2.84,2.17,2.18,2.19
133,4.77,2.63,4.75,2.60,-2.60,-2.82,2.17,2.15,2.15
134,4.77,2.64,4.77,2.65,-2.65,-2.82,2.12,2.12,2.13
135,4.79,2.68,4.80,2.70,-2.70,-2.81,2.09,2.10,2.11
137,4.83,2.76,4.83,2.76,-2.76,-2.79,2.07,2.07,2.07
138,4.85,2.80,4.85,2.81,-2.81,-2.78,2.04,2.04,2.05
140,4.90,2.89,4.89,2.87,-2.87,-2.75,2.03,2.02,2.02
141,4.91,2.91,4.93,2.93,-2.93,-2.74,1.98,1.99,2.00
142,4.95,2.97,4.97,3.00,-3.00,-2.73,1.95,1.97,1.98
144,5.00,3.05,5.01,3.07,-3.07,-2.70,1.93,1.94,1.95
145,5.03,3.10,5.06,3.14,-3.14,-2.68,1.89,1.92,1.93
147,5.09,3.19,5.11,3.21,-3.21,-2.66,1.88,1.90,1.90
148,5.14,3.25,5.16,3.28,-3.28,-2.64,1.86,1.88,1.89
150,5.22,3.36,5.21,3.35,-3.35,-2.62,1.87,1.86,1.86
151,5.27,3.43,5.26,3.42,-3.42,-2.60,1.85,1.84,1.84
153,5.32,3.50,5.30,3.49,-3.49,-2.58,1.83,1.82,1.82
154,5.35,3.55,5.35,3.55,-3.55,-2.57,1.80,1.80,1.80
156,5.41,3.63,5.39,3.61,-3.61,-2.54,1.81,1.78,1.78
157,5.42,3.66,5.42,3.66,-3.66,-2.53,1.76,1.76,1.77
159,5.46,3.72,5.45,3.70,-3.70,-2.52,1.76,1.75,1.74
160,5.46,3.73,5.47,3.74,-3.74,-2.51,1.72,1.73,1.73
162,5.50,3.79,5.48,3.77,-3.77,-2.49,1.73,1.71,1.71
164,5.50,3.82,5.49,3.80,-3.80,-2.48,1.70,1.69,1.68
165,5.50,3.83,5.49,3.82,-3.82,-2.48,1.68,1.67,1.67
167,5.50,3.85,5.49,3.84,-3.84,-2.47,1.66,1.65,1.65
169,5.48,3.85,5.49,3.86,-3.86,-2.46,1.63,1.63,1.63
170,5.46,3.84,5.48,3.87,-3.87,-2.46,1.59,1.61,1.62
172,5.46,3.86,5.48,3.88,-3.88,-2.46,1.58,1.60,1.61
174,5.46,3.87,5.47,3.89,-3.89,-2.46,1.57,1.58,1.59
175,5.46,3.88,5.46,3.90,-3.90,-2.46,1.57,1.57,1.58
177,5.46,3.90,5.46,3.90,-3.90,-2.47,1.56,1.55,1.56
179,5.44,3.89,5.45,3.91,-3.91,-2.48,1.53,1.54,1.55
181,5.42,3.89,5.44,3.92,-3.92,-2.49,1.50,1.53,1.53
183,5.42,3.91,5.44,3.92,-3.92,-2.50,1.50,1.51,1.52
184,5.42,3.91,5.43,3.93,-3.93,-2.51,1.50,1.50,1.51
186,5.42,3.93,5.42,3.92,-3.92,-2.52,1.50,1.49,1.49
188,5.42,3.94,5.40,3.92,-3.92,-2.54,1.50,1.48,1.48
190,5.37,3.90,5.38,3.91,-3.91,-2.56,1.46,1.47,1.47
192,5.37,3.92,5.35,3.89,-3.89,-2.58,1.48,1.45,1.46
194,5.33,3.89,5.31,3.87,-3.87,-2.60,1.46,1.44,1.44
196,5.30,3.87,5.28,3.85,-3.85,-2.63,1.46,1.43,1.43
198,5.23,3.81,5.23,3.81,-3.81,-2.65,1.42,1.42,1.42
200,5.18,3.77,5.18,3.77,-3.77,-2.68,1.41,1.41,1.41
202,5.12,3.72,5.13,3.73,-3.73,-2.70,1.39,1.40,1.40
204,5.05,3.66,5.06,3.68,-3.68,-2.73,1.37,1.38,1.39
206,4.99,3.61,5.00,3.62,-3.62,-2.76,1.37,1.37,1.38
208,4.91,3.54,4.92,3.56,-3.56,-2.79,1.35,1.36,1.37
210,4.85,3.49,4.85,3.50,-3.50,-2.81,1.35,1.35,1.36
212,4.76,3.41,4.78,3.43,-3.43,-2.84,1.33,1.34,1.35
214,4.70,3.36,4.69,3.36,-3.36,-2.87,1.34,1.33,1.34
216,4.60,3.27,4.61,3.29,-3.29,-2.89,1.32,1.33,1.33
218,4.55,3.23,4.52,3.20,-3.20,-2.92,1.35,1.32,1.32
221,4.41,3.10,4.43,3.12,-3.12,-2.95,1.29,1.32,1.31
223,4.33,3.02,4.33,3.02,-3.02,-2.97,1.31,1.31,1.31
225,4.25,2.95,4.23,2.92,-2.92,-2.99,1.33,1.31,1.30
227,4.13,2.83,4.12,2.82,-2.82,-3.01,1.31,1.30,1.30
229,4.03,2.73,4.00,2.70,-2.70,-3.03,1.33,1.30,1.30
232,3.87,2.57,3.88,2.58,-2.58,-3.05,1.29,1.30,1.30
234,3.77,2.47,3.75,2.44,-2.44,-3.06,1.33,1.31,1.30
236,3.64,2.34,3.62,2.30,-2.30,-3.06,1.34,1.32,1.30
239,3.47,2.16,3.47,2.15,-2.15,-3.07,1.32,1.33,1.31
241,3.36,2.05,3.32,1.99,-1.99,-3.07,1.37,1.33,1.32
244,3.19,1.87,3.17,1.83,-1.83,-3.06,1.36,1.34,1.32
246,3.06,1.73,3.01,1.68,-1.68,-3.06,1.39,1.33,1.33
248,2.93,1.59,2.86,1.53,-1.53,-3.05,1.40,1.33,1.34
251,2.75,1.40,2.72,1.40,-1.40,-3.03,1.35,1.32,1.35
253,2.65,1.29,2.60,1.29,-1.29,-3.01,1.36,1.31,1.36
256,2.50,1.13,2.51,1.21,-1.21,-2.98,1.29,1.30,1.37
259,2.38,1.00,2.45,1.16,-1.16,-2.95,1.22,1.29,1.38
261,2.34,0.95,2.45,1.15,-1.15,-2.92,1.19,1.30,1.39
264,2.31,0.92,2.48,1.18,-1.18,-2.88,1.13,1.30,1.39
266,2.39,0.99,2.56,1.25,-1.25,-2.85,1.14,1.31,1.40
269,2.52,1.11,2.69,1.36,-1.36,-2.80,1.16,1.33,1.41
272,2.75,1.33,2.85,1.51,-1.51,-2.74,1.24,1.34,1.42
274,2.92,1.48,3.05,1.68,-1.68,-2.71,1.24,1.36,1.44
277,3.22,1.77,3.26,1.87,-1.87,-2.65,1.35,1.39,1.45
280,3.54,2.08,3.49,2.06,-2.06,-2.58,1.48,1.42,1.46
283,3.82,2.34,3.71,2.25,-2.25,-2.52,1.57,1.46,1.48
286,4.09,2.59,3.92,2.42,-2.42,-2.45,1.67,1.50,1.50
288,4.22,2.70,4.10,2.57,-2.57,-2.41,1.65,1.53,1.52
291,4.38,2.84,4.25,2.69,-2.69,-2.34,1.70,1.56,1.54
294,4.48,2.92,4.35,2.77,-2.77,-2.27,1.71,1.58,1.56
297,4.51,2.93,4.41,2.81,-2.81,-2.21,1.70,1.60,1.58
300,4.48,2.88,4.42,2.81,-2.81,-2.14,1.67,1.61,1.60
303,4.43,2.81,4.40,2.78,-2.78,-2.07,1.65,1.62,1.62
306,4.33,2.69,4.33,2.71,-2.71,-2.00,1.62,1.62,1.64
309,4.20,2.54,4.25,2.61,-2.61,-1.93,1.59,1.63,1.66
312,4.10,2.43,4.14,2.49,-2.49,-1.87,1.61,1.65,1.67
316,3.95,2.26,4.02,2.35,-2.35,-1.78,1.60,1.66,1.69
319,3.85,2.15,3.89,2.21,-2.21,-1.71,1.64,1.68,1.70
322,3.73,2.01,3.76,2.07,-2.07,-1.65,1.67,1.70,1.72
325,3.62,1.88,3.64,1.92,-1.92,-1.59,1.70,1.72,1.74
328,3.50,1.74,3.52,1.78,-1.78,-1.52,1.72,1.74,1.76
332,3.37,1.59,3.40,1.64,-1.64,-1.44,1.73,1.76,1.78
335,3.28,1.48,3.30,1.51,-1.51,-1.38,1.77,1.79,1.80
338,3.21,1.39,3.20,1.39,-1.39,-1.33,1.82,1.81,1.82
342,3.09,1.25,3.11,1.27,-1.27,-1.25,1.82,1.84,1.84
345,3.03,1.17,3.02,1.16,-1.16,-1.19,1.87,1.86,1.87
349,2.92,1.04,2.94,1.05,-1.05,-1.12,1.87,1.88,1.89
352,2.87,0.97,2.86,0.95,-0.95,-1.07,1.92,1.90,1.91
356,2.78,0.86,2.78,0.86,-0.86,-1.00,1.92,1.92,1.92
359,2.72,0.78,2.71,0.77,-0.77,-0.95,1.95,1.94,1.94
363,2.64,0.69,2.65,0.69,-0.69,-0.88,1.95,1.95,1.96
366,2.58,0.61,2.58,0.61,-0.61,-0.83,1.97,1.97,1.97
370,2.52,0.54,2.52,0.54,-0.54,-0.77,1.98,1.98,1.98
374,2.45,0.46,2.46,0.47,-0.47,-0.71,1.98,2.00,2.00
377,2.41,0.40,2.41,0.40,-0.40,-0.67,2.01,2.01,2.01
381,2.36,0.34,2.36,0.34,-0.34,-0.61,2.02,2.02,2.02
385,2.32,0.29,2.31,0.28,-0.28,-0.55,2.04,2.03,2.03
389,2.26,0.22,2.26,0.23,-0.23,-0.49,2.03,2.04,2.04
393,2.23,0.18,2.22,0.18,-0.18,-0.44,2.05,2.05,2.05
397,2.18,0.12,2.18,0.13,-0.13,-0.39,2.05,2.05,2.06
401,2.15,0.08,2.15,0.09,-0.09,-0.33,2.06,2.06,2.07
405,2.10,0.03,2.11,0.05,-0.05,-0.28,2.05,2.07,2.07
409,2.08,0.01,2.08,0.01,-0.01,-0.23,2.07,2.07,2.08
413,2.04,-0.04,2.05,-0.03,0.03,-0.18,2.07,2.08,2.08
417,2.03,-0.05,2.02,-0.06,0.06,-0.14,2.09,2.08,2.08
421,1.99,-0.09,2.00,-0.09,0.09,-0.09,2.08,2.09,2.09
425,1.98,-0.11,1.97,-0.12,0.12,-0.04,2.10,2.09,2.09
430,1.95,-0.14,1.95,-0.15,0.15,0.01,2.10,2.10,2.09
434,1.92,-0.18,1.93,-0.18,0.18,0.06,2.10,2.10,2.10
438,1.91,-0.19,1.91,-0.20,0.20,0.10,2.11,2.11,2.10
443,1.89,-0.22,1.89,-0.23,0.23,0.15,2.12,2.12,2.11
447,1.86,-0.26,1.87,-0.26,0.26,0.19,2.12,2.13,2.12
451,1.86,-0.27,1.85,-0.29,0.29,0.23,2.15,2.14,2.13
456,1.82,-0.33,1.83,-0.31,0.31,0.28,2.14,2.15,2.15
460,1.82,-0.34,1.82,-0.34,0.34,0.32,2.16,2.16,2.16
465,1.78,-0.39,1.80,-0.37,0.37,0.36,2.15,2.17,2.17
470,1.78,-0.41,1.78,-0.40,0.40,0.41,2.18,2.18,2.19
474,1.78,-0.42,1.77,-0.43,0.43,0.44,2.21,2.20,2.20
479,1.76,-0.45,1.75,-0.46,0.46,0.49,2.22,2.21,2.22
484,1.73,-0.50,1.73,-0.49,0.49,0.53,2.22,2.22,2.23
489,1.73,-0.51,1.72,-0.52,0.52,0.57,2.25,2.24,2.24
494,1.69,-0.56,1.70,-0.55,0.55,0.61,2.24,2.25,2.25
499,1.69,-0.57,1.69,-0.58,0.58,0.65,2.27,2.27,2.27
504,1.66,-0.62,1.67,-0.61,0.61,0.68,2.27,2.28,2.28
509,1.65,-0.64,1.65,-0.65,0.65,0.72,2.30,2.30,2.29
514,1.64,-0.67,1.63,-0.68,0.68,0.76,2.32,2.31,2.31
519,1.60,-0.72,1.61,-0.72,0.72,0.79,2.32,2.33,2.33
524,1.60,-0.74,1.59,-0.76,0.76,0.83,2.36,2.35,2.34
529,1.56,-0.80,1.57,-0.80,0.80,0.86,2.36,2.37,2.36
535,1.56,-0.83,1.55,-0.84,0.84,0.90,2.40,2.39,2.39
540,1.52,-0.89,1.53,-0.88,0.88,0.93,2.41,2.41,2.41
545,1.51,-0.92,1.50,-0.93,0.93,0.97,2.44,2.43,2.43
551,1.47,-0.98,1.48,-0.98,0.98,1.00,2.45,2.46,2.46
556,1.45,-1.03,1.45,-1.03,1.03,1.04,2.48,2.48,2.48
562,1.43,-1.07,1.42,-1.08,1.08,1.07,2.51,2.50,2.50
568,1.39,-1.13,1.39,-1.13,1.13,1.11,2.52,2.52,2.53
573,1.36,-1.19,1.36,-1.18,1.18,1.15,2.54,2.54,2.55
579,1.34,-1.23,1.33,-1.23,1.23,1.18,2.57,2.56,2.57
585,1.30,-1.28,1.30,-1.28,1.28,1.22,2.58,2.58,2.59
591,1.26,-1.34,1.26,-1.33,1.33,1.26,2.59,2.60,2.60
596,1.24,-1.38,1.23,-1.38,1.38,1.30,2.62,2.61,2.62
602,1.19,-1.44,1.19,-1.43,1.43,1.34,2.63,2.63,2.63
608,1.16,-1.48,1.16,-1.48,1.48,1.38,2.65,2.64,2.65
615,1.12,-1.54,1.12,-1.54,1.54,1.43,2.66,2.66,2.66
621,1.08,-1.59,1.09,-1.59,1.59,1.47,2.67,2.67,2.67
627,1.04,-1.64,1.05,-1.64,1.64,1.51,2.68,2.69,2.68
633,1.02,-1.68,1.02,-1.69,1.69,1.56,2.71,2.70,2.70
639,0.98,-1.73,0.98,-1.74,1.74,1.60,2.72,2.72,2.71
646,0.93,-1.80,0.94,-1.79,1.79,1.65,2.72,2.73,2.73
652,0.91,-1.83,0.91,-1.84,1.84,1.70,2.75,2.74,2.74
659,0.87,-1.88,0.87,-1.89,1.89,1.75,2.76,2.76,2.76
665,0.85,-1.92,0.83,-1.94,1.94,1.80,2.79,2.77,2.77
672,0.79,-1.99,0.80,-1.98,1.98,1.86,2.77,2.78,2.78
679,0.76,-2.03,0.76,-2.03,2.03,1.92,2.79,2.79,2.80
686,0.73,-2.08,0.72,-2.08,2.08,1.98,2.81,2.80,2.81
692,0.68,-2.14,0.69,-2.12,2.12,2.03,2.80,2.81,2.82
699,0.65,-2.17,0.65,-2.17,2.17,2.10,2.82,2.82,2.82
706,0.61,-2.22,0.61,-2.21,2.21,2.16,2.82,2.82,2.83
713,0.57,-2.26,0.58,-2.25,2.25,2.22,2.82,2.83,2.83
721,0.54,-2.30,0.55,-2.29,2.29,2.30,2.83,2.83,2.84
728,0.52,-2.32,0.52,-2.32,2.32,2.37,2.84,2.84,2.84
735,0.48,-2.37,0.49,-2.36,2.36,2.43,2.84,2.84,2.85
742,0.47,-2.38,0.46,-2.39,2.39,2.50,2.86,2.85,2.85
750,0.43,-2.43,0.44,-2.42,2.42,2.58,2.85,2.86,2.86
757,0.39,-2.47,0.41,-2.45,2.45,2.65,2.84,2.87,2.86
765,0.39,-2.48,0.39,-2.49,2.49,2.73,2.88,2.88,2.87
773,0.35,-2.53,0.37,-2.52,2.52,2.82,2.87,2.89,2.88
780,0.35,-2.54,0.34,-2.56,2.56,2.89,2.91,2.90,2.89
788,0.31,-2.59,0.31,-2.59,2.59,2.97,2.90,2.90,2.90
796,0.30,-2.61,0.28,-2.63,2.63,3.05,2.93,2.91,2.91
804,0.28,-2.64,0.24,-2.67,2.67,3.13,2.95,2.91,2.92
812,0.26,-2.66,0.21,-2.71,2.71,3.21,2.97,2.92,2.93
820,0.20,-2.73,0.18,-2.74,2.74,3.30,2.94,2.92,2.93
828,0.14,-2.80,0.14,-2.78,2.78,3.37,2.92,2.92,2.94
837,0.09,-2.85,0.11,-2.81,2.81,3.46,2.90,2.92,2.94
845,0.04,-2.90,0.08,-2.84,2.84,3.54,2.88,2.93,2.94
853,0.00,-2.94,0.06,-2.87,2.87,3.61,2.87,2.93,2.94
862,0.00,-2.94,0.03,-2.90,2.90,3.69,2.90,2.93,2.94
871,0.00,-2.94,0.01,-2.92,2.92,3.77,2.92,2.93,2.94
879,0.00,-2.93,-0.01,-2.93,2.93,3.83,2.93,2.93,2.94
888,0.00,-2.93,-0.02,-2.95,2.95,3.90,2.95,2.93,2.93
897,-0.02,-2.95,-0.03,-2.96,2.96,3.97,2.94,2.93,2.93
906,-0.02,-2.96,-0.03,-2.97,2.97,4.02,2.95,2.93,2.94
915,-0.02,-2.96,-0.03,-2.98,2.98,4.07,2.96,2.94,2.94
924,-0.02,-2.96,-0.03,-2.98,2.98,4.12,2.96,2.95,2.94
933,-0.04,-2.99,-0.03,-2.99,2.99,4.16,2.95,2.96,2.95
943,-0.04,-3.00,-0.03,-3.00,3.00,4.19,2.96,2.97,2.96
952,-0.04,-3.01,-0.04,-3.01,3.01,4.22,2.97,2.97,2.97
962,-0.04,-3.02,-0.03,-3.02,3.02,4.23,2.98,2.99,2.98
971,-0.04,-3.03,-0.03,-3.03,3.03,4.24,2.99,3.00,3.00
981,-0.04,-3.05,-0.03,-3.04,3.04,4.24,3.00,3.01,3.01
991,-0.01,-3.04,-0.02,-3.05,3.05,4.23,3.04,3.03,3.03
1001,0.00,-3.05,-0.01,-3.06,3.06,4.21,3.07,3.05,3.05
1011,0.00,-3.08,0.00,-3.07,3.07,4.18,3.08,3.07,3.08
1021,0.00,-3.10,0.02,-3.08,3.08,4.14,3.08,3.10,3.10
1031,0.04,-3.09,0.03,-3.09,3.09,4.09,3.13,3.13,3.13
1041,0.04,-3.11,0.05,-3.10,3.10,4.04,3.14,3.15,3.16
1052,0.08,-3.10,0.08,-3.10,3.10,3.97,3.18,3.18,3.18
1062,0.09,-3.12,0.10,-3.11,3.11,3.90,3.20,3.21,3.21
1073,0.13,-3.11,0.13,-3.11,3.11,3.81,3.24,3.24,3.24
1084,0.15,-3.12,0.16,-3.11,3.11,3.72,3.26,3.27,3.27
1094,0.18,-3.12,0.18,-3.12,3.12,3.63,3.30,3.30,3.30
1105,0.22,-3.11,0.20,-3.12,3.12,3.53,3.34,3.32,3.33
1116,0.26,-3.10,0.23,-3.12,3.12,3.42,3.38,3.35,3.36
1128,0.29,-3.10,0.26,-3.12,3.12,3.29,3.41,3.38,3.39
1139,0.30,-3.12,0.30,-3.12,3.12,3.18,3.42,3.42,3.42
1150,0.35,-3.11,0.34,-3.12,3.12,3.06,3.47,3.46,3.46
1162,0.35,-3.14,0.38,-3.12,3.12,2.92,3.47,3.50,3.49
1173,0.37,-3.16,0.42,-3.12,3.12,2.80,3.49,3.54,3.53
1185,0.42,-3.15,0.46,-3.12,3.12,2.66,3.54,3.58,3.57
1197,0.47,-3.15,0.51,-3.12,3.12,2.52,3.59,3.62,3.62
1209,0.57,-3.09,0.55,-3.12,3.12,2.38,3.69,3.67,3.66
1221,0.63,-3.08,0.60,-3.11,3.11,2.25,3.75,3.71,3.71
1233,0.71,-3.05,0.65,-3.11,3.11,2.11,3.82,3.76,3.76
1246,0.76,-3.05,0.70,-3.11,3.11,1.95,3.87,3.81,3.81
1258,0.79,-3.08,0.76,-3.10,3.10,1.82,3.89,3.87,3.87
1271,0.82,-3.10,0.83,-3.10,3.10,1.67,3.92,3.92,3.92
1283,0.85,-3.13,0.90,-3.09,3.09,1.53,3.94,3.98,3.98
1296,0.93,-3.11,0.97,-3.07,3.07,1.38,4.00,4.05,4.04
1309,1.03,-3.07,1.05,-3.05,3.05,1.23,4.08,4.11,4.11
1322,1.13,-3.04,1.14,-3.03,3.03,1.09,4.16,4.17,4.17
1335,1.23,-3.01,1.23,-3.00,3.00,0.94,4.23,4.23,4.24
1349,1.34,-2.97,1.33,-2.96,2.96,0.79,4.30,4.29,4.31
1362,1.45,-2.92,1.45,-2.91,2.91,0.65,4.36,4.36,4.37
1376,1.57,-2.87,1.57,-2.86,2.86,0.50,4.43,4.42,4.44
1390,1.73,-2.78,1.70,-2.79,2.79,0.35,4.52,4.49,4.51
1404,1.88,-2.70,1.85,-2.71,2.71,0.20,4.59,4.56,4.58
1418,2.01,-2.65,2.00,-2.62,2.62,0.05,4.63,4.62,4.66
1432,2.17,-2.56,2.16,-2.52,2.52,-0.09,4.69,4.68,4.73
1446,2.34,-2.46,2.34,-2.41,2.41,-0.24,4.75,4.75,4.80
1461,2.52,-2.35,2.53,-2.28,2.28,-0.39,4.80,4.81,4.87
1475,2.71,-2.24,2.74,-2.13,2.13,-0.53,4.84,4.87,4.95
1490,2.94,-2.08,2.96,-1.97,1.97,-0.68,4.92,4.93,5.02
1505,3.18,-1.92,3.20,-1.80,1.80,-0.83,4.98,5.00,5.10
1520,3.44,-1.73,3.46,-1.61,1.61,-0.98,5.05,5.07,5.17
1535,3.72,-1.53,3.74,-1.40,1.40,-1.12,5.12,5.14,5.25
1550,4.02,-1.31,4.04,-1.18,1.18,-1.26,5.20,5.21,5.33
1566,4.35,-1.07,4.35,-0.94,0.94,-1.41,5.29,5.29,5.42
1582,4.69,-0.81,4.69,-0.69,0.69,-1.56,5.38,5.38,5.50
1597,5.04,-0.55,5.04,-0.42,0.42,-1.70,5.46,5.46,5.59
1613,5.42,-0.26,5.41,-0.14,0.14,-1.84,5.56,5.55,5.68
1629,5.79,0.02,5.79,0.15,-0.15,-1.98,5.64,5.64,5.77
1646,6.20,0.33,6.19,0.45,-0.45,-2.13,5.75,5.74,5.87
1662,6.59,0.63,6.59,0.75,-0.75,-2.26,5.84,5.84,5.96
1679,7.02,0.96,7.01,1.07,-1.07,-2.40,5.95,5.95,6.06
1696,7.44,1.27,7.45,1.39,-1.39,-2.54,6.05,6.06,6.17
1713,7.90,1.62,7.89,1.72,-1.72,-2.67,6.18,6.17,6.28
1730,8.35,1.96,8.35,2.06,-2.06,-2.79,6.29,6.29,6.39
1747,8.79,2.29,8.82,2.40,-2.40,-2.91,6.39,6.42,6.50
1764,9.26,2.64,9.30,2.75,-2.75,-3.03,6.51,6.54,6.62
1782,9.73,2.99,9.79,3.11,-3.11,-3.14,6.62,6.67,6.74
1800,10.25,3.39,10.29,3.48,-3.48,-3.25,6.77,6.81,6.86
1818,10.77,3.78,10.79,3.85,-3.85,-3.35,6.92,6.94,6.99
1836,11.28,4.16,11.30,4.22,-4.22,-3.44,7.06,7.08,7.12
1854,11.77,4.52,11.81,4.58,-4.58,-3.53,7.19,7.22,7.25
1873,12.29,4.91,12.30,4.94,-4.94,-3.60,7.35,7.36,7.38
1892,12.79,5.28,12.79,5.29,-5.29,-3.67,7.50,7.50,7.51
1911,13.26,5.62,13.26,5.62,-5.62,-3.73,7.64,7.64,7.64
1930,13.70,5.93,13.71,5.92,-5.92,-3.77,7.78,7.79,7.77
1949,14.12,6.23,14.12,6.20,-6.20,-3.81,7.93,7.92,7.89
1969,14.52,6.50,14.49,6.43,-6.43,-3.83,8.09,8.05,8.02
1988,14.85,6.71,14.80,6.62,-6.62,-3.85,8.23,8.18,8.14
2008,15.13,6.86,15.07,6.77,-6.77,-3.85,8.36,8.30,8.27
2028,15.36,6.97,15.29,6.86,-6.86,-3.84,8.50,8.42,8.39
2048,15.53,7.03,15.45,6.91,-6.91,-3.82,8.62,8.54,8.50
2069,15.65,7.03,15.55,6.90,-6.90,-3.79,8.75,8.65,8.62
2090,15.68,6.95,15.60,6.84,-6.84,-3.74,8.84,8.76,8.73
2111,15.61,6.77,15.60,6.73,-6.73,-3.69,8.88,8.87,8.84
