frequency,raw,error,smoothed,error_smoothed,equalization,parametric_eq,fixed_band_eq,equalized_raw,equalized_smoothed,target
20.00,13.04,12.81,13.08,12.82,-12.82,-12.58,-4.88,0.22,0.26,0.23
20.20,13.03,12.75,13.05,12.76,-12.76,-12.55,-5.00,0.28,0.29,0.28
20.40,13.02,12.69,13.03,12.70,-12.70,-12.51,-5.13,0.33,0.33,0.33
20.61,13.02,12.67,13.00,12.64,-12.64,-12.47,-5.27,0.39,0.36,0.36
20.81,13.01,12.60,12.97,12.58,-12.58,-12.44,-5.40,0.44,0.39,0.41
21.02,12.99,12.55,12.94,12.52,-12.52,-12.40,-5.54,0.48,0.42,0.45
21.23,12.93,12.47,12.90,12.46,-12.46,-12.35,-5.69,0.48,0.45,0.47
21.44,12.87,12.38,12.87,12.40,-12.40,-12.31,-5.84,0.47,0.47,0.49
21.66,12.81,12.31,12.83,12.34,-12.34,-12.26,-5.99,0.47,0.49,0.51
21.87,12.75,12.24,12.79,12.28,-12.28,-12.22,-6.14,0.47,0.51,0.52
22.09,12.70,12.17,12.75,12.23,-12.23,-12.17,-6.31,0.48,0.52,0.54
22.31,12.66,12.12,12.70,12.17,-12.17,-12.12,-6.47,0.49,0.54,0.55
22.54,12.63,12.09,12.66,12.12,-12.12,-12.07,-6.64,0.52,0.54,0.54
22.76,12.60,12.06,12.61,12.06,-12.06,-12.02,-6.81,0.54,0.54,0.54
22.99,12.56,12.03,12.56,12.01,-12.01,-11.96,-6.99,0.55,0.55,0.53
23.22,12.52,11.99,12.50,11.96,-11.96,-11.91,-7.18,0.57,0.55,0.53
23.45,12.47,11.94,12.45,11.90,-11.90,-11.85,-7.36,0.57,0.55,0.53
23.69,12.43,11.89,12.40,11.85,-11.85,-11.80,-7.56,0.58,0.55,0.54
23.92,12.38,11.84,12.35,11.80,-11.80,-11.74,-7.75,0.58,0.55,0.54
24.16,12.31,11.76,12.30,11.75,-11.75,-11.68,-7.96,0.56,0.55,0.55
24.40,12.23,11.67,12.24,11.69,-11.69,-11.62,-8.16,0.54,0.55,0.56
24.65,12.15,11.60,12.17,11.62,-11.62,-11.56,-8.37,0.53,0.55,0.55
24.89,12.07,11.52,12.10,11.55,-11.55,-11.49,-8.59,0.52,0.55,0.55
25.14,12.00,11.45,12.02,11.47,-11.47,-11.43,-8.81,0.53,0.55,0.55
25.39,11.94,11.38,11.94,11.39,-11.39,-11.37,-9.03,0.55,0.55,0.56
25.65,11.88,11.32,11.86,11.31,-11.31,-11.30,-9.25,0.58,0.56,0.56
25.91,11.82,11.27,11.78,11.23,-11.23,-11.23,-9.48,0.60,0.55,0.55
26.16,11.73,11.18,11.70,11.14,-11.14,-11.17,-9.71,0.59,0.55,0.55
26.43,11.62,11.08,11.62,11.06,-11.06,-11.10,-9.94,0.56,0.55,0.55
26.69,11.52,10.98,11.53,10.98,-10.98,-11.03,-10.18,0.54,0.55,0.55
26.96,11.41,10.86,11.45,10.90,-10.90,-10.96,-10.41,0.51,0.55,0.56
27.23,11.33,10.78,11.37,10.82,-10.82,-10.89,-10.64,0.51,0.55,0.56
27.50,11.26,10.71,11.29,10.74,-10.74,-10.82,-10.87,0.52,0.55,0.55
27.77,11.20,10.66,11.20,10.66,-10.66,-10.75,-11.10,0.54,0.55,0.54
28.05,11.12,10.58,11.12,10.57,-10.57,-10.68,-11.31,0.55,0.54,0.54
28.33,11.04,10.51,11.03,10.49,-10.49,-10.61,-11.53,0.55,0.54,0.53
28.62,10.96,10.43,10.95,10.41,-10.41,-10.54,-11.73,0.56,0.54,0.53
28.90,10.88,10.34,10.86,10.32,-10.32,-10.47,-11.92,0.56,0.54,0.54
29.19,10.79,10.26,10.78,10.24,-10.24,-10.39,-12.09,0.55,0.54,0.53
29.48,10.70,10.15,10.70,10.16,-10.16,-10.32,-12.25,0.54,0.54,0.55
29.78,10.62,10.08,10.62,10.08,-10.08,-10.25,-12.39,0.54,0.54,0.54
30.08,10.53,9.99,10.54,10.00,-10.00,-10.17,-12.51,0.53,0.54,0.55
30.38,10.44,9.91,10.45,9.91,-9.91,-10.10,-12.61,0.53,0.54,0.54
30.68,10.35,9.82,10.36,9.82,-9.82,-10.02,-12.68,0.53,0.54,0.53
30.99,10.25,9.72,10.27,9.73,-9.73,-9.95,-12.73,0.52,0.53,0.53
31.30,10.18,9.65,10.18,9.65,-9.65,-9.87,-12.75,0.54,0.53,0.53
31.61,10.10,9.57,10.09,9.56,-9.56,-9.80,-12.74,0.54,0.53,0.53
31.93,10.02,9.49,10.00,9.47,-9.47,-9.72,-12.71,0.55,0.53,0.53
32.24,9.93,9.41,9.91,9.39,-9.39,-9.65,-12.66,0.54,0.53,0.52
32.57,9.83,9.31,9.83,9.31,-9.31,-9.57,-12.58,0.52,0.52,0.53
32.89,9.74,9.22,9.75,9.23,-9.23,-9.50,-12.47,0.51,0.52,0.53
33.22,9.65,9.14,9.67,9.16,-9.16,-9.42,-12.35,0.49,0.51,0.51
33.55,9.57,9.06,9.60,9.09,-9.09,-9.35,-12.21,0.48,0.51,0.51
33.89,9.49,8.99,9.53,9.02,-9.02,-9.27,-12.06,0.47,0.51,0.50
34.23,9.42,8.91,9.45,8.95,-8.95,-9.19,-11.89,0.47,0.50,0.51
34.57,9.36,8.86,9.38,8.88,-8.88,-9.12,-11.71,0.48,0.50,0.50
34.92,9.29,8.80,9.30,8.80,-8.80,-9.04,-11.53,0.49,0.50,0.50
35.27,9.24,8.75,9.22,8.73,-8.73,-8.97,-11.34,0.52,0.50,0.49
35.62,9.19,8.70,9.14,8.65,-8.65,-8.89,-11.14,0.54,0.49,0.49
35.97,9.13,8.64,9.07,8.57,-8.57,-8.81,-10.94,0.56,0.49,0.49
36.33,9.04,8.54,8.99,8.50,-8.50,-8.74,-10.74,0.54,0.49,0.50
36.70,8.95,8.47,8.92,8.42,-8.42,-8.66,-10.53,0.53,0.49,0.49
37.06,8.85,8.37,8.84,8.35,-8.35,-8.59,-10.33,0.50,0.49,0.48
37.43,8.73,8.23,8.77,8.27,-8.27,-8.51,-10.13,0.46,0.50,0.50
37.81,8.62,8.12,8.69,8.19,-8.19,-8.44,-9.94,0.43,0.50,0.50
38.19,8.54,8.05,8.62,8.12,-8.12,-8.36,-9.74,0.43,0.50,0.50
38.57,8.50,8.00,8.54,8.04,-8.04,-8.28,-9.55,0.46,0.50,0.50
38.95,8.45,7.94,8.47,7.97,-7.97,-8.21,-9.37,0.48,0.50,0.51
39.34,8.40,7.90,8.40,7.89,-7.89,-8.13,-9.18,0.51,0.50,0.51
39.74,8.35,7.85,8.33,7.82,-7.82,-8.06,-9.01,0.53,0.51,0.50
40.14,8.28,7.77,8.25,7.74,-7.74,-7.98,-8.84,0.54,0.51,0.51
40.54,8.21,7.71,8.18,7.67,-7.67,-7.91,-8.67,0.54,0.51,0.51
40.94,8.13,7.63,8.10,7.60,-7.60,-7.84,-8.51,0.53,0.51,0.50
41.35,8.06,7.56,8.03,7.53,-7.53,-7.76,-8.35,0.53,0.50,0.50
41.76,8.00,7.51,7.97,7.47,-7.47,-7.69,-8.20,0.53,0.50,0.50
42.18,7.92,7.42,7.90,7.41,-7.41,-7.61,-8.05,0.51,0.49,0.50
42.60,7.82,7.33,7.83,7.35,-7.35,-7.54,-7.91,0.47,0.48,0.49
43.03,7.72,7.24,7.75,7.28,-7.28,-7.47,-7.78,0.44,0.47,0.48
43.46,7.62,7.14,7.68,7.21,-7.21,-7.39,-7.65,0.41,0.46,0.48
43.90,7.52,7.07,7.60,7.15,-7.15,-7.32,-7.53,0.38,0.46,0.46
44.33,7.49,7.05,7.53,7.09,-7.09,-7.25,-7.41,0.41,0.45,0.44
44.78,7.48,7.06,7.47,7.03,-7.03,-7.18,-7.30,0.45,0.44,0.43
45.23,7.45,7.03,7.40,6.98,-6.98,-7.10,-7.19,0.47,0.43,0.42
45.68,7.40,7.00,7.34,6.92,-6.92,-7.03,-7.09,0.48,0.41,0.40
46.13,7.32,6.93,7.27,6.87,-6.87,-6.96,-6.99,0.45,0.40,0.39
46.60,7.20,6.81,7.21,6.82,-6.82,-6.89,-6.90,0.38,0.39,0.39
47.06,7.10,6.72,7.15,6.77,-6.77,-6.82,-6.81,0.33,0.38,0.38
47.53,7.06,6.69,7.10,6.73,-6.73,-6.75,-6.72,0.33,0.37,0.37
48.01,7.02,6.65,7.04,6.68,-6.68,-6.68,-6.64,0.34,0.36,0.38
48.49,6.99,6.63,6.97,6.63,-6.63,-6.61,-6.57,0.37,0.35,0.36
48.97,6.96,6.62,6.91,6.57,-6.57,-6.54,-6.50,0.39,0.34,0.34
49.46,6.84,6.52,6.84,6.51,-6.51,-6.47,-6.43,0.33,0.33,0.32
49.96,6.71,6.41,6.78,6.46,-6.46,-6.40,-6.37,0.26,0.32,0.31
50.46,6.69,6.38,6.71,6.40,-6.40,-6.33,-6.31,0.29,0.31,0.31
50.96,6.68,6.38,6.64,6.34,-6.34,-6.26,-6.25,0.34,0.30,0.30
51.47,6.61,6.33,6.58,6.29,-6.29,-6.19,-6.19,0.33,0.29,0.28
51.99,6.53,6.26,6.52,6.24,-6.24,-6.12,-6.14,0.30,0.29,0.28
52.51,6.44,6.17,6.45,6.17,-6.17,-6.06,-6.09,0.27,0.28,0.28
53.03,6.36,6.08,6.38,6.11,-6.11,-5.99,-6.05,0.25,0.27,0.28
53.56,6.31,6.04,6.31,6.05,-6.05,-5.92,-6.00,0.26,0.26,0.27
54.10,6.27,6.01,6.25,5.99,-5.99,-5.85,-5.96,0.28,0.26,0.26
54.64,6.18,5.93,6.18,5.93,-5.93,-5.79,-5.92,0.25,0.25,0.25
55.18,6.10,5.85,6.12,5.87,-5.87,-5.72,-5.88,0.23,0.25,0.25
55.74,6.00,5.77,6.06,5.82,-5.82,-5.66,-5.84,0.19,0.24,0.24
56.29,5.95,5.72,5.99,5.75,-5.75,-5.59,-5.80,0.20,0.23,0.24
56.86,5.96,5.74,5.91,5.69,-5.69,-5.53,-5.75,0.27,0.23,0.22
57.42,5.86,5.66,5.85,5.63,-5.63,-5.46,-5.71,0.23,0.22,0.20
58.00,5.72,5.52,5.77,5.57,-5.57,-5.40,-5.67,0.15,0.20,0.20
58.58,5.74,5.55,5.70,5.51,-5.51,-5.33,-5.63,0.23,0.19,0.20
59.16,5.71,5.53,5.63,5.46,-5.46,-5.27,-5.59,0.25,0.17,0.18
59.76,5.57,5.40,5.55,5.40,-5.40,-5.21,-5.54,0.17,0.15,0.17
60.35,5.47,5.34,5.48,5.35,-5.35,-5.15,-5.49,0.12,0.13,0.14
60.96,5.40,5.29,5.41,5.31,-5.31,-5.08,-5.44,0.10,0.10,0.11
61.57,5.30,5.23,5.33,5.26,-5.26,-5.02,-5.39,0.04,0.07,0.08
62.18,5.21,5.17,5.26,5.21,-5.21,-4.96,-5.34,-0.00,0.04,0.04
62.80,5.15,5.15,5.17,5.16,-5.16,-4.90,-5.28,-0.01,0.01,0.01
63.43,5.07,5.10,5.09,5.11,-5.11,-4.84,-5.22,-0.04,-0.02,-0.03
64.07,5.00,5.07,5.01,5.07,-5.07,-4.78,-5.16,-0.07,-0.06,-0.07
64.71,4.96,5.07,4.93,5.03,-5.03,-4.72,-5.10,-0.07,-0.10,-0.11
65.35,4.89,5.03,4.86,4.99,-4.99,-4.66,-5.04,-0.10,-0.13,-0.13
66.01,4.80,4.97,4.77,4.95,-4.95,-4.60,-4.97,-0.14,-0.17,-0.17
66.67,4.69,4.90,4.70,4.91,-4.91,-4.54,-4.90,-0.21,-0.21,-0.21
67.33,4.61,4.86,4.62,4.87,-4.87,-4.48,-4.83,-0.26,-0.25,-0.25
68.01,4.55,4.83,4.55,4.83,-4.83,-4.43,-4.75,-0.28,-0.29,-0.28
68.69,4.44,4.76,4.47,4.80,-4.80,-4.37,-4.68,-0.36,-0.32,-0.32
69.37,4.36,4.72,4.39,4.76,-4.76,-4.31,-4.60,-0.40,-0.36,-0.36
70.07,4.31,4.72,4.31,4.72,-4.72,-4.26,-4.53,-0.41,-0.41,-0.40
70.77,4.26,4.70,4.23,4.68,-4.68,-4.20,-4.45,-0.42,-0.45,-0.44
71.48,4.17,4.65,4.14,4.63,-4.63,-4.14,-4.37,-0.46,-0.49,-0.48
72.19,4.05,4.59,4.06,4.59,-4.59,-4.09,-4.30,-0.54,-0.54,-0.53
72.91,3.92,4.50,3.98,4.56,-4.56,-4.03,-4.22,-0.64,-0.58,-0.58
73.64,3.93,4.55,3.90,4.53,-4.53,-3.98,-4.14,-0.59,-0.62,-0.62
74.38,3.88,4.55,3.82,4.49,-4.49,-3.93,-4.06,-0.61,-0.67,-0.67
75.12,3.75,4.47,3.74,4.45,-4.45,-3.87,-3.99,-0.69,-0.71,-0.71
75.87,3.60,4.36,3.65,4.40,-4.40,-3.82,-3.91,-0.80,-0.75,-0.76
76.63,3.53,4.33,3.56,4.36,-4.36,-3.77,-3.83,-0.82,-0.79,-0.80
77.40,3.46,4.30,3.48,4.31,-4.31,-3.72,-3.76,-0.85,-0.83,-0.84
78.17,3.38,4.27,3.39,4.26,-4.26,-3.66,-3.69,-0.88,-0.87,-0.88
78.95,3.31,4.22,3.30,4.21,-4.21,-3.61,-3.62,-0.90,-0.91,-0.90
79.74,3.30,4.24,3.22,4.17,-4.17,-3.56,-3.55,-0.86,-0.94,-0.94
80.54,3.18,4.15,3.15,4.12,-4.12,-3.51,-3.48,-0.94,-0.98,-0.97
81.35,3.02,4.04,3.06,4.07,-4.07,-3.46,-3.41,-1.05,-1.01,-1.01
82.16,2.90,3.95,2.98,4.02,-4.02,-3.41,-3.35,-1.12,-1.04,-1.04
82.98,2.86,3.93,2.89,3.97,-3.97,-3.36,-3.29,-1.11,-1.07,-1.07
83.81,2.81,3.92,2.82,3.92,-3.92,-3.31,-3.23,-1.11,-1.11,-1.11
84.65,2.73,3.87,2.74,3.87,-3.87,-3.27,-3.17,-1.14,-1.14,-1.14
85.50,2.67,3.84,2.65,3.82,-3.82,-3.22,-3.11,-1.15,-1.17,-1.17
86.35,2.59,3.79,2.56,3.77,-3.77,-3.17,-3.06,-1.18,-1.20,-1.20
87.22,2.51,3.75,2.48,3.72,-3.72,-3.12,-3.01,-1.20,-1.24,-1.23
88.09,2.43,3.70,2.39,3.66,-3.66,-3.08,-2.96,-1.23,-1.27,-1.27
88.97,2.31,3.62,2.30,3.61,-3.61,-3.03,-2.91,-1.29,-1.31,-1.30
89.86,2.18,3.52,2.22,3.56,-3.56,-2.99,-2.86,-1.37,-1.34,-1.34
90.76,2.12,3.50,2.14,3.51,-3.51,-2.94,-2.82,-1.39,-1.37,-1.38
91.66,2.04,3.44,2.05,3.46,-3.46,-2.89,-2.78,-1.41,-1.41,-1.40
92.58,1.94,3.39,1.96,3.40,-3.40,-2.85,-2.74,-1.46,-1.44,-1.45
93.51,1.85,3.33,1.87,3.34,-3.34,-2.81,-2.70,-1.49,-1.47,-1.48
94.44,1.78,3.29,1.78,3.29,-3.29,-2.76,-2.66,-1.50,-1.50,-1.50
95.39,1.70,3.23,1.69,3.23,-3.23,-2.72,-2.62,-1.52,-1.54,-1.53
96.34,1.59,3.16,1.60,3.17,-3.17,-2.68,-2.59,-1.58,-1.57,-1.57
97.30,1.48,3.08,1.51,3.11,-3.11,-2.63,-2.56,-1.63,-1.60,-1.60
98.28,1.43,3.06,1.42,3.05,-3.05,-2.59,-2.53,-1.62,-1.63,-1.63
99.26,1.37,3.03,1.34,2.99,-2.99,-2.55,-2.50,-1.62,-1.66,-1.66
100.25,1.28,2.97,1.25,2.93,-2.93,-2.51,-2.47,-1.65,-1.69,-1.69
101.25,1.16,2.88,1.15,2.86,-2.86,-2.47,-2.45,-1.70,-1.72,-1.71
102.27,1.05,2.80,1.05,2.79,-2.79,-2.43,-2.42,-1.74,-1.75,-1.74
103.29,0.93,2.72,0.94,2.72,-2.72,-2.39,-2.40,-1.79,-1.78,-1.78
104.32,0.82,2.62,0.84,2.65,-2.65,-2.35,-2.38,-1.83,-1.81,-1.80
105.37,0.74,2.57,0.74,2.57,-2.57,-2.31,-2.36,-1.83,-1.84,-1.83
106.42,0.67,2.53,0.63,2.50,-2.50,-2.27,-2.34,-1.83,-1.87,-1.86
107.48,0.55,2.45,0.53,2.43,-2.43,-2.23,-2.32,-1.88,-1.91,-1.90
108.56,0.41,2.35,0.43,2.37,-2.37,-2.20,-2.30,-1.95,-1.94,-1.94
109.64,0.32,2.29,0.32,2.29,-2.29,-2.16,-2.28,-1.97,-1.97,-1.97
110.74,0.16,2.17,0.22,2.23,-2.23,-2.12,-2.26,-2.07,-2.01,-2.01
111.85,0.08,2.11,0.13,2.17,-2.17,-2.09,-2.24,-2.08,-2.04,-2.03
112.97,0.02,2.10,0.03,2.10,-2.10,-2.05,-2.22,-2.08,-2.07,-2.08
114.10,-0.04,2.07,-0.05,2.05,-2.05,-2.01,-2.20,-2.09,-2.10,-2.10
115.24,-0.10,2.03,-0.13,2.00,-2.00,-1.98,-2.18,-2.10,-2.13,-2.13
116.39,-0.24,1.93,-0.20,1.95,-1.95,-1.94,-2.16,-2.19,-2.16,-2.17
117.55,-0.29,1.90,-0.28,1.90,-1.90,-1.91,-2.14,-2.19,-2.18,-2.19
118.73,-0.28,1.94,-0.35,1.86,-1.86,-1.87,-2.12,-2.13,-2.20,-2.22
119.92,-0.43,1.80,-0.41,1.82,-1.82,-1.84,-2.10,-2.24,-2.22,-2.22
121.12,-0.55,1.70,-0.47,1.77,-1.77,-1.81,-2.07,-2.32,-2.24,-2.25
122.33,-0.55,1.72,-0.53,1.73,-1.73,-1.77,-2.05,-2.28,-2.26,-2.27
123.55,-0.59,1.68,-0.60,1.68,-1.68,-1.74,-2.02,-2.27,-2.28,-2.27
124.79,-0.64,1.65,-0.66,1.63,-1.63,-1.71,-2.00,-2.27,-2.29,-2.29
126.03,-0.62,1.68,-0.72,1.58,-1.58,-1.67,-1.97,-2.20,-2.30,-2.30
127.29,-0.77,1.54,-0.78,1.53,-1.53,-1.64,-1.94,-2.30,-2.32,-2.31
128.57,-0.88,1.45,-0.84,1.49,-1.49,-1.61,-1.91,-2.37,-2.33,-2.33
129.85,-0.93,1.42,-0.90,1.45,-1.45,-1.58,-1.88,-2.38,-2.34,-2.34
131.15,-0.92,1.44,-0.96,1.40,-1.40,-1.55,-1.85,-2.32,-2.36,-2.36
132.46,-1.05,1.32,-1.02,1.35,-1.35,-1.52,-1.82,-2.40,-2.37,-2.37
133.79,-1.12,1.26,-1.08,1.30,-1.30,-1.49,-1.78,-2.42,-2.38,-2.38
135.12,-1.19,1.22,-1.14,1.25,-1.25,-1.46,-1.75,-2.44,-2.39,-2.40
136.48,-1.18,1.23,-1.20,1.20,-1.20,-1.43,-1.71,-2.38,-2.40,-2.40
137.84,-1.18,1.25,-1.27,1.15,-1.15,-1.40,-1.67,-2.33,-2.42,-2.42
139.22,-1.31,1.14,-1.32,1.11,-1.11,-1.37,-1.64,-2.42,-2.43,-2.44
140.61,-1.40,1.07,-1.38,1.07,-1.07,-1.34,-1.60,-2.47,-2.45,-2.46
142.02,-1.38,1.08,-1.43,1.04,-1.04,-1.31,-1.56,-2.42,-2.46,-2.46
143.44,-1.51,0.97,-1.48,1.01,-1.01,-1.28,-1.52,-2.51,-2.48,-2.48
144.87,-1.60,0.91,-1.53,0.98,-0.98,-1.25,-1.48,-2.58,-2.51,-2.51
146.32,-1.59,0.95,-1.57,0.97,-0.97,-1.23,-1.44,-2.55,-2.54,-2.53
147.78,-1.63,0.92,-1.62,0.96,-0.96,-1.20,-1.40,-2.59,-2.58,-2.55
149.26,-1.68,0.91,-1.66,0.95,-0.95,-1.17,-1.36,-2.63,-2.62,-2.59
150.75,-1.70,0.94,-1.71,0.95,-0.95,-1.14,-1.32,-2.65,-2.66,-2.64
152.26,-1.72,0.98,-1.76,0.95,-0.95,-1.12,-1.28,-2.67,-2.71,-2.69
153.78,-1.78,0.97,-1.80,0.97,-0.97,-1.09,-1.24,-2.75,-2.77,-2.75
155.32,-1.84,0.97,-1.83,0.99,-0.99,-1.06,-1.20,-2.83,-2.82,-2.81
156.88,-1.90,0.98,-1.87,1.02,-1.02,-1.04,-1.16,-2.92,-2.88,-2.87
158.44,-1.90,1.05,-1.90,1.04,-1.04,-1.01,-1.13,-2.94,-2.94,-2.95
160.03,-1.89,1.13,-1.94,1.06,-1.06,-0.99,-1.09,-2.95,-3.00,-3.02
161.63,-1.99,1.09,-1.98,1.08,-1.08,-0.96,-1.05,-3.07,-3.05,-3.08
163.24,-2.07,1.06,-2.02,1.08,-1.08,-0.94,-1.01,-3.15,-3.11,-3.13
164.88,-2.10,1.07,-2.07,1.08,-1.08,-0.91,-0.97,-3.18,-3.15,-3.17
166.53,-2.11,1.10,-2.12,1.07,-1.07,-0.89,-0.94,-3.18,-3.19,-3.21
168.19,-2.11,1.13,-2.16,1.06,-1.06,-0.86,-0.90,-3.17,-3.22,-3.24
169.87,-2.15,1.12,-2.20,1.04,-1.04,-0.84,-0.86,-3.19,-3.24,-3.26
171.57,-2.22,1.05,-2.25,1.01,-1.01,-0.81,-0.83,-3.23,-3.26,-3.27
173.29,-2.30,0.98,-2.30,0.97,-0.97,-0.79,-0.79,-3.27,-3.27,-3.28
175.02,-2.37,0.91,-2.34,0.94,-0.94,-0.76,-0.76,-3.30,-3.27,-3.28
176.77,-2.45,0.83,-2.39,0.89,-0.89,-0.74,-0.73,-3.34,-3.28,-3.28
178.54,-2.44,0.84,-2.43,0.84,-0.84,-0.72,-0.69,-3.28,-3.27,-3.28
180.32,-2.50,0.76,-2.47,0.80,-0.80,-0.69,-0.66,-3.30,-3.27,-3.26
182.13,-2.53,0.72,-2.52,0.76,-0.76,-0.67,-0.63,-3.28,-3.27,-3.25
183.95,-2.53,0.72,-2.56,0.71,-0.71,-0.65,-0.59,-3.23,-3.27,-3.25
185.79,-2.57,0.68,-2.61,0.66,-0.66,-0.62,-0.56,-3.23,-3.27,-3.25
187.65,-2.68,0.58,-2.65,0.62,-0.62,-0.60,-0.53,-3.30,-3.27,-3.26
189.52,-2.69,0.57,-2.68,0.59,-0.59,-0.58,-0.50,-3.28,-3.27,-3.26
191.42,-2.68,0.60,-2.71,0.57,-0.57,-0.55,-0.47,-3.25,-3.28,-3.27
193.33,-2.73,0.56,-2.74,0.55,-0.55,-0.53,-0.44,-3.27,-3.29,-3.29
195.27,-2.81,0.49,-2.78,0.52,-0.52,-0.51,-0.41,-3.33,-3.30,-3.30
197.22,-2.83,0.48,-2.81,0.50,-0.50,-0.48,-0.38,-3.32,-3.31,-3.31
199.19,-2.85,0.48,-2.85,0.47,-0.47,-0.46,-0.35,-3.32,-3.32,-3.33
201.18,-2.89,0.45,-2.88,0.46,-0.46,-0.44,-0.32,-3.34,-3.34,-3.34
203.19,-2.91,0.44,-2.91,0.44,-0.44,-0.41,-0.29,-3.35,-3.35,-3.35
205.23,-2.91,0.46,-2.94,0.42,-0.42,-0.39,-0.27,-3.33,-3.37,-3.37
207.28,-2.95,0.42,-2.98,0.41,-0.41,-0.37,-0.24,-3.35,-3.38,-3.37
209.35,-3.01,0.38,-3.01,0.39,-0.39,-0.34,-0.21,-3.39,-3.40,-3.39
211.44,-3.09,0.33,-3.05,0.36,-0.36,-0.32,-0.18,-3.45,-3.41,-3.42
213.56,-3.12,0.30,-3.09,0.33,-0.33,-0.30,-0.16,-3.45,-3.42,-3.42
215.69,-3.12,0.31,-3.12,0.31,-0.31,-0.28,-0.13,-3.43,-3.43,-3.43
217.85,-3.12,0.32,-3.15,0.28,-0.28,-0.25,-0.10,-3.40,-3.43,-3.43
220.03,-3.13,0.31,-3.18,0.26,-0.26,-0.23,-0.08,-3.39,-3.44,-3.44
222.23,-3.13,0.33,-3.21,0.24,-0.24,-0.21,-0.05,-3.36,-3.44,-3.46
224.45,-3.26,0.19,-3.23,0.21,-0.21,-0.18,-0.03,-3.47,-3.44,-3.45
226.70,-3.33,0.11,-3.24,0.19,-0.19,-0.16,-0.00,-3.52,-3.44,-3.44
228.96,-3.33,0.10,-3.26,0.17,-0.17,-0.14,0.02,-3.49,-3.43,-3.43
231.25,-3.32,0.10,-3.27,0.14,-0.14,-0.11,0.05,-3.46,-3.42,-3.42
233.57,-3.31,0.09,-3.28,0.12,-0.12,-0.09,0.07,-3.43,-3.40,-3.40
235.90,-3.30,0.09,-3.28,0.10,-0.10,-0.06,0.10,-3.40,-3.38,-3.39
238.26,-3.28,0.10,-3.29,0.07,-0.07,-0.04,0.12,-3.35,-3.36,-3.37
240.64,-3.26,0.09,-3.30,0.04,-0.04,-0.02,0.15,-3.30,-3.34,-3.35
243.05,-3.25,0.07,-3.31,0.01,-0.01,0.01,0.17,-3.25,-3.32,-3.31
245.48,-3.29,0.00,-3.32,-0.03,0.03,0.03,0.19,-3.26,-3.29,-3.29
247.93,-3.30,-0.04,-3.32,-0.06,0.06,0.06,0.22,-3.24,-3.27,-3.25
250.41,-3.31,-0.07,-3.33,-0.08,0.08,0.08,0.24,-3.22,-3.24,-3.24
252.92,-3.37,-0.16,-3.33,-0.12,0.12,0.11,0.26,-3.25,-3.21,-3.20
255.45,-3.36,-0.18,-3.34,-0.16,0.16,0.14,0.28,-3.20,-3.19,-3.18
258.00,-3.35,-0.20,-3.36,-0.20,0.20,0.16,0.31,-3.15,-3.16,-3.15
260.58,-3.38,-0.24,-3.38,-0.24,0.24,0.19,0.33,-3.13,-3.13,-3.14
263.19,-3.43,-0.33,-3.40,-0.29,0.29,0.22,0.35,-3.14,-3.11,-3.10
265.82,-3.45,-0.36,-3.42,-0.34,0.34,0.24,0.37,-3.11,-3.08,-3.08
268.48,-3.45,-0.39,-3.44,-0.38,0.38,0.27,0.40,-3.06,-3.05,-3.06
271.16,-3.45,-0.43,-3.45,-0.43,0.43,0.30,0.42,-3.02,-3.02,-3.02
273.87,-3.45,-0.44,-3.47,-0.47,0.47,0.33,0.44,-2.97,-3.00,-3.00
276.61,-3.46,-0.49,-3.49,-0.52,0.52,0.35,0.47,-2.94,-2.97,-2.97
279.38,-3.48,-0.54,-3.51,-0.57,0.57,0.38,0.49,-2.91,-2.94,-2.94
282.17,-3.55,-0.63,-3.53,-0.61,0.61,0.41,0.51,-2.93,-2.91,-2.91
284.99,-3.54,-0.66,-3.55,-0.66,0.66,0.44,0.54,-2.87,-2.88,-2.88
287.84,-3.57,-0.71,-3.57,-0.72,0.72,0.47,0.56,-2.85,-2.85,-2.86
290.72,-3.62,-0.80,-3.58,-0.76,0.76,0.50,0.59,-2.86,-2.82,-2.82
293.63,-3.62,-0.82,-3.60,-0.81,0.81,0.54,0.61,-2.81,-2.79,-2.80
296.57,-3.60,-0.84,-3.62,-0.86,0.86,0.57,0.64,-2.74,-2.76,-2.76
299.53,-3.68,-0.95,-3.65,-0.92,0.92,0.60,0.66,-2.76,-2.73,-2.73
302.53,-3.70,-0.99,-3.66,-0.96,0.96,0.63,0.69,-2.74,-2.70,-2.71
305.55,-3.67,-1.00,-3.68,-1.01,1.01,0.67,0.72,-2.66,-2.68,-2.66
308.61,-3.66,-1.01,-3.70,-1.05,1.05,0.70,0.74,-2.60,-2.65,-2.65
311.69,-3.73,-1.11,-3.73,-1.10,1.10,0.73,0.77,-2.62,-2.63,-2.62
314.81,-3.77,-1.18,-3.75,-1.15,1.15,0.77,0.80,-2.62,-2.60,-2.59
317.96,-3.76,-1.19,-3.78,-1.20,1.20,0.80,0.83,-2.56,-2.58,-2.57
321.14,-3.77,-1.20,-3.80,-1.24,1.24,0.84,0.87,-2.52,-2.56,-2.56
324.35,-3.88,-1.33,-3.84,-1.29,1.29,0.88,0.90,-2.58,-2.54,-2.55
327.59,-3.91,-1.38,-3.88,-1.35,1.35,0.91,0.93,-2.56,-2.53,-2.53
330.87,-3.84,-1.32,-3.91,-1.40,1.40,0.95,0.96,-2.44,-2.51,-2.52
334.18,-3.85,-1.35,-3.95,-1.45,1.45,0.99,1.00,-2.40,-2.50,-2.50
337.52,-4.04,-1.55,-3.99,-1.50,1.50,1.03,1.04,-2.54,-2.49,-2.49
340.90,-4.07,-1.59,-4.02,-1.54,1.54,1.07,1.07,-2.53,-2.48,-2.47
344.30,-4.06,-1.59,-4.05,-1.58,1.58,1.11,1.11,-2.48,-2.47,-2.47
347.75,-4.06,-1.59,-4.08,-1.61,1.61,1.15,1.15,-2.45,-2.47,-2.47
351.23,-4.08,-1.62,-4.10,-1.64,1.64,1.19,1.19,-2.44,-2.46,-2.46
354.74,-4.19,-1.73,-4.12,-1.66,1.66,1.23,1.23,-2.53,-2.46,-2.46
358.28,-4.21,-1.76,-4.13,-1.68,1.68,1.27,1.27,-2.53,-2.45,-2.45
361.87,-4.16,-1.71,-4.13,-1.68,1.68,1.31,1.32,-2.47,-2.45,-2.45
365.49,-4.14,-1.70,-4.14,-1.69,1.69,1.36,1.36,-2.45,-2.45,-2.44
369.14,-4.13,-1.67,-4.13,-1.69,1.69,1.40,1.41,-2.44,-2.45,-2.45
372.83,-4.12,-1.66,-4.13,-1.68,1.68,1.44,1.45,-2.44,-2.45,-2.45
376.56,-4.12,-1.66,-4.12,-1.67,1.67,1.49,1.50,-2.45,-2.45,-2.46
380.33,-4.11,-1.66,-4.12,-1.67,1.67,1.53,1.55,-2.44,-2.45,-2.45
384.13,-4.10,-1.65,-4.12,-1.67,1.67,1.57,1.60,-2.43,-2.46,-2.45
387.97,-4.10,-1.64,-4.12,-1.66,1.66,1.61,1.65,-2.43,-2.46,-2.46
391.85,-4.09,-1.62,-4.12,-1.65,1.65,1.66,1.70,-2.43,-2.46,-2.47
395.77,-4.09,-1.63,-4.12,-1.65,1.65,1.70,1.75,-2.44,-2.47,-2.46
399.73,-4.09,-1.62,-4.13,-1.66,1.66,1.74,1.80,-2.43,-2.48,-2.47
403.72,-4.10,-1.63,-4.15,-1.67,1.67,1.78,1.85,-2.43,-2.48,-2.47
407.76,-4.18,-1.70,-4.17,-1.69,1.69,1.82,1.90,-2.49,-2.48,-2.48
411.84,-4.27,-1.79,-4.18,-1.70,1.70,1.86,1.96,-2.57,-2.49,-2.48
415.96,-4.24,-1.75,-4.19,-1.70,1.70,1.90,2.01,-2.53,-2.49,-2.48
420.12,-4.20,-1.71,-4.21,-1.72,1.72,1.94,2.06,-2.48,-2.48,-2.48
424.32,-4.20,-1.71,-4.22,-1.74,1.74,1.98,2.11,-2.46,-2.48,-2.48
428.56,-4.19,-1.71,-4.23,-1.76,1.76,2.01,2.16,-2.43,-2.47,-2.47
432.85,-4.20,-1.73,-4.22,-1.77,1.77,2.04,2.20,-2.43,-2.45,-2.47
437.18,-4.33,-1.87,-4.21,-1.78,1.78,2.08,2.25,-2.55,-2.43,-2.46
441.55,-4.28,-1.86,-4.20,-1.79,1.79,2.11,2.29,-2.49,-2.41,-2.42
445.96,-4.18,-1.79,-4.18,-1.81,1.81,2.13,2.33,-2.37,-2.37,-2.39
450.42,-4.12,-1.76,-4.16,-1.82,1.82,2.16,2.37,-2.30,-2.34,-2.36
454.93,-4.06,-1.75,-4.13,-1.83,1.83,2.18,2.41,-2.23,-2.30,-2.31
