frequency,raw
20.00,-18.71
20.20,-18.54
20.40,-18.37
20.61,-18.20
20.81,-18.03
21.02,-17.86
21.23,-17.69
21.44,-17.53
21.66,-17.36
21.87,-17.19
22.09,-17.02
22.31,-16.85
22.54,-16.67
22.76,-16.50
22.99,-16.33
23.22,-16.16
23.45,-15.99
23.69,-15.82
23.92,-15.65
24.16,-15.47
24.40,-15.30
24.65,-15.13
24.89,-14.95
25.14,-14.78
25.39,-14.61
25.65,-14.44
25.91,-14.27
26.16,-14.10
26.43,-13.93
26.69,-13.76
26.96,-13.59
27.23,-13.42
27.50,-13.25
27.77,-13.09
28.05,-12.92
28.33,-12.76
28.62,-12.59
28.90,-12.43
29.19,-12.26
29.48,-12.10
29.78,-11.94
30.08,-11.78
30.38,-11.64
30.68,-11.50
30.99,-11.36
31.30,-11.21
31.61,-11.06
31.93,-10.91
32.24,-10.77
32.57,-10.62
32.89,-10.48
33.22,-10.33
33.55,-10.18
33.89,-10.04
34.23,-9.90
34.57,-9.75
34.92,-9.61
35.27,-9.48
35.62,-9.34
35.97,-9.21
36.33,-9.08
36.70,-8.94
37.06,-8.81
37.43,-8.67
37.81,-8.53
38.19,-8.40
38.57,-8.27
38.95,-8.14
39.34,-8.00
39.74,-7.87
40.14,-7.73
40.54,-7.60
40.94,-7.47
41.35,-7.34
41.76,-7.21
42.18,-7.08
42.60,-6.96
43.03,-6.83
43.46,-6.71
43.90,-6.60
44.33,-6.48
44.78,-6.35
45.23,-6.23
45.68,-6.11
46.13,-6.00
46.60,-5.88
47.06,-5.77
47.53,-5.66
48.01,-5.55
48.49,-5.45
48.97,-5.36
49.46,-5.25
49.96,-5.15
50.46,-5.06
50.96,-4.97
51.47,-4.87
51.99,-4.77
52.51,-4.68
53.03,-4.60
53.56,-4.51
54.10,-4.43
54.64,-4.36
55.18,-4.29
55.74,-4.21
56.29,-4.14
56.86,-4.07
57.42,-4.00
58.00,-3.93
58.58,-3.87
59.16,-3.80
59.76,-3.74
60.35,-3.67
60.96,-3.61
61.57,-3.55
62.18,-3.48
62.80,-3.40
63.43,-3.33
64.07,-3.25
64.71,-3.17
65.35,-3.11
66.01,-3.05
66.67,-2.98
67.33,-2.91
68.01,-2.84
68.69,-2.78
69.37,-2.72
70.07,-2.65
70.77,-2.59
71.48,-2.53
72.19,-2.46
72.91,-2.40
73.64,-2.33
74.38,-2.28
75.12,-2.23
75.87,-2.18
76.63,-2.13
77.40,-2.07
78.17,-2.02
78.95,-1.96
79.74,-1.91
80.54,-1.85
81.35,-1.80
82.16,-1.74
82.98,-1.70
83.81,-1.65
84.65,-1.61
85.50,-1.58
86.35,-1.54
87.22,-1.49
88.09,-1.45
88.97,-1.41
89.86,-1.38
90.76,-1.33
91.66,-1.29
92.58,-1.25
93.51,-1.22
94.44,-1.20
95.39,-1.18
96.34,-1.15
97.30,-1.13
98.28,-1.11
99.26,-1.10
100.25,-1.10
101.25,-1.10
102.27,-1.11
103.29,-1.12
104.32,-1.12
105.37,-1.12
106.42,-1.12
107.48,-1.12
108.56,-1.12
109.64,-1.12
110.74,-1.12
111.85,-1.12
112.97,-1.12
114.10,-1.12
115.24,-1.12
116.39,-1.12
117.55,-1.12
118.73,-1.12
119.92,-1.12
121.12,-1.12
122.33,-1.12
123.55,-1.12
124.79,-1.12
126.03,-1.12
127.29,-1.12
128.57,-1.12
129.85,-1.12
131.15,-1.12
132.46,-1.12
133.79,-1.12
135.12,-1.12
136.48,-1.12
137.84,-1.12
139.22,-1.12
140.61,-1.12
142.02,-1.12
143.44,-1.12
144.87,-1.12
146.32,-1.12
147.78,-1.12
149.26,-1.12
150.75,-1.11
152.26,-1.10
153.78,-1.10
155.32,-1.11
156.88,-1.12
158.44,-1.13
160.03,-1.17
161.63,-1.19
163.24,-1.21
164.88,-1.26
166.53,-1.29
168.19,-1.32
169.87,-1.36
171.57,-1.38
173.29,-1.40
175.02,-1.42
176.77,-1.44
178.54,-1.46
180.32,-1.47
182.13,-1.49
183.95,-1.50
185.79,-1.53
187.65,-1.55
189.52,-1.58
191.42,-1.61
193.33,-1.63
195.27,-1.67
197.22,-1.70
199.19,-1.74
201.18,-1.78
203.19,-1.82
205.23,-1.86
207.28,-1.89
209.35,-1.91
211.44,-1.93
213.56,-1.96
215.69,-2.00
217.85,-2.06
220.03,-2.09
222.23,-2.13
224.45,-2.19
226.70,-2.23
228.96,-2.27
231.25,-2.29
233.57,-2.32
235.90,-2.35
238.26,-2.37
240.64,-2.40
243.05,-2.41
245.48,-2.43
247.93,-2.44
250.41,-2.42
252.92,-2.41
255.45,-2.40
258.00,-2.41
260.58,-2.43
263.19,-2.44
265.82,-2.48
268.48,-2.50
271.16,-2.53
273.87,-2.57
276.61,-2.60
279.38,-2.62
282.17,-2.64
284.99,-2.68
287.84,-2.72
290.72,-2.76
293.63,-2.80
296.57,-2.83
299.53,-2.86
302.53,-2.88
305.55,-2.90
308.61,-2.93
311.69,-2.97
314.81,-2.99
317.96,-3.01
321.14,-3.03
324.35,-3.05
327.59,-3.07
330.87,-3.08
334.18,-3.09
337.52,-3.11
340.90,-3.12
344.30,-3.15
347.75,-3.18
351.23,-3.21
354.74,-3.24
358.28,-3.28
361.87,-3.31
365.49,-3.34
369.14,-3.37
372.83,-3.38
376.56,-3.41
380.33,-3.42
384.13,-3.42
387.97,-3.41
391.85,-3.39
395.77,-3.37
399.73,-3.37
403.72,-3.38
407.76,-3.39
411.84,-3.40
415.96,-3.43
420.12,-3.46
424.32,-3.49
428.56,-3.53
432.85,-3.56
437.18,-3.59
441.55,-3.63
445.96,-3.65
450.42,-3.68
454.93,-3.70
459.48,-3.71
464.07,-3.72
468.71,-3.73
473.40,-3.75
478.13,-3.76
482.91,-3.78
487.74,-3.80
492.62,-3.84
497.55,-3.87
502.52,-3.90
507.55,-3.92
512.62,-3.95
517.75,-3.98
522.93,-4.00
528.16,-4.03
533.44,-4.05
538.77,-4.08
544.16,-4.11
549.60,-4.14
555.10,-4.17
560.65,-4.22
566.25,-4.28
571.92,-4.35
577.64,-4.42
583.41,-4.49
589.25,-4.57
595.14,-4.66
601.09,-4.76
607.10,-4.84
613.17,-4.91
619.30,-4.98
625.50,-5.05
631.75,-5.13
638.07,-5.18
644.45,-5.23
650.89,-5.28
657.40,-5.32
663.98,-5.35
670.62,-5.37
677.32,-5.37
684.10,-5.36
690.94,-5.34
697.85,-5.31
704.83,-5.27
711.87,-5.20
718.99,-5.14
726.18,-5.06
733.44,-4.97
740.78,-4.86
748.19,-4.75
755.67,-4.61
763.23,-4.46
770.86,-4.32
778.57,-4.16
786.35,-4.01
794.22,-3.86
802.16,-3.70
810.18,-3.52
818.28,-3.34
826.46,-3.15
834.73,-2.98
843.08,-2.80
851.51,-2.61
860.02,-2.43
868.62,-2.25
877.31,-2.06
886.08,-1.89
894.94,-1.71
903.89,-1.54
912.93,-1.36
922.06,-1.18
931.28,-1.01
940.59,-0.87
950.00,-0.71
959.50,-0.57
969.09,-0.43
978.78,-0.29
988.57,-0.15
998.46,-0.02
1008.44,0.11
1018.53,0.22
1028.71,0.32
1039.00,0.42
1049.39,0.51
1059.88,0.59
1070.48,0.66
1081.19,0.73
1092.00,0.81
1102.92,0.86
1113.95,0.91
1125.09,0.96
1136.34,1.00
1147.70,1.05
1159.18,1.11
1170.77,1.15
1182.48,1.19
1194.30,1.23
1206.25,1.27
1218.31,1.32
1230.49,1.37
1242.80,1.41
1255.22,1.46
1267.78,1.51
1280.45,1.56
1293.26,1.61
1306.19,1.65
1319.25,1.70
1332.45,1.73
1345.77,1.76
1359.23,1.79
1372.82,1.80
1386.55,1.80
1400.41,1.81
1414.42,1.80
1428.56,1.77
1442.85,1.73
1457.28,1.69
1471.85,1.65
1486.57,1.59
1501.43,1.53
1516.45,1.45
1531.61,1.34
1546.93,1.22
1562.40,1.09
1578.02,0.95
1593.80,0.80
1609.74,0.64
1625.84,0.47
1642.10,0.28
1658.52,0.07
1675.10,-0.15
1691.85,-0.37
1708.77,-0.59
1725.86,-0.83
1743.12,-1.07
1760.55,-1.31
1778.15,-1.55
1795.94,-1.80
1813.90,-2.06
1832.03,-2.32
1850.36,-2.60
1868.86,-2.85
1887.55,-3.11
1906.42,-3.37
1925.49,-3.64
1944.74,-3.91
1964.19,-4.18
1983.83,-4.46
2003.67,-4.75
2023.71,-5.03
2043.94,-5.29
2064.38,-5.54
2085.03,-5.78
2105.88,-6.02
2126.94,-6.25
2148.20,-6.47
2169.69,-6.68
2191.38,-6.87
2213.30,-7.04
2235.43,-7.20
2257.78,-7.34
2280.36,-7.47
2303.17,-7.61
2326.20,-7.74
2349.46,-7.85
2372.95,-7.97
2396.68,-8.08
2420.65,-8.19
2444.86,-8.29
2469.31,-8.38
2494.00,-8.46
2518.94,-8.55
2544.13,-8.64
2569.57,-8.71
2595.27,-8.78
2621.22,-8.85
2647.43,-8.92
2673.90,-8.98
2700.64,-9.07
2727.65,-9.15
2754.93,-9.25
2782.48,-9.35
2810.30,-9.46
2838.40,-9.57
2866.79,-9.68
2895.46,-9.79
2924.41,-9.91
2953.65,-10.03
2983.19,-10.13
3013.02,-10.24
3043.15,-10.35
3073.58,-10.47
3104.32,-10.57
3135.36,-10.66
3166.72,-10.75
3198.38,-10.83
3230.37,-10.90
3262.67,-10.97
3295.30,-11.03
3328.25,-11.09
3361.53,-11.12
3395.15,-11.15
3429.10,-11.18
3463.39,-11.20
3498.03,-11.20
3533.01,-11.20
3568.34,-11.20
3604.02,-11.19
3640.06,-11.18
3676.46,-11.18
3713.22,-11.18
3750.36,-11.18
3787.86,-11.18
3825.74,-11.18
3864.00,-11.18
3902.64,-11.17
3941.66,-11.17
3981.08,-11.16
4020.89,-11.15
4061.10,-11.14
4101.71,-11.15
4142.73,-11.16
4184.15,-11.18
4226.00,-11.20
4268.26,-11.25
4310.94,-11.32
4354.05,-11.42
4397.59,-11.53
4441.56,-11.65
4485.98,-11.78
4530.84,-11.90
4576.15,-12.01
4621.91,-12.10
4668.13,-12.16
4714.81,-12.18
4761.96,-12.16
4809.58,-12.09
4857.67,-11.98
4906.25,-11.82
4955.31,-11.62
5004.87,-11.39
5054.91,-11.11
5105.46,-10.78
5156.52,-10.41
5208.08,-10.02
5260.16,-9.61
5312.77,-9.19
5365.89,-8.74
5419.55,-8.28
5473.75,-7.80
5528.49,-7.30
5583.77,-6.80
5639.61,-6.30
5696.00,-5.80
5752.96,-5.30
5810.49,-4.82
5868.60,-4.38
5927.28,-3.95
5986.56,-3.55
6046.42,-3.18
6106.89,-2.83
6167.96,-2.50
6229.64,-2.20
6291.93,-1.92
6354.85,-1.67
6418.40,-1.43
6482.58,-1.22
6547.41,-1.01
6612.88,-0.80
6679.01,-0.59
6745.80,-0.38
6813.26,-0.14
6881.39,0.11
6950.21,0.39
7019.71,0.68
7089.91,1.00
7160.81,1.31
7232.41,1.63
7304.74,1.97
7377.79,2.30
7451.56,2.61
7526.08,2.90
7601.34,3.18
7677.35,3.43
7754.13,3.64
7831.67,3.80
7909.98,3.93
7989.08,4.02
8068.98,4.07
8149.67,4.08
8231.16,4.06
8313.47,4.03
8396.61,3.97
8480.57,3.90
8565.38,3.79
8651.03,3.64
8737.54,3.44
8824.92,3.20
8913.17,2.93
9002.30,2.59
9092.32,2.22
9183.25,1.81
9275.08,1.37
9367.83,0.91
9461.51,0.43
9556.12,-0.05
9651.68,-0.53
9748.20,-0.97
9845.68,-1.39
9944.14,-1.77
10043.58,-2.11
10144.02,-2.42
10245.46,-2.68
10347.91,-2.92
10451.39,-3.13
10555.91,-3.33
10661.46,-3.51
10768.08,-3.69
10875.76,-3.89
10984.52,-4.12
11094.36,-4.37
11205.31,-4.65
11317.36,-4.95
11430.53,-5.28
11544.84,-5.64
11660.29,-5.99
11776.89,-6.34
11894.66,-6.67
12013.60,-6.97
12133.74,-7.22
12255.08,-7.43
12377.63,-7.56
12501.41,-7.63
12626.42,-7.64
12752.68,-7.59
12880.21,-7.47
13009.01,-7.30
13139.10,-7.11
13270.49,-6.91
13403.20,-6.70
13537.23,-6.51
13672.60,-6.35
13809.33,-6.22
13947.42,-6.15
14086.90,-6.11
14227.77,-6.13
14370.04,-6.18
14513.74,-6.29
14658.88,-6.43
14805.47,-6.64
14953.52,-6.90
15103.06,-7.20
15254.09,-7.56
15406.63,-7.98
15560.70,-8.42
15716.30,-8.90
15873.47,-9.43
16032.20,-10.00
16192.52,-10.60
16354.45,-11.24
16517.99,-11.90
16683.17,-12.57
16850.01,-13.24
17018.51,-13.91
17188.69,-14.56
17360.58,-15.20
17534.18,-15.80
17709.53,-16.36
17886.62,-16.88
18065.49,-17.35
18246.14,-17.79
18428.60,-18.19
18612.89,-18.55
18799.02,-18.88
18987.01,-19.18
19176.88,-19.43
19368.65,-19.65
19562.33,-19.83
19757.96,-19.98
19955.54,-20.10
