frequency,raw,error,smoothed,error_smoothed,equalization,parametric_eq,fixed_band_eq,equalized_raw,equalized_smoothed,target
20.00,-0.80,-7.65,-0.80,-7.65,6.00,6.32,2.43,5.20,5.20,6.85
20.20,-0.72,-7.55,-0.73,-7.56,6.00,6.29,2.50,5.28,5.27,6.83
20.40,-0.65,-7.46,-0.65,-7.46,6.00,6.27,2.57,5.35,5.35,6.81
20.61,-0.58,-7.37,-0.58,-7.37,6.00,6.24,2.65,5.42,5.42,6.80
20.81,-0.50,-7.28,-0.50,-7.28,6.00,6.21,2.72,5.50,5.50,6.78
21.02,-0.42,-7.19,-0.43,-7.19,6.00,6.18,2.80,5.58,5.57,6.77
21.23,-0.36,-7.11,-0.36,-7.11,6.00,6.16,2.88,5.64,5.64,6.75
21.44,-0.30,-7.04,-0.30,-7.04,6.00,6.13,2.97,5.70,5.70,6.74
21.66,-0.24,-6.96,-0.23,-6.96,6.00,6.10,3.05,5.76,5.77,6.73
21.87,-0.17,-6.88,-0.17,-6.88,6.00,6.07,3.14,5.83,5.83,6.70
22.09,-0.11,-6.81,-0.12,-6.82,6.00,6.04,3.23,5.89,5.88,6.69
22.31,-0.08,-6.77,-0.08,-6.76,6.00,6.02,3.33,5.92,5.92,6.68
22.54,-0.05,-6.72,-0.05,-6.72,6.00,5.99,3.42,5.95,5.95,6.67
22.76,-0.01,-6.68,-0.01,-6.68,6.00,5.96,3.52,5.99,5.99,6.66
22.99,0.03,-6.63,0.03,-6.62,6.00,5.93,3.62,6.03,6.03,6.65
23.22,0.10,-6.55,0.09,-6.55,6.00,5.90,3.72,6.10,6.09,6.64
23.45,0.17,-6.47,0.16,-6.47,6.00,5.87,3.83,6.17,6.16,6.64
23.69,0.23,-6.40,0.24,-6.39,6.00,5.84,3.94,6.23,6.24,6.63
23.92,0.32,-6.31,0.31,-6.32,6.00,5.81,4.05,6.32,6.31,6.63
24.16,0.37,-6.26,0.37,-6.26,6.00,5.78,4.16,6.37,6.37,6.63
24.40,0.42,-6.21,0.42,-6.21,6.01,5.75,4.27,6.42,6.42,6.63
24.65,0.46,-6.17,0.46,-6.17,6.01,5.72,4.39,6.46,6.47,6.63
24.89,0.51,-6.12,0.50,-6.12,6.01,5.69,4.50,6.52,6.51,6.63
25.14,0.55,-6.08,0.54,-6.08,6.00,5.66,4.62,6.55,6.55,6.62
25.39,0.59,-6.04,0.58,-6.04,5.99,5.63,4.74,6.58,6.58,6.62
25.65,0.62,-6.01,0.62,-6.01,5.98,5.60,4.86,6.59,6.59,6.62
25.91,0.65,-5.98,0.66,-5.97,5.95,5.57,4.98,6.60,6.61,6.63
26.16,0.70,-5.93,0.70,-5.93,5.92,5.54,5.10,6.61,6.62,6.63
26.43,0.75,-5.87,0.75,-5.88,5.88,5.51,5.22,6.63,6.63,6.63
26.69,0.81,-5.82,0.80,-5.82,5.84,5.48,5.33,6.64,6.64,6.63
26.96,0.85,-5.77,0.85,-5.77,5.79,5.45,5.45,6.65,6.65,6.63
27.23,0.89,-5.73,0.90,-5.73,5.74,5.42,5.56,6.64,6.64,6.62
27.50,0.94,-5.69,0.93,-5.69,5.69,5.39,5.67,6.63,6.62,6.62
27.77,0.97,-5.66,0.97,-5.65,5.64,5.35,5.78,6.61,6.61,6.62
28.05,1.01,-5.62,1.01,-5.61,5.60,5.32,5.88,6.60,6.61,6.62
28.33,1.06,-5.55,1.05,-5.56,5.55,5.29,5.98,6.61,6.61,6.61
28.62,1.10,-5.50,1.10,-5.50,5.51,5.26,6.07,6.61,6.61,6.61
28.90,1.16,-5.45,1.15,-5.45,5.47,5.23,6.15,6.62,6.62,6.61
29.19,1.20,-5.41,1.20,-5.41,5.42,5.20,6.23,6.61,6.61,6.60
29.48,1.24,-5.37,1.23,-5.37,5.37,5.17,6.29,6.61,6.60,6.60
29.78,1.27,-5.34,1.27,-5.33,5.32,5.14,6.36,6.59,6.59,6.60
30.08,1.30,-5.29,1.31,-5.29,5.27,5.10,6.40,6.58,6.58,6.60
30.38,1.36,-5.23,1.36,-5.23,5.22,5.07,6.45,6.59,6.59,6.60
30.68,1.42,-5.17,1.42,-5.17,5.18,5.04,6.47,6.59,6.60,6.59
30.99,1.47,-5.11,1.47,-5.11,5.13,5.01,6.50,6.61,6.60,6.58
31.30,1.50,-5.07,1.50,-5.07,5.08,4.98,6.50,6.59,6.59,6.57
31.61,1.54,-5.03,1.54,-5.03,5.03,4.95,6.50,6.57,6.57,6.57
31.93,1.56,-5.00,1.57,-4.99,4.98,4.91,6.49,6.55,6.55,6.57
32.24,1.61,-4.95,1.61,-4.95,4.93,4.88,6.47,6.54,6.54,6.55
32.57,1.65,-4.90,1.65,-4.90,4.88,4.85,6.43,6.54,6.54,6.55
32.89,1.71,-4.84,1.70,-4.84,4.84,4.82,6.39,6.55,6.54,6.55
33.22,1.76,-4.79,1.76,-4.79,4.80,4.79,6.34,6.56,6.56,6.55
33.55,1.81,-4.74,1.81,-4.74,4.76,4.76,6.28,6.57,6.57,6.54
33.89,1.86,-4.70,1.85,-4.70,4.73,4.72,6.21,6.58,6.57,6.55
34.23,1.88,-4.67,1.87,-4.68,4.69,4.69,6.14,6.56,6.56,6.55
34.57,1.88,-4.67,1.87,-4.67,4.65,4.66,6.06,6.53,6.53,6.54
34.92,1.88,-4.68,1.89,-4.66,4.62,4.63,5.97,6.50,6.52,6.55
35.27,1.92,-4.62,1.93,-4.62,4.60,4.60,5.88,6.52,6.53,6.55
35.62,1.99,-4.56,1.99,-4.56,4.57,4.56,5.78,6.56,6.56,6.55
35.97,2.07,-4.49,2.05,-4.50,4.53,4.53,5.68,6.60,6.58,6.55
36.33,2.08,-4.47,2.07,-4.48,4.50,4.50,5.58,6.57,6.56,6.55
36.70,2.08,-4.47,2.08,-4.46,4.45,4.47,5.48,6.53,6.53,6.54
37.06,2.09,-4.45,2.11,-4.43,4.41,4.43,5.37,6.49,6.51,6.54
37.43,2.16,-4.37,2.16,-4.37,4.36,4.40,5.27,6.51,6.51,6.52
37.81,2.23,-4.30,2.21,-4.31,4.31,4.37,5.16,6.53,6.52,6.52
38.19,2.27,-4.24,2.26,-4.25,4.25,4.34,5.06,6.52,6.51,6.51
38.57,2.29,-4.21,2.29,-4.20,4.20,4.31,4.95,6.48,6.49,6.49
38.95,2.32,-4.16,2.33,-4.15,4.14,4.27,4.85,6.45,6.47,6.48
39.34,2.38,-4.09,2.38,-4.09,4.09,4.24,4.74,6.46,6.46,6.46
39.74,2.44,-4.02,2.43,-4.02,4.04,4.21,4.64,6.48,6.47,6.46
40.14,2.47,-3.97,2.46,-3.98,4.01,4.18,4.54,6.48,6.47,6.44
40.54,2.48,-3.95,2.48,-3.95,3.98,4.14,4.44,6.45,6.45,6.43
40.94,2.48,-3.94,2.48,-3.94,3.95,4.11,4.35,6.42,6.42,6.42
41.35,2.48,-3.94,2.47,-3.94,3.91,4.08,4.26,6.39,6.39,6.41
41.76,2.48,-3.92,2.48,-3.92,3.89,4.05,4.16,6.36,6.37,6.40
42.18,2.50,-3.89,2.51,-3.89,3.86,4.01,4.08,6.36,6.37,6.39
42.60,2.56,-3.84,2.55,-3.84,3.84,3.98,3.99,6.39,6.39,6.39
43.03,2.61,-3.78,2.60,-3.79,3.81,3.95,3.91,6.42,6.41,6.39
43.46,2.64,-3.74,2.64,-3.74,3.77,3.91,3.83,6.41,6.41,6.38
43.90,2.67,-3.72,2.66,-3.72,3.73,3.88,3.75,6.40,6.39,6.38
44.33,2.68,-3.70,2.67,-3.71,3.68,3.85,3.68,6.36,6.35,6.37
44.78,2.68,-3.69,2.69,-3.68,3.64,3.81,3.61,6.31,6.33,6.37
45.23,2.72,-3.64,2.74,-3.62,3.60,3.78,3.54,6.32,6.34,6.37
45.68,2.81,-3.54,2.81,-3.55,3.56,3.75,3.47,6.38,6.37,6.36
46.13,2.89,-3.46,2.86,-3.49,3.53,3.71,3.41,6.41,6.39,6.35
46.60,2.89,-3.46,2.89,-3.45,3.50,3.68,3.35,6.38,6.39,6.34
47.06,2.89,-3.45,2.89,-3.44,3.46,3.64,3.29,6.35,6.35,6.33
47.53,2.89,-3.44,2.88,-3.44,3.43,3.61,3.24,6.31,6.31,6.32
48.01,2.89,-3.43,2.88,-3.43,3.39,3.57,3.19,6.28,6.28,6.31
48.49,2.90,-3.40,2.89,-3.40,3.36,3.54,3.14,6.25,6.25,6.29
48.97,2.91,-3.37,2.93,-3.35,3.32,3.51,3.09,6.23,6.25,6.28
49.46,2.98,-3.29,2.97,-3.29,3.29,3.47,3.04,6.26,6.26,6.27
49.96,3.03,-3.21,3.02,-3.23,3.25,3.43,3.00,6.28,6.27,6.25
50.46,3.07,-3.17,3.07,-3.17,3.21,3.40,2.96,6.28,6.28,6.23
50.96,3.09,-3.14,3.08,-3.14,3.17,3.36,2.92,6.26,6.26,6.22
51.47,3.09,-3.12,3.09,-3.12,3.14,3.33,2.88,6.22,6.22,6.21
51.99,3.09,-3.11,3.08,-3.11,3.10,3.29,2.84,6.18,6.18,6.19
52.51,3.09,-3.10,3.08,-3.10,3.06,3.25,2.81,6.15,6.15,6.18
53.03,3.09,-3.08,3.10,-3.06,3.02,3.22,2.78,6.11,6.13,6.17
53.56,3.15,-3.01,3.14,-3.01,2.99,3.18,2.74,6.13,6.13,6.15
54.10,3.20,-2.94,3.19,-2.94,2.95,3.14,2.71,6.14,6.14,6.14
54.64,3.25,-2.87,3.25,-2.87,2.91,3.10,2.68,6.15,6.15,6.12
55.18,3.29,-2.82,3.27,-2.83,2.86,3.06,2.65,6.15,6.14,6.10
55.74,3.29,-2.80,3.29,-2.80,2.83,3.02,2.62,6.11,6.11,6.09
56.29,3.29,-2.78,3.29,-2.78,2.79,2.99,2.59,6.07,6.08,6.07
56.86,3.29,-2.77,3.28,-2.77,2.76,2.95,2.56,6.04,6.04,6.05
57.42,3.29,-2.75,3.28,-2.75,2.72,2.91,2.53,6.01,6.01,6.03
58.00,3.29,-2.74,3.31,-2.71,2.69,2.86,2.49,5.98,6.00,6.02
58.58,3.35,-2.66,3.34,-2.67,2.66,2.82,2.46,6.00,5.99,6.00
59.16,3.39,-2.60,3.37,-2.62,2.62,2.78,2.43,6.00,5.98,5.98
59.76,3.39,-2.58,3.40,-2.57,2.57,2.74,2.40,5.96,5.97,5.96
60.35,3.41,-2.53,3.42,-2.52,2.52,2.70,2.36,5.93,5.94,5.94
60.96,3.46,-2.46,3.44,-2.47,2.48,2.65,2.32,5.93,5.92,5.92
61.57,3.48,-2.42,3.47,-2.42,2.43,2.61,2.29,5.91,5.90,5.89
62.18,3.49,-2.38,3.49,-2.38,2.39,2.57,2.25,5.88,5.88,5.87
62.80,3.49,-2.35,3.49,-2.35,2.36,2.52,2.21,5.85,5.85,5.84
63.43,3.49,-2.33,3.49,-2.32,2.33,2.48,2.16,5.81,5.82,5.81
64.07,3.49,-2.30,3.49,-2.30,2.30,2.43,2.12,5.78,5.78,5.78
64.71,3.49,-2.26,3.49,-2.27,2.26,2.38,2.08,5.75,5.75,5.75
65.35,3.49,-2.24,3.48,-2.24,2.22,2.34,2.03,5.71,5.71,5.72
66.01,3.49,-2.20,3.48,-2.20,2.18,2.29,1.98,5.67,5.66,5.68
66.67,3.49,-2.17,3.50,-2.15,2.14,2.24,1.93,5.62,5.64,5.65
67.33,3.52,-2.10,3.53,-2.09,2.09,2.19,1.88,5.61,5.62,5.61
68.01,3.59,-2.00,3.56,-2.02,2.04,2.14,1.83,5.62,5.60,5.58
68.69,3.59,-1.96,3.58,-1.96,1.98,2.09,1.77,5.56,5.56,5.54
69.37,3.59,-1.92,3.59,-1.92,1.92,2.04,1.72,5.50,5.51,5.51
70.07,3.59,-1.88,3.60,-1.87,1.86,1.99,1.66,5.44,5.45,5.47
70.77,3.63,-1.81,3.62,-1.81,1.80,1.94,1.61,5.42,5.42,5.43
71.48,3.66,-1.74,3.65,-1.74,1.75,1.88,1.55,5.40,5.40,5.40
72.19,3.69,-1.67,3.68,-1.68,1.69,1.83,1.49,5.38,5.37,5.35
72.91,3.69,-1.63,3.69,-1.63,1.65,1.78,1.43,5.33,5.33,5.32
73.64,3.69,-1.60,3.69,-1.59,1.60,1.72,1.38,5.28,5.29,5.28
74.38,3.69,-1.56,3.69,-1.55,1.55,1.67,1.32,5.24,5.24,5.24
75.12,3.69,-1.51,3.69,-1.51,1.51,1.61,1.26,5.19,5.19,5.19
75.87,3.69,-1.47,3.69,-1.47,1.47,1.55,1.20,5.15,5.15,5.16
76.63,3.69,-1.43,3.69,-1.43,1.43,1.50,1.14,5.11,5.11,5.12
77.40,3.69,-1.39,3.69,-1.39,1.39,1.44,1.08,5.07,5.07,5.07
78.17,3.69,-1.35,3.69,-1.35,1.35,1.38,1.02,5.03,5.03,5.03
78.95,3.69,-1.30,3.69,-1.30,1.31,1.32,0.96,4.99,4.99,4.99
79.74,3.69,-1.26,3.69,-1.26,1.27,1.26,0.90,4.95,4.95,4.95
80.54,3.69,-1.22,3.69,-1.22,1.22,1.20,0.84,4.91,4.91,4.90
81.35,3.69,-1.17,3.69,-1.17,1.17,1.14,0.78,4.86,4.86,4.86
82.16,3.69,-1.13,3.68,-1.13,1.12,1.08,0.72,4.80,4.79,4.81
82.98,3.69,-1.08,3.69,-1.08,1.06,1.02,0.66,4.74,4.74,4.77
83.81,3.69,-1.03,3.71,-1.01,0.99,0.95,0.60,4.68,4.70,4.72
84.65,3.76,-0.92,3.74,-0.93,0.93,0.89,0.54,4.69,4.67,4.67
85.50,3.79,-0.83,3.77,-0.84,0.87,0.83,0.48,4.65,4.64,4.61
86.35,3.79,-0.78,3.79,-0.77,0.80,0.76,0.42,4.59,4.59,4.56
87.22,3.79,-0.73,3.79,-0.73,0.74,0.70,0.36,4.52,4.52,4.51
88.09,3.79,-0.68,3.78,-0.68,0.67,0.64,0.30,4.46,4.46,4.46
88.97,3.79,-0.63,3.79,-0.62,0.61,0.57,0.24,4.40,4.40,4.41
89.86,3.79,-0.57,3.79,-0.56,0.56,0.51,0.19,4.34,4.35,4.35
90.76,3.80,-0.50,3.79,-0.50,0.50,0.44,0.13,4.30,4.29,4.30
91.66,3.80,-0.44,3.79,-0.44,0.44,0.37,0.07,4.24,4.24,4.24
92.58,3.80,-0.39,3.80,-0.38,0.38,0.31,0.01,4.18,4.18,4.18
93.51,3.80,-0.32,3.80,-0.32,0.32,0.24,-0.05,4.12,4.12,4.12
94.44,3.80,-0.26,3.79,-0.26,0.26,0.18,-0.10,4.05,4.05,4.05
95.39,3.80,-0.20,3.79,-0.20,0.20,0.11,-0.16,3.99,3.99,3.99
96.34,3.79,-0.14,3.79,-0.13,0.14,0.05,-0.22,3.92,3.93,3.93
97.30,3.79,-0.07,3.78,-0.07,0.07,-0.02,-0.28,3.86,3.86,3.85
98.28,3.78,-0.01,3.77,-0.01,0.01,-0.09,-0.33,3.79,3.78,3.79
99.26,3.76,0.05,3.76,0.05,-0.05,-0.15,-0.39,3.71,3.71,3.71
100.25,3.75,0.11,3.74,0.11,-0.11,-0.22,-0.44,3.63,3.63,3.63
101.25,3.73,0.17,3.73,0.17,-0.17,-0.28,-0.50,3.55,3.56,3.56
102.27,3.72,0.23,3.71,0.23,-0.23,-0.35,-0.56,3.48,3.48,3.48
103.29,3.70,0.29,3.69,0.29,-0.29,-0.41,-0.61,3.41,3.41,3.41
104.32,3.68,0.35,3.68,0.35,-0.35,-0.48,-0.67,3.33,3.33,3.33
105.37,3.66,0.40,3.65,0.41,-0.40,-0.54,-0.72,3.25,3.25,3.25
106.42,3.64,0.47,3.63,0.46,-0.46,-0.61,-0.77,3.18,3.17,3.17
107.48,3.61,0.52,3.61,0.51,-0.51,-0.67,-0.82,3.09,3.10,3.09
108.56,3.59,0.56,3.59,0.57,-0.56,-0.73,-0.88,3.02,3.02,3.02
109.64,3.57,0.62,3.56,0.62,-0.62,-0.80,-0.93,2.95,2.95,2.95
110.74,3.55,0.67,3.54,0.67,-0.67,-0.86,-0.97,2.88,2.88,2.87
111.85,3.53,0.72,3.53,0.72,-0.72,-0.92,-1.02,2.80,2.80,2.81
112.97,3.52,0.77,3.51,0.77,-0.78,-0.98,-1.07,2.74,2.74,2.74
114.10,3.51,0.83,3.51,0.83,-0.84,-1.04,-1.11,2.67,2.67,2.68
115.24,3.51,0.89,3.51,0.89,-0.90,-1.10,-1.16,2.60,2.60,2.61
116.39,3.51,0.96,3.51,0.96,-0.96,-1.16,-1.20,2.54,2.54,2.55
117.55,3.52,1.02,3.51,1.02,-1.03,-1.21,-1.24,2.49,2.48,2.49
118.73,3.52,1.09,3.52,1.09,-1.09,-1.27,-1.27,2.43,2.43,2.43
119.92,3.53,1.15,3.53,1.15,-1.14,-1.33,-1.31,2.39,2.39,2.38
121.12,3.54,1.21,3.53,1.21,-1.19,-1.38,-1.34,2.35,2.35,2.32
122.33,3.54,1.27,3.52,1.25,-1.24,-1.43,-1.37,2.30,2.29,2.27
123.55,3.51,1.29,3.50,1.28,-1.28,-1.49,-1.40,2.22,2.22,2.22
124.79,3.46,1.29,3.48,1.31,-1.32,-1.54,-1.43,2.13,2.15,2.17
126.03,3.47,1.35,3.46,1.35,-1.37,-1.59,-1.45,2.10,2.09,2.12
127.29,3.47,1.40,3.46,1.40,-1.42,-1.64,-1.48,2.05,2.05,2.07
128.57,3.48,1.46,3.47,1.46,-1.46,-1.69,-1.50,2.01,2.01,2.02
129.85,3.48,1.51,3.48,1.51,-1.51,-1.73,-1.51,1.97,1.97,1.97
131.15,3.49,1.56,3.48,1.56,-1.56,-1.78,-1.53,1.93,1.93,1.92
132.46,3.49,1.61,3.49,1.62,-1.60,-1.82,-1.54,1.88,1.89,1.87
133.79,3.50,1.67,3.49,1.67,-1.64,-1.87,-1.56,1.85,1.85,1.83
135.12,3.50,1.71,3.48,1.69,-1.68,-1.91,-1.57,1.82,1.80,1.78
136.48,3.45,1.71,3.45,1.71,-1.72,-1.95,-1.58,1.73,1.73,1.74
137.84,3.41,1.71,3.42,1.73,-1.75,-1.99,-1.59,1.65,1.67,1.69
139.22,3.41,1.77,3.40,1.76,-1.79,-2.03,-1.60,1.62,1.62,1.64
140.61,3.41,1.81,3.40,1.81,-1.82,-2.06,-1.60,1.58,1.58,1.59
142.02,3.41,1.86,3.41,1.86,-1.86,-2.10,-1.61,1.54,1.54,1.54
143.44,3.41,1.91,3.41,1.91,-1.91,-2.13,-1.61,1.50,1.50,1.49
144.87,3.41,1.96,3.41,1.96,-1.96,-2.17,-1.62,1.45,1.45,1.44
146.32,3.41,2.00,3.41,2.01,-2.01,-2.20,-1.62,1.40,1.40,1.40
147.78,3.41,2.05,3.41,2.05,-2.06,-2.23,-1.63,1.35,1.35,1.35
149.26,3.41,2.10,3.41,2.10,-2.10,-2.26,-1.63,1.30,1.30,1.30
150.75,3.41,2.15,3.41,2.15,-2.14,-2.29,-1.64,1.27,1.27,1.26
152.26,3.41,2.19,3.41,2.19,-2.17,-2.31,-1.64,1.23,1.23,1.21
153.78,3.41,2.23,3.39,2.21,-2.20,-2.34,-1.65,1.20,1.18,1.18
155.32,3.36,2.22,3.36,2.22,-2.23,-2.36,-1.66,1.13,1.13,1.13
156.88,3.31,2.22,3.33,2.24,-2.25,-2.38,-1.66,1.06,1.08,1.09
158.44,3.31,2.26,3.30,2.26,-2.26,-2.40,-1.67,1.04,1.04,1.04
160.03,3.31,2.30,3.28,2.28,-2.28,-2.42,-1.68,1.02,1.00,1.00
161.63,3.24,2.28,3.25,2.30,-2.30,-2.44,-1.69,0.93,0.95,0.95
163.24,3.22,2.31,3.22,2.31,-2.32,-2.46,-1.70,0.89,0.90,0.91
164.88,3.21,2.34,3.20,2.33,-2.35,-2.47,-1.72,0.86,0.85,0.87
166.53,3.20,2.36,3.20,2.37,-2.37,-2.49,-1.73,0.82,0.82,0.83
168.19,3.20,2.40,3.19,2.40,-2.40,-2.50,-1.75,0.80,0.79,0.79
169.87,3.19,2.43,3.19,2.44,-2.42,-2.51,-1.76,0.77,0.77,0.75
171.57,3.18,2.46,3.18,2.46,-2.44,-2.52,-1.78,0.74,0.74,0.72
173.29,3.17,2.48,3.14,2.46,-2.45,-2.53,-1.80,0.72,0.70,0.68
175.02,3.10,2.44,3.11,2.46,-2.46,-2.54,-1.83,0.64,0.66,0.66
176.77,3.07,2.44,3.08,2.46,-2.46,-2.55,-1.85,0.61,0.62,0.62
178.54,3.07,2.48,3.05,2.46,-2.46,-2.55,-1.87,0.60,0.59,0.59
180.32,3.04,2.47,3.03,2.46,-2.47,-2.56,-1.90,0.57,0.56,0.56
182.13,3.00,2.45,3.00,2.46,-2.48,-2.56,-1.93,0.52,0.53,0.54
183.95,2.98,2.46,2.99,2.47,-2.49,-2.56,-1.96,0.49,0.50,0.52
185.79,3.00,2.50,2.99,2.49,-2.51,-2.56,-1.99,0.49,0.48,0.50
187.65,3.01,2.53,3.01,2.53,-2.52,-2.56,-2.02,0.48,0.49,0.48
189.52,3.03,2.57,3.02,2.56,-2.54,-2.56,-2.05,0.49,0.48,0.46
191.42,3.04,2.59,3.01,2.57,-2.55,-2.56,-2.09,0.48,0.46,0.45
193.33,2.99,2.56,3.00,2.57,-2.57,-2.56,-2.12,0.42,0.43,0.43
195.27,2.97,2.55,2.98,2.57,-2.58,-2.55,-2.16,0.39,0.41,0.41
197.22,2.98,2.58,2.97,2.58,-2.58,-2.55,-2.20,0.39,0.39,0.39
199.19,2.99,2.61,2.96,2.58,-2.58,-2.54,-2.24,0.40,0.38,0.38
201.18,2.94,2.58,2.94,2.58,-2.58,-2.54,-2.28,0.35,0.36,0.36
203.19,2.90,2.55,2.92,2.57,-2.58,-2.53,-2.32,0.32,0.34,0.34
205.23,2.91,2.58,2.91,2.58,-2.58,-2.52,-2.36,0.33,0.33,0.33
207.28,2.91,2.59,2.90,2.58,-2.57,-2.51,-2.40,0.33,0.32,0.31
209.35,2.90,2.60,2.87,2.58,-2.57,-2.50,-2.44,0.32,0.30,0.30
211.44,2.82,2.54,2.84,2.56,-2.57,-2.49,-2.48,0.25,0.27,0.27
213.56,2.80,2.53,2.81,2.55,-2.56,-2.48,-2.52,0.24,0.25,0.26
215.69,2.79,2.55,2.78,2.55,-2.55,-2.47,-2.56,0.23,0.23,0.24
217.85,2.79,2.56,2.77,2.55,-2.54,-2.45,-2.59,0.25,0.23,0.22
220.03,2.75,2.54,2.74,2.54,-2.52,-2.44,-2.63,0.22,0.22,0.20
222.23,2.70,2.51,2.71,2.52,-2.51,-2.42,-2.66,0.18,0.20,0.19
224.45,2.68,2.50,2.68,2.50,-2.50,-2.41,-2.70,0.18,0.18,0.18
226.70,2.68,2.51,2.64,2.48,-2.49,-2.39,-2.73,0.19,0.16,0.17
228.96,2.60,2.44,2.62,2.46,-2.47,-2.38,-2.75,0.12,0.14,0.16
231.25,2.59,2.43,2.60,2.45,-2.46,-2.36,-2.78,0.13,0.15,0.16
233.57,2.60,2.45,2.59,2.44,-2.44,-2.34,-2.80,0.15,0.15,0.15
235.90,2.62,2.48,2.59,2.45,-2.43,-2.32,-2.82,0.19,0.16,0.14
238.26,2.55,2.41,2.57,2.43,-2.41,-2.31,-2.83,0.13,0.16,0.14
240.64,2.55,2.41,2.54,2.40,-2.41,-2.29,-2.84,0.14,0.13,0.14
243.05,2.53,2.39,2.51,2.37,-2.40,-2.27,-2.85,0.12,0.11,0.14
245.48,2.50,2.35,2.51,2.37,-2.39,-2.25,-2.85,0.10,0.12,0.14
247.93,2.51,2.36,2.51,2.37,-2.38,-2.23,-2.85,0.13,0.14,0.14
250.41,2.53,2.38,2.52,2.38,-2.36,-2.20,-2.85,0.17,0.16,0.15
252.92,2.55,2.40,2.53,2.38,-2.34,-2.18,-2.84,0.20,0.19,0.15
255.45,2.50,2.36,2.50,2.35,-2.33,-2.16,-2.82,0.17,0.17,0.14
258.00,2.46,2.31,2.45,2.30,-2.31,-2.14,-2.80,0.14,0.13,0.14
260.58,2.38,2.24,2.40,2.26,-2.30,-2.11,-2.78,0.08,0.10,0.14
263.19,2.37,2.24,2.37,2.24,-2.27,-2.09,-2.75,0.09,0.10,0.13
265.82,2.37,2.25,2.36,2.25,-2.24,-2.07,-2.72,0.12,0.12,0.11
268.48,2.37,2.26,2.35,2.25,-2.22,-2.04,-2.68,0.15,0.13,0.11
271.16,2.33,2.23,2.32,2.22,-2.20,-2.02,-2.64,0.13,0.12,0.09
273.87,2.26,2.17,2.26,2.18,-2.18,-1.99,-2.60,0.08,0.08,0.09
276.61,2.20,2.13,2.20,2.13,-2.16,-1.97,-2.56,0.04,0.04,0.07
279.38,2.17,2.11,2.17,2.11,-2.13,-1.94,-2.51,0.03,0.04,0.05
282.17,2.16,2.11,2.16,2.11,-2.11,-1.92,-2.46,0.05,0.05,0.05
284.99,2.17,2.12,2.15,2.10,-2.08,-1.89,-2.41,0.09,0.07,0.05
287.84,2.13,2.08,2.12,2.07,-2.05,-1.87,-2.35,0.07,0.07,0.05
290.72,2.08,2.03,2.07,2.03,-2.03,-1.84,-2.30,0.04,0.04,0.05
293.63,2.02,1.97,2.03,1.98,-2.01,-1.81,-2.24,0.00,0.02,0.04
296.57,2.01,1.96,2.01,1.97,-1.99,-1.79,-2.19,0.01,0.02,0.05
299.53,2.02,1.96,2.02,1.97,-1.97,-1.76,-2.13,0.05,0.05,0.05
302.53,2.03,1.98,2.02,1.97,-1.94,-1.73,-2.07,0.08,0.08,0.05
305.55,2.02,1.96,2.00,1.95,-1.92,-1.70,-2.01,0.10,0.08,0.06
308.61,1.96,1.90,1.96,1.91,-1.90,-1.68,-1.95,0.06,0.06,0.05
311.69,1.91,1.86,1.91,1.86,-1.88,-1.65,-1.89,0.03,0.04,0.05
314.81,1.87,1.82,1.88,1.83,-1.85,-1.62,-1.83,0.02,0.03,0.04
317.96,1.86,1.81,1.85,1.81,-1.82,-1.59,-1.77,0.04,0.03,0.04
321.14,1.85,1.81,1.82,1.78,-1.78,-1.56,-1.71,0.06,0.04,0.04
324.35,1.78,1.73,1.79,1.75,-1.74,-1.53,-1.66,0.03,0.05,0.05
327.59,1.76,1.71,1.76,1.71,-1.70,-1.50,-1.60,0.05,0.06,0.04
330.87,1.72,1.68,1.71,1.66,-1.66,-1.48,-1.54,0.05,0.04,0.04
334.18,1.67,1.63,1.66,1.62,-1.62,-1.45,-1.49,0.04,0.03,0.04
337.52,1.59,1.55,1.60,1.57,-1.58,-1.42,-1.43,0.01,0.03,0.03
340.90,1.56,1.52,1.55,1.52,-1.53,-1.39,-1.38,0.02,0.02,0.03
344.30,1.53,1.49,1.51,1.47,-1.48,-1.36,-1.32,0.04,0.03,0.04
347.75,1.47,1.42,1.49,1.45,-1.43,-1.33,-1.27,0.03,0.05,0.05
351.23,1.45,1.41,1.45,1.41,-1.39,-1.30,-1.22,0.06,0.06,0.03
354.74,1.44,1.38,1.40,1.35,-1.35,-1.27,-1.17,0.09,0.05,0.05
358.28,1.34,1.29,1.34,1.29,-1.30,-1.24,-1.12,0.04,0.04,0.05
361.87,1.27,1.21,1.30,1.24,-1.25,-1.21,-1.07,0.01,0.04,0.06
365.49,1.27,1.20,1.27,1.21,-1.21,-1.18,-1.03,0.06,0.06,0.07
369.14,1.28,1.21,1.25,1.18,-1.17,-1.14,-0.98,0.11,0.09,0.06
372.83,1.25,1.16,1.22,1.14,-1.13,-1.11,-0.94,0.12,0.09,0.08
376.56,1.14,1.05,1.16,1.08,-1.10,-1.08,-0.89,0.04,0.06,0.08
380.33,1.10,1.02,1.12,1.04,-1.07,-1.05,-0.85,0.03,0.05,0.08
384.13,1.11,1.03,1.10,1.02,-1.04,-1.02,-0.80,0.07,0.06,0.08
387.97,1.11,1.03,1.09,1.01,-1.00,-0.99,-0.76,0.10,0.09,0.08
391.85,1.08,0.99,1.08,1.00,-0.96,-0.96,-0.72,0.11,0.12,0.08
395.77,1.04,0.96,1.04,0.96,-0.93,-0.92,-0.68,0.11,0.11,0.07
399.73,1.00,0.92,0.97,0.90,-0.89,-0.89,-0.64,0.10,0.07,0.07
403.72,0.89,0.82,0.90,0.83,-0.86,-0.86,-0.60,0.03,0.04,0.07
407.76,0.82,0.77,0.84,0.78,-0.81,-0.83,-0.57,0.00,0.02,0.05
411.84,0.81,0.76,0.81,0.76,-0.77,-0.79,-0.53,0.04,0.04,0.05
415.96,0.80,0.75,0.78,0.74,-0.72,-0.76,-0.49,0.07,0.06,0.05
420.12,0.78,0.74,0.74,0.70,-0.68,-0.73,-0.46,0.09,0.06,0.04
424.32,0.66,0.61,0.68,0.64,-0.64,-0.69,-0.42,0.01,0.04,0.04
428.56,0.63,0.57,0.64,0.59,-0.60,-0.66,-0.39,0.02,0.04,0.05
432.85,0.63,0.55,0.63,0.56,-0.56,-0.63,-0.35,0.06,0.07,0.07
437.18,0.66,0.57,0.63,0.54,-0.52,-0.59,-0.32,0.13,0.11,0.08
441.55,0.63,0.51,0.61,0.49,-0.49,-0.56,-0.29,0.14,0.12,0.12
445.96,0.57,0.41,0.59,0.44,-0.45,-0.52,-0.25,0.11,0.14,0.16
450.42,0.59,0.38,0.60,0.39,-0.42,-0.49,-0.22,0.16,0.18,0.21
454.93,0.65,0.39,0.64,0.38,-0.40,-0.45,-0.19,0.25,0.24,0.26
459.48,0.71,0.39,0.68,0.37,-0.36,-0.42,-0.16,0.34,0.32,0.32
464.07,0.72,0.35,0.72,0.36,-0.33,-0.38,-0.13,0.39,0.39,0.37
468.71,0.73,0.31,0.74,0.32,-0.30,-0.34,-0.10,0.43,0.45,0.41
473.40,0.77,0.29,0.75,0.27,-0.26,-0.31,-0.07,0.50,0.49,0.47
478.13,0.76,0.22,0.75,0.22,-0.22,-0.27,-0.04,0.53,0.52,0.53
482.91,0.73,0.14,0.74,0.16,-0.18,-0.23,-0.02,0.55,0.57,0.58
487.74,0.74,0.11,0.74,0.12,-0.13,-0.19,0.01,0.61,0.61,0.62
492.62,0.76,0.09,0.75,0.09,-0.08,-0.15,0.04,0.68,0.67,0.66
497.55,0.75,0.04,0.74,0.04,-0.03,-0.12,0.07,0.72,0.71,0.70
502.52,0.73,0.01,0.71,-0.02,0.01,-0.08,0.09,0.73,0.72,0.72
507.55,0.66,-0.09,0.68,-0.07,0.04,-0.04,0.12,0.70,0.72,0.75
512.62,0.65,-0.11,0.66,-0.10,0.07,0.00,0.15,0.72,0.74,0.76
517.75,0.66,-0.10,0.64,-0.13,0.11,0.05,0.17,0.77,0.75,0.76
522.93,0.64,-0.12,0.62,-0.14,0.15,0.09,0.20,0.79,0.77,0.76
528.16,0.55,-0.19,0.59,-0.15,0.20,0.13,0.23,0.74,0.78,0.74
533.44,0.54,-0.18,0.51,-0.21,0.24,0.17,0.25,0.77,0.75,0.72
538.77,0.45,-0.23,0.40,-0.28,0.28,0.22,0.28,0.73,0.68,0.68
544.16,0.26,-0.40,0.31,-0.35,0.33,0.26,0.30,0.58,0.63,0.66
549.60,0.20,-0.43,0.21,-0.41,0.38,0.30,0.33,0.57,0.59,0.63
555.10,0.17,-0.43,0.14,-0.45,0.43,0.35,0.36,0.59,0.57,0.60
560.65,0.11,-0.45,0.09,-0.47,0.48,0.40,0.38,0.59,0.57,0.55
