frequency,raw,calibrated,smoothed,equalization,equalized_raw,equalized_smoothed
10,3.537551214546873,-5.364561024363191,-5.351808686532385,6.0,9.537551214546873,0.6481913134676152
11,3.6724953312535074,-5.2137563616185005,-5.214706522948773,6.000000000000001,9.672495331253508,0.7852934770512281
12,3.795689657771404,-5.076082491011904,-5.083912462258363,6.000000000000001,9.795689657771405,0.916087537741638
13,3.9090174524307812,-4.949434806990531,-4.959426504461153,6.0,9.909017452430781,1.0405734955388466
14,4.01394260170376,-4.832177366386802,-4.841248649557145,6.000000000000001,10.01394260170376,1.1587513504428557
15,4.111625578705533,-4.723013300830141,-4.729378897546349,6.000000000000001,10.111625578705535,1.270621102453652
16,4.203001901217379,-4.62089713722438,-4.62411660037499,6.0,10.20300190121738,1.3758833996250104
17,4.288836762283518,-4.5249737461886905,-4.52516138057036,6.000000000000002,10.28883676228352,1.474838619429642
18,4.369764021930068,-4.434534767478846,-4.432328616805223,6.0,10.369764021930068,1.567671383194777
19,4.446314642567637,-4.348986832452956,-4.345362477232497,6.0,10.446314642567637,1.6546375227675032
20,4.518937822151519,-4.267827947042604,-4.263948997314096,6.000000000000001,10.51893782215152,1.7360510026859046
21,4.588016965862429,-4.190629642853742,-4.187734255853021,6.0,10.58801696586243,1.8122657441469787
22,4.669268659242628,-4.101636563913439,-4.116413596561037,5.999999999999998,10.669268659242626,1.8835864034389616
23,4.714205155857585,-4.049302859275424,-4.049652156260945,5.999999999999998,10.714205155857584,1.9503478437390536
24,4.756232600799242,-3.996595546749191,-3.9870786550499493,6.000000000000001,10.756232600799244,2.0129213449500516
25,4.820642933535962,-3.918956029528723,-3.928247934921967,6.0,10.82064293353596,2.071752065078033
26,4.861019429676575,-3.8720336699300484,-3.8726009253364495,6.0,10.861019429676574,2.1273990746635505
27,4.906361679708541,-3.8171272557321023,-3.8194362665676893,6.000000000000003,10.906361679708544,2.1805637334323134
28,4.954067669113987,-3.7572450727714903,-3.767924458666774,6.0,10.954067669113986,2.232075541333226
29,4.993231943926519,-3.7115781246780895,-3.717146731978977,5.999999999999999,10.993231943926517,2.282853268021022
30,5.035708708056187,-3.6626153143304334,-3.6661656710916244,5.999999999999999,11.035708708056186,2.3338343289083747
31,5.072553531534363,-3.6148069895124975,-3.614112254117101,6.000000000000002,11.072553531534364,2.3858877458829006
32,5.089698206406394,-3.57889034084842,-3.560268602354456,5.999999999999999,11.089698206406393,2.4397313976455433
33,5.111549034102201,-3.5209677000316306,-3.5041242169736675,6.0,11.1115490341022,2.4958757830263325
34,5.136929019733556,-3.4605928896205667,-3.445392707601802,5.999999999999997,11.136929019733554,2.5546072923981953
35,5.149073039770892,-3.414468628795813,-3.383983418966094,6.000000000000002,11.149073039770894,2.6160165810339078
36,5.181588891031073,-3.331112224147338,-3.319936496749564,6.0,11.181588891031073,2.680063503250436
37,5.192433295897074,-3.2277919184095802,-3.253340777843615,5.999999999999999,11.192433295897073,2.746659222156384
38,5.203935052583137,-3.132178790998964,-3.184259191685125,6.000000000000002,11.20393505258314,2.8157408083148767
39,5.2201686261064495,-3.0811238731598625,-3.1126838684377187,6.0,11.22016862610645,2.8873161315622813
40,5.237285457387683,-3.03006734598784,-3.038534258002449,5.999999999999998,11.237285457387681,2.961465741997549
41,5.255568593201285,-2.981960475167253,-2.9616980008214804,5.999999999999999,11.255568593201284,3.0383019991785187
42,5.2724332958970805,-2.936904217453243,-2.8821009302556027,6.000000000000002,11.272433295897082,3.117899069744399
43,5.281589119720329,-2.8691767323952417,-2.7997835487165617,6.000000000000001,11.28158911972033,3.2002164512834392
44,5.305754778146802,-2.7161796246678804,-2.7149593943051373,6.0,11.305754778146802,3.2850406056948627
45,5.3169247029365065,-2.5790735858172864,-2.6280362560541306,5.999999999999999,11.316924702936506,3.3719637439458685
46,5.320417156038462,-2.5028986506972712,-2.539592288146159,6.000000000000001,11.320417156038463,3.460407711853842
47,5.332433295897075,-2.4401637231303015,-2.4503119235693887,6.000000000000002,11.332433295897076,3.549688076430613
48,5.344793062243467,-2.3781530127577106,-2.3608970488751777,5.992343686713776,11.337136748957242,3.631446637838598
49,5.3474332958970745,-2.280919480352062,-2.271974244951404,5.97623000627288,11.323663302169955,3.704255761321476
50,5.3474332958970745,-2.185332719541563,-2.1840180801523243,5.952173011137222,11.299606307034296,3.7681549309848976
51,5.362433295897076,-2.076838020054879,-2.0973045466435916,5.9206494543457335,11.283082750242809,3.823344907702142
52,5.363418505098793,-2.0036966739299116,-2.0119002724897275,5.882102076943042,11.245520582041834,3.8702018044533144
53,5.370246643234692,-1.9260868854006254,-1.9276849443620314,5.836890341265373,11.207136984500064,3.9092053969033413
54,5.373436903621951,-1.853438073900862,-1.8443985593230399,5.784760695103734,11.158197598725685,3.940362135780694
55,5.359759752531729,-1.7761498092723862,-1.7617025185577737,5.725919796898777,11.085679549430505,3.9642172783410037
56,5.363893997207484,-1.6801806606455072,-1.6792437153290196,5.660746438945239,11.024640436152723,3.9815027236162193
57,5.372433295897081,-1.5814319401668842,-1.5967124085905933,5.589594493847793,10.962027789744873,3.9928820852571993
58,5.376768581620232,-1.5014833725085701,-1.513886612363729,5.5127948968350875,10.889563478455319,3.9989082844713586
59,5.384482665069597,-1.4273650918285128,-1.430657441766304,5.430657441766304,10.815140106835901,3.9999999999999996
60,5.3833402751060655,-1.363219374482341,-1.347031588624714,5.343514072207039,10.726854347313104,3.9964824835823256
61,5.38243329589708,-1.2951853065552195,-1.2631095366845404,5.251905824494357,10.634339120391438,3.9887962878098167
62,5.386035190634941,-1.1893423891075878,-1.1790418006744958,5.156301055054463,10.542336245689405,3.9772592543799674
63,5.391412331043904,-1.083360152720143,-1.0949702014164069,5.057136585709892,10.448548916753797,3.962166384293485
64,5.382946821103626,-0.992804964915404,-1.0109658974135352,4.9547575853896095,10.337704406493236,3.9437916879760744
65,5.386818890861176,-0.9028498354602617,-0.9269788990182881,4.849368763122145,10.236187653983322,3.922389864103857
66,5.395533755082748,-0.8243660196791742,-0.8428134568003438,4.741011281890567,10.136545036973315,3.8981978250902234
67,5.3974332958970725,-0.7537467243163078,-0.7581392231135945,4.629575308200737,10.027008604097809,3.8714360850871423
68,5.394859339194952,-0.688619034430249,-0.6725400072299359,4.514850031751621,9.909709370946572,3.842310024521685
69,5.397669687209534,-0.6070162756190527,-0.5855922551150827,4.3966032987053945,9.79427298591493,3.8110110435903115
70,5.4082862878823486,-0.5067484498400878,-0.4969568899777336,4.2746745057141595,9.682960793596507,3.777717615736426
71,5.412313361817052,-0.414341842332977,-0.4064635501894564,4.14905980110281,9.561373162919862,3.742596250913354
72,5.4112442497065,-0.3282675388491656,-0.3141671906023742,4.019969567963768,9.431213817670269,3.705802377361394
73,5.407316016116412,-0.22928984576378308,-0.22036340492012219,3.8878445546042557,9.295160570720668,3.6674811496841335
74,5.408540418768827,-0.1244771032430041,-0.12555890120686491,3.7533270913850867,9.161867510153915,3.6277681901782217
75,5.4117629668990705,-0.019056704798400048,-0.030404392569469047,3.6171946622075155,9.028957629106586,3.5867902696380463
76,5.4074332958970786,0.07687136362696645,0.06439435226749766,3.480271580941539,8.887704876838617,3.5446659332090364
77,5.4070626483026185,0.1702041602145119,0.1581676845590042,3.3433383917312725,8.750401040033891,3.5015060762902768
78,5.403382425837196,0.2590182714609446,0.25035731556565954,3.207057159413462,8.610439585250658,3.4574144749791214
79,5.393961172434318,0.34091304792814814,0.3405632553921323,3.0719250197072916,8.46588619214161,3.412488275099424
80,5.38346181251594,0.4205810580896703,0.428558023168968,2.938260420285082,8.321722232801022,3.36681844345405
81,5.382433295897073,0.5085662892804859,0.5142712178487306,2.8062189667365396,8.188652262633612,3.32049018458527
82,5.382433295897073,0.596457080749996,0.5977526286497219,2.6758306973585158,8.058263993255588,3.2735833260082376
83,5.380630154881972,0.6814793620292479,0.679123897571816,2.5470487770266663,7.9276789319086385,3.2261726745984824
84,5.376717897738165,0.7633526767553791,0.7585277756447991,2.4198005709153447,7.79651846865351,3.1783283465601437
85,5.366562512446096,0.8379676256253665,0.8360816018245303,2.2940344713495624,7.660596983795658,3.1301160731740927
86,5.362433295897076,0.9108968988884163,0.9118393442566787,2.16975814006442,7.532191435961495,3.0815974843210987
87,5.362169685007196,0.9833588542157887,0.9857654403179139,2.0470649312741074,7.409234616281303,3.0328303715920213
88,5.361297926049304,1.0543814939488056,1.0577238182789055,1.9261451143535713,7.287443040402875,2.9838689326324768
89,5.360962520027362,1.1251281031448253,1.1274859734038445,1.8072780248175433,7.168240544844906,2.9347639982213876
90,5.355150966990825,1.1896043362469815,1.1947614169189062,1.6908018265304443,7.04595279352127,2.885563243449351
91,5.357433295897073,1.258661624361321,1.2592511036851304,1.577060280557435,6.934493576454509,2.836311384242565
92,5.357433295897074,1.3218744776001472,1.3207194114360763,1.466330948933333,6.823764244830407,2.7870503603694092
93,5.357433295897073,1.3844039352571498,1.3790739574456272,1.3587455485229625,6.716178844420035,2.7378195059685897
94,5.357433295897073,1.446264615842244,1.4344370595816678,1.2542186489673668,6.61165194486444,2.6886557085490344
95,5.3558638216368095,1.505901199507786,1.4871903469896361,1.1524032103415665,6.5082670319783755,2.6395935573312026
96,5.343862260858806,1.5543384903551787,1.5379766433990392,1.052688838327573,6.396551099186379,2.590665481726612
97,5.337433295897077,1.5952836803872708,1.5876511005021767,0.9542507801839567,6.291684076081034,2.5419018806861335
98,5.335493139709408,1.640231781861162,1.637185119429275,0.856146124158299,6.191639263867707,2.493331243587574
99,5.325956398928947,1.6771072676025276,1.6875388293904272,0.7574414338879152,6.083397832816862,2.4449802632783424
100,5.317347814929102,1.714444447693995,1.7395271496001168,0.6573467922390889,5.974694607168191,2.3968739418392055
101,5.314513027188792,1.7570982446810213,1.7937077057167095,0.5553279838732138,5.8698410110620065,2.349035689589923
102,5.312433295897079,1.80350939601258,1.8503147590443558,0.4511726587717732,5.763605954668852,2.301487417816129
104,5.311140758349201,1.9311552880392986,1.9092526983375082,0.2980887832384811,5.609229541587682,2.2073414815759893
105,5.308410004957199,1.9919668423182832,1.9701484328247756,0.19063246692058078,5.499042471877781,2.1607808997453564
106,5.302242330479898,2.048739169694542,2.032448248370064,0.08213636339641138,5.384378693876309,2.1145846117664755
107,5.2941938624748985,2.1030397088847423,2.0955352328028467,-0.026766998831385894,5.267426863643513,2.068768233971461
108,5.290359205038327,2.1610552295846652,2.158840730356441,-0.13549439970886112,5.154864805329466,2.02334633064758
109,5.287721918968871,2.2276969323881657,2.2219277275173352,-0.24359525407365212,5.044126664895219,1.9783324734436831
110,5.280447624120332,2.289068932747565,2.284533720960441,-0.3507944237457567,4.929653200374576,1.933739297214684
111,5.265055582144794,2.341701944020636,2.346572132120576,-0.4569935795812275,4.808062002563567,1.8895785525393485
112,5.257331413428248,2.401392730173008,2.408101135352303,-0.5622399802228011,4.695091433205446,1.8458611551295019
113,5.25479610812625,2.465673127769848,2.469274271867696,-0.6666770395348838,4.588119068591366,1.802597232332812
114,5.244862877124096,2.5219669074092987,2.5302875621764884,-0.7704913952594534,4.474371481864643,1.759796166917035
115,5.237408449659443,2.5755855685444513,2.591333977415387,-0.8738673391053812,4.3635411105540625,1.7174666383100057
117,5.232482132630716,2.6821557817241954,2.652570315258776,-1.0183166918100044,4.214165440820712,1.6342536234487715
118,5.225264721848308,2.7299739248587986,2.7140962687762666,-1.1207119507236163,4.104552771124692,1.5933843180526504
119,5.215596207669281,2.7748765240067286,2.7759426093261728,-1.2229276310361858,3.9926685766330947,1.553014978289987
120,5.2126239967142265,2.8260187589900956,2.838065432620441,-1.32491412545183,3.8877098712623965,1.5131513071686111
121,5.208072162485439,2.875132282984511,2.900345493937083,-1.426546987245843,3.781525175239596,1.47379850669124
123,5.183539696629671,2.970105047712164,2.9625940816884277,-1.5659500982331456,3.6175895983965254,1.3966439834552822
124,5.175108121582824,3.022539593827337,3.0245679707173174,-1.665717572074678,3.5093905495081454,1.3588503986426395
125,5.169676161893494,3.077484865514605,3.0859948911407526,-1.7644108832502536,3.4052652786432405,1.321584007890499
126,5.165110060073191,3.132814896482431,3.146607890547326,-1.8617600006655186,3.3033500594076726,1.2848478898818074
128,5.1535179045512285,3.239601957479271,3.2061832160509183,-1.9932061985417502,3.1603117060094785,1.212977017509168
129,5.148141629045695,3.289684849260401,3.264573590311685,-2.0867268816228224,3.061414747422873,1.1778467086888624
130,5.139105612855863,3.3265990857639585,3.3217284130391365,-2.1784728134078137,2.960632799448049,1.1432555996313227
131,5.125917627389933,3.3590092403161047,3.3776950079322154,-2.2684898428201357,2.8574277845697975,1.1092051651120798
133,5.1141953117016605,3.437448166996822,3.4325999214236775,-2.3898690384669234,2.724326273234737,1.042730882956754
134,5.1099062878069414,3.4777325961237624,3.486614880281615,-2.4763061875623578,2.6336001002445837,1.0103086927192573
135,5.1065445497883335,3.518612906924411,3.539916423498419,-2.5614859043449836,2.54505864544335,0.9784305191534353
137,5.099588320031351,3.6003152702926196,3.592649954603744,-2.676342877127944,2.4232454429034074,0.9163070774757998
138,5.093344460397769,3.6398885995136365,3.6449074886037667,-2.758845748779509,2.33449871161826,0.8860617398242576
140,5.077103759359872,3.7142945803460057,3.6967242060356464,-2.869521925998132,2.20758183336174,0.8272022800375143
141,5.069877619739327,3.7519073182651894,3.7480934520395177,-2.949506422515048,2.1203711972242796,0.7985870295244699
142,5.06313985196297,3.7896915428546136,3.798994738700926,-3.0284809857905093,2.0346588661724607,0.7705137529104169
144,5.0431382891409875,3.8578010065257753,3.849426101805308,-3.133436880223973,1.9097014089170146,0.715989221581335
145,5.037214654876527,3.8947881812019833,3.8994315939604176,-3.209895907858713,1.8273187470178138,0.6895356861017046
147,5.023295507145696,3.9599936792470345,3.9491166356613303,-3.3108771753080912,1.712418331837605,0.6382394603532391
148,5.011667092244187,3.9875247961398896,3.998647513550836,-3.385253725217006,1.6264133670271805,0.6133937883338301
150,5.0004040046725935,4.053793192338334,4.048235312442213,-3.4829362017547805,1.517467802917813,0.5652991106874321
151,4.996594605535275,4.088362730519482,4.098107894104695,-3.5560613542013235,1.4405332513339517,0.5420465399033714
153,4.9907444333051005,4.1585137708050475,4.148475528496878,-3.651354137519083,1.3393902957860173,0.4971213909777945
154,4.984421201537459,4.190746181976471,4.199496276148115,-3.7240515111885597,1.2603696903488992,0.47544476495955523
156,4.968238320792133,4.253579311146697,4.251246529828003,-3.8175937585131354,1.1506445622789974,0.43365277131486746
157,4.967433295897073,4.29190321046595,4.303700797932191,-3.890167838547826,1.0772654573492466,0.4135329593843644
159,4.959386337165971,4.361371917209706,4.356723386597502,-3.9818892150446445,0.9774971221213264,0.3748341715528576
160,4.953991494417815,4.394370026581468,4.410073395860901,-4.053822966938931,0.9001685274788844,0.3562504289219701
162,4.949401644346136,4.465851413200014,4.4634233849096985,-4.1428213963059,0.8065802480402366,0.32060198860379874
164,4.942822046808083,4.532562511743892,4.5163909643681714,-4.2294288360637715,0.7133932107443117,0.28696212830439993
165,4.936781127203472,4.562094172601744,4.568581201369824,-4.297692223675772,0.6390889035276999,0.2708889776940522
167,4.926450293795999,4.6222662578957365,4.619635974799764,-4.379412886981578,0.5470374068144208,0.2402230878181859
169,4.914299186969037,4.67977872936424,4.669284488652523,-4.457771248521141,0.45652793844789663,0.2115132401313824
170,4.907545483237672,4.707548261258769,4.717387494791411,-4.519502438018932,0.38804304521873956,0.19788505677247858
172,4.902133734575678,4.7705778947380795,4.763967032410561,-4.591898581680918,0.31023515289475956,0.17206845072964327
174,4.895516953643023,4.8270530073104165,4.809214244199476,-4.661061197399729,0.2344557562432943,0.14815304679974695
175,4.892041593811825,4.854386687065826,4.853470380728948,-4.716569063356972,0.17547253045485345,0.13690131737197575
177,4.875498621974672,4.898937130557472,4.8971802722158975,-4.781384515729865,0.09411410624480698,0.11579575648603235
179,4.851332303641142,4.9351777701578845,4.940822668046725,-4.844287427023593,0.007044876617548823,0.09653524102313238
181,4.833615153126956,4.977196375267731,4.984826853369693,-4.905729736909048,-0.07211458378209112,0.07909711646064554
183,4.823673764709929,5.0263342923142895,5.029488646292439,-4.966029964712664,-0.14235620000273563,0.06345868157977463
184,4.8190076104022666,5.0554455846502035,5.074900247927646,-5.018592998068953,-0.1995853876666862,0.056307249858693176
186,4.802065969891842,5.108481797184823,5.120906967139112,-5.077581196373007,-0.2755152264811649,0.043325770766104554
188,4.781212674727085,5.156857914483472,5.167099731062249,-5.135012478388702,-0.3537998036616168,0.03208725267354762
190,4.7653680909235625,5.209510143022251,5.212846328577128,-5.190277235812908,-0.4249091448893454,0.022569092764220144
192,4.7550119321518745,5.266933539307738,5.257357744456572,-5.242608966815278,-0.48759703466340376,0.014748777641293564
194,4.739719269507915,5.318718040275078,5.299780065326262,-5.291176159883614,-0.5514568903756993,0.008603905442647886
196,4.714514144289844,5.349512876626779,5.339298378991207,-5.335186173425544,-0.6206720291357,0.004112205565662386
198,4.688808356065546,5.377195941813875,5.3752375053923895,-5.3739859491731785,-0.6851775931076327,0.0012515562192110252
200,4.6666737931783375,5.407913651867983,5.407145363164698,-5.407145363164698,-0.7404715699863607,0.0
202,4.645580746345377,5.439146975991552,5.4348478696763785,-5.43484786967638,-0.7892671233310029,-1.7763568394002505e-15
204,4.6199439664446,5.4653210279171915,5.458468771370622,-5.458468771370621,-0.8385248049260206,1.7763568394002505e-15
206,4.5937435387410215,5.490425952451763,5.478412895149367,-5.478412895149368,-0.8846693564083461,-8.881784197001252e-16
208,4.570913020455612,5.502902699007386,5.495316256803528,-5.4953162568035285,-0.9244032363479162,-8.881784197001252e-16
210,4.546711416232959,5.51259792111496,5.509970661563583,-5.509970661563582,-0.9632592453306223,8.881784197001252e-16
212,4.519743624634649,5.519205654080556,5.523233433678996,-5.523233433678998,-1.003489809044349,-1.7763568394002505e-15
214,4.493064852630128,5.525787138843876,5.535934409353264,-5.535934409353264,-1.0428695567231365,0.0
216,4.469807022477236,5.535480163238213,5.548792149293376,-5.5487921492933765,-1.0789851268161401,-8.881784197001252e-16
218,4.451359536053149,5.54967983252974,5.562349485042437,-5.562349485042437,-1.110989948989288,0.0
221,4.422055601196072,5.572343288616758,5.576935219805226,-5.576935219805226,-1.1548796186091543,0.0
223,4.403435118491827,5.588722140052722,5.592654538348119,-5.592654538348118,-1.1892194198562906,1.7763568394002505e-15
225,4.3876042421773604,5.607578099652895,5.609406153505846,-5.609406153505846,-1.2218019113284857,0.0
227,4.3745147977318295,5.628868523947736,5.6269202553152615,-5.6269202553152615,-1.252405457583432,0.0
229,4.3598861348364,5.648318148111965,5.644808694763641,-5.64480869476364,-1.2849225599272396,8.881784197001252e-16
