frequency,raw,smoothed,error,error_smoothed,equalization,parametric_eq,fixed_band_eq,equalized_raw,equalized_smoothed,target
20.00,-12.68,-12.68,-12.86,-12.86,6.00,5.20,2.90,-6.68,-6.68,0.18
20.20,-12.66,-12.67,-12.84,-12.85,6.00,5.25,2.99,-6.66,-6.67,0.18
20.40,-12.63,-12.64,-12.81,-12.82,6.00,5.29,3.07,-6.63,-6.64,0.18
20.61,-12.60,-12.60,-12.78,-12.78,6.00,5.33,3.16,-6.60,-6.60,0.18
20.81,-12.54,-12.54,-12.72,-12.72,6.00,5.38,3.25,-6.54,-6.54,0.18
21.02,-12.46,-12.46,-12.64,-12.64,6.00,5.42,3.34,-6.46,-6.46,0.18
21.23,-12.36,-12.36,-12.54,-12.54,6.00,5.47,3.44,-6.36,-6.36,0.18
21.44,-12.24,-12.24,-12.42,-12.42,6.00,5.51,3.54,-6.24,-6.24,0.18
21.66,-12.12,-12.12,-12.30,-12.30,6.00,5.55,3.64,-6.12,-6.12,0.18
21.87,-12.00,-12.01,-12.18,-12.19,6.00,5.60,3.74,-6.00,-6.01,0.18
22.09,-11.90,-11.90,-12.08,-12.08,6.00,5.64,3.85,-5.90,-5.90,0.18
22.31,-11.79,-11.79,-11.97,-11.97,6.00,5.68,3.96,-5.79,-5.79,0.18
22.54,-11.69,-11.69,-11.87,-11.88,6.00,5.72,4.07,-5.69,-5.69,0.18
22.76,-11.59,-11.59,-11.78,-11.78,6.00,5.76,4.19,-5.59,-5.59,0.19
22.99,-11.47,-11.47,-11.67,-11.67,6.00,5.81,4.30,-5.47,-5.47,0.20
23.22,-11.33,-11.33,-11.54,-11.54,6.00,5.85,4.43,-5.33,-5.33,0.21
23.45,-11.18,-11.18,-11.40,-11.40,6.00,5.89,4.55,-5.18,-5.18,0.22
23.69,-11.03,-11.03,-11.26,-11.26,6.00,5.92,4.68,-5.03,-5.03,0.23
23.92,-10.88,-10.89,-11.11,-11.11,6.00,5.96,4.81,-4.88,-4.89,0.23
24.16,-10.75,-10.76,-10.98,-10.98,6.00,6.00,4.94,-4.75,-4.76,0.23
24.40,-10.65,-10.65,-10.87,-10.87,6.00,6.04,5.07,-4.65,-4.65,0.22
24.65,-10.55,-10.55,-10.78,-10.78,6.00,6.07,5.21,-4.55,-4.55,0.23
24.89,-10.47,-10.47,-10.71,-10.71,6.00,6.11,5.34,-4.47,-4.47,0.24
25.14,-10.39,-10.39,-10.64,-10.64,6.00,6.14,5.48,-4.39,-4.39,0.25
25.39,-10.31,-10.31,-10.57,-10.56,6.00,6.17,5.62,-4.31,-4.31,0.26
25.65,-10.21,-10.21,-10.47,-10.47,6.00,6.20,5.77,-4.21,-4.21,0.26
25.91,-10.10,-10.10,-10.37,-10.37,6.00,6.23,5.91,-4.10,-4.10,0.27
26.16,-9.98,-9.99,-10.25,-10.26,6.00,6.25,6.05,-3.98,-3.99,0.27
26.43,-9.87,-9.87,-10.15,-10.14,6.00,6.28,6.19,-3.87,-3.87,0.28
26.69,-9.75,-9.75,-10.02,-10.03,6.00,6.30,6.33,-3.75,-3.75,0.27
26.96,-9.64,-9.64,-9.91,-9.92,6.00,6.32,6.47,-3.64,-3.64,0.27
27.23,-9.53,-9.53,-9.80,-9.80,6.00,6.34,6.60,-3.53,-3.53,0.27
27.50,-9.42,-9.42,-9.69,-9.69,6.00,6.36,6.74,-3.42,-3.42,0.27
27.77,-9.31,-9.31,-9.58,-9.58,6.00,6.37,6.86,-3.31,-3.31,0.27
28.05,-9.21,-9.22,-9.47,-9.48,6.00,6.38,6.99,-3.21,-3.22,0.26
28.33,-9.13,-9.13,-9.38,-9.38,6.00,6.39,7.10,-3.13,-3.13,0.25
28.62,-9.05,-9.05,-9.30,-9.30,6.00,6.40,7.21,-3.05,-3.05,0.25
28.90,-8.98,-8.98,-9.22,-9.22,6.00,6.40,7.31,-2.98,-2.98,0.24
29.19,-8.91,-8.91,-9.13,-9.13,6.00,6.40,7.40,-2.91,-2.91,0.22
29.48,-8.82,-8.82,-9.03,-9.03,6.00,6.40,7.48,-2.82,-2.82,0.21
29.78,-8.71,-8.71,-8.91,-8.91,6.00,6.40,7.55,-2.71,-2.71,0.20
30.08,-8.60,-8.60,-8.78,-8.78,6.00,6.39,7.60,-2.60,-2.60,0.18
30.38,-8.48,-8.49,-8.65,-8.66,6.00,6.38,7.65,-2.48,-2.49,0.17
30.68,-8.37,-8.38,-8.53,-8.54,6.00,6.37,7.68,-2.37,-2.38,0.16
30.99,-8.28,-8.28,-8.43,-8.43,6.00,6.35,7.70,-2.28,-2.28,0.15
31.30,-8.19,-8.19,-8.32,-8.32,6.00,6.33,7.69,-2.19,-2.19,0.13
31.61,-8.10,-8.10,-8.21,-8.21,6.00,6.31,7.69,-2.10,-2.10,0.11
31.93,-8.00,-8.00,-8.09,-8.09,6.00,6.28,7.66,-2.00,-2.00,0.09
32.24,-7.89,-7.89,-7.96,-7.96,6.00,6.25,7.62,-1.89,-1.89,0.07
32.57,-7.79,-7.79,-7.83,-7.83,6.00,6.22,7.56,-1.79,-1.79,0.04
32.89,-7.69,-7.69,-7.71,-7.71,6.00,6.19,7.50,-1.69,-1.69,0.02
33.22,-7.60,-7.60,-7.60,-7.60,6.00,6.15,7.42,-1.60,-1.60,0.00
33.55,-7.52,-7.52,-7.50,-7.50,6.00,6.11,7.34,-1.52,-1.52,-0.02
33.89,-7.44,-7.44,-7.39,-7.39,6.00,6.06,7.24,-1.44,-1.44,-0.05
34.23,-7.35,-7.35,-7.28,-7.28,6.00,6.02,7.13,-1.35,-1.35,-0.07
34.57,-7.25,-7.25,-7.15,-7.15,6.00,5.97,7.01,-1.25,-1.25,-0.10
34.92,-7.14,-7.15,-7.02,-7.02,6.00,5.91,6.89,-1.14,-1.15,-0.12
35.27,-7.04,-7.05,-6.89,-6.90,6.00,5.86,6.76,-1.04,-1.05,-0.15
35.62,-6.94,-6.94,-6.77,-6.78,6.01,5.80,6.63,-0.94,-0.94,-0.17
35.97,-6.85,-6.84,-6.67,-6.66,6.01,5.74,6.49,-0.84,-0.83,-0.18
36.33,-6.73,-6.73,-6.53,-6.53,6.02,5.68,6.35,-0.71,-0.71,-0.20
36.70,-6.61,-6.60,-6.40,-6.40,6.01,5.61,6.21,-0.60,-0.59,-0.21
37.06,-6.47,-6.47,-6.25,-6.25,6.00,5.54,6.06,-0.47,-0.47,-0.22
37.43,-6.34,-6.35,-6.11,-6.12,5.98,5.47,5.91,-0.36,-0.37,-0.23
37.81,-6.24,-6.24,-6.00,-6.00,5.94,5.40,5.77,-0.30,-0.30,-0.24
38.19,-6.14,-6.15,-5.89,-5.90,5.89,5.33,5.62,-0.25,-0.26,-0.25
38.57,-6.07,-6.07,-5.82,-5.82,5.82,5.25,5.47,-0.25,-0.25,-0.25
38.95,-5.99,-5.99,-5.74,-5.74,5.74,5.17,5.33,-0.25,-0.25,-0.25
39.34,-5.90,-5.90,-5.65,-5.65,5.65,5.09,5.18,-0.25,-0.25,-0.25
39.74,-5.79,-5.79,-5.54,-5.54,5.55,5.01,5.04,-0.24,-0.24,-0.25
40.14,-5.67,-5.68,-5.42,-5.43,5.44,4.93,4.90,-0.23,-0.24,-0.25
40.54,-5.57,-5.57,-5.32,-5.32,5.33,4.84,4.76,-0.24,-0.24,-0.25
40.94,-5.47,-5.47,-5.22,-5.23,5.22,4.76,4.62,-0.25,-0.25,-0.25
41.35,-5.38,-5.38,-5.13,-5.13,5.12,4.67,4.49,-0.26,-0.26,-0.25
41.76,-5.28,-5.27,-5.03,-5.02,5.01,4.59,4.36,-0.27,-0.26,-0.25
42.18,-5.16,-5.16,-4.90,-4.91,4.91,4.50,4.23,-0.25,-0.25,-0.26
42.60,-5.05,-5.06,-4.79,-4.80,4.82,4.41,4.10,-0.23,-0.24,-0.26
43.03,-4.96,-4.97,-4.69,-4.70,4.72,4.32,3.98,-0.24,-0.24,-0.27
43.46,-4.89,-4.89,-4.62,-4.62,4.63,4.23,3.86,-0.26,-0.26,-0.27
43.90,-4.82,-4.82,-4.54,-4.54,4.54,4.14,3.74,-0.29,-0.29,-0.28
44.33,-4.75,-4.74,-4.46,-4.46,4.43,4.04,3.62,-0.32,-0.31,-0.29
44.78,-4.65,-4.65,-4.35,-4.35,4.33,3.95,3.51,-0.32,-0.32,-0.30
45.23,-4.54,-4.54,-4.24,-4.24,4.22,3.86,3.40,-0.33,-0.33,-0.30
45.68,-4.42,-4.43,-4.10,-4.11,4.10,3.77,3.29,-0.32,-0.33,-0.32
46.13,-4.31,-4.31,-3.98,-3.98,3.97,3.67,3.19,-0.34,-0.33,-0.33
46.60,-4.18,-4.18,-3.84,-3.84,3.85,3.58,3.09,-0.34,-0.33,-0.34
47.06,-4.06,-4.06,-3.70,-3.70,3.72,3.49,2.99,-0.34,-0.34,-0.36
47.53,-3.94,-3.95,-3.56,-3.57,3.60,3.39,2.89,-0.34,-0.35,-0.38
48.01,-3.86,-3.86,-3.46,-3.47,3.49,3.30,2.80,-0.38,-0.38,-0.40
48.49,-3.79,-3.79,-3.38,-3.37,3.38,3.21,2.70,-0.41,-0.41,-0.41
48.97,-3.71,-3.71,-3.28,-3.28,3.28,3.11,2.61,-0.43,-0.43,-0.43
49.46,-3.64,-3.64,-3.19,-3.19,3.18,3.02,2.53,-0.46,-0.45,-0.45
49.96,-3.55,-3.56,-3.09,-3.10,3.09,2.93,2.44,-0.46,-0.47,-0.46
50.46,-3.48,-3.48,-3.00,-3.00,2.99,2.83,2.36,-0.49,-0.49,-0.48
50.96,-3.40,-3.40,-2.90,-2.90,2.90,2.74,2.28,-0.50,-0.51,-0.50
51.47,-3.33,-3.33,-2.80,-2.80,2.80,2.65,2.20,-0.53,-0.53,-0.53
51.99,-3.24,-3.24,-2.69,-2.69,2.69,2.56,2.12,-0.55,-0.55,-0.55
52.51,-3.15,-3.16,-2.58,-2.59,2.58,2.47,2.04,-0.57,-0.57,-0.57
53.03,-3.07,-3.07,-2.48,-2.48,2.48,2.38,1.97,-0.59,-0.59,-0.59
53.56,-2.98,-2.98,-2.36,-2.37,2.37,2.28,1.89,-0.61,-0.62,-0.62
54.10,-2.90,-2.90,-2.26,-2.26,2.26,2.19,1.82,-0.64,-0.64,-0.64
54.64,-2.81,-2.81,-2.14,-2.15,2.15,2.11,1.75,-0.66,-0.66,-0.67
55.18,-2.73,-2.73,-2.04,-2.04,2.04,2.02,1.68,-0.69,-0.69,-0.69
55.74,-2.65,-2.65,-1.93,-1.94,1.94,1.93,1.61,-0.72,-0.72,-0.72
56.29,-2.58,-2.58,-1.84,-1.84,1.83,1.84,1.55,-0.75,-0.75,-0.74
56.86,-2.50,-2.50,-1.73,-1.73,1.73,1.75,1.48,-0.78,-0.77,-0.77
57.42,-2.42,-2.42,-1.62,-1.62,1.63,1.67,1.42,-0.80,-0.79,-0.80
58.00,-2.33,-2.34,-1.51,-1.52,1.53,1.58,1.35,-0.81,-0.81,-0.82
58.58,-2.26,-2.26,-1.42,-1.42,1.43,1.49,1.29,-0.83,-0.83,-0.84
59.16,-2.19,-2.19,-1.33,-1.33,1.33,1.41,1.22,-0.86,-0.86,-0.86
59.76,-2.13,-2.13,-1.24,-1.24,1.24,1.32,1.16,-0.89,-0.89,-0.89
60.35,-2.06,-2.06,-1.15,-1.15,1.15,1.24,1.10,-0.92,-0.92,-0.91
60.96,-1.99,-2.00,-1.05,-1.06,1.06,1.16,1.04,-0.94,-0.94,-0.94
61.57,-1.93,-1.93,-0.97,-0.97,0.97,1.07,0.98,-0.96,-0.96,-0.96
62.18,-1.86,-1.86,-0.87,-0.88,0.88,0.99,0.92,-0.98,-0.98,-0.99
62.80,-1.80,-1.80,-0.79,-0.79,0.79,0.91,0.86,-1.01,-1.01,-1.01
63.43,-1.74,-1.74,-0.71,-0.71,0.71,0.83,0.80,-1.04,-1.03,-1.03
64.07,-1.68,-1.68,-0.62,-0.62,0.62,0.75,0.73,-1.06,-1.06,-1.06
64.71,-1.61,-1.61,-0.53,-0.54,0.54,0.67,0.67,-1.08,-1.08,-1.08
65.35,-1.55,-1.55,-0.45,-0.45,0.45,0.59,0.61,-1.10,-1.10,-1.10
66.01,-1.49,-1.49,-0.37,-0.37,0.37,0.51,0.55,-1.12,-1.12,-1.12
66.67,-1.43,-1.43,-0.29,-0.29,0.29,0.43,0.49,-1.14,-1.14,-1.14
67.33,-1.38,-1.38,-0.22,-0.22,0.22,0.36,0.43,-1.17,-1.16,-1.16
68.01,-1.32,-1.32,-0.13,-0.14,0.14,0.28,0.37,-1.18,-1.18,-1.19
68.69,-1.27,-1.27,-0.06,-0.06,0.07,0.20,0.31,-1.21,-1.21,-1.21
69.37,-1.22,-1.22,0.01,0.01,-0.01,0.13,0.25,-1.23,-1.23,-1.23
70.07,-1.18,-1.18,0.07,0.07,-0.07,0.05,0.19,-1.26,-1.25,-1.25
70.77,-1.13,-1.13,0.14,0.14,-0.14,-0.02,0.12,-1.27,-1.27,-1.27
71.48,-1.08,-1.09,0.22,0.21,-0.21,-0.10,0.06,-1.29,-1.29,-1.30
72.19,-1.04,-1.04,0.28,0.28,-0.28,-0.17,-0.00,-1.32,-1.32,-1.32
72.91,-1.00,-1.00,0.34,0.34,-0.34,-0.25,-0.07,-1.34,-1.34,-1.34
73.64,-0.96,-0.96,0.40,0.40,-0.41,-0.32,-0.13,-1.37,-1.37,-1.36
74.38,-0.91,-0.91,0.47,0.47,-0.47,-0.39,-0.19,-1.38,-1.39,-1.38
75.12,-0.87,-0.87,0.54,0.54,-0.54,-0.46,-0.26,-1.41,-1.41,-1.41
75.87,-0.83,-0.83,0.61,0.60,-0.60,-0.53,-0.32,-1.43,-1.43,-1.44
76.63,-0.80,-0.80,0.67,0.67,-0.66,-0.60,-0.39,-1.46,-1.46,-1.47
77.40,-0.78,-0.78,0.72,0.72,-0.72,-0.67,-0.46,-1.50,-1.49,-1.50
78.17,-0.75,-0.75,0.78,0.78,-0.77,-0.74,-0.53,-1.53,-1.53,-1.53
78.95,-0.73,-0.73,0.83,0.83,-0.83,-0.81,-0.59,-1.56,-1.56,-1.56
79.74,-0.70,-0.71,0.90,0.89,-0.89,-0.88,-0.66,-1.59,-1.60,-1.60
80.54,-0.69,-0.69,0.94,0.95,-0.95,-0.95,-0.73,-1.64,-1.64,-1.63
81.35,-0.67,-0.67,1.01,1.01,-1.02,-1.02,-0.80,-1.69,-1.68,-1.68
82.16,-0.65,-0.65,1.08,1.08,-1.08,-1.09,-0.88,-1.74,-1.74,-1.73
82.98,-0.63,-0.63,1.16,1.15,-1.15,-1.15,-0.95,-1.79,-1.79,-1.79
83.81,-0.62,-0.61,1.22,1.23,-1.23,-1.22,-1.02,-1.85,-1.84,-1.84
84.65,-0.58,-0.58,1.31,1.31,-1.30,-1.29,-1.10,-1.89,-1.89,-1.89
85.50,-0.55,-0.56,1.40,1.39,-1.38,-1.35,-1.17,-1.94,-1.94,-1.95
86.35,-0.53,-0.53,1.47,1.47,-1.46,-1.42,-1.25,-2.00,-1.99,-2.00
87.22,-0.51,-0.51,1.55,1.54,-1.55,-1.48,-1.33,-2.06,-2.06,-2.06
88.09,-0.50,-0.50,1.62,1.62,-1.63,-1.55,-1.41,-2.13,-2.13,-2.12
88.97,-0.49,-0.49,1.70,1.70,-1.71,-1.61,-1.49,-2.20,-2.20,-2.19
89.86,-0.47,-0.47,1.79,1.79,-1.79,-1.68,-1.57,-2.26,-2.26,-2.26
90.76,-0.46,-0.46,1.88,1.87,-1.87,-1.74,-1.66,-2.33,-2.33,-2.34
91.66,-0.45,-0.45,1.96,1.95,-1.94,-1.80,-1.74,-2.39,-2.39,-2.41
92.58,-0.44,-0.44,2.02,2.02,-2.02,-1.87,-1.83,-2.46,-2.46,-2.46
93.51,-0.43,-0.43,2.09,2.09,-2.09,-1.93,-1.91,-2.52,-2.52,-2.52
94.44,-0.43,-0.43,2.15,2.15,-2.16,-1.99,-2.00,-2.59,-2.59,-2.58
95.39,-0.42,-0.42,2.22,2.22,-2.22,-2.05,-2.09,-2.65,-2.65,-2.64
96.34,-0.42,-0.42,2.29,2.28,-2.29,-2.11,-2.18,-2.71,-2.71,-2.71
97.30,-0.42,-0.42,2.35,2.35,-2.35,-2.17,-2.27,-2.77,-2.77,-2.77
98.28,-0.41,-0.41,2.42,2.42,-2.41,-2.23,-2.36,-2.82,-2.82,-2.83
99.26,-0.41,-0.41,2.48,2.47,-2.47,-2.29,-2.45,-2.88,-2.88,-2.89
100.25,-0.41,-0.41,2.53,2.53,-2.53,-2.35,-2.55,-2.94,-2.94,-2.94
101.25,-0.42,-0.42,2.58,2.58,-2.58,-2.41,-2.64,-3.00,-3.00,-3.00
102.27,-0.42,-0.42,2.63,2.63,-2.63,-2.47,-2.73,-3.05,-3.06,-3.05
103.29,-0.42,-0.42,2.68,2.68,-2.68,-2.53,-2.82,-3.10,-3.11,-3.10
104.32,-0.43,-0.43,2.73,2.73,-2.73,-2.58,-2.92,-3.16,-3.16,-3.16
105.37,-0.42,-0.43,2.79,2.78,-2.78,-2.64,-3.01,-3.20,-3.21,-3.21
106.42,-0.43,-0.43,2.83,2.83,-2.83,-2.70,-3.10,-3.26,-3.26,-3.26
107.48,-0.43,-0.43,2.88,2.88,-2.87,-2.75,-3.19,-3.31,-3.31,-3.31
108.56,-0.44,-0.44,2.92,2.92,-2.92,-2.81,-3.28,-3.36,-3.36,-3.36
109.64,-0.44,-0.44,2.97,2.97,-2.97,-2.86,-3.36,-3.41,-3.41,-3.41
110.74,-0.45,-0.45,3.01,3.01,-3.01,-2.92,-3.45,-3.46,-3.46,-3.46
111.85,-0.46,-0.46,3.06,3.05,-3.06,-2.97,-3.53,-3.52,-3.52,-3.52
112.97,-0.47,-0.47,3.10,3.10,-3.10,-3.03,-3.60,-3.57,-3.57,-3.57
114.10,-0.47,-0.48,3.15,3.15,-3.15,-3.08,-3.68,-3.62,-3.63,-3.62
115.24,-0.48,-0.48,3.20,3.19,-3.20,-3.13,-3.75,-3.68,-3.68,-3.68
116.39,-0.48,-0.48,3.24,3.24,-3.24,-3.18,-3.82,-3.73,-3.73,-3.72
117.55,-0.48,-0.48,3.29,3.29,-3.29,-3.24,-3.88,-3.77,-3.77,-3.77
118.73,-0.48,-0.48,3.34,3.34,-3.33,-3.29,-3.94,-3.81,-3.81,-3.82
119.92,-0.48,-0.49,3.39,3.38,-3.37,-3.34,-3.98,-3.86,-3.86,-3.87
121.12,-0.50,-0.50,3.43,3.42,-3.41,-3.39,-4.03,-3.92,-3.92,-3.93
122.33,-0.53,-0.52,3.45,3.45,-3.45,-3.44,-4.07,-3.98,-3.98,-3.98
123.55,-0.54,-0.54,3.49,3.49,-3.49,-3.49,-4.11,-4.03,-4.04,-4.03
124.79,-0.56,-0.56,3.52,3.52,-3.53,-3.54,-4.14,-4.09,-4.09,-4.08
126.03,-0.56,-0.56,3.57,3.57,-3.57,-3.59,-4.16,-4.13,-4.13,-4.13
127.29,-0.57,-0.57,3.61,3.61,-3.61,-3.64,-4.18,-4.18,-4.18,-4.18
128.57,-0.57,-0.58,3.66,3.66,-3.65,-3.68,-4.19,-4.23,-4.23,-4.23
129.85,-0.59,-0.59,3.70,3.70,-3.70,-3.73,-4.19,-4.29,-4.29,-4.29
131.15,-0.60,-0.60,3.75,3.75,-3.74,-3.78,-4.20,-4.34,-4.35,-4.35
132.46,-0.62,-0.62,3.79,3.79,-3.79,-3.83,-4.19,-4.41,-4.41,-4.41
133.79,-0.63,-0.63,3.84,3.84,-3.83,-3.87,-4.18,-4.46,-4.46,-4.47
135.12,-0.64,-0.64,3.88,3.88,-3.88,-3.92,-4.17,-4.52,-4.52,-4.52
136.48,-0.65,-0.65,3.92,3.92,-3.92,-3.96,-4.15,-4.57,-4.57,-4.57
137.84,-0.66,-0.66,3.96,3.96,-3.96,-4.01,-4.13,-4.63,-4.63,-4.62
139.22,-0.67,-0.67,4.01,4.00,-4.01,-4.05,-4.11,-4.68,-4.68,-4.68
140.61,-0.69,-0.69,4.05,4.05,-4.05,-4.09,-4.08,-4.74,-4.74,-4.74
142.02,-0.69,-0.70,4.10,4.10,-4.10,-4.14,-4.05,-4.79,-4.79,-4.79
143.44,-0.71,-0.71,4.14,4.14,-4.14,-4.18,-4.02,-4.85,-4.85,-4.85
144.87,-0.72,-0.72,4.19,4.18,-4.18,-4.22,-3.99,-4.90,-4.90,-4.91
146.32,-0.73,-0.73,4.22,4.22,-4.22,-4.26,-3.95,-4.95,-4.95,-4.95
147.78,-0.74,-0.74,4.26,4.26,-4.26,-4.30,-3.92,-5.00,-5.00,-5.00
149.26,-0.75,-0.75,4.29,4.29,-4.29,-4.34,-3.89,-5.05,-5.04,-5.04
150.75,-0.76,-0.76,4.33,4.33,-4.33,-4.37,-3.85,-5.09,-5.09,-5.09
152.26,-0.76,-0.77,4.37,4.36,-4.36,-4.41,-3.82,-5.12,-5.13,-5.13
153.78,-0.78,-0.78,4.39,4.39,-4.39,-4.44,-3.79,-5.17,-5.17,-5.17
155.32,-0.79,-0.79,4.42,4.42,-4.42,-4.47,-3.75,-5.21,-5.21,-5.21
156.88,-0.80,-0.80,4.45,4.45,-4.44,-4.50,-3.72,-5.24,-5.24,-5.25
158.44,-0.81,-0.81,4.47,4.47,-4.46,-4.53,-3.69,-5.28,-5.27,-5.28
160.03,-0.82,-0.82,4.49,4.49,-4.48,-4.56,-3.67,-5.30,-5.30,-5.31
161.63,-0.83,-0.83,4.50,4.50,-4.50,-4.58,-3.64,-5.33,-5.33,-5.33
163.24,-0.85,-0.85,4.51,4.51,-4.52,-4.60,-3.62,-5.37,-5.36,-5.36
164.88,-0.86,-0.86,4.53,4.53,-4.53,-4.62,-3.60,-5.39,-5.39,-5.39
166.53,-0.87,-0.87,4.54,4.54,-4.54,-4.63,-3.58,-5.42,-5.42,-5.41
168.19,-0.88,-0.88,4.56,4.56,-4.56,-4.64,-3.56,-5.44,-5.44,-5.44
169.87,-0.89,-0.89,4.57,4.57,-4.57,-4.66,-3.55,-5.46,-5.46,-5.46
171.57,-0.90,-0.90,4.58,4.58,-4.58,-4.66,-3.54,-5.48,-5.48,-5.48
173.29,-0.91,-0.91,4.59,4.59,-4.58,-4.66,-3.53,-5.50,-5.50,-5.50
175.02,-0.92,-0.92,4.60,4.59,-4.59,-4.66,-3.52,-5.51,-5.52,-5.52
176.77,-0.94,-0.94,4.60,4.60,-4.59,-4.66,-3.52,-5.54,-5.54,-5.54
178.54,-0.96,-0.96,4.59,4.59,-4.60,-4.65,-3.52,-5.56,-5.56,-5.55
180.32,-0.98,-0.98,4.59,4.59,-4.60,-4.65,-3.52,-5.58,-5.58,-5.57
182.13,-1.00,-1.00,4.59,4.59,-4.59,-4.63,-3.53,-5.59,-5.59,-5.59
183.95,-1.01,-1.02,4.60,4.59,-4.59,-4.62,-3.54,-5.60,-5.60,-5.61
185.79,-1.03,-1.03,4.59,4.58,-4.58,-4.60,-3.55,-5.61,-5.62,-5.62
187.65,-1.06,-1.06,4.57,4.57,-4.57,-4.58,-3.56,-5.64,-5.63,-5.63
189.52,-1.08,-1.08,4.56,4.56,-4.56,-4.55,-3.58,-5.65,-5.65,-5.64
191.42,-1.11,-1.11,4.55,4.55,-4.55,-4.53,-3.59,-5.66,-5.66,-5.66
193.33,-1.14,-1.14,4.53,4.53,-4.53,-4.50,-3.61,-5.68,-5.67,-5.67
195.27,-1.16,-1.17,4.52,4.51,-4.51,-4.47,-3.64,-5.67,-5.68,-5.68
197.22,-1.20,-1.20,4.49,4.49,-4.49,-4.43,-3.66,-5.69,-5.69,-5.69
199.19,-1.24,-1.24,4.46,4.46,-4.45,-4.39,-3.69,-5.70,-5.70,-5.70
201.18,-1.29,-1.29,4.42,4.42,-4.42,-4.35,-3.72,-5.71,-5.71,-5.71
203.19,-1.35,-1.35,4.37,4.37,-4.37,-4.30,-3.75,-5.72,-5.72,-5.72
205.23,-1.41,-1.41,4.32,4.32,-4.32,-4.25,-3.78,-5.73,-5.73,-5.73
207.28,-1.48,-1.48,4.26,4.26,-4.25,-4.20,-3.81,-5.73,-5.74,-5.74
209.35,-1.56,-1.56,4.18,4.19,-4.18,-4.13,-3.85,-5.74,-5.74,-5.74
211.44,-1.64,-1.65,4.11,4.10,-4.09,-4.07,-3.88,-5.74,-5.74,-5.75
213.56,-1.74,-1.75,4.01,4.01,-4.00,-4.00,-3.91,-5.74,-5.74,-5.75
215.69,-1.86,-1.86,3.90,3.90,-3.89,-3.93,-3.95,-5.75,-5.75,-5.76
217.85,-1.97,-1.97,3.79,3.79,-3.78,-3.85,-3.98,-5.75,-5.75,-5.76
220.03,-2.09,-2.09,3.67,3.66,-3.66,-3.77,-4.02,-5.75,-5.75,-5.76
222.23,-2.21,-2.21,3.54,3.54,-3.54,-3.68,-4.05,-5.75,-5.75,-5.75
224.45,-2.33,-2.33,3.42,3.42,-3.42,-3.58,-4.08,-5.75,-5.75,-5.75
226.70,-2.45,-2.45,3.30,3.29,-3.30,-3.49,-4.11,-5.75,-5.75,-5.75
228.96,-2.56,-2.56,3.18,3.18,-3.19,-3.39,-4.14,-5.75,-5.75,-5.74
231.25,-2.65,-2.65,3.09,3.09,-3.10,-3.30,-4.16,-5.75,-5.75,-5.74
233.57,-2.73,-2.73,3.01,3.01,-3.01,-3.21,-4.19,-5.75,-5.75,-5.74
235.90,-2.80,-2.80,2.94,2.94,-2.95,-3.13,-4.21,-5.75,-5.74,-5.74
238.26,-2.84,-2.84,2.90,2.89,-2.90,-3.06,-4.22,-5.74,-5.74,-5.74
240.64,-2.87,-2.87,2.86,2.86,-2.86,-3.00,-4.24,-5.74,-5.74,-5.73
243.05,-2.88,-2.88,2.84,2.84,-2.85,-2.96,-4.25,-5.73,-5.73,-5.72
245.48,-2.87,-2.87,2.84,2.84,-2.84,-2.95,-4.25,-5.72,-5.71,-5.71
247.93,-2.84,-2.85,2.86,2.85,-2.86,-2.95,-4.26,-5.70,-5.70,-5.70
250.41,-2.81,-2.81,2.88,2.88,-2.88,-2.98,-4.25,-5.69,-5.69,-5.69
252.92,-2.77,-2.77,2.91,2.91,-2.91,-3.01,-4.25,-5.68,-5.68,-5.68
255.45,-2.72,-2.72,2.95,2.95,-2.95,-3.06,-4.24,-5.67,-5.67,-5.67
258.00,-2.67,-2.67,2.99,2.99,-2.99,-3.12,-4.22,-5.66,-5.66,-5.66
260.58,-2.61,-2.62,3.05,3.04,-3.04,-3.19,-4.20,-5.65,-5.65,-5.66
263.19,-2.56,-2.56,3.09,3.09,-3.09,-3.25,-4.18,-5.65,-5.65,-5.65
265.82,-2.50,-2.50,3.14,3.14,-3.14,-3.32,-4.16,-5.64,-5.64,-5.64
268.48,-2.44,-2.44,3.19,3.19,-3.19,-3.39,-4.13,-5.63,-5.63,-5.63
271.16,-2.38,-2.38,3.24,3.24,-3.24,-3.45,-4.10,-5.62,-5.62,-5.62
273.87,-2.32,-2.32,3.29,3.28,-3.28,-3.51,-4.07,-5.61,-5.61,-5.61
276.61,-2.27,-2.27,3.33,3.33,-3.33,-3.56,-4.03,-5.60,-5.60,-5.60
279.38,-2.22,-2.22,3.38,3.38,-3.38,-3.61,-3.99,-5.60,-5.60,-5.60
282.17,-2.17,-2.17,3.43,3.42,-3.43,-3.65,-3.95,-5.60,-5.60,-5.60
284.99,-2.13,-2.13,3.47,3.47,-3.47,-3.68,-3.91,-5.60,-5.60,-5.60
287.84,-2.08,-2.08,3.52,3.52,-3.52,-3.71,-3.87,-5.60,-5.60,-5.60
290.72,-2.04,-2.04,3.56,3.56,-3.56,-3.74,-3.83,-5.60,-5.60,-5.60
293.63,-1.99,-1.99,3.61,3.61,-3.60,-3.77,-3.79,-5.59,-5.60,-5.60
296.57,-1.95,-1.96,3.65,3.64,-3.64,-3.79,-3.75,-5.59,-5.60,-5.60
299.53,-1.92,-1.92,3.68,3.68,-3.68,-3.80,-3.70,-5.60,-5.60,-5.60
302.53,-1.88,-1.88,3.72,3.72,-3.72,-3.82,-3.66,-5.60,-5.60,-5.60
305.55,-1.84,-1.84,3.76,3.76,-3.76,-3.83,-3.62,-5.60,-5.60,-5.60
308.61,-1.80,-1.80,3.80,3.80,-3.80,-3.83,-3.58,-5.60,-5.60,-5.60
311.69,-1.76,-1.76,3.84,3.84,-3.84,-3.84,-3.54,-5.60,-5.60,-5.60
314.81,-1.72,-1.72,3.88,3.88,-3.88,-3.84,-3.50,-5.60,-5.60,-5.60
317.96,-1.68,-1.68,3.92,3.92,-3.92,-3.84,-3.47,-5.60,-5.60,-5.60
321.14,-1.64,-1.64,3.96,3.96,-3.95,-3.84,-3.43,-5.59,-5.59,-5.60
324.35,-1.60,-1.61,4.00,3.99,-3.98,-3.84,-3.40,-5.58,-5.59,-5.60
327.59,-1.58,-1.58,4.02,4.02,-4.01,-3.84,-3.37,-5.59,-5.59,-5.60
330.87,-1.55,-1.56,4.05,4.04,-4.04,-3.83,-3.34,-5.59,-5.59,-5.60
334.18,-1.54,-1.54,4.05,4.05,-4.06,-3.82,-3.32,-5.61,-5.60,-5.59
337.52,-1.51,-1.51,4.07,4.07,-4.09,-3.82,-3.29,-5.60,-5.60,-5.58
340.90,-1.47,-1.47,4.10,4.10,-4.12,-3.81,-3.27,-5.59,-5.59,-5.57
344.30,-1.41,-1.42,4.15,4.14,-4.15,-3.80,-3.25,-5.56,-5.56,-5.56
347.75,-1.36,-1.36,4.18,4.18,-4.17,-3.79,-3.23,-5.53,-5.54,-5.54
351.23,-1.32,-1.32,4.21,4.21,-4.20,-3.78,-3.22,-5.52,-5.51,-5.53
354.74,-1.28,-1.28,4.23,4.23,-4.22,-3.77,-3.21,-5.50,-5.50,-5.51
358.28,-1.25,-1.25,4.25,4.24,-4.23,-3.75,-3.20,-5.48,-5.49,-5.50
361.87,-1.23,-1.23,4.25,4.25,-4.24,-3.74,-3.19,-5.47,-5.47,-5.48
365.49,-1.21,-1.21,4.24,4.24,-4.25,-3.73,-3.19,-5.46,-5.46,-5.45
369.14,-1.19,-1.19,4.24,4.24,-4.24,-3.71,-3.19,-5.43,-5.44,-5.43
372.83,-1.18,-1.18,4.23,4.23,-4.24,-3.70,-3.19,-5.42,-5.41,-5.41
376.56,-1.16,-1.16,4.23,4.23,-4.23,-3.68,-3.19,-5.39,-5.39,-5.39
380.33,-1.15,-1.15,4.22,4.22,-4.21,-3.67,-3.19,-5.37,-5.37,-5.37
384.13,-1.15,-1.15,4.20,4.20,-4.20,-3.65,-3.20,-5.35,-5.35,-5.35
387.97,-1.14,-1.14,4.19,4.19,-4.19,-3.63,-3.21,-5.33,-5.33,-5.33
391.85,-1.14,-1.14,4.17,4.17,-4.17,-3.62,-3.22,-5.31,-5.31,-5.31
395.77,-1.14,-1.14,4.15,4.15,-4.15,-3.60,-3.23,-5.29,-5.29,-5.29
399.73,-1.14,-1.14,4.13,4.13,-4.13,-3.58,-3.25,-5.28,-5.28,-5.27
403.72,-1.14,-1.14,4.12,4.11,-4.11,-3.56,-3.26,-5.25,-5.26,-5.26
407.76,-1.15,-1.15,4.09,4.09,-4.09,-3.55,-3.28,-5.24,-5.24,-5.24
411.84,-1.15,-1.15,4.07,4.07,-4.06,-3.53,-3.30,-5.21,-5.22,-5.22
415.96,-1.16,-1.16,4.04,4.04,-4.03,-3.51,-3.32,-5.20,-5.20,-5.20
420.12,-1.18,-1.18,4.01,4.01,-4.00,-3.49,-3.34,-5.18,-5.18,-5.19
424.32,-1.20,-1.20,3.97,3.97,-3.97,-3.47,-3.36,-5.17,-5.17,-5.17
428.56,-1.22,-1.22,3.93,3.93,-3.93,-3.45,-3.39,-5.15,-5.15,-5.15
