frequency,raw,error,smoothed,error_smoothed,equalization,parametric_eq,fixed_band_eq,equalized_raw,equalized_smoothed,target
20.00,13.03,8.95,13.04,8.95,-8.95,-8.32,-3.94,4.09,4.09,4.09
20.20,13.02,8.95,13.02,8.95,-8.95,-8.32,-4.05,4.08,4.08,4.08
20.40,13.01,8.95,13.01,8.95,-8.95,-8.33,-4.15,4.07,4.06,4.07
20.61,13.00,8.94,13.00,8.95,-8.95,-8.33,-4.27,4.05,4.05,4.06
20.81,12.98,8.95,12.99,8.95,-8.95,-8.34,-4.38,4.04,4.04,4.04
21.02,12.97,8.95,12.97,8.95,-8.95,-8.34,-4.50,4.03,4.03,4.03
21.23,12.96,8.95,12.96,8.95,-8.94,-8.34,-4.62,4.02,4.02,4.01
21.44,12.95,8.93,12.95,8.94,-8.94,-8.35,-4.75,4.01,4.01,4.02
21.66,12.94,8.94,12.95,8.94,-8.94,-8.35,-4.88,4.01,4.01,4.00
21.87,12.93,8.93,12.93,8.93,-8.94,-8.36,-5.01,4.00,4.00,4.00
22.09,12.92,8.94,12.92,8.93,-8.93,-8.36,-5.15,3.99,3.99,3.98
22.31,12.90,8.92,12.91,8.93,-8.93,-8.36,-5.29,3.98,3.98,3.98
22.54,12.89,8.92,12.90,8.92,-8.92,-8.37,-5.43,3.97,3.97,3.97
22.76,12.88,8.91,12.88,8.92,-8.92,-8.37,-5.58,3.97,3.96,3.97
22.99,12.87,8.91,12.87,8.91,-8.91,-8.38,-5.73,3.96,3.96,3.96
23.22,12.86,8.91,12.87,8.91,-8.91,-8.38,-5.88,3.96,3.96,3.95
23.45,12.85,8.89,12.85,8.90,-8.90,-8.39,-6.04,3.96,3.96,3.96
23.69,12.84,8.90,12.84,8.89,-8.89,-8.39,-6.20,3.95,3.95,3.95
23.92,12.82,8.89,12.83,8.88,-8.88,-8.40,-6.37,3.94,3.95,3.94
24.16,12.81,8.87,12.82,8.87,-8.87,-8.40,-6.54,3.94,3.94,3.95
24.40,12.80,8.86,12.80,8.86,-8.86,-8.41,-6.71,3.94,3.94,3.95
24.65,12.79,8.85,12.79,8.85,-8.85,-8.41,-6.89,3.94,3.94,3.95
24.89,12.78,8.84,12.78,8.84,-8.84,-8.42,-7.06,3.94,3.94,3.95
25.14,12.76,8.83,12.77,8.83,-8.83,-8.42,-7.24,3.94,3.94,3.94
25.39,12.75,8.82,12.75,8.82,-8.82,-8.43,-7.43,3.94,3.94,3.93
25.65,12.74,8.81,12.74,8.81,-8.80,-8.43,-7.61,3.94,3.94,3.93
25.91,12.73,8.79,12.73,8.79,-8.79,-8.44,-7.80,3.93,3.94,3.93
26.16,12.71,8.77,12.72,8.78,-8.78,-8.44,-7.99,3.93,3.93,3.94
26.43,12.70,8.76,12.70,8.76,-8.77,-8.45,-8.17,3.94,3.93,3.94
26.69,12.69,8.75,12.69,8.75,-8.76,-8.45,-8.36,3.94,3.94,3.94
26.96,12.68,8.75,12.68,8.75,-8.75,-8.46,-8.55,3.94,3.94,3.94
27.23,12.67,8.74,12.67,8.74,-8.73,-8.46,-8.73,3.94,3.94,3.94
27.50,12.66,8.73,12.66,8.73,-8.72,-8.47,-8.91,3.94,3.94,3.94
27.77,12.65,8.71,12.65,8.71,-8.71,-8.47,-9.09,3.95,3.95,3.95
28.05,12.64,8.70,12.65,8.70,-8.70,-8.48,-9.26,3.95,3.95,3.94
28.33,12.63,8.68,12.63,8.68,-8.68,-8.48,-9.42,3.95,3.95,3.95
28.62,12.62,8.67,12.62,8.67,-8.67,-8.49,-9.59,3.96,3.95,3.95
28.90,12.60,8.64,12.61,8.65,-8.65,-8.49,-9.73,3.95,3.95,3.96
29.19,12.59,8.64,12.60,8.64,-8.64,-8.50,-9.88,3.95,3.95,3.96
29.48,12.58,8.63,12.58,8.63,-8.63,-8.51,-10.00,3.96,3.96,3.96
29.78,12.57,8.62,12.57,8.62,-8.62,-8.51,-10.12,3.96,3.96,3.96
30.08,12.56,8.61,12.56,8.61,-8.61,-8.52,-10.22,3.96,3.95,3.95
30.38,12.54,8.60,12.55,8.60,-8.60,-8.52,-10.32,3.95,3.95,3.94
30.68,12.53,8.59,12.53,8.59,-8.59,-8.53,-10.39,3.94,3.94,3.94
30.99,12.52,8.59,12.52,8.58,-8.59,-8.53,-10.45,3.93,3.93,3.94
31.30,12.51,8.58,12.52,8.58,-8.59,-8.54,-10.49,3.93,3.93,3.94
31.61,12.51,8.58,12.51,8.58,-8.58,-8.54,-10.52,3.93,3.93,3.94
31.93,12.50,8.59,12.51,8.58,-8.58,-8.55,-10.53,3.92,3.93,3.91
32.24,12.50,8.58,12.50,8.59,-8.58,-8.56,-10.53,3.92,3.92,3.92
32.57,12.49,8.59,12.49,8.58,-8.58,-8.56,-10.51,3.92,3.92,3.91
32.89,12.48,8.58,12.49,8.58,-8.58,-8.57,-10.49,3.91,3.91,3.91
33.22,12.47,8.57,12.47,8.57,-8.58,-8.57,-10.44,3.90,3.90,3.90
33.55,12.46,8.56,12.46,8.57,-8.57,-8.58,-10.39,3.89,3.89,3.90
33.89,12.45,8.57,12.45,8.56,-8.57,-8.58,-10.32,3.89,3.89,3.89
34.23,12.44,8.57,12.44,8.57,-8.56,-8.59,-10.25,3.88,3.88,3.88
34.57,12.43,8.56,12.43,8.56,-8.56,-8.59,-10.17,3.88,3.88,3.87
34.92,12.42,8.56,12.43,8.56,-8.55,-8.60,-10.09,3.87,3.87,3.86
35.27,12.41,8.54,12.41,8.55,-8.55,-8.60,-9.99,3.87,3.86,3.88
35.62,12.40,8.55,12.40,8.54,-8.55,-8.61,-9.90,3.86,3.85,3.85
35.97,12.38,8.53,12.39,8.54,-8.54,-8.61,-9.80,3.84,3.84,3.85
36.33,12.37,8.54,12.38,8.54,-8.54,-8.62,-9.70,3.83,3.83,3.84
36.70,12.36,8.55,12.36,8.54,-8.54,-8.62,-9.60,3.82,3.82,3.81
37.06,12.35,8.55,12.35,8.55,-8.55,-8.63,-9.50,3.81,3.80,3.80
37.43,12.33,8.55,12.34,8.55,-8.55,-8.63,-9.40,3.78,3.79,3.79
37.81,12.32,8.55,12.33,8.56,-8.56,-8.64,-9.30,3.77,3.77,3.77
38.19,12.31,8.57,12.31,8.56,-8.56,-8.64,-9.21,3.75,3.75,3.75
38.57,12.30,8.57,12.31,8.57,-8.57,-8.64,-9.12,3.73,3.73,3.73
38.95,12.29,8.58,12.30,8.58,-8.58,-8.65,-9.03,3.72,3.72,3.72
39.34,12.28,8.59,12.28,8.59,-8.58,-8.65,-8.95,3.70,3.70,3.69
39.74,12.26,8.59,12.27,8.59,-8.59,-8.66,-8.87,3.68,3.68,3.67
40.14,12.24,8.59,12.25,8.59,-8.59,-8.66,-8.79,3.65,3.65,3.66
40.54,12.23,8.59,12.23,8.60,-8.60,-8.66,-8.72,3.64,3.63,3.64
40.94,12.21,8.60,12.22,8.60,-8.60,-8.67,-8.66,3.61,3.62,3.61
41.35,12.20,8.61,12.20,8.60,-8.60,-8.67,-8.60,3.60,3.60,3.60
41.76,12.18,8.61,12.18,8.61,-8.60,-8.67,-8.55,3.58,3.58,3.57
42.18,12.16,8.60,12.17,8.60,-8.60,-8.68,-8.50,3.56,3.56,3.57
42.60,12.14,8.60,12.14,8.60,-8.60,-8.68,-8.46,3.54,3.54,3.54
43.03,12.12,8.60,12.12,8.60,-8.60,-8.68,-8.42,3.52,3.52,3.52
43.46,12.10,8.61,12.10,8.61,-8.60,-8.69,-8.39,3.50,3.50,3.50
43.90,12.08,8.60,12.08,8.61,-8.61,-8.69,-8.37,3.48,3.48,3.48
44.33,12.06,8.61,12.06,8.61,-8.61,-8.69,-8.35,3.46,3.46,3.45
44.78,12.04,8.61,12.05,8.61,-8.61,-8.70,-8.34,3.43,3.43,3.44
45.23,12.02,8.61,12.02,8.61,-8.62,-8.70,-8.34,3.41,3.41,3.42
45.68,12.00,8.63,12.00,8.62,-8.62,-8.70,-8.34,3.38,3.38,3.38
46.13,11.97,8.62,11.98,8.63,-8.63,-8.71,-8.34,3.35,3.35,3.35
46.60,11.95,8.63,11.96,8.63,-8.63,-8.71,-8.36,3.32,3.32,3.32
47.06,11.93,8.64,11.93,8.64,-8.64,-8.71,-8.38,3.30,3.29,3.29
47.53,11.90,8.64,11.91,8.65,-8.65,-8.72,-8.40,3.26,3.26,3.26
48.01,11.87,8.66,11.88,8.66,-8.65,-8.72,-8.43,3.22,3.22,3.21
48.49,11.84,8.66,11.84,8.66,-8.66,-8.73,-8.46,3.18,3.18,3.18
48.97,11.81,8.67,11.81,8.67,-8.67,-8.73,-8.50,3.14,3.14,3.14
49.46,11.78,8.67,11.79,8.68,-8.68,-8.74,-8.55,3.11,3.11,3.11
49.96,11.75,8.69,11.76,8.69,-8.69,-8.75,-8.60,3.06,3.07,3.06
50.46,11.73,8.70,11.73,8.69,-8.70,-8.75,-8.65,3.03,3.03,3.04
50.96,11.70,8.70,11.71,8.71,-8.71,-8.76,-8.70,2.99,3.00,3.01
51.47,11.69,8.72,11.69,8.72,-8.72,-8.77,-8.76,2.97,2.97,2.97
51.99,11.68,8.75,11.68,8.74,-8.73,-8.78,-8.83,2.95,2.94,2.93
52.51,11.65,8.75,11.66,8.75,-8.74,-8.78,-8.89,2.91,2.91,2.91
53.03,11.63,8.75,11.63,8.76,-8.75,-8.79,-8.96,2.88,2.88,2.88
53.56,11.60,8.76,11.60,8.76,-8.76,-8.80,-9.03,2.84,2.84,2.85
54.10,11.57,8.77,11.58,8.76,-8.77,-8.81,-9.10,2.81,2.81,2.80
54.64,11.54,8.77,11.54,8.77,-8.77,-8.82,-9.17,2.78,2.78,2.78
55.18,11.51,8.77,11.51,8.77,-8.77,-8.83,-9.24,2.74,2.74,2.74
55.74,11.48,8.78,11.48,8.77,-8.77,-8.84,-9.30,2.71,2.71,2.71
56.29,11.45,8.77,11.45,8.77,-8.77,-8.85,-9.37,2.68,2.68,2.69
56.86,11.42,8.76,11.42,8.77,-8.77,-8.86,-9.43,2.66,2.66,2.66
57.42,11.39,8.77,11.40,8.77,-8.77,-8.87,-9.49,2.63,2.63,2.62
58.00,11.36,8.77,11.37,8.77,-8.77,-8.88,-9.54,2.60,2.60,2.59
58.58,11.34,8.77,11.34,8.77,-8.77,-8.89,-9.59,2.57,2.57,2.57
59.16,11.31,8.76,11.32,8.77,-8.78,-8.90,-9.63,2.54,2.54,2.55
59.76,11.29,8.77,11.29,8.77,-8.79,-8.91,-9.67,2.51,2.51,2.52
60.35,11.27,8.79,11.27,8.79,-8.80,-8.92,-9.69,2.48,2.47,2.48
60.96,11.24,8.81,11.25,8.81,-8.81,-8.93,-9.71,2.43,2.44,2.44
61.57,11.22,8.84,11.22,8.83,-8.83,-8.94,-9.73,2.40,2.39,2.39
62.18,11.19,8.85,11.19,8.85,-8.85,-8.95,-9.73,2.35,2.35,2.34
62.80,11.16,8.87,11.17,8.87,-8.86,-8.96,-9.72,2.30,2.30,2.30
63.43,11.13,8.88,11.14,8.88,-8.88,-8.96,-9.71,2.25,2.26,2.25
64.07,11.11,8.90,11.11,8.90,-8.90,-8.97,-9.69,2.22,2.22,2.22
64.71,11.09,8.91,11.09,8.91,-8.91,-8.98,-9.66,2.18,2.18,2.18
65.35,11.06,8.92,11.06,8.92,-8.92,-8.98,-9.62,2.14,2.14,2.14
66.01,11.03,8.93,11.04,8.93,-8.93,-8.99,-9.58,2.10,2.10,2.10
66.67,11.00,8.93,11.01,8.94,-8.94,-8.99,-9.52,2.06,2.07,2.08
67.33,10.98,8.96,10.98,8.95,-8.95,-8.99,-9.47,2.03,2.03,2.03
68.01,10.95,8.96,10.95,8.96,-8.96,-9.00,-9.40,2.00,2.00,2.00
68.69,10.92,8.97,10.93,8.97,-8.97,-9.00,-9.33,1.96,1.96,1.95
69.37,10.89,8.97,10.89,8.98,-8.98,-9.00,-9.26,1.92,1.92,1.92
70.07,10.86,8.99,10.86,8.99,-8.99,-9.00,-9.19,1.87,1.87,1.88
70.77,10.83,9.00,10.83,9.00,-9.00,-9.00,-9.11,1.83,1.83,1.83
71.48,10.80,9.00,10.80,9.01,-9.01,-9.00,-9.03,1.79,1.79,1.80
72.19,10.77,9.02,10.78,9.02,-9.02,-9.00,-8.95,1.75,1.75,1.75
72.91,10.74,9.04,10.75,9.03,-9.03,-9.00,-8.87,1.72,1.72,1.71
73.64,10.71,9.04,10.71,9.04,-9.03,-9.00,-8.79,1.68,1.68,1.67
74.38,10.67,9.04,10.68,9.04,-9.03,-8.99,-8.71,1.64,1.64,1.63
75.12,10.63,9.03,10.64,9.03,-9.03,-8.99,-8.64,1.60,1.60,1.60
75.87,10.59,9.02,10.60,9.02,-9.02,-8.99,-8.56,1.57,1.57,1.57
76.63,10.55,9.02,10.55,9.02,-9.02,-8.98,-8.49,1.54,1.54,1.53
77.40,10.51,9.00,10.51,9.00,-9.01,-8.98,-8.42,1.51,1.50,1.51
78.17,10.46,8.99,10.47,8.99,-9.00,-8.97,-8.36,1.47,1.47,1.47
78.95,10.42,8.97,10.43,8.98,-8.98,-8.96,-8.30,1.44,1.44,1.46
79.74,10.39,8.97,10.39,8.97,-8.97,-8.96,-8.24,1.42,1.42,1.42
80.54,10.36,8.97,10.36,8.96,-8.96,-8.95,-8.19,1.40,1.40,1.40
81.35,10.32,8.96,10.32,8.96,-8.95,-8.94,-8.14,1.37,1.37,1.36
82.16,10.28,8.94,10.28,8.94,-8.94,-8.93,-8.10,1.34,1.34,1.35
82.98,10.23,8.93,10.24,8.93,-8.93,-8.92,-8.06,1.30,1.31,1.31
83.81,10.19,8.91,10.20,8.92,-8.92,-8.91,-8.03,1.27,1.27,1.28
84.65,10.15,8.91,10.15,8.91,-8.91,-8.90,-8.01,1.24,1.24,1.24
85.50,10.11,8.90,10.12,8.90,-8.90,-8.89,-7.99,1.21,1.22,1.21
86.35,10.07,8.89,10.08,8.90,-8.89,-8.88,-7.97,1.19,1.19,1.18
87.22,10.04,8.89,10.04,8.89,-8.88,-8.87,-7.96,1.16,1.16,1.15
88.09,9.99,8.88,9.99,8.88,-8.87,-8.85,-7.96,1.12,1.12,1.12
88.97,9.94,8.86,9.95,8.86,-8.87,-8.84,-7.96,1.07,1.08,1.09
89.86,9.91,8.86,9.91,8.86,-8.87,-8.83,-7.97,1.04,1.04,1.05
90.76,9.88,8.86,9.88,8.86,-8.87,-8.82,-7.99,1.01,1.01,1.02
91.66,9.85,8.88,9.86,8.87,-8.88,-8.80,-8.01,0.97,0.98,0.98
92.58,9.83,8.88,9.84,8.89,-8.89,-8.79,-8.03,0.95,0.95,0.95
93.51,9.82,8.91,9.82,8.91,-8.90,-8.78,-8.06,0.92,0.92,0.92
94.44,9.80,8.92,9.80,8.92,-8.91,-8.77,-8.10,0.89,0.89,0.88
95.39,9.77,8.94,9.78,8.94,-8.93,-8.75,-8.14,0.85,0.85,0.84
96.34,9.74,8.94,9.74,8.94,-8.94,-8.74,-8.19,0.81,0.80,0.80
97.30,9.70,8.94,9.71,8.95,-8.95,-8.73,-8.24,0.75,0.75,0.76
98.28,9.67,8.96,9.68,8.96,-8.96,-8.71,-8.30,0.71,0.71,0.72
99.26,9.64,8.97,9.65,8.97,-8.98,-8.70,-8.36,0.67,0.67,0.68
100.25,9.63,8.99,9.63,8.99,-8.99,-8.69,-8.42,0.64,0.64,0.64
101.25,9.61,9.00,9.61,9.00,-9.00,-8.67,-8.49,0.61,0.61,0.61
102.27,9.59,9.01,9.60,9.01,-9.01,-8.66,-8.56,0.58,0.59,0.59
103.29,9.57,9.03,9.58,9.02,-9.02,-8.65,-8.64,0.56,0.56,0.55
104.32,9.55,9.03,9.55,9.03,-9.02,-8.64,-8.72,0.54,0.53,0.52
105.37,9.52,9.03,9.52,9.03,-9.02,-8.62,-8.80,0.51,0.50,0.49
106.42,9.47,9.01,9.48,9.02,-9.01,-8.61,-8.88,0.46,0.47,0.47
107.48,9.42,9.00,9.43,9.00,-9.00,-8.60,-8.96,0.42,0.43,0.43
108.56,9.38,8.98,9.38,8.98,-8.99,-8.59,-9.04,0.39,0.39,0.40
109.64,9.33,8.96,9.34,8.97,-8.98,-8.58,-9.12,0.35,0.36,0.37
110.74,9.30,8.97,9.30,8.97,-8.97,-8.57,-9.20,0.33,0.33,0.33
111.85,9.26,8.97,9.27,8.97,-8.97,-8.56,-9.28,0.30,0.30,0.30
112.97,9.23,8.96,9.23,8.96,-8.96,-8.55,-9.36,0.28,0.27,0.27
114.10,9.18,8.95,9.18,8.95,-8.95,-8.54,-9.43,0.23,0.23,0.23
115.24,9.12,8.94,9.14,8.95,-8.94,-8.53,-9.49,0.18,0.20,0.19
116.39,9.10,8.95,9.09,8.94,-8.94,-8.53,-9.55,0.17,0.16,0.15
117.55,9.05,8.94,9.05,8.93,-8.93,-8.52,-9.60,0.13,0.12,0.12
118.73,8.99,8.91,9.00,8.92,-8.92,-8.51,-9.65,0.08,0.08,0.08
119.92,8.95,8.90,8.95,8.90,-8.91,-8.51,-9.69,0.05,0.05,0.06
121.12,8.91,8.88,8.92,8.89,-8.90,-8.50,-9.72,0.02,0.02,0.03
122.33,8.89,8.90,8.89,8.89,-8.89,-8.50,-9.74,0.01,0.00,-0.00
123.55,8.86,8.89,8.86,8.88,-8.88,-8.49,-9.75,-0.01,-0.02,-0.02
124.79,8.81,8.87,8.82,8.87,-8.87,-8.49,-9.75,-0.06,-0.06,-0.06
126.03,8.76,8.85,8.77,8.86,-8.86,-8.49,-9.74,-0.10,-0.09,-0.09
127.29,8.73,8.85,8.73,8.86,-8.86,-8.49,-9.72,-0.12,-0.12,-0.12
128.57,8.70,8.86,8.70,8.85,-8.85,-8.48,-9.70,-0.15,-0.16,-0.16
129.85,8.65,8.84,8.66,8.85,-8.85,-8.48,-9.65,-0.19,-0.19,-0.19
131.15,8.60,8.83,8.61,8.84,-8.84,-8.48,-9.61,-0.24,-0.23,-0.23
132.46,8.57,8.83,8.57,8.83,-8.83,-8.48,-9.55,-0.26,-0.26,-0.26
133.79,8.53,8.83,8.53,8.82,-8.83,-8.48,-9.49,-0.29,-0.29,-0.29
135.12,8.49,8.82,8.50,8.82,-8.81,-8.48,-9.42,-0.32,-0.32,-0.32
136.48,8.45,8.80,8.45,8.80,-8.80,-8.49,-9.35,-0.34,-0.34,-0.35
137.84,8.40,8.79,8.41,8.79,-8.78,-8.49,-9.26,-0.37,-0.37,-0.38
139.22,8.35,8.77,8.35,8.76,-8.75,-8.49,-9.18,-0.40,-0.40,-0.42
140.61,8.29,8.73,8.29,8.73,-8.73,-8.49,-9.09,-0.44,-0.44,-0.44
142.02,8.21,8.69,8.23,8.70,-8.70,-8.50,-9.00,-0.49,-0.48,-0.47
143.44,8.17,8.67,8.17,8.67,-8.68,-8.50,-8.90,-0.50,-0.51,-0.49
144.87,8.12,8.64,8.12,8.64,-8.65,-8.50,-8.81,-0.53,-0.53,-0.52
146.32,8.08,8.63,8.08,8.62,-8.62,-8.51,-8.72,-0.54,-0.54,-0.55
147.78,8.03,8.60,8.04,8.60,-8.60,-8.51,-8.62,-0.56,-0.56,-0.56
149.26,7.99,8.59,7.99,8.58,-8.58,-8.52,-8.53,-0.58,-0.59,-0.59
150.75,7.93,8.55,7.94,8.56,-8.56,-8.52,-8.44,-0.62,-0.62,-0.62
152.26,7.89,8.53,7.90,8.54,-8.54,-8.52,-8.35,-0.64,-0.64,-0.64
153.78,7.85,8.52,7.85,8.51,-8.52,-8.53,-8.26,-0.67,-0.67,-0.66
155.32,7.81,8.50,7.82,8.50,-8.51,-8.53,-8.18,-0.69,-0.69,-0.69
156.88,7.77,8.49,7.78,8.49,-8.49,-8.54,-8.10,-0.72,-0.71,-0.71
158.44,7.74,8.49,7.74,8.48,-8.48,-8.54,-8.02,-0.73,-0.74,-0.75
160.03,7.69,8.46,7.70,8.47,-8.47,-8.54,-7.95,-0.77,-0.77,-0.77
161.63,7.65,8.45,7.66,8.45,-8.45,-8.55,-7.88,-0.80,-0.80,-0.80
163.24,7.61,8.44,7.61,8.44,-8.44,-8.55,-7.82,-0.82,-0.83,-0.83
164.88,7.55,8.41,7.56,8.43,-8.42,-8.55,-7.76,-0.87,-0.86,-0.86
166.53,7.51,8.41,7.52,8.41,-8.41,-8.55,-7.71,-0.89,-0.89,-0.90
168.19,7.47,8.39,7.47,8.39,-8.39,-8.55,-7.66,-0.91,-0.92,-0.92
169.87,7.41,8.37,7.42,8.37,-8.37,-8.55,-7.62,-0.95,-0.95,-0.96
171.57,7.35,8.35,7.36,8.35,-8.34,-8.55,-7.58,-0.99,-0.98,-0.99
173.29,7.31,8.33,7.30,8.32,-8.33,-8.55,-7.55,-1.01,-1.02,-1.02
175.02,7.23,8.29,7.25,8.30,-8.31,-8.54,-7.52,-1.07,-1.06,-1.05
176.77,7.19,8.28,7.19,8.28,-8.29,-8.54,-7.50,-1.09,-1.10,-1.09
178.54,7.14,8.27,7.15,8.27,-8.28,-8.53,-7.49,-1.13,-1.13,-1.12
180.32,7.10,8.27,7.11,8.26,-8.26,-8.53,-7.48,-1.16,-1.16,-1.16
182.13,7.07,8.26,7.06,8.25,-8.25,-8.52,-7.47,-1.18,-1.19,-1.19
183.95,7.01,8.23,7.02,8.24,-8.24,-8.51,-7.47,-1.23,-1.22,-1.22
185.79,6.97,8.23,6.98,8.24,-8.23,-8.50,-7.48,-1.26,-1.25,-1.26
187.65,6.94,8.24,6.94,8.23,-8.23,-8.49,-7.49,-1.28,-1.29,-1.29
189.52,6.90,8.22,6.90,8.22,-8.22,-8.47,-7.51,-1.31,-1.32,-1.32
191.42,6.85,8.20,6.86,8.21,-8.21,-8.46,-7.53,-1.35,-1.35,-1.35
193.33,6.81,8.19,6.81,8.19,-8.20,-8.44,-7.56,-1.38,-1.39,-1.38
195.27,6.76,8.18,6.77,8.18,-8.19,-8.43,-7.59,-1.42,-1.42,-1.42
197.22,6.73,8.19,6.73,8.18,-8.18,-8.41,-7.63,-1.44,-1.45,-1.45
199.19,6.69,8.16,6.69,8.17,-8.17,-8.39,-7.66,-1.47,-1.47,-1.47
201.18,6.65,8.16,6.66,8.16,-8.15,-8.36,-7.71,-1.50,-1.50,-1.51
203.19,6.61,8.14,6.62,8.14,-8.14,-8.34,-7.75,-1.52,-1.52,-1.52
205.23,6.58,8.12,6.58,8.12,-8.12,-8.31,-7.80,-1.54,-1.54,-1.54
207.28,6.53,8.10,6.54,8.10,-8.10,-8.29,-7.85,-1.56,-1.56,-1.56
209.35,6.49,8.08,6.50,8.08,-8.08,-8.25,-7.91,-1.58,-1.58,-1.59
211.44,6.45,8.06,6.45,8.06,-8.06,-8.22,-7.96,-1.60,-1.60,-1.61
213.56,6.40,8.03,6.40,8.03,-8.03,-8.19,-8.02,-1.63,-1.63,-1.62
215.69,6.35,8.00,6.35,8.00,-8.01,-8.16,-8.07,-1.65,-1.66,-1.65
217.85,6.29,7.96,6.31,7.97,-7.98,-8.12,-8.13,-1.69,-1.68,-1.67
220.03,6.26,7.95,6.27,7.96,-7.95,-8.08,-8.18,-1.69,-1.69,-1.69
222.23,6.23,7.95,6.22,7.93,-7.92,-8.04,-8.23,-1.68,-1.70,-1.71
224.45,6.17,7.90,6.17,7.90,-7.88,-8.00,-8.28,-1.71,-1.71,-1.72
226.70,6.11,7.86,6.12,7.85,-7.85,-7.96,-8.33,-1.73,-1.73,-1.74
228.96,6.04,7.79,6.05,7.80,-7.81,-7.91,-8.37,-1.76,-1.75,-1.74
231.25,6.00,7.77,6.00,7.76,-7.77,-7.87,-8.40,-1.77,-1.78,-1.76
233.57,5.94,7.72,5.94,7.72,-7.73,-7.82,-8.43,-1.79,-1.79,-1.77
235.90,5.88,7.67,5.90,7.68,-7.69,-7.77,-8.45,-1.80,-1.79,-1.78
238.26,5.85,7.66,5.85,7.64,-7.64,-7.72,-8.47,-1.79,-1.79,-1.80
240.64,5.81,7.60,5.81,7.61,-7.60,-7.67,-8.47,-1.79,-1.79,-1.79
243.05,5.77,7.57,5.77,7.57,-7.56,-7.62,-8.47,-1.78,-1.79,-1.80
245.48,5.71,7.52,5.71,7.52,-7.51,-7.56,-8.46,-1.80,-1.80,-1.81
247.93,5.64,7.46,5.66,7.46,-7.47,-7.51,-8.44,-1.82,-1.81,-1.81
250.41,5.60,7.41,5.60,7.41,-7.42,-7.45,-8.41,-1.81,-1.81,-1.80
252.92,5.55,7.35,5.56,7.36,-7.36,-7.39,-8.37,-1.81,-1.81,-1.80
255.45,5.51,7.32,5.51,7.31,-7.31,-7.33,-8.31,-1.79,-1.79,-1.81
258.00,5.46,7.27,5.46,7.26,-7.25,-7.27,-8.26,-1.79,-1.79,-1.80
260.58,5.39,7.19,5.40,7.20,-7.19,-7.21,-8.18,-1.80,-1.80,-1.80
263.19,5.33,7.13,5.33,7.13,-7.14,-7.15,-8.11,-1.80,-1.80,-1.79
265.82,5.26,7.07,5.28,7.07,-7.08,-7.09,-8.02,-1.81,-1.80,-1.80
268.48,5.22,7.02,5.22,7.02,-7.02,-7.02,-7.92,-1.80,-1.80,-1.80
271.16,5.17,6.97,5.17,6.96,-6.97,-6.96,-7.82,-1.79,-1.80,-1.79
273.87,5.10,6.90,5.11,6.91,-6.91,-6.90,-7.71,-1.80,-1.80,-1.80
276.61,5.05,6.85,5.05,6.85,-6.85,-6.83,-7.60,-1.80,-1.80,-1.79
279.38,4.99,6.80,5.00,6.80,-6.80,-6.76,-7.48,-1.80,-1.80,-1.81
282.17,4.94,6.75,4.95,6.74,-6.74,-6.70,-7.35,-1.79,-1.79,-1.80
284.99,4.90,6.69,4.89,6.68,-6.68,-6.63,-7.23,-1.77,-1.78,-1.79
287.84,4.82,6.61,4.83,6.62,-6.61,-6.56,-7.10,-1.79,-1.78,-1.78
290.72,4.77,6.56,4.77,6.55,-6.55,-6.49,-6.97,-1.77,-1.78,-1.78
293.63,4.70,6.47,4.70,6.48,-6.48,-6.42,-6.83,-1.78,-1.78,-1.77
296.57,4.64,6.41,4.65,6.41,-6.41,-6.35,-6.70,-1.77,-1.77,-1.76
299.53,4.58,6.34,4.59,6.34,-6.34,-6.29,-6.57,-1.76,-1.76,-1.76
302.53,4.53,6.27,4.53,6.28,-6.28,-6.22,-6.43,-1.74,-1.75,-1.74
305.55,4.47,6.22,4.47,6.21,-6.21,-6.15,-6.30,-1.74,-1.74,-1.74
308.61,4.41,6.14,4.42,6.14,-6.15,-6.08,-6.17,-1.73,-1.73,-1.73
311.69,4.35,6.07,4.36,6.08,-6.08,-6.01,-6.04,-1.73,-1.72,-1.72
314.81,4.30,6.02,4.30,6.01,-6.02,-5.94,-5.91,-1.71,-1.71,-1.71
317.96,4.25,5.96,4.25,5.96,-5.95,-5.87,-5.79,-1.70,-1.70,-1.71
321.14,4.19,5.88,4.20,5.89,-5.89,-5.79,-5.67,-1.69,-1.69,-1.69
324.35,4.14,5.84,4.14,5.83,-5.82,-5.72,-5.55,-1.68,-1.68,-1.69
327.59,4.08,5.75,4.09,5.76,-5.76,-5.65,-5.43,-1.68,-1.67,-1.66
330.87,4.03,5.70,4.03,5.70,-5.70,-5.58,-5.32,-1.66,-1.67,-1.67
334.18,3.97,5.63,3.97,5.63,-5.64,-5.51,-5.21,-1.66,-1.66,-1.66
337.52,3.91,5.57,3.92,5.57,-5.57,-5.44,-5.10,-1.66,-1.65,-1.65
340.90,3.87,5.51,3.88,5.51,-5.51,-5.37,-5.00,-1.64,-1.64,-1.63
344.30,3.83,5.46,3.83,5.46,-5.45,-5.30,-4.90,-1.62,-1.62,-1.63
347.75,3.78,5.40,3.78,5.40,-5.39,-5.23,-4.80,-1.61,-1.61,-1.62
351.23,3.72,5.34,3.72,5.33,-5.33,-5.16,-4.71,-1.61,-1.61,-1.62
354.74,3.66,5.26,3.66,5.27,-5.28,-5.10,-4.61,-1.61,-1.61,-1.59
358.28,3.60,5.20,3.62,5.21,-5.22,-5.03,-4.53,-1.61,-1.60,-1.59
361.87,3.57,5.16,3.57,5.16,-5.16,-4.96,-4.44,-1.59,-1.59,-1.59
365.49,3.54,5.12,3.54,5.11,-5.10,-4.89,-4.36,-1.56,-1.57,-1.58
369.14,3.49,5.05,3.50,5.06,-5.05,-4.82,-4.29,-1.55,-1.55,-1.56
372.83,3.44,4.99,3.44,5.00,-4.99,-4.75,-4.21,-1.55,-1.55,-1.55
376.56,3.38,4.94,3.39,4.94,-4.94,-4.69,-4.14,-1.55,-1.55,-1.55
380.33,3.33,4.88,3.34,4.88,-4.88,-4.62,-4.08,-1.55,-1.54,-1.54
384.13,3.29,4.82,3.29,4.82,-4.82,-4.55,-4.01,-1.53,-1.53,-1.52
387.97,3.24,4.76,3.24,4.76,-4.76,-4.49,-3.95,-1.52,-1.52,-1.52
391.85,3.19,4.70,3.20,4.71,-4.70,-4.42,-3.89,-1.51,-1.51,-1.51
395.77,3.15,4.65,3.15,4.65,-4.65,-4.35,-3.84,-1.49,-1.49,-1.50
399.73,3.11,4.60,3.11,4.59,-4.59,-4.29,-3.78,-1.47,-1.48,-1.49
403.72,3.06,4.52,3.06,4.54,-4.53,-4.22,-3.73,-1.47,-1.47,-1.46
407.76,3.01,4.48,3.02,4.47,-4.48,-4.16,-3.68,-1.46,-1.46,-1.46
411.84,2.96,4.42,2.97,4.41,-4.42,-4.10,-3.64,-1.46,-1.45,-1.45
415.96,2.92,4.36,2.92,4.37,-4.37,-4.03,-3.59,-1.44,-1.44,-1.43
420.12,2.88,4.32,2.88,4.31,-4.32,-3.97,-3.55,-1.43,-1.43,-1.43
424.32,2.84,4.27,2.84,4.26,-4.27,-3.91,-3.51,-1.42,-1.42,-1.43
428.56,2.80,4.21,2.80,4.21,-4.22,-3.84,-3.47,-1.41,-1.42,-1.41
432.85,2.76,4.16,2.76,4.17,-4.17,-3.78,-3.43,-1.41,-1.41,-1.40
437.18,2.72,4.12,2.73,4.12,-4.13,-3.72,-3.39,-1.40,-1.40,-1.40
441.55,2.69,4.08,2.69,4.08,-4.08,-3.66,-3.36,-1.38,-1.38,-1.39
445.96,2.66,4.04,2.65,4.04,-4.03,-3.60,-3.32,-1.36,-1.37,-1.38
450.42,2.60,3.97,2.61,3.98,-3.97,-3.54,-3.29,-1.37,-1.36,-1.37
454.93,2.55,3.92,2.56,3.92,-3.92,-3.48,-3.26,-1.36,-1.36,-1.36
459.48,2.50,3.86,2.50,3.85,-3.86,-3.42,-3.22,-1.35,-1.35,-1.35
464.07,2.44,3.78,2.45,3.78,-3.79,-3.36,-3.19,-1.35,-1.34,-1.33
468.71,2.39,3.72,2.39,3.72,-3.72,-3.30,-3.15,-1.33,-1.33,-1.32
473.40,2.33,3.65,2.34,3.65,-3.65,-3.24,-3.12,-1.31,-1.31,-1.31
478.13,2.27,3.58,2.28,3.58,-3.57,-3.18,-3.09,-1.30,-1.29,-1.30
482.91,2.21,3.51,2.21,3.50,-3.49,-3.13,-3.05,-1.28,-1.29,-1.29
