frequency,raw,error,smoothed,error_smoothed,equalization,equalized_raw,equalized_smoothed,target
20,-29.19684934594376,-29.98273554678963,-29.2548955040939,-30.040766357713604,5.999999999999999,-23.19684934594376,-23.2548955040939,0.785886200845868
21,-28.516984051129235,-29.302851299737515,-28.48686682574137,-29.27273642860124,6.0,-22.516984051129235,-22.48686682574137,0.7858672486082812
22,-27.819364631339987,-28.60520708797642,-27.74667615722114,-28.532530928262418,6.0,-21.819364631339987,-21.74667615722114,0.7858424566364333
23,-27.10827133775894,-27.8940817564604,-27.034323498533208,-27.82014985669713,5.999999999999999,-21.10827133775894,-21.034323498533208,0.7858104187014585
24,-26.24810233121191,-27.033871806866042,-26.34980884967754,-27.135593213905345,5.999999999999998,-20.24810233121191,-20.349808849677544,0.7857694756541327
25,-25.602858489477995,-26.388576173456663,-25.69518870720698,-26.48091897277463,6.000000000000001,-19.602858489477995,-19.69518870720698,0.7857176839786661
26,-25.02809773198526,-25.813750514034368,-25.06761798720219,-25.853280594819722,6.0,-19.02809773198526,-19.06761798720219,0.7856527820491079
27,-24.491703379604623,-25.27727553364216,-24.464964116123983,-25.250543937852207,6.0,-18.491703379604623,-18.464964116123983,0.7855721540375402
28,-23.9916541005639,-24.77712689199261,-23.884947889670315,-24.670427213945878,6.0,-17.9916541005639,-17.884947889670315,0.785472791428711
29,-23.523581283625635,-24.308932535727088,-23.32576994375392,-24.11112743939053,6.000000000000001,-17.523581283625635,-17.32576994375392,0.7853512521014525
30,-22.638627417679412,-23.423831034624424,-22.78735964886163,-23.572569905727093,6.0,-16.638627417679412,-16.78735964886163,0.7852036169450121
31,-22.23791766200047,-23.022943105987288,-22.27051174709315,-23.055544609607942,5.999999999999999,-16.23791766200047,-16.27051174709315,0.785025443986819
32,-21.719880239323473,-22.504691959342058,-21.77632832151415,-22.56114838048658,5.999999999999999,-15.719880239323473,-15.77632832151415,0.784811720018586
33,-21.292799993226794,-22.077356802946575,-21.305189077993816,-22.089755161176697,6.0,-15.292799993226794,-15.305189077993816,0.7845568097197813
34,-20.826413422202428,-21.610667824494243,-20.855785369756852,-21.640049928478227,5.999999999999998,-14.82641342220243,-14.855785369756854,0.7842544022918139
35,-20.44611988046265,-21.23001733609573,-20.424885364526872,-21.208793810828244,6.000000000000001,-14.44611988046265,-14.424885364526872,0.7838974556330802
36,-19.941857629912793,-20.725335768017427,-20.007701280202966,-20.791191221270058,5.999999999999998,-13.941857629912795,-14.007701280202967,0.7834781381046327
37,-19.685478160614352,-20.468465928573416,-19.59889193442828,-20.381892322074414,6.0,-13.685478160614352,-13.59889193442828,0.7829877679590638
38,-19.219186773870312,-20.00160352440199,-19.193847445365655,-19.976277655601905,6.000000000000001,-13.219186773870312,-13.193847445365655,0.7824167505316759
39,-18.81667237624971,-19.59842688957317,-18.7897965268035,-19.57156536876253,6.0,-12.81667237624971,-12.7897965268035,0.7817545133234582
40,-18.560570581541377,-19.341560020681815,-18.38641964849266,-19.16742431134508,5.999999999999999,-12.560570581541377,-12.386419648492659,0.7809894391404364
41,-17.91119749784314,-18.69130629533701,-17.985792426515438,-18.765917362316443,5.999999999999999,-11.91119749784314,-11.985792426515438,0.7801087974938694
42,-17.4998169764256,-18.278915650936792,-17.591735921193887,-18.370851660355598,6.000000000000003,-11.499816976425596,-11.591735921193884,0.7790986745111934
43,-17.214798263057894,-17.992742164716816,-17.20882587820001,-17.98678777539521,6.0,-11.214798263057894,-11.20882587820001,0.7779439016589222
44,-16.754025479597377,-17.530653463233776,-16.841363859519355,-17.6180107672052,6.0,-10.754025479597377,-10.841363859519355,0.7766279836363985
45,-16.521812073861636,-17.296945099725477,-16.492560088059342,-17.267712956828927,5.999999999999998,-10.521812073861637,-10.492560088059344,0.7751330258638407
46,-16.226961456316165,-17.000401118376008,-16.164045650109,-16.93750605604347,6.0,-10.226961456316165,-10.164045650109,0.7734396620598432
47,-15.831970630775995,-16.603497613258803,-15.855705711691616,-16.627254311543783,6.0,-9.831970630775995,-9.855705711691616,0.7715269824828064
48,-15.557407509747616,-16.326779973245436,-15.565757222369086,-16.335152138201845,6.0,-9.557407509747616,-9.565757222369086,0.7693724634978194
49,-15.24062586063327,-16.00757775985878,-15.290994808951371,-16.057969944394486,5.999999999999999,-9.24062586063327,-9.290994808951371,0.7669518992255115
50,-14.914934687722285,-15.679174023854465,-15.027171970305055,-15.791435261373481,5.999999999999999,-8.914934687722287,-9.027171970305055,0.7642393361321806
51,-14.869395435348123,-15.630602446879031,-14.769522625320805,-15.530754229690253,5.999999999999999,-8.869395435348125,-8.769522625320807,0.761207011530908
52,-14.586587846290504,-15.34441314337137,-14.513421291516577,-15.271271721233388,5.999999999999999,-8.586587846290506,-8.513421291516579,0.7578252970808661
53,-14.232481957594892,-14.98654460609066,-14.255121425557622,-15.009209629406385,6.000000000000002,-8.23248195759489,-8.25512142555762,0.7540626484957689
54,-14.006077882527249,-14.755963445328533,-13.992432827285946,-14.742344230393954,6.0,-8.006077882527249,-7.9924328272859455,0.7498855628012828
55,-13.779394693637926,-14.52465323825155,-13.725151626748618,-14.470436136486448,6.0,-7.779394693637926,-7.725151626748618,0.7452585446136255
56,-13.55185423915873,-14.291998322204101,-13.455078154396185,-14.195248143247678,6.000000000000002,-7.551854239158729,-7.455078154396183,0.74014408304537
57,-13.096481207299405,-13.830983848276551,-13.18555739940993,-13.920085677228114,5.999999999999999,-7.096481207299406,-7.185557399409931,0.7345026409771456
58,-12.86863502756491,-13.596927686127025,-12.920625206889316,-13.648942996830339,6.0,-6.86863502756491,-6.920625206889316,0.7282926585621143
59,-12.641037650672748,-13.36250822362275,-12.663986076612616,-13.385481011036616,6.000000000000002,-6.641037650672747,-6.663986076612614,0.7214705729500022
60,-12.420392557695417,-13.134383414019782,-12.418125904482281,-13.132140059213643,6.000000000000001,-6.420392557695416,-6.41812590448228,0.7139908563243651
61,-12.186364238956376,-12.89217031339173,-12.18383995287855,-12.889667940409769,6.000000000000002,-6.186364238956374,-6.183839952878548,0.7058060744353538
62,-11.95832189258434,-12.655188860458692,-11.960337858996727,-12.65722500347462,6.0,-5.95832189258434,-5.960337858996727,0.6968669678743509
63,-11.729138881393471,-12.416261439763126,-11.74591321716187,-12.433053836278635,6.0,-5.729138881393471,-5.7459132171618705,0.6871225583696545
64,-11.498830429129207,-12.175350711505477,-11.538992896854605,-12.215528718074333,5.999999999999999,-5.498830429129208,-5.538992896854606,0.6765202823762704
65,-11.446565417657435,-12.111571571837244,-11.339269536661671,-12.004288277299935,5.999999999999999,-5.446565417657436,-5.339269536661672,0.665006154179808
66,-11.265846368612225,-11.918371329238093,-11.148603995397748,-11.801138138368326,6.000000000000002,-5.265846368612223,-5.148603995397746,0.6525249606258687
67,-11.03771984083039,-11.676740330243875,-10.97145959126745,-11.610485390494034,5.999999999999999,-5.03771984083039,-4.971459591267451,0.6390204894134861
68,-10.714993286362406,-11.339429079007871,-10.814758253705275,-11.43919500433666,6.000000000000001,-4.714993286362405,-4.814758253705274,0.6244357926454649
69,-10.591440609754546,-11.200154096756346,-10.687179912743435,-11.295889521724009,5.999999999999999,-4.591440609754547,-4.687179912743436,0.6087134870018005
70,-10.601843018998233,-11.193639110485673,-10.59801967342609,-11.189806567494685,6.0,-4.601843018998233,-4.598019673426091,0.5917960914874398
71,-10.61531804391634,-11.188944447113153,-10.555757400802145,-11.129368812409147,6.0,-4.615318043916339,-4.555757400802145,0.5736264031968132
72,-10.409784286327874,-10.963932197258824,-10.566497299322268,-11.120623973411423,5.999999999999999,-4.4097842863278744,-4.566497299322269,0.5541479109309515
73,-10.645957154734637,-11.179262400532402,-10.632438452069923,-11.16571581171824,6.0,-4.645957154734637,-4.632438452069923,0.5333052457977656
74,-10.659670155894545,-11.170714823018843,-10.750569085835298,-11.261578883849914,6.000000000000001,-4.659670155894545,-4.750569085835298,0.5110446671242976
75,-10.840549023024657,-11.32786360414264,-10.91183339955962,-11.399105867511466,5.999999999999998,-4.840549023024659,-4.911833399559622,0.4873145811179831
76,-10.968533537434144,-11.430599626177182,-11.101058070618702,-11.56307456781322,6.000000000000003,-4.9685335374341415,-5.101058070618699,0.46206608874303745
77,-11.317060548913421,-11.752314107157623,-11.297889626873983,-11.733085817065461,6.000000000000001,-5.31706054891342,-5.297889626873983,0.4352535582442023
78,-11.432213279525104,-11.839048496199911,-11.47884200363685,-11.88561166332055,5.999999999999999,-5.432213279525105,-5.47884200363685,0.4068352166748075
79,-11.77240218795463,-12.149175941651459,-11.620291515350932,-11.996991160417085,6.000000000000002,-5.7724021879546275,-5.62029151535093,0.3767737536968294
80,-11.838248590538122,-12.183285520388113,-11.701951044220998,-12.046905535217983,6.0,-5.838248590538122,-5.701951044220998,0.3450369298499911
81,-11.851941204139997,-12.163539384612879,-11.710118337626374,-12.021627366117063,6.0,-5.851941204139997,-5.710118337626374,0.311598180472882
82,-11.858294022909794,-12.13473122845321,-11.639932482985184,-11.916277368820673,6.0,-5.858294022909794,-5.639932482985184,0.276437205543417
83,-11.561126583084217,-11.800667118017705,-11.496043735512371,-11.735493491389942,6.000000000000001,-5.561126583084216,-5.49604373551237,0.23954053493348715
84,-11.268471528589682,-11.46937358657896,-11.291475516852454,-11.492291131642052,6.000000000000001,-5.268471528589681,-5.291475516852453,0.20090205798927796
85,-10.977623276863323,-11.138146782862613,-11.04492684780411,-11.205363751144427,6.000000000000001,-4.977623276863322,-5.044926847804109,0.16052350599929088
86,-10.686744999058266,-10.805159875096452,-10.777177005927495,-10.895487855725014,5.999999999999999,-4.686744999058267,-4.777177005927496,0.11841487603818557
87,-10.496864949079495,-10.571459733990988,-10.50747340980986,-10.581915927750982,6.0,-4.4968649490794945,-4.50747340980986,0.07459478491149385
88,-10.104040649789479,-10.133131392290448,-10.250736970274641,-10.279592781816273,5.999999999999999,-4.1040406497894795,-4.250736970274642,0.02909074250096877
89,-9.932026403464112,-9.913965738202283,-10.016130163190963,-9.997738395381862,6.000000000000001,-3.9320264034641115,-4.0161301631909625,-0.01806066526182981
90,-9.755589537113046,-9.688775844829896,-9.807106894491639,-9.739909525965704,6.000000000000001,-3.755589537113045,-3.807106894491638,-0.0668136922831497
91,-9.701225495804728,-9.58411204188432,-9.622647330627185,-9.505233055984764,6.0,-3.701225495804728,-3.622647330627185,-0.11711345392040906
92,-9.503057143427734,-9.334161084179051,-9.459106696467186,-9.29023042859027,5.999999999999999,-3.5030571434277347,-3.4591066964671873,-0.16889605924868167
93,-9.380917046654467,-9.158828189950743,-9.312048379959446,-9.090600590398894,6.000000000000002,-3.3809170466544654,-3.3120483799594442,-0.22208885670372425
94,-9.115695086162422,-8.83908429274674,-9.177579072227676,-8.902488338274768,6.0,-3.1156950861624217,-3.177579072227676,-0.27661079341568096
95,-9.084081021351157,-8.751708135344044,-9.052975810030778,-8.723050256214172,6.0,-3.0840810213511567,-3.0529758100307784,-0.33237288600711246
96,-8.88913416588689,-8.499855367844289,-8.93667630431004,-8.550419595350697,5.999999999999999,-2.889134165886891,-2.9366763043100415,-0.38927879804260135
97,-8.806179473979547,-8.35895395720347,-8.827894623941171,-8.38335838274397,5.999999999999998,-2.806179473979549,-2.827894623941173,-0.447225516776077
98,-8.704029055085941,-8.197924935646128,-8.726172361922181,-8.220915940854436,6.0,-2.7040290550859414,-2.726172361922181,-0.5061041194398124
99,-8.723694101391652,-8.157893484245081,-8.631092604045394,-8.062303550832963,6.0,-2.7236941013916525,-2.631092604045394,-0.5658006171465715
100,-8.519028838632012,-7.89283197601542,-8.542229704164944,-7.907014383320361,6.000000000000002,-2.5190288386320105,-2.542229704164942,-0.6261968626165926
101,-8.502413204541366,-7.815241698076765,-8.459262497748323,-7.755058355051426,6.0,-2.502413204541366,-2.4592624977483233,-0.6871715064646011
102,-8.32152841792352,-7.572927432179778,-8.382104453627932,-7.607113932415103,5.999999999999999,-2.3215284179235214,-2.3821044536279325,-0.7486009857437428
104,-8.341689427523914,-7.469364274483624,-8.310920879740527,-7.464443028677927,6.0,-2.3416894275239137,-2.310920879740527,-0.8723251530402893
105,-8.22496855766542,-7.2905978992366,-8.245986498257633,-7.328538506825902,6.0,-2.22496855766542,-2.2459864982576327,-0.9343706584288203
106,-8.162894244995035,-7.16651967622442,-8.187436798201954,-7.200612331384526,5.999999999999998,-2.1628942449950372,-2.187436798201956,-0.9963745687706158
107,-8.190905604758848,-7.1326885661338615,-8.13503089495004,-7.081118523064679,6.000000000000001,-2.1909056047588473,-2.135030894950039,-1.0582170386249867
108,-8.021608763856221,-6.901827070164574,-8.08804194621987,-6.969499299295794,6.0,-2.0216087638562215,-2.088041946219869,-1.1197816936916474
109,-8.018586194060962,-6.837629793853603,-8.045326540657868,-6.864249024180935,6.0,-2.018586194060962,-2.045326540657868,-1.1809564002073594
110,-8.043104095743672,-6.801470142143,-8.005533074310296,-6.763255473486705,5.999999999999998,-2.043104095743674,-2.005533074310298,-1.2416339536006729
111,-8.056782579400394,-6.755069899631179,-7.967338801936245,-6.664264944852581,6.000000000000001,-2.0567825794003936,-1.9673388019362443,-1.301712679769215
112,-7.853663282356916,-6.492566337786661,-7.929591335354598,-6.565276858138307,6.000000000000001,-1.8536632823569148,-1.9295913353545968,-1.3610969445702543
113,-7.867407965880647,-6.447710396583631,-7.891281706570716,-6.464722127752639,5.999999999999999,-1.8674079658806475,-1.8912817065707168,-1.419697569297016
114,-7.877551459407588,-6.40011930742534,-7.8513702164761145,-6.361394807468059,5.999999999999998,-1.8775514594075897,-1.8513702164761163,-1.4774321519822475
115,-7.8840643789751645,-6.349839082703886,-7.808576760543671,-6.254232885394467,5.999999999999999,-1.8840643789751654,-1.808576760543672,-1.5342252962712783
117,-7.659030880542405,-6.01430941313467,-7.761286435923063,-6.142120195423875,5.964282075250288,-1.6947488052921171,-1.7970043606727755,-1.644721467407734
118,-7.658532119875133,-5.96022254601213,-7.707683319578482,-6.0238687063988685,5.9272641251526546,-1.7312679947224785,-1.7804191944258276,-1.698309573863003
119,-7.655231871136143,-5.904505585785435,-7.646123789017809,-5.898445190192717,5.877882410487689,-1.7773494606484546,-1.7682413785301199,-1.750726285350709
120,-7.649970117849717,-5.8480383728107315,-7.575641139008225,-5.765374291337114,5.810608293622855,-1.8393618242268621,-1.7650328453853694,-1.8019317450389858
121,-7.643619020015519,-5.791726207922984,-7.496391617053472,-5.625144324713083,5.721411791913386,-1.922207228102133,-1.7749798251400861,-1.8518928120925344
123,-7.408958912422129,-5.460977725787205,-7.409850659727381,-5.479415832612366,5.479415832612365,-1.929543079809764,-1.9304348271150156,-1.947981186634924
124,-7.214114182656603,-5.220040917179457,-7.318652769577388,-5.330901670149643,5.330901670149645,-1.883212512506958,-1.9877510994277428,-1.9940732654771458
125,-7.168122025164527,-5.12927221555643,-7.2261030595027655,-5.182919895354514,5.182919895354512,-1.9852021298100144,-2.043183164148253,-2.038849809608097
126,-7.162556316563979,-5.080249625162099,-7.135512155238466,-5.038754284959586,5.038754284959586,-2.1238020316043933,-2.0967578702788803,-2.0823066914018797
128,-7.045603884513511,-4.880335715110915,-7.049563509610298,-4.901029536799603,4.901029536799603,-2.144574347713908,-2.1485339728106947,-2.1652681694025966
129,-6.926693449233218,-4.721906884558415,-6.969892984192095,-4.771291047393801,4.7712910473938,-2.1554024018394182,-2.198601936798295,-2.204786564674803
130,-6.924597291853624,-4.681585161922072,-6.896965231169303,-4.64988742214301,4.649887422143009,-2.274709869710615,-2.247077809026294,-2.2430121299315524
131,-6.8850506117803665,-4.60509010904096,-6.830218163585134,-4.53613487503884,4.536134875038838,-2.348915736741528,-2.294083288546296,-2.279960502739406
133,-6.69545101222667,-4.345348950731012,-6.768367345398546,-4.428652419697089,4.428652419697088,-2.2667985925295815,-2.3397149257014576,-2.3501020614956585
134,-6.695673712222803,-4.312334366614413,-6.7097445113618654,-4.325730032489098,4.325730032489098,-2.369943679733705,-2.3840144788727677,-2.38333934560839
135,-6.696161518434083,-4.28077452252713,-6.652581469424506,-4.225626879573015,4.225626879573016,-2.470534638861067,-2.4269545898514897,-2.4153869959069536
137,-6.618908819490182,-4.142887930836126,-6.595208766852242,-4.1267606902687515,4.1267606902687515,-2.4921481292214303,-2.46844807658349,-2.476020888654055
138,-6.470030936271938,-3.965367075428478,-6.536181369152986,-4.027802685993653,4.027802685993654,-2.4422282502782835,-2.508378683159332,-2.5046638608434595
140,-6.471337621445883,-3.9125874828505465,-6.474355843534084,-3.927714591256085,3.927714591256085,-2.5436230301897984,-2.5466412522779995,-2.558750138595337
141,-6.47263564344985,-3.8883811894286975,-6.408933704371533,-3.825758636693889,3.825758636693889,-2.646877006755961,-2.5831750676776437,-2.5842544540211527
142,-6.363450729770637,-3.7546766591985157,-6.339476533315594,-3.7214988208165005,3.7214988208165014,-2.6419519089541357,-2.6179777124990924,-2.6087740705721214
144,-6.245704958634134,-3.5907216940068722,-6.265907918548573,-3.6148117805541475,3.614811780554147,-2.6308931780799867,-2.6510961379944256,-2.6549832646272615
145,-6.245094242476101,-3.568359635453665,-6.188540713150949,-3.5059388578020405,3.505938857802042,-2.7391553846740595,-2.682601855348907,-2.6767346070224365
147,-6.016313278426997,-3.2986300576169465,-6.108180279870151,-3.3956169398135065,3.3956169398135057,-2.6206963386134916,-2.7125633400566453,-2.7176832208100508
148,-6.015942068145748,-3.279001784692448,-6.026327283893763,-3.2852988569383026,3.2852988569383026,-2.730643211207445,-2.7410284269554603,-2.7369402834532996
150,-6.016674944625958,-3.2435094072001758,-5.945430231664336,-3.177406714825918,3.177406714825919,-2.839268229800039,-2.768023516838417,-2.773165537425782
151,-5.88614103613852,-3.09595085049008,-5.869047510449587,-3.075479734781725,3.0754797347817253,-2.8106613013567947,-2.7935677756678614,-2.79019018564844
153,-5.79363163001711,-2.9714319654309183,-5.801725706794379,-2.9840321960219316,2.9840321960219316,-2.8095994339951784,-2.8176935107724472,-2.8221996645861918
154,-5.79683783680796,-2.959601019229771,-5.748439001723483,-2.9079772975814366,2.9079772975814366,-2.888860539226523,-2.8404617041420464,-2.837236817578189
156,-5.721508885910868,-2.8560077139856075,-5.713579108756513,-2.8516143108632512,2.851614310863252,-2.869894575047616,-2.861964797893261,-2.8655011719252608
157,-5.575377943324877,-2.6966017663307356,-5.69969325807962,-2.8173780034776934,2.8173780034776934,-2.757999939847184,-2.8823152546019264,-2.878776176994142
159,-5.5794277045905005,-2.675702118144689,-5.706350098518172,-2.8047251756169564,2.804725175616956,-2.7747025289735445,-2.901624922901216,-2.9037255864458116
160,-5.6462526003546,-2.7308094126118507,-5.729573897490239,-2.809589871954409,2.809589871954408,-2.836662728400192,-2.9199840255358307,-2.9154431877427496
162,-5.820232056136561,-2.882765554011039,-5.762169296041791,-2.824720964386291,2.824720964386291,-2.99551109175027,-2.9374483316555002,-2.937466502125522
164,-5.8290926015718885,-2.8713575039066535,-5.794982083244984,-2.840943009077482,2.840943009077482,-2.9881495924944064,-2.954039074167502,-2.957735097665235
