frequency,raw,error,smoothed,error_smoothed,equalization,parametric_eq,fixed_band_eq,equalized_raw,equalized_smoothed,target
20.00,-14.60,-14.18,-14.68,-14.30,6.00,5.42,2.83,-8.60,-8.68,-0.42
20.20,-14.48,-14.11,-14.54,-14.19,6.00,5.47,2.91,-8.48,-8.54,-0.37
20.40,-14.36,-14.04,-14.39,-14.07,6.00,5.51,2.99,-8.36,-8.39,-0.32
20.61,-14.24,-13.95,-14.24,-13.96,6.00,5.55,3.08,-8.24,-8.24,-0.29
20.81,-14.12,-13.88,-14.10,-13.84,6.00,5.60,3.17,-8.12,-8.10,-0.24
21.02,-14.00,-13.80,-13.95,-13.72,6.00,5.64,3.26,-8.00,-7.95,-0.20
21.23,-13.87,-13.69,-13.80,-13.60,6.00,5.68,3.36,-7.87,-7.80,-0.18
21.44,-13.74,-13.58,-13.66,-13.48,6.00,5.72,3.45,-7.74,-7.66,-0.16
21.66,-13.61,-13.47,-13.51,-13.35,6.00,5.76,3.55,-7.61,-7.51,-0.14
21.87,-13.48,-13.35,-13.36,-13.23,6.00,5.80,3.66,-7.48,-7.36,-0.13
22.09,-13.32,-13.21,-13.22,-13.10,6.00,5.84,3.76,-7.32,-7.22,-0.11
22.31,-13.11,-13.01,-13.07,-12.96,6.00,5.87,3.87,-7.11,-7.07,-0.10
22.54,-12.90,-12.80,-12.92,-12.81,6.00,5.91,3.98,-6.90,-6.92,-0.10
22.76,-12.68,-12.58,-12.76,-12.66,6.00,5.95,4.10,-6.68,-6.76,-0.10
22.99,-12.47,-12.36,-12.61,-12.51,6.00,5.98,4.22,-6.47,-6.61,-0.11
23.22,-12.36,-12.25,-12.46,-12.37,6.00,6.01,4.33,-6.36,-6.46,-0.11
23.45,-12.26,-12.15,-12.32,-12.22,6.00,6.04,4.46,-6.26,-6.32,-0.11
23.69,-12.16,-12.06,-12.18,-12.08,6.00,6.07,4.58,-6.16,-6.18,-0.10
23.92,-12.05,-11.94,-12.04,-11.94,6.00,6.10,4.71,-6.05,-6.04,-0.10
24.16,-11.94,-11.84,-11.90,-11.81,6.00,6.13,4.84,-5.94,-5.90,-0.09
24.40,-11.82,-11.73,-11.77,-11.67,6.00,6.16,4.97,-5.82,-5.77,-0.08
24.65,-11.69,-11.60,-11.64,-11.55,6.00,6.18,5.11,-5.69,-5.64,-0.09
24.89,-11.57,-11.47,-11.52,-11.42,6.00,6.20,5.24,-5.57,-5.52,-0.09
25.14,-11.43,-11.33,-11.39,-11.30,6.00,6.22,5.38,-5.43,-5.39,-0.09
25.39,-11.27,-11.18,-11.26,-11.17,6.00,6.24,5.52,-5.27,-5.26,-0.09
25.65,-11.12,-11.03,-11.12,-11.03,6.00,6.26,5.66,-5.12,-5.12,-0.09
25.91,-10.96,-10.87,-10.97,-10.88,6.00,6.28,5.80,-4.96,-4.97,-0.10
26.16,-10.80,-10.70,-10.82,-10.73,6.00,6.29,5.93,-4.80,-4.82,-0.10
26.43,-10.65,-10.55,-10.66,-10.57,6.00,6.30,6.07,-4.65,-4.66,-0.10
26.69,-10.50,-10.40,-10.51,-10.41,6.00,6.31,6.21,-4.50,-4.51,-0.10
26.96,-10.35,-10.26,-10.35,-10.25,6.00,6.32,6.34,-4.35,-4.35,-0.09
27.23,-10.20,-10.11,-10.19,-10.09,6.00,6.32,6.48,-4.20,-4.19,-0.09
27.50,-10.04,-9.95,-10.03,-9.93,6.00,6.33,6.60,-4.04,-4.03,-0.09
27.77,-9.88,-9.78,-9.87,-9.77,6.00,6.33,6.73,-3.88,-3.87,-0.10
28.05,-9.72,-9.62,-9.72,-9.62,6.00,6.33,6.84,-3.72,-3.72,-0.10
28.33,-9.57,-9.45,-9.56,-9.46,6.00,6.32,6.96,-3.57,-3.56,-0.11
28.62,-9.41,-9.30,-9.41,-9.31,6.00,6.32,7.06,-3.41,-3.41,-0.11
28.90,-9.25,-9.14,-9.26,-9.16,6.00,6.31,7.15,-3.25,-3.26,-0.10
29.19,-9.10,-8.98,-9.11,-9.01,6.00,6.30,7.24,-3.10,-3.11,-0.11
29.48,-8.96,-8.86,-8.97,-8.86,6.00,6.29,7.31,-2.96,-2.97,-0.10
29.78,-8.81,-8.70,-8.82,-8.72,6.00,6.27,7.38,-2.81,-2.82,-0.11
30.08,-8.67,-8.57,-8.68,-8.57,6.00,6.25,7.43,-2.67,-2.68,-0.10
30.38,-8.54,-8.43,-8.54,-8.43,6.00,6.23,7.46,-2.54,-2.54,-0.11
30.68,-8.41,-8.30,-8.41,-8.30,6.00,6.20,7.48,-2.41,-2.41,-0.11
30.99,-8.28,-8.17,-8.27,-8.16,6.00,6.18,7.49,-2.28,-2.27,-0.11
31.30,-8.15,-8.04,-8.14,-8.03,6.00,6.15,7.49,-2.15,-2.14,-0.11
31.61,-8.02,-7.91,-8.01,-7.90,6.00,6.12,7.47,-2.02,-2.01,-0.11
31.93,-7.89,-7.78,-7.88,-7.77,6.00,6.08,7.43,-1.89,-1.88,-0.12
32.24,-7.76,-7.63,-7.76,-7.64,6.00,6.04,7.38,-1.76,-1.76,-0.13
32.57,-7.64,-7.52,-7.63,-7.51,6.00,6.00,7.32,-1.64,-1.63,-0.12
32.89,-7.51,-7.39,-7.52,-7.39,6.00,5.96,7.25,-1.51,-1.52,-0.12
33.22,-7.38,-7.25,-7.40,-7.27,6.00,5.91,7.16,-1.38,-1.40,-0.13
33.55,-7.26,-7.12,-7.28,-7.14,6.00,5.86,7.06,-1.26,-1.28,-0.13
33.89,-7.13,-6.98,-7.15,-7.01,6.00,5.81,6.95,-1.13,-1.15,-0.14
34.23,-7.01,-6.87,-7.02,-6.88,6.00,5.76,6.83,-1.01,-1.02,-0.14
34.57,-6.88,-6.73,-6.88,-6.74,6.00,5.70,6.70,-0.88,-0.88,-0.15
34.92,-6.76,-6.61,-6.75,-6.60,6.00,5.64,6.57,-0.76,-0.75,-0.15
35.27,-6.65,-6.50,-6.61,-6.46,6.00,5.58,6.43,-0.65,-0.61,-0.15
35.62,-6.54,-6.39,-6.46,-6.31,5.98,5.51,6.28,-0.56,-0.48,-0.15
35.97,-6.44,-6.28,-6.32,-6.17,5.94,5.44,6.13,-0.50,-0.38,-0.16
36.33,-6.22,-6.07,-6.17,-6.02,5.87,5.37,5.97,-0.34,-0.30,-0.15
36.70,-6.00,-5.84,-6.03,-5.88,5.78,5.30,5.81,-0.22,-0.25,-0.16
37.06,-5.79,-5.63,-5.88,-5.73,5.68,5.23,5.65,-0.11,-0.21,-0.16
37.43,-5.67,-5.52,-5.74,-5.59,5.56,5.15,5.49,-0.10,-0.18,-0.14
37.81,-5.55,-5.40,-5.60,-5.45,5.44,5.07,5.33,-0.11,-0.16,-0.15
38.19,-5.43,-5.28,-5.46,-5.31,5.31,4.99,5.16,-0.12,-0.15,-0.15
38.57,-5.30,-5.16,-5.31,-5.17,5.17,4.90,5.00,-0.13,-0.14,-0.14
38.95,-5.17,-5.03,-5.17,-5.03,5.03,4.81,4.83,-0.13,-0.14,-0.14
39.34,-5.05,-4.91,-5.04,-4.90,4.90,4.73,4.67,-0.15,-0.14,-0.14
39.74,-4.93,-4.79,-4.90,-4.77,4.77,4.64,4.51,-0.16,-0.14,-0.14
40.14,-4.81,-4.67,-4.78,-4.64,4.64,4.54,4.35,-0.17,-0.14,-0.13
40.54,-4.68,-4.54,-4.65,-4.51,4.51,4.45,4.19,-0.17,-0.14,-0.14
40.94,-4.56,-4.42,-4.52,-4.38,4.38,4.35,4.03,-0.18,-0.14,-0.14
41.35,-4.41,-4.26,-4.39,-4.25,4.25,4.25,3.87,-0.16,-0.14,-0.15
41.76,-4.26,-4.11,-4.25,-4.10,4.10,4.15,3.72,-0.15,-0.15,-0.15
42.18,-4.12,-3.97,-4.12,-3.97,3.97,4.05,3.57,-0.15,-0.15,-0.14
42.60,-3.99,-3.83,-3.99,-3.83,3.83,3.95,3.42,-0.16,-0.16,-0.16
43.03,-3.86,-3.70,-3.86,-3.69,3.69,3.84,3.27,-0.17,-0.17,-0.16
43.46,-3.73,-3.56,-3.74,-3.56,3.56,3.74,3.12,-0.17,-0.18,-0.17
43.90,-3.60,-3.41,-3.61,-3.42,3.42,3.63,2.98,-0.18,-0.19,-0.19
44.33,-3.46,-3.25,-3.49,-3.29,3.29,3.52,2.84,-0.17,-0.20,-0.20
44.78,-3.32,-3.10,-3.37,-3.16,3.16,3.41,2.70,-0.16,-0.21,-0.22
45.23,-3.23,-3.00,-3.25,-3.04,3.04,3.30,2.56,-0.19,-0.22,-0.22
45.68,-3.18,-2.94,-3.15,-2.92,2.92,3.19,2.43,-0.26,-0.23,-0.24
46.13,-3.11,-2.85,-3.06,-2.82,2.82,3.08,2.29,-0.29,-0.24,-0.26
46.60,-2.99,-2.74,-2.97,-2.72,2.72,2.97,2.16,-0.27,-0.25,-0.25
47.06,-2.88,-2.61,-2.88,-2.62,2.62,2.85,2.03,-0.26,-0.27,-0.27
47.53,-2.77,-2.49,-2.80,-2.52,2.52,2.74,1.91,-0.25,-0.28,-0.27
48.01,-2.66,-2.39,-2.72,-2.43,2.43,2.62,1.78,-0.23,-0.29,-0.27
48.49,-2.60,-2.31,-2.64,-2.35,2.35,2.51,1.66,-0.25,-0.30,-0.29
48.97,-2.54,-2.24,-2.57,-2.26,2.26,2.39,1.53,-0.27,-0.31,-0.30
49.46,-2.52,-2.20,-2.50,-2.18,2.18,2.27,1.41,-0.34,-0.32,-0.32
49.96,-2.50,-2.16,-2.42,-2.09,2.09,2.15,1.30,-0.41,-0.32,-0.34
50.46,-2.38,-2.04,-2.33,-1.99,1.99,2.04,1.18,-0.38,-0.33,-0.34
50.96,-2.24,-1.90,-2.24,-1.90,1.90,1.92,1.06,-0.34,-0.34,-0.34
51.47,-2.14,-1.78,-2.15,-1.80,1.80,1.80,0.95,-0.34,-0.35,-0.36
51.99,-2.04,-1.67,-2.06,-1.70,1.70,1.68,0.84,-0.34,-0.36,-0.37
52.51,-1.98,-1.61,-1.96,-1.59,1.59,1.56,0.73,-0.39,-0.37,-0.37
53.03,-1.92,-1.55,-1.86,-1.48,1.48,1.44,0.63,-0.44,-0.38,-0.37
53.56,-1.77,-1.39,-1.74,-1.36,1.36,1.32,0.52,-0.41,-0.38,-0.38
54.10,-1.62,-1.23,-1.62,-1.23,1.23,1.20,0.42,-0.39,-0.39,-0.39
54.64,-1.48,-1.08,-1.49,-1.10,1.10,1.09,0.32,-0.38,-0.39,-0.40
55.18,-1.35,-0.95,-1.36,-0.97,0.97,0.97,0.22,-0.38,-0.40,-0.40
55.74,-1.25,-0.84,-1.24,-0.83,0.83,0.85,0.12,-0.41,-0.40,-0.41
56.29,-1.13,-0.72,-1.12,-0.71,0.71,0.73,0.03,-0.41,-0.41,-0.41
56.86,-0.99,-0.57,-1.00,-0.59,0.59,0.61,-0.06,-0.40,-0.42,-0.42
57.42,-0.87,-0.42,-0.88,-0.45,0.45,0.50,-0.15,-0.42,-0.43,-0.44
58.00,-0.76,-0.31,-0.75,-0.31,0.31,0.38,-0.24,-0.45,-0.44,-0.45
58.58,-0.59,-0.14,-0.62,-0.16,0.16,0.26,-0.32,-0.43,-0.46,-0.45
59.16,-0.45,0.01,-0.50,-0.02,0.02,0.15,-0.40,-0.43,-0.48,-0.46
59.76,-0.39,0.09,-0.39,0.11,-0.11,0.03,-0.48,-0.50,-0.50,-0.47
60.35,-0.32,0.19,-0.28,0.24,-0.24,-0.08,-0.56,-0.56,-0.52,-0.51
60.96,-0.25,0.28,-0.18,0.36,-0.36,-0.19,-0.63,-0.61,-0.54,-0.53
61.57,-0.15,0.42,-0.09,0.49,-0.49,-0.31,-0.70,-0.63,-0.57,-0.57
62.18,-0.01,0.60,-0.00,0.60,-0.60,-0.42,-0.77,-0.61,-0.60,-0.60
62.80,0.21,0.85,0.07,0.71,-0.71,-0.53,-0.83,-0.50,-0.63,-0.64
63.43,0.25,0.93,0.15,0.81,-0.81,-0.64,-0.89,-0.56,-0.67,-0.68
64.07,0.23,0.94,0.21,0.91,-0.91,-0.75,-0.95,-0.68,-0.70,-0.71
64.71,0.31,1.06,0.27,1.01,-1.01,-0.86,-1.01,-0.70,-0.74,-0.75
65.35,0.33,1.11,0.32,1.10,-1.10,-0.97,-1.06,-0.77,-0.78,-0.78
66.01,0.29,1.11,0.38,1.19,-1.19,-1.07,-1.12,-0.90,-0.82,-0.82
66.67,0.40,1.26,0.43,1.28,-1.28,-1.18,-1.17,-0.88,-0.85,-0.86
67.33,0.45,1.35,0.47,1.36,-1.36,-1.28,-1.21,-0.91,-0.89,-0.90
68.01,0.45,1.38,0.50,1.43,-1.43,-1.39,-1.26,-0.98,-0.93,-0.93
68.69,0.53,1.50,0.53,1.50,-1.50,-1.49,-1.31,-0.97,-0.97,-0.97
69.37,0.59,1.60,0.56,1.57,-1.57,-1.59,-1.35,-0.98,-1.01,-1.01
70.07,0.65,1.70,0.60,1.65,-1.65,-1.69,-1.39,-1.00,-1.05,-1.05
70.77,0.66,1.74,0.65,1.75,-1.75,-1.78,-1.44,-1.08,-1.09,-1.08
71.48,0.73,1.86,0.71,1.85,-1.85,-1.88,-1.48,-1.12,-1.14,-1.13
72.19,0.80,1.98,0.77,1.95,-1.95,-1.98,-1.52,-1.15,-1.18,-1.18
72.91,0.76,1.98,0.84,2.06,-2.06,-2.07,-1.56,-1.30,-1.22,-1.22
73.64,0.80,2.07,0.91,2.18,-2.18,-2.16,-1.60,-1.38,-1.27,-1.27
74.38,0.89,2.20,0.98,2.29,-2.29,-2.25,-1.64,-1.40,-1.31,-1.31
75.12,1.03,2.39,1.06,2.41,-2.41,-2.34,-1.68,-1.38,-1.35,-1.36
75.87,1.14,2.55,1.13,2.53,-2.53,-2.43,-1.72,-1.38,-1.40,-1.41
76.63,1.23,2.67,1.20,2.63,-2.63,-2.51,-1.77,-1.40,-1.44,-1.44
77.40,1.31,2.79,1.26,2.74,-2.74,-2.60,-1.81,-1.43,-1.48,-1.48
78.17,1.38,2.91,1.34,2.85,-2.85,-2.68,-1.85,-1.47,-1.52,-1.53
78.95,1.46,3.01,1.41,2.96,-2.96,-2.76,-1.90,-1.50,-1.55,-1.55
79.74,1.53,3.12,1.48,3.07,-3.07,-2.84,-1.94,-1.54,-1.59,-1.59
80.54,1.56,3.18,1.55,3.17,-3.17,-2.92,-1.99,-1.61,-1.62,-1.62
81.35,1.59,3.25,1.61,3.27,-3.27,-3.00,-2.04,-1.68,-1.65,-1.66
82.16,1.66,3.35,1.66,3.35,-3.35,-3.07,-2.09,-1.69,-1.69,-1.69
82.98,1.66,3.37,1.71,3.42,-3.42,-3.14,-2.15,-1.76,-1.72,-1.71
83.81,1.63,3.39,1.74,3.49,-3.49,-3.21,-2.20,-1.86,-1.75,-1.75
84.65,1.76,3.55,1.77,3.55,-3.55,-3.28,-2.26,-1.79,-1.78,-1.79
85.50,1.86,3.67,1.80,3.61,-3.61,-3.35,-2.32,-1.75,-1.82,-1.81
86.35,1.89,3.74,1.82,3.67,-3.67,-3.41,-2.38,-1.78,-1.85,-1.84
87.22,1.86,3.74,1.84,3.72,-3.72,-3.47,-2.44,-1.86,-1.88,-1.88
88.09,1.86,3.77,1.85,3.77,-3.77,-3.53,-2.50,-1.91,-1.92,-1.91
88.97,1.87,3.82,1.87,3.82,-3.82,-3.59,-2.57,-1.95,-1.95,-1.95
89.86,1.87,3.86,1.88,3.86,-3.86,-3.65,-2.64,-1.99,-1.98,-1.98
90.76,1.87,3.89,1.89,3.90,-3.90,-3.71,-2.71,-2.03,-2.02,-2.02
91.66,1.87,3.92,1.89,3.94,-3.94,-3.76,-2.78,-2.07,-2.05,-2.05
92.58,1.87,3.97,1.89,3.97,-3.97,-3.81,-2.85,-2.10,-2.08,-2.09
93.51,1.87,3.99,1.89,4.00,-4.00,-3.86,-2.93,-2.13,-2.12,-2.12
94.44,1.87,4.02,1.88,4.02,-4.02,-3.91,-3.01,-2.15,-2.15,-2.15
95.39,1.87,4.05,1.87,4.05,-4.05,-3.95,-3.09,-2.18,-2.18,-2.18
96.34,1.87,4.09,1.86,4.07,-4.07,-4.00,-3.17,-2.20,-2.21,-2.22
97.30,1.86,4.10,1.85,4.09,-4.09,-4.04,-3.26,-2.23,-2.24,-2.24
98.28,1.85,4.12,1.85,4.12,-4.12,-4.08,-3.34,-2.27,-2.27,-2.27
99.26,1.84,4.14,1.84,4.14,-4.14,-4.12,-3.43,-2.30,-2.30,-2.30
100.25,1.82,4.15,1.83,4.16,-4.16,-4.15,-3.52,-2.34,-2.33,-2.33
101.25,1.80,4.16,1.83,4.19,-4.19,-4.19,-3.60,-2.39,-2.36,-2.36
102.27,1.79,4.18,1.81,4.20,-4.20,-4.22,-3.69,-2.41,-2.39,-2.39
103.29,1.78,4.21,1.79,4.21,-4.21,-4.25,-3.78,-2.42,-2.42,-2.43
104.32,1.76,4.21,1.76,4.21,-4.21,-4.28,-3.87,-2.45,-2.45,-2.45
105.37,1.73,4.21,1.72,4.21,-4.21,-4.31,-3.96,-2.47,-2.48,-2.48
106.42,1.71,4.22,1.68,4.20,-4.20,-4.33,-4.05,-2.49,-2.52,-2.51
107.48,1.70,4.25,1.65,4.20,-4.20,-4.36,-4.14,-2.50,-2.55,-2.55
108.56,1.70,4.29,1.62,4.20,-4.20,-4.38,-4.22,-2.50,-2.58,-2.58
109.64,1.64,4.26,1.58,4.20,-4.20,-4.40,-4.31,-2.56,-2.62,-2.61
110.74,1.54,4.19,1.55,4.20,-4.20,-4.42,-4.39,-2.66,-2.65,-2.65
111.85,1.45,4.12,1.52,4.20,-4.20,-4.44,-4.47,-2.75,-2.68,-2.67
112.97,1.35,4.07,1.48,4.20,-4.20,-4.45,-4.54,-2.85,-2.72,-2.72
114.10,1.37,4.12,1.45,4.19,-4.19,-4.46,-4.61,-2.82,-2.75,-2.75
115.24,1.38,4.16,1.41,4.19,-4.19,-4.48,-4.68,-2.81,-2.77,-2.78
116.39,1.38,4.20,1.38,4.18,-4.18,-4.49,-4.74,-2.80,-2.80,-2.82
117.55,1.40,4.23,1.35,4.18,-4.18,-4.50,-4.80,-2.77,-2.83,-2.83
118.73,1.42,4.28,1.33,4.18,-4.18,-4.50,-4.85,-2.76,-2.85,-2.86
119.92,1.37,4.24,1.32,4.19,-4.19,-4.51,-4.89,-2.82,-2.87,-2.87
121.12,1.31,4.21,1.31,4.19,-4.19,-4.51,-4.93,-2.88,-2.89,-2.89
122.33,1.27,4.18,1.29,4.20,-4.20,-4.52,-4.96,-2.93,-2.91,-2.91
123.55,1.21,4.13,1.28,4.20,-4.20,-4.52,-4.98,-2.99,-2.92,-2.92
124.79,1.20,4.13,1.27,4.21,-4.21,-4.52,-5.00,-3.01,-2.94,-2.93
126.03,1.24,4.19,1.26,4.21,-4.21,-4.52,-5.01,-2.97,-2.95,-2.95
127.29,1.24,4.19,1.24,4.21,-4.21,-4.52,-5.01,-2.97,-2.96,-2.95
128.57,1.25,4.23,1.22,4.20,-4.20,-4.51,-5.00,-2.95,-2.98,-2.98
129.85,1.28,4.27,1.19,4.18,-4.18,-4.51,-4.99,-2.90,-2.99,-2.99
131.15,1.28,4.28,1.17,4.17,-4.17,-4.50,-4.97,-2.88,-3.00,-3.00
132.46,1.09,4.11,1.14,4.15,-4.15,-4.50,-4.94,-3.06,-3.01,-3.01
133.79,1.04,4.07,1.12,4.15,-4.15,-4.49,-4.91,-3.10,-3.03,-3.03
135.12,1.07,4.12,1.10,4.14,-4.14,-4.48,-4.87,-3.06,-3.04,-3.05
136.48,1.10,4.15,1.07,4.12,-4.12,-4.47,-4.83,-3.02,-3.05,-3.05
137.84,1.12,4.19,1.05,4.11,-4.11,-4.46,-4.79,-2.99,-3.06,-3.07
139.22,1.03,4.12,1.01,4.09,-4.09,-4.45,-4.74,-3.06,-3.08,-3.09
140.61,0.94,4.05,0.97,4.07,-4.07,-4.43,-4.68,-3.12,-3.09,-3.11
142.02,0.84,3.95,0.94,4.05,-4.05,-4.42,-4.62,-3.21,-3.11,-3.11
143.44,0.87,4.00,0.92,4.05,-4.05,-4.41,-4.56,-3.18,-3.13,-3.12
144.87,0.89,4.04,0.89,4.05,-4.05,-4.39,-4.50,-3.16,-3.16,-3.15
146.32,0.91,4.09,0.87,4.06,-4.06,-4.37,-4.44,-3.15,-3.19,-3.18
147.78,0.85,4.05,0.86,4.08,-4.08,-4.36,-4.38,-3.23,-3.22,-3.19
149.26,0.80,4.03,0.82,4.08,-4.08,-4.34,-4.31,-3.28,-3.26,-3.23
150.75,0.78,4.07,0.77,4.08,-4.08,-4.32,-4.25,-3.30,-3.31,-3.29
152.26,0.75,4.09,0.73,4.08,-4.08,-4.30,-4.18,-3.33,-3.36,-3.34
153.78,0.67,4.07,0.68,4.09,-4.09,-4.28,-4.12,-3.42,-3.41,-3.39
155.32,0.68,4.14,0.63,4.10,-4.10,-4.26,-4.06,-3.42,-3.47,-3.46
156.88,0.72,4.24,0.58,4.11,-4.11,-4.24,-3.99,-3.38,-3.53,-3.52
158.44,0.58,4.17,0.52,4.11,-4.11,-4.22,-3.93,-3.53,-3.59,-3.59
160.03,0.48,4.14,0.46,4.10,-4.10,-4.19,-3.88,-3.62,-3.64,-3.66
161.63,0.37,4.10,0.40,4.10,-4.10,-4.17,-3.82,-3.73,-3.70,-3.72
163.24,0.28,4.06,0.35,4.10,-4.10,-4.15,-3.76,-3.82,-3.75,-3.77
164.88,0.18,4.00,0.30,4.10,-4.10,-4.12,-3.71,-3.91,-3.80,-3.81
166.53,0.17,4.02,0.26,4.09,-4.09,-4.10,-3.66,-3.92,-3.83,-3.85
168.19,0.16,4.04,0.22,4.08,-4.08,-4.07,-3.61,-3.92,-3.86,-3.88
169.87,0.15,4.06,0.18,4.07,-4.07,-4.05,-3.57,-3.91,-3.89,-3.91
171.57,0.15,4.07,0.15,4.05,-4.05,-4.02,-3.53,-3.90,-3.90,-3.92
173.29,0.14,4.07,0.12,4.03,-4.03,-3.99,-3.49,-3.89,-3.91,-3.92
175.02,0.14,4.06,0.10,4.02,-4.02,-3.97,-3.45,-3.88,-3.92,-3.92
176.77,0.13,4.06,0.09,4.01,-4.01,-3.94,-3.41,-3.88,-3.92,-3.93
178.54,0.13,4.05,0.08,4.00,-4.00,-3.91,-3.38,-3.87,-3.92,-3.92
180.32,0.09,4.00,0.08,3.99,-3.99,-3.88,-3.35,-3.90,-3.92,-3.91
182.13,0.05,3.94,0.07,3.99,-3.99,-3.86,-3.33,-3.93,-3.92,-3.89
183.95,0.06,3.96,0.06,3.97,-3.97,-3.83,-3.30,-3.91,-3.91,-3.90
185.79,0.03,3.92,0.04,3.96,-3.96,-3.80,-3.28,-3.92,-3.91,-3.89
187.65,-0.01,3.90,0.03,3.94,-3.94,-3.77,-3.26,-3.95,-3.91,-3.90
189.52,-0.01,3.90,0.01,3.93,-3.93,-3.74,-3.25,-3.94,-3.92,-3.91
191.42,0.00,3.92,-0.00,3.92,-3.92,-3.71,-3.23,-3.92,-3.92,-3.92
193.33,0.01,3.94,-0.02,3.91,-3.91,-3.68,-3.22,-3.90,-3.93,-3.93
195.27,-0.06,3.88,-0.04,3.90,-3.90,-3.65,-3.21,-3.96,-3.94,-3.94
197.22,-0.06,3.90,-0.06,3.90,-3.90,-3.62,-3.20,-3.96,-3.95,-3.95
199.19,-0.06,3.92,-0.08,3.89,-3.89,-3.59,-3.20,-3.95,-3.97,-3.98
201.18,-0.11,3.88,-0.09,3.89,-3.89,-3.56,-3.19,-4.00,-3.98,-3.99
203.19,-0.13,3.87,-0.12,3.88,-3.88,-3.53,-3.19,-4.01,-4.00,-4.00
205.23,-0.13,3.89,-0.14,3.87,-3.87,-3.50,-3.19,-4.00,-4.01,-4.02
207.28,-0.13,3.89,-0.17,3.85,-3.85,-3.47,-3.19,-3.98,-4.03,-4.02
209.35,-0.18,3.86,-0.20,3.84,-3.84,-3.44,-3.19,-4.02,-4.04,-4.03
211.44,-0.23,3.83,-0.24,3.82,-3.82,-3.41,-3.19,-4.05,-4.05,-4.06
213.56,-0.31,3.75,-0.28,3.79,-3.79,-3.37,-3.19,-4.10,-4.06,-4.06
215.69,-0.34,3.73,-0.32,3.76,-3.76,-3.34,-3.20,-4.09,-4.07,-4.07
217.85,-0.34,3.74,-0.36,3.72,-3.72,-3.31,-3.20,-4.06,-4.08,-4.08
220.03,-0.38,3.71,-0.40,3.69,-3.69,-3.28,-3.20,-4.06,-4.08,-4.09
222.23,-0.43,3.68,-0.44,3.64,-3.64,-3.25,-3.20,-4.07,-4.09,-4.10
224.45,-0.51,3.58,-0.48,3.60,-3.60,-3.21,-3.20,-4.11,-4.08,-4.09
226.70,-0.55,3.54,-0.52,3.56,-3.56,-3.18,-3.20,-4.10,-4.08,-4.09
228.96,-0.55,3.53,-0.56,3.51,-3.51,-3.15,-3.20,-4.06,-4.07,-4.07
231.25,-0.55,3.51,-0.60,3.46,-3.46,-3.12,-3.19,-4.01,-4.06,-4.06
233.57,-0.66,3.39,-0.63,3.42,-3.42,-3.08,-3.19,-4.08,-4.05,-4.05
235.90,-0.74,3.29,-0.65,3.38,-3.38,-3.05,-3.18,-4.12,-4.03,-4.03
238.26,-0.69,3.33,-0.68,3.33,-3.33,-3.02,-3.17,-4.02,-4.01,-4.02
240.64,-0.70,3.30,-0.70,3.29,-3.29,-2.98,-3.15,-3.98,-3.99,-3.99
243.05,-0.74,3.22,-0.72,3.24,-3.24,-2.95,-3.14,-3.98,-3.96,-3.96
245.48,-0.75,3.19,-0.74,3.20,-3.20,-2.92,-3.12,-3.94,-3.94,-3.93
247.93,-0.73,3.17,-0.75,3.16,-3.16,-2.88,-3.10,-3.89,-3.91,-3.90
250.41,-0.79,3.10,-0.76,3.12,-3.12,-2.85,-3.07,-3.91,-3.89,-3.88
252.92,-0.79,3.06,-0.78,3.08,-3.08,-2.81,-3.04,-3.87,-3.86,-3.85
255.45,-0.79,3.03,-0.81,3.02,-3.02,-2.78,-3.01,-3.81,-3.83,-3.82
258.00,-0.84,2.96,-0.85,2.96,-2.96,-2.74,-2.97,-3.80,-3.80,-3.80
260.58,-0.87,2.91,-0.88,2.90,-2.90,-2.70,-2.93,-3.77,-3.78,-3.78
263.19,-0.93,2.82,-0.93,2.82,-2.82,-2.67,-2.89,-3.75,-3.75,-3.75
265.82,-0.90,2.83,-0.99,2.73,-2.73,-2.63,-2.84,-3.63,-3.72,-3.73
268.48,-0.99,2.71,-1.06,2.64,-2.64,-2.59,-2.80,-3.63,-3.70,-3.70
271.16,-1.05,2.62,-1.12,2.55,-2.55,-2.55,-2.75,-3.60,-3.67,-3.67
273.87,-1.09,2.56,-1.18,2.46,-2.46,-2.51,-2.69,-3.55,-3.64,-3.65
276.61,-1.25,2.36,-1.24,2.38,-2.38,-2.47,-2.64,-3.63,-3.61,-3.61
279.38,-1.39,2.20,-1.29,2.29,-2.29,-2.43,-2.58,-3.68,-3.59,-3.59
282.17,-1.49,2.07,-1.35,2.21,-2.21,-2.39,-2.52,-3.70,-3.56,-3.56
284.99,-1.50,2.02,-1.40,2.13,-2.13,-2.35,-2.46,-3.62,-3.53,-3.52
287.84,-1.46,2.05,-1.45,2.05,-2.05,-2.30,-2.40,-3.51,-3.50,-3.51
290.72,-1.59,1.88,-1.49,1.98,-1.98,-2.26,-2.33,-3.57,-3.47,-3.47
293.63,-1.59,1.85,-1.53,1.91,-1.91,-2.21,-2.27,-3.50,-3.44,-3.44
296.57,-1.54,1.86,-1.56,1.84,-1.84,-2.16,-2.20,-3.38,-3.40,-3.40
299.53,-1.47,1.91,-1.59,1.79,-1.79,-2.11,-2.14,-3.26,-3.38,-3.38
302.53,-1.49,1.87,-1.61,1.74,-1.74,-2.06,-2.07,-3.23,-3.35,-3.36
305.55,-1.58,1.73,-1.62,1.70,-1.70,-2.01,-2.00,-3.27,-3.32,-3.31
308.61,-1.69,1.60,-1.64,1.66,-1.66,-1.96,-1.94,-3.35,-3.30,-3.29
311.69,-1.70,1.57,-1.66,1.61,-1.61,-1.90,-1.87,-3.31,-3.27,-3.26
314.81,-1.67,1.57,-1.69,1.55,-1.55,-1.84,-1.80,-3.22,-3.25,-3.24
317.96,-1.73,1.49,-1.74,1.49,-1.49,-1.78,-1.74,-3.22,-3.23,-3.22
321.14,-1.79,1.42,-1.79,1.42,-1.42,-1.72,-1.67,-3.21,-3.21,-3.21
324.35,-1.85,1.34,-1.83,1.35,-1.35,-1.65,-1.61,-3.20,-3.19,-3.19
327.59,-1.87,1.30,-1.89,1.28,-1.28,-1.58,-1.54,-3.15,-3.17,-3.17
330.87,-1.92,1.25,-1.96,1.20,-1.20,-1.51,-1.48,-3.12,-3.16,-3.16
334.18,-1.98,1.17,-2.02,1.13,-1.13,-1.44,-1.42,-3.11,-3.14,-3.15
337.52,-2.03,1.11,-2.07,1.06,-1.06,-1.36,-1.35,-3.09,-3.13,-3.14
340.90,-2.17,0.95,-2.13,1.00,-1.00,-1.28,-1.29,-3.17,-3.13,-3.12
344.30,-2.28,0.83,-2.18,0.93,-0.93,-1.20,-1.23,-3.21,-3.12,-3.11
347.75,-2.29,0.82,-2.25,0.87,-0.87,-1.11,-1.17,-3.15,-3.11,-3.11
351.23,-2.32,0.78,-2.31,0.80,-0.80,-1.02,-1.11,-3.12,-3.11,-3.10
354.74,-2.39,0.72,-2.36,0.74,-0.74,-0.92,-1.05,-3.13,-3.10,-3.10
358.28,-2.43,0.67,-2.42,0.68,-0.68,-0.82,-0.99,-3.11,-3.10,-3.10
361.87,-2.47,0.63,-2.47,0.62,-0.62,-0.72,-0.93,-3.09,-3.09,-3.10
365.49,-2.55,0.54,-2.54,0.55,-0.55,-0.61,-0.87,-3.10,-3.09,-3.09
369.14,-2.60,0.50,-2.61,0.48,-0.48,-0.50,-0.82,-3.08,-3.09,-3.10
372.83,-2.67,0.43,-2.68,0.41,-0.41,-0.39,-0.76,-3.08,-3.09,-3.10
376.56,-2.74,0.36,-2.77,0.33,-0.33,-0.27,-0.71,-3.07,-3.10,-3.10
380.33,-2.80,0.29,-2.85,0.25,-0.25,-0.15,-0.65,-3.05,-3.10,-3.09
384.13,-2.89,0.20,-2.95,0.16,-0.16,-0.03,-0.60,-3.04,-3.10,-3.09
387.97,-3.00,0.10,-3.05,0.05,-0.05,0.09,-0.55,-3.05,-3.11,-3.10
391.85,-3.12,-0.00,-3.17,-0.06,0.06,0.22,-0.50,-3.06,-3.11,-3.11
395.77,-3.26,-0.15,-3.29,-0.18,0.18,0.34,-0.45,-3.08,-3.11,-3.10
399.73,-3.43,-0.31,-3.41,-0.29,0.29,0.46,-0.40,-3.13,-3.12,-3.12
403.72,-3.59,-0.47,-3.54,-0.42,0.42,0.58,-0.35,-3.17,-3.12,-3.12
407.76,-3.71,-0.58,-3.66,-0.54,0.54,0.70,-0.30,-3.17,-3.13,-3.13
411.84,-3.80,-0.67,-3.79,-0.66,0.66,0.81,-0.25,-3.14,-3.13,-3.13
415.96,-3.90,-0.77,-3.91,-0.78,0.78,0.91,-0.21,-3.12,-3.13,-3.13
420.12,-3.98,-0.85,-4.02,-0.89,0.89,1.01,-0.17,-3.09,-3.13,-3.13
424.32,-4.10,-0.97,-4.11,-0.99,0.99,1.09,-0.12,-3.11,-3.12,-3.13
428.56,-4.24,-1.12,-4.19,-1.08,1.08,1.16,-0.08,-3.16,-3.11,-3.12
432.85,-4.30,-1.19,-4.25,-1.15,1.15,1.22,-0.04,-3.15,-3.10,-3.11
437.18,-4.28,-1.18,-4.29,-1.22,1.22,1.26,-0.01,-3.06,-3.08,-3.10
