frequency,raw,error,smoothed,error_smoothed,equalization,parametric_eq,fixed_band_eq,equalized_raw,equalized_smoothed,target
20.00,4.03,-0.73,4.02,-0.74,0.76,-0.51,-0.64,4.79,4.78,4.76
20.20,4.04,-0.75,4.06,-0.73,0.73,-0.52,-0.66,4.78,4.80,4.79
20.40,4.11,-0.72,4.11,-0.71,0.70,-0.54,-0.67,4.81,4.82,4.82
20.61,4.17,-0.67,4.17,-0.68,0.67,-0.56,-0.69,4.84,4.84,4.84
20.81,4.24,-0.64,4.23,-0.64,0.63,-0.58,-0.71,4.87,4.87,4.87
21.02,4.29,-0.61,4.30,-0.60,0.59,-0.60,-0.73,4.89,4.89,4.90
21.23,4.36,-0.55,4.36,-0.55,0.55,-0.62,-0.75,4.91,4.91,4.91
21.44,4.43,-0.50,4.43,-0.50,0.49,-0.64,-0.77,4.92,4.92,4.92
21.66,4.49,-0.44,4.50,-0.44,0.44,-0.66,-0.79,4.93,4.93,4.93
21.87,4.57,-0.37,4.57,-0.37,0.37,-0.68,-0.81,4.94,4.94,4.93
22.09,4.64,-0.31,4.63,-0.31,0.31,-0.70,-0.83,4.94,4.94,4.94
22.31,4.71,-0.24,4.71,-0.24,0.24,-0.72,-0.85,4.95,4.95,4.94
22.54,4.76,-0.18,4.77,-0.17,0.17,-0.74,-0.87,4.94,4.94,4.94
22.76,4.84,-0.10,4.83,-0.11,0.11,-0.76,-0.90,4.95,4.94,4.94
22.99,4.88,-0.05,4.89,-0.04,0.04,-0.78,-0.92,4.92,4.93,4.93
23.22,4.95,0.02,4.96,0.03,-0.03,-0.81,-0.94,4.93,4.93,4.93
23.45,5.03,0.09,5.02,0.09,-0.09,-0.83,-0.97,4.94,4.93,4.93
23.69,5.08,0.15,5.09,0.16,-0.15,-0.85,-0.99,4.93,4.94,4.93
23.92,5.16,0.23,5.15,0.22,-0.22,-0.88,-1.02,4.94,4.94,4.93
24.16,5.22,0.28,5.21,0.28,-0.28,-0.90,-1.04,4.94,4.93,4.94
24.40,5.27,0.33,5.27,0.34,-0.34,-0.93,-1.07,4.93,4.93,4.94
24.65,5.33,0.41,5.33,0.40,-0.40,-0.95,-1.10,4.93,4.93,4.93
24.89,5.40,0.47,5.39,0.46,-0.46,-0.98,-1.13,4.93,4.93,4.93
25.14,5.45,0.52,5.45,0.52,-0.52,-1.01,-1.15,4.92,4.93,4.93
25.39,5.51,0.58,5.51,0.59,-0.59,-1.03,-1.18,4.92,4.93,4.93
25.65,5.58,0.66,5.57,0.65,-0.65,-1.06,-1.21,4.94,4.92,4.93
25.91,5.63,0.72,5.63,0.71,-0.71,-1.09,-1.24,4.92,4.92,4.92
26.16,5.68,0.76,5.69,0.77,-0.77,-1.12,-1.27,4.91,4.92,4.91
26.43,5.74,0.83,5.74,0.83,-0.83,-1.15,-1.30,4.91,4.92,4.91
26.69,5.81,0.90,5.80,0.89,-0.89,-1.18,-1.33,4.93,4.92,4.91
26.96,5.86,0.95,5.86,0.95,-0.95,-1.21,-1.36,4.91,4.91,4.91
27.23,5.91,1.00,5.92,1.01,-1.01,-1.24,-1.39,4.90,4.90,4.91
27.50,5.97,1.06,5.97,1.07,-1.08,-1.27,-1.42,4.90,4.90,4.91
27.77,6.04,1.13,6.04,1.13,-1.14,-1.30,-1.45,4.90,4.90,4.90
28.05,6.10,1.20,6.10,1.20,-1.20,-1.33,-1.48,4.90,4.90,4.90
28.33,6.17,1.28,6.17,1.27,-1.26,-1.37,-1.51,4.90,4.90,4.89
28.62,6.22,1.34,6.23,1.34,-1.32,-1.40,-1.54,4.90,4.90,4.89
28.90,6.28,1.40,6.28,1.39,-1.39,-1.43,-1.57,4.90,4.89,4.89
29.19,6.32,1.45,6.33,1.44,-1.45,-1.47,-1.59,4.88,4.88,4.88
29.48,6.38,1.49,6.38,1.50,-1.51,-1.51,-1.62,4.87,4.87,4.89
29.78,6.42,1.55,6.43,1.55,-1.56,-1.54,-1.65,4.86,4.87,4.87
30.08,6.49,1.62,6.49,1.62,-1.62,-1.58,-1.68,4.87,4.87,4.87
30.38,6.55,1.69,6.55,1.68,-1.68,-1.62,-1.71,4.87,4.87,4.86
30.68,6.60,1.74,6.61,1.75,-1.74,-1.66,-1.73,4.87,4.87,4.86
30.99,6.65,1.80,6.66,1.80,-1.80,-1.70,-1.76,4.86,4.86,4.85
31.30,6.70,1.85,6.70,1.85,-1.86,-1.74,-1.78,4.85,4.85,4.85
31.61,6.75,1.91,6.75,1.91,-1.92,-1.78,-1.81,4.84,4.84,4.85
31.93,6.80,1.97,6.81,1.97,-1.97,-1.82,-1.83,4.83,4.83,4.84
32.24,6.87,2.04,6.86,2.03,-2.03,-1.87,-1.86,4.83,4.83,4.83
32.57,6.91,2.09,6.91,2.09,-2.09,-1.91,-1.88,4.83,4.83,4.82
32.89,6.97,2.14,6.97,2.15,-2.14,-1.96,-1.90,4.82,4.82,4.82
33.22,7.01,2.20,7.02,2.20,-2.20,-2.00,-1.93,4.81,4.81,4.81
33.55,7.07,2.27,7.07,2.26,-2.26,-2.05,-1.95,4.82,4.81,4.81
33.89,7.10,2.31,7.11,2.31,-2.32,-2.10,-1.97,4.79,4.80,4.80
34.23,7.16,2.37,7.16,2.37,-2.37,-2.15,-2.00,4.79,4.79,4.80
34.57,7.21,2.43,7.21,2.43,-2.43,-2.20,-2.02,4.79,4.78,4.78
34.92,7.26,2.49,7.26,2.49,-2.48,-2.25,-2.04,4.78,4.78,4.77
35.27,7.30,2.53,7.31,2.54,-2.54,-2.30,-2.07,4.76,4.77,4.77
35.62,7.35,2.60,7.35,2.60,-2.60,-2.35,-2.09,4.76,4.76,4.76
35.97,7.41,2.66,7.40,2.65,-2.65,-2.41,-2.11,4.75,4.75,4.75
36.33,7.45,2.70,7.45,2.71,-2.71,-2.47,-2.14,4.74,4.74,4.74
36.70,7.49,2.76,7.50,2.76,-2.76,-2.52,-2.17,4.73,4.73,4.73
37.06,7.55,2.83,7.54,2.82,-2.82,-2.58,-2.19,4.73,4.72,4.72
37.43,7.59,2.87,7.59,2.87,-2.87,-2.64,-2.22,4.71,4.71,4.72
37.81,7.63,2.93,7.63,2.93,-2.93,-2.70,-2.25,4.71,4.71,4.70
38.19,7.66,2.97,7.67,2.98,-2.98,-2.76,-2.28,4.69,4.70,4.69
38.57,7.72,3.04,7.72,3.03,-3.03,-2.82,-2.31,4.69,4.69,4.69
38.95,7.76,3.08,7.76,3.08,-3.08,-2.88,-2.35,4.67,4.67,4.68
39.34,7.80,3.13,7.80,3.13,-3.13,-2.95,-2.38,4.66,4.66,4.66
39.74,7.83,3.18,7.84,3.18,-3.18,-3.01,-2.42,4.65,4.65,4.65
40.14,7.87,3.23,7.88,3.23,-3.23,-3.07,-2.46,4.64,4.64,4.65
40.54,7.92,3.29,7.92,3.28,-3.28,-3.14,-2.50,4.64,4.64,4.63
40.94,7.95,3.32,7.96,3.33,-3.33,-3.20,-2.54,4.62,4.63,4.63
41.35,8.00,3.39,8.00,3.38,-3.38,-3.27,-2.58,4.63,4.62,4.62
41.76,8.05,3.43,8.04,3.43,-3.43,-3.33,-2.63,4.62,4.62,4.61
42.18,8.07,3.47,8.08,3.48,-3.47,-3.40,-2.68,4.60,4.61,4.61
42.60,8.12,3.53,8.12,3.52,-3.52,-3.46,-2.73,4.60,4.60,4.59
43.03,8.15,3.56,8.15,3.56,-3.57,-3.53,-2.78,4.58,4.58,4.59
43.46,8.18,3.61,8.19,3.61,-3.62,-3.59,-2.83,4.56,4.57,4.58
43.90,8.21,3.66,8.22,3.67,-3.67,-3.65,-2.89,4.54,4.55,4.55
44.33,8.27,3.73,8.26,3.72,-3.72,-3.71,-2.95,4.54,4.54,4.54
44.78,8.30,3.78,8.30,3.78,-3.77,-3.77,-3.01,4.53,4.53,4.52
45.23,8.33,3.83,8.33,3.83,-3.82,-3.83,-3.07,4.52,4.51,4.51
45.68,8.35,3.86,8.36,3.87,-3.87,-3.88,-3.13,4.49,4.49,4.49
46.13,8.39,3.92,8.39,3.91,-3.91,-3.94,-3.20,4.48,4.48,4.48
46.60,8.42,3.95,8.43,3.96,-3.96,-3.99,-3.27,4.46,4.47,4.47
47.06,8.46,4.01,8.46,4.01,-4.01,-4.04,-3.34,4.46,4.46,4.45
47.53,8.49,4.06,8.49,4.05,-4.05,-4.09,-3.41,4.44,4.44,4.44
48.01,8.52,4.09,8.52,4.10,-4.10,-4.13,-3.48,4.42,4.42,4.43
48.49,8.54,4.14,8.55,4.14,-4.15,-4.18,-3.56,4.39,4.40,4.41
48.97,8.58,4.21,8.58,4.20,-4.20,-4.22,-3.64,4.39,4.38,4.38
49.46,8.59,4.24,8.60,4.25,-4.25,-4.26,-3.72,4.35,4.36,4.35
49.96,8.63,4.31,8.63,4.30,-4.30,-4.30,-3.80,4.34,4.34,4.32
50.46,8.65,4.34,8.66,4.34,-4.34,-4.34,-3.88,4.31,4.31,4.32
50.96,8.68,4.39,8.68,4.39,-4.39,-4.38,-3.96,4.30,4.30,4.30
51.47,8.70,4.43,8.70,4.43,-4.43,-4.41,-4.05,4.28,4.28,4.27
51.99,8.72,4.47,8.73,4.47,-4.47,-4.45,-4.13,4.25,4.26,4.25
52.51,8.75,4.51,8.75,4.51,-4.51,-4.49,-4.22,4.24,4.24,4.24
53.03,8.77,4.55,8.77,4.55,-4.55,-4.52,-4.30,4.22,4.22,4.22
53.56,8.77,4.57,8.79,4.58,-4.59,-4.56,-4.39,4.18,4.20,4.20
54.10,8.82,4.64,8.81,4.63,-4.63,-4.59,-4.47,4.20,4.18,4.19
54.64,8.82,4.66,8.84,4.67,-4.67,-4.62,-4.56,4.16,4.17,4.17
55.18,8.86,4.72,8.85,4.71,-4.70,-4.66,-4.64,4.16,4.15,4.14
55.74,8.86,4.74,8.86,4.73,-4.74,-4.69,-4.72,4.13,4.13,4.12
56.29,8.86,4.75,8.88,4.77,-4.77,-4.73,-4.80,4.10,4.11,4.11
56.86,8.88,4.79,8.89,4.80,-4.80,-4.76,-4.88,4.09,4.09,4.09
57.42,8.91,4.85,8.90,4.83,-4.83,-4.79,-4.95,4.09,4.08,4.07
58.00,8.91,4.86,8.91,4.85,-4.85,-4.83,-5.03,4.06,4.06,4.06
58.58,8.91,4.87,8.92,4.88,-4.88,-4.86,-5.09,4.03,4.04,4.04
59.16,8.92,4.88,8.93,4.90,-4.91,-4.89,-5.16,4.01,4.02,4.03
59.76,8.96,4.95,8.95,4.93,-4.94,-4.93,-5.22,4.03,4.01,4.02
60.35,8.96,4.97,8.96,4.97,-4.96,-4.96,-5.28,4.00,4.00,3.99
60.96,8.96,4.99,8.97,5.00,-4.99,-4.99,-5.33,3.98,3.98,3.98
61.57,8.96,5.02,8.96,5.02,-5.02,-5.02,-5.38,3.95,3.95,3.94
62.18,8.96,5.05,8.96,5.04,-5.04,-5.04,-5.42,3.92,3.92,3.92
62.80,8.96,5.06,8.97,5.07,-5.07,-5.07,-5.46,3.89,3.89,3.90
63.43,8.96,5.09,8.97,5.09,-5.10,-5.10,-5.50,3.87,3.87,3.88
64.07,8.98,5.13,8.98,5.12,-5.12,-5.12,-5.53,3.86,3.86,3.86
64.71,8.98,5.14,8.99,5.15,-5.15,-5.14,-5.56,3.84,3.84,3.84
65.35,9.00,5.18,9.00,5.18,-5.17,-5.16,-5.58,3.83,3.83,3.82
66.01,9.00,5.20,9.00,5.20,-5.19,-5.18,-5.60,3.81,3.81,3.80
66.67,9.00,5.22,9.01,5.22,-5.22,-5.20,-5.61,3.79,3.79,3.79
67.33,9.00,5.24,9.00,5.24,-5.24,-5.21,-5.63,3.77,3.77,3.77
68.01,9.00,5.26,9.00,5.26,-5.26,-5.22,-5.64,3.75,3.75,3.75
68.69,9.00,5.28,9.00,5.28,-5.28,-5.24,-5.65,3.73,3.73,3.73
69.37,9.00,5.30,9.00,5.30,-5.30,-5.25,-5.65,3.70,3.70,3.70
70.07,9.00,5.32,9.00,5.32,-5.33,-5.26,-5.66,3.68,3.68,3.68
70.77,9.00,5.34,9.02,5.35,-5.36,-5.28,-5.66,3.65,3.66,3.67
71.48,9.03,5.39,9.03,5.38,-5.39,-5.30,-5.66,3.65,3.64,3.65
72.19,9.05,5.43,9.05,5.42,-5.42,-5.32,-5.66,3.63,3.63,3.62
72.91,9.05,5.46,9.06,5.46,-5.46,-5.36,-5.67,3.60,3.60,3.60
73.64,9.08,5.51,9.08,5.50,-5.50,-5.39,-5.67,3.58,3.58,3.57
74.38,9.09,5.54,9.10,5.54,-5.55,-5.44,-5.68,3.55,3.55,3.56
75.12,9.13,5.60,9.13,5.59,-5.59,-5.50,-5.68,3.54,3.53,3.53
75.87,9.14,5.63,9.15,5.64,-5.64,-5.57,-5.69,3.50,3.51,3.52
76.63,9.19,5.70,9.19,5.69,-5.69,-5.65,-5.70,3.50,3.50,3.50
77.40,9.22,5.74,9.22,5.75,-5.75,-5.73,-5.71,3.48,3.48,3.48
78.17,9.26,5.81,9.27,5.81,-5.80,-5.82,-5.73,3.46,3.46,3.45
78.95,9.30,5.86,9.31,5.87,-5.86,-5.92,-5.74,3.44,3.44,3.44
79.74,9.35,5.93,9.35,5.93,-5.93,-6.03,-5.77,3.43,3.42,3.42
80.54,9.40,6.00,9.40,6.00,-6.00,-6.13,-5.79,3.41,3.40,3.40
81.35,9.44,6.06,9.45,6.07,-6.07,-6.24,-5.82,3.37,3.38,3.38
82.16,9.51,6.15,9.51,6.14,-6.15,-6.34,-5.85,3.37,3.36,3.36
82.98,9.57,6.22,9.57,6.23,-6.23,-6.45,-5.89,3.34,3.34,3.35
83.81,9.63,6.32,9.64,6.32,-6.32,-6.55,-5.93,3.32,3.33,3.32
84.65,9.71,6.42,9.71,6.41,-6.41,-6.65,-5.97,3.31,3.30,3.30
85.50,9.78,6.50,9.78,6.51,-6.50,-6.75,-6.02,3.28,3.28,3.28
86.35,9.84,6.59,9.86,6.60,-6.60,-6.84,-6.07,3.24,3.25,3.26
87.22,9.95,6.72,9.94,6.71,-6.71,-6.93,-6.13,3.25,3.23,3.23
88.09,10.01,6.81,10.02,6.81,-6.82,-7.02,-6.19,3.20,3.21,3.21
88.97,10.12,6.93,10.11,6.92,-6.93,-7.10,-6.26,3.20,3.18,3.19
89.86,10.18,7.02,10.20,7.04,-7.04,-7.18,-6.33,3.15,3.16,3.17
90.76,10.29,7.16,10.29,7.16,-7.15,-7.25,-6.41,3.14,3.14,3.13
91.66,10.40,7.29,10.39,7.28,-7.27,-7.33,-6.49,3.13,3.12,3.11
92.58,10.46,7.39,10.48,7.40,-7.39,-7.39,-6.57,3.08,3.09,3.08
93.51,10.57,7.51,10.56,7.50,-7.51,-7.46,-6.66,3.07,3.06,3.06
94.44,10.63,7.60,10.65,7.61,-7.62,-7.52,-6.76,3.01,3.02,3.03
95.39,10.74,7.74,10.74,7.74,-7.74,-7.58,-6.86,3.00,3.00,3.00
96.34,10.81,7.85,10.82,7.85,-7.85,-7.63,-6.96,2.96,2.97,2.97
97.30,10.91,7.98,10.90,7.97,-7.96,-7.68,-7.07,2.95,2.94,2.94
98.28,10.97,8.06,10.98,8.07,-8.07,-7.73,-7.18,2.91,2.91,2.91
99.26,11.04,8.16,11.05,8.17,-8.17,-7.78,-7.29,2.88,2.89,2.88
100.25,11.12,8.27,11.11,8.26,-8.26,-7.82,-7.41,2.86,2.85,2.85
101.25,11.17,8.35,11.17,8.35,-8.35,-7.86,-7.53,2.83,2.83,2.82
102.27,11.21,8.42,11.22,8.43,-8.42,-7.89,-7.65,2.79,2.80,2.79
103.29,11.26,8.51,11.26,8.50,-8.50,-7.93,-7.78,2.77,2.76,2.75
104.32,11.28,8.55,11.29,8.56,-8.56,-7.96,-7.91,2.72,2.73,2.73
105.37,11.32,8.62,11.32,8.62,-8.62,-7.99,-8.03,2.70,2.70,2.71
106.42,11.33,8.66,11.35,8.67,-8.68,-8.01,-8.16,2.66,2.67,2.68
107.48,11.38,8.74,11.37,8.73,-8.72,-8.04,-8.29,2.66,2.65,2.65
108.56,11.38,8.78,11.38,8.77,-8.77,-8.06,-8.42,2.62,2.61,2.61
109.64,11.38,8.81,11.39,8.81,-8.81,-8.08,-8.54,2.58,2.58,2.58
110.74,11.38,8.84,11.39,8.84,-8.84,-8.09,-8.67,2.54,2.54,2.55
111.85,11.38,8.86,11.39,8.87,-8.87,-8.11,-8.79,2.51,2.51,2.52
112.97,11.38,8.91,11.38,8.90,-8.90,-8.12,-8.90,2.48,2.48,2.47
114.10,11.36,8.92,11.36,8.92,-8.92,-8.13,-9.01,2.44,2.44,2.44
115.24,11.33,8.93,11.34,8.94,-8.94,-8.14,-9.11,2.40,2.40,2.40
116.39,11.30,8.94,11.31,8.94,-8.95,-8.14,-9.21,2.36,2.36,2.37
117.55,11.28,8.96,11.28,8.95,-8.95,-8.14,-9.29,2.33,2.33,2.33
118.73,11.24,8.95,11.25,8.95,-8.95,-8.15,-9.37,2.29,2.30,2.29
119.92,11.21,8.95,11.21,8.95,-8.94,-8.15,-9.43,2.27,2.27,2.26
121.12,11.16,8.94,11.16,8.93,-8.93,-8.15,-9.49,2.24,2.23,2.23
122.33,11.10,8.91,11.10,8.91,-8.91,-8.14,-9.52,2.19,2.19,2.19
123.55,11.03,8.87,11.04,8.88,-8.89,-8.14,-9.56,2.15,2.16,2.17
124.79,10.98,8.86,10.98,8.85,-8.86,-8.13,-9.57,2.13,2.12,2.13
126.03,10.92,8.83,10.92,8.82,-8.83,-8.13,-9.58,2.10,2.09,2.09
127.29,10.84,8.78,10.85,8.79,-8.79,-8.12,-9.56,2.06,2.06,2.06
128.57,10.76,8.75,10.77,8.75,-8.74,-8.11,-9.55,2.02,2.02,2.02
129.85,10.69,8.71,10.69,8.70,-8.70,-8.10,-9.51,2.00,1.99,1.98
131.15,10.58,8.63,10.60,8.65,-8.65,-8.09,-9.47,1.94,1.95,1.95
132.46,10.52,8.61,10.51,8.59,-8.59,-8.08,-9.40,1.93,1.92,1.92
133.79,10.41,8.52,10.42,8.53,-8.53,-8.07,-9.34,1.88,1.89,1.90
135.12,10.32,8.47,10.33,8.47,-8.47,-8.06,-9.26,1.86,1.86,1.85
136.48,10.23,8.40,10.23,8.40,-8.40,-8.04,-9.18,1.83,1.83,1.83
137.84,10.13,8.33,10.13,8.34,-8.33,-8.03,-9.09,1.80,1.80,1.80
139.22,10.02,8.26,10.04,8.27,-8.26,-8.02,-8.99,1.76,1.77,1.76
140.61,9.94,8.21,9.94,8.20,-8.20,-8.00,-8.89,1.75,1.74,1.73
142.02,9.85,8.13,9.85,8.13,-8.13,-7.99,-8.79,1.73,1.72,1.73
143.44,9.74,8.05,9.76,8.07,-8.06,-7.98,-8.68,1.68,1.70,1.70
144.87,9.68,8.01,9.67,8.00,-8.00,-7.96,-8.57,1.68,1.67,1.67
146.32,9.59,7.95,9.59,7.94,-7.95,-7.95,-8.46,1.65,1.64,1.64
147.78,9.51,7.89,9.52,7.90,-7.90,-7.94,-8.34,1.61,1.62,1.63
149.26,9.44,7.84,9.45,7.86,-7.86,-7.93,-8.23,1.59,1.59,1.60
150.75,9.40,7.84,9.40,7.82,-7.83,-7.92,-8.12,1.58,1.57,1.57
152.26,9.35,7.81,9.35,7.81,-7.81,-7.91,-8.02,1.55,1.54,1.54
153.78,9.29,7.78,9.31,7.79,-7.79,-7.90,-7.91,1.50,1.51,1.52
155.32,9.28,7.80,9.27,7.78,-7.79,-7.89,-7.81,1.49,1.48,1.49
156.88,9.23,7.77,9.25,7.79,-7.80,-7.88,-7.71,1.44,1.45,1.46
158.44,9.23,7.80,9.24,7.81,-7.81,-7.88,-7.61,1.43,1.43,1.43
160.03,9.23,7.84,9.22,7.82,-7.82,-7.87,-7.52,1.41,1.40,1.40
161.63,9.21,7.85,9.21,7.85,-7.84,-7.86,-7.43,1.37,1.37,1.37
163.24,9.19,7.86,9.20,7.86,-7.86,-7.86,-7.35,1.33,1.34,1.34
164.88,9.19,7.88,9.20,7.88,-7.88,-7.86,-7.27,1.32,1.32,1.32
166.53,9.19,7.91,9.19,7.90,-7.89,-7.86,-7.19,1.30,1.30,1.29
168.19,9.18,7.92,9.18,7.91,-7.90,-7.86,-7.13,1.28,1.27,1.26
169.87,9.14,7.91,9.15,7.92,-7.91,-7.86,-7.06,1.23,1.24,1.23
171.57,9.11,7.91,9.12,7.91,-7.92,-7.86,-7.00,1.20,1.20,1.20
173.29,9.09,7.92,9.09,7.91,-7.92,-7.86,-6.94,1.18,1.17,1.18
175.02,9.05,7.90,9.06,7.91,-7.92,-7.86,-6.90,1.14,1.14,1.15
176.77,9.02,7.91,9.03,7.91,-7.91,-7.87,-6.85,1.11,1.11,1.11
178.54,8.99,7.92,8.99,7.91,-7.91,-7.87,-6.82,1.09,1.09,1.08
180.32,8.96,7.91,8.96,7.90,-7.90,-7.88,-6.78,1.06,1.06,1.05
182.13,8.91,7.89,8.92,7.89,-7.89,-7.88,-6.75,1.02,1.03,1.03
183.95,8.87,7.88,8.88,7.88,-7.88,-7.88,-6.73,0.99,1.00,0.99
185.79,8.84,7.87,8.84,7.87,-7.87,-7.89,-6.71,0.97,0.97,0.97
187.65,8.79,7.86,8.80,7.86,-7.86,-7.89,-6.69,0.94,0.94,0.94
189.52,8.76,7.85,8.76,7.84,-7.84,-7.89,-6.69,0.92,0.92,0.91
191.42,8.70,7.81,8.71,7.82,-7.83,-7.89,-6.68,0.88,0.89,0.89
193.33,8.67,7.80,8.67,7.80,-7.81,-7.88,-6.68,0.87,0.86,0.87
195.27,8.63,7.79,8.63,7.79,-7.79,-7.88,-6.68,0.84,0.84,0.85
197.22,8.59,7.77,8.60,7.77,-7.77,-7.87,-6.69,0.82,0.83,0.83
199.19,8.56,7.77,8.56,7.75,-7.75,-7.86,-6.70,0.82,0.81,0.80
201.18,8.50,7.72,8.51,7.73,-7.72,-7.84,-6.72,0.78,0.79,0.79
203.19,8.47,7.70,8.47,7.70,-7.70,-7.82,-6.73,0.78,0.77,0.78
205.23,8.42,7.67,8.42,7.66,-7.67,-7.79,-6.75,0.76,0.76,0.76
207.28,8.37,7.62,8.38,7.63,-7.63,-7.76,-6.77,0.74,0.74,0.76
209.35,8.33,7.60,8.33,7.60,-7.60,-7.73,-6.80,0.74,0.73,0.74
211.44,8.28,7.57,8.29,7.56,-7.56,-7.69,-6.82,0.72,0.73,0.72
213.56,8.24,7.53,8.24,7.52,-7.52,-7.64,-6.85,0.72,0.72,0.72
215.69,8.19,7.47,8.19,7.48,-7.48,-7.58,-6.87,0.72,0.71,0.72
217.85,8.14,7.43,8.15,7.44,-7.43,-7.52,-6.90,0.71,0.72,0.71
220.03,8.09,7.39,8.09,7.39,-7.38,-7.46,-6.92,0.71,0.71,0.71
222.23,8.05,7.36,8.04,7.33,-7.33,-7.38,-6.94,0.73,0.71,0.70
224.45,7.95,7.24,7.98,7.27,-7.27,-7.31,-6.96,0.69,0.71,0.71
226.70,7.91,7.20,7.92,7.20,-7.20,-7.22,-6.98,0.71,0.71,0.71
228.96,7.86,7.15,7.85,7.13,-7.14,-7.14,-6.99,0.73,0.72,0.72
231.25,7.79,7.06,7.80,7.07,-7.07,-7.04,-7.00,0.73,0.73,0.73
233.57,7.72,6.99,7.73,6.99,-6.99,-6.94,-7.00,0.73,0.73,0.73
235.90,7.65,6.92,7.65,6.91,-6.92,-6.84,-7.00,0.74,0.74,0.74
238.26,7.58,6.84,7.59,6.84,-6.84,-6.73,-6.99,0.74,0.75,0.74
240.64,7.51,6.76,7.52,6.76,-6.76,-6.62,-6.97,0.75,0.76,0.76
243.05,7.45,6.68,7.45,6.67,-6.68,-6.51,-6.95,0.78,0.77,0.77
245.48,7.37,6.59,7.38,6.59,-6.59,-6.39,-6.92,0.78,0.79,0.79
247.93,7.30,6.50,7.31,6.51,-6.51,-6.27,-6.88,0.80,0.80,0.80
250.41,7.24,6.44,7.23,6.42,-6.42,-6.15,-6.83,0.83,0.82,0.81
252.92,7.15,6.32,7.16,6.33,-6.33,-6.03,-6.78,0.83,0.84,0.83
255.45,7.08,6.23,7.08,6.23,-6.23,-5.90,-6.71,0.85,0.85,0.86
258.00,7.00,6.13,7.00,6.13,-6.13,-5.78,-6.64,0.87,0.87,0.87
260.58,6.92,6.03,6.93,6.04,-6.04,-5.66,-6.56,0.89,0.89,0.89
263.19,6.85,5.94,6.85,5.94,-5.94,-5.53,-6.48,0.92,0.92,0.92
265.82,6.77,5.84,6.77,5.84,-5.84,-5.41,-6.38,0.94,0.94,0.93
268.48,6.69,5.74,6.70,5.74,-5.73,-5.29,-6.28,0.96,0.96,0.96
271.16,6.60,5.62,6.61,5.63,-5.63,-5.17,-6.18,0.97,0.98,0.99
273.87,6.54,5.54,6.54,5.53,-5.53,-5.05,-6.06,1.02,1.01,1.00
276.61,6.44,5.42,6.45,5.42,-5.43,-4.93,-5.95,1.02,1.02,1.03
279.38,6.37,5.33,6.37,5.32,-5.32,-4.81,-5.82,1.05,1.04,1.05
282.17,6.26,5.20,6.28,5.21,-5.22,-4.69,-5.70,1.05,1.06,1.06
284.99,6.20,5.12,6.20,5.11,-5.11,-4.58,-5.57,1.09,1.09,1.09
287.84,6.12,5.02,6.12,5.01,-5.01,-4.47,-5.44,1.11,1.11,1.11
290.72,6.03,4.90,6.04,4.91,-4.90,-4.35,-5.30,1.13,1.13,1.13
293.63,5.95,4.80,5.96,4.80,-4.80,-4.24,-5.17,1.16,1.16,1.15
296.57,5.86,4.69,5.87,4.69,-4.69,-4.14,-5.03,1.17,1.18,1.18
299.53,5.79,4.60,5.78,4.59,-4.58,-4.03,-4.89,1.21,1.20,1.20
302.53,5.68,4.47,5.69,4.47,-4.47,-3.93,-4.75,1.21,1.22,1.21
305.55,5.61,4.36,5.61,4.37,-4.36,-3.82,-4.62,1.25,1.25,1.25
308.61,5.51,4.24,5.52,4.25,-4.25,-3.72,-4.48,1.26,1.27,1.27
311.69,5.45,4.16,5.44,4.14,-4.14,-3.63,-4.34,1.31,1.30,1.30
314.81,5.34,4.01,5.36,4.03,-4.03,-3.53,-4.20,1.31,1.32,1.34
317.96,5.28,3.93,5.28,3.92,-3.92,-3.43,-4.07,1.36,1.35,1.35
321.14,5.18,3.81,5.19,3.81,-3.82,-3.34,-3.93,1.37,1.37,1.37
324.35,5.11,3.72,5.11,3.71,-3.71,-3.25,-3.80,1.40,1.40,1.39
327.59,5.00,3.59,5.02,3.60,-3.60,-3.16,-3.67,1.40,1.41,1.42
330.87,4.94,3.51,4.93,3.50,-3.50,-3.07,-3.54,1.45,1.44,1.44
334.18,4.83,3.38,4.85,3.39,-3.39,-2.98,-3.41,1.45,1.46,1.46
337.52,4.77,3.30,4.76,3.28,-3.28,-2.90,-3.29,1.50,1.48,1.47
340.90,4.66,3.16,4.66,3.17,-3.16,-2.81,-3.17,1.50,1.50,1.50
344.30,4.55,3.03,4.58,3.06,-3.05,-2.73,-3.04,1.50,1.52,1.52
347.75,4.49,2.95,4.48,2.93,-2.94,-2.65,-2.92,1.56,1.54,1.54
351.23,4.38,2.83,4.38,2.82,-2.82,-2.57,-2.81,1.56,1.56,1.56
354.74,4.27,2.70,4.29,2.71,-2.71,-2.49,-2.69,1.56,1.58,1.58
358.28,4.19,2.60,4.19,2.59,-2.60,-2.41,-2.58,1.60,1.59,1.60
361.87,4.10,2.49,4.10,2.48,-2.49,-2.33,-2.47,1.62,1.61,1.62
365.49,3.99,2.36,4.01,2.38,-2.38,-2.26,-2.36,1.62,1.64,1.63
369.14,3.93,2.29,3.92,2.27,-2.27,-2.18,-2.25,1.67,1.65,1.64
372.83,3.82,2.16,3.82,2.16,-2.16,-2.11,-2.14,1.66,1.66,1.66
376.56,3.71,2.04,3.73,2.05,-2.06,-2.03,-2.04,1.66,1.68,1.67
380.33,3.65,1.95,3.64,1.95,-1.95,-1.96,-1.94,1.70,1.69,1.70
384.13,3.54,1.84,3.55,1.85,-1.85,-1.88,-1.84,1.69,1.70,1.71
387.97,3.48,1.77,3.47,1.75,-1.75,-1.81,-1.74,1.73,1.72,1.72
391.85,3.37,1.65,3.39,1.65,-1.65,-1.74,-1.64,1.72,1.73,1.73
395.77,3.31,1.57,3.31,1.56,-1.56,-1.66,-1.55,1.76,1.75,1.75
399.73,3.21,1.46,3.22,1.47,-1.47,-1.59,-1.45,1.75,1.76,1.76
403.72,3.14,1.38,3.14,1.38,-1.37,-1.52,-1.36,1.77,1.77,1.77
407.76,3.06,1.29,3.06,1.28,-1.28,-1.44,-1.27,1.78,1.78,1.77
411.84,2.97,1.18,2.98,1.19,-1.19,-1.37,-1.18,1.78,1.79,1.79
415.96,2.90,1.10,2.90,1.10,-1.10,-1.29,-1.10,1.80,1.80,1.80
420.12,2.83,1.02,2.83,1.01,-1.01,-1.22,-1.01,1.82,1.81,1.81
424.32,2.73,0.91,2.75,0.93,-0.92,-1.14,-0.93,1.81,1.82,1.82
428.56,2.67,0.84,2.66,0.83,-0.83,-1.06,-0.85,1.84,1.83,1.83
432.85,2.58,0.74,2.59,0.75,-0.75,-0.98,-0.77,1.84,1.84,1.84
437.18,2.50,0.65,2.51,0.66,-0.66,-0.90,-0.69,1.85,1.86,1.85
441.55,2.44,0.57,2.43,0.56,-0.56,-0.82,-0.61,1.88,1.87,1.87
445.96,2.34,0.46,2.36,0.48,-0.47,-0.73,-0.54,1.87,1.88,1.88
450.42,2.27,0.39,2.28,0.38,-0.38,-0.64,-0.46,1.90,1.90,1.89
454.93,2.20,0.30,2.19,0.29,-0.29,-0.55,-0.39,1.92,1.90,1.91
459.48,2.10,0.19,2.12,0.19,-0.20,-0.45,-0.32,1.91,1.92,1.92
464.07,2.03,0.10,2.04,0.10,-0.11,-0.35,-0.26,1.93,1.93,1.94
468.71,1.97,0.02,1.96,0.01,-0.02,-0.25,-0.19,1.96,1.95,1.96
473.40,1.89,-0.07,1.90,-0.07,0.07,-0.14,-0.13,1.97,1.97,1.97
478.13,1.82,-0.16,1.83,-0.16,0.16,-0.03,-0.06,1.98,1.99,1.99
482.91,1.76,-0.23,1.76,-0.24,0.24,0.09,-0.00,2.01,2.00,2.00
487.74,1.68,-0.33,1.69,-0.32,0.33,0.21,0.05,2.01,2.02,2.02
492.62,1.62,-0.41,1.62,-0.41,0.41,0.33,0.11,2.04,2.03,2.04
497.55,1.55,-0.49,1.55,-0.50,0.49,0.46,0.17,2.05,2.04,2.05
502.52,1.47,-0.59,1.48,-0.58,0.58,0.58,0.22,2.05,2.06,2.07
507.55,1.40,-0.67,1.41,-0.67,0.67,0.71,0.27,2.07,2.08,2.08
512.62,1.34,-0.75,1.34,-0.76,0.76,0.83,0.32,2.10,2.10,2.09
517.75,1.26,-0.85,1.27,-0.85,0.86,0.94,0.37,2.12,2.12,2.11
522.93,1.19,-0.94,1.19,-0.94,0.96,1.05,0.41,2.15,2.14,2.13
528.16,1.09,-1.05,1.10,-1.05,1.06,1.14,0.46,2.16,2.16,2.14
533.44,1.01,-1.15,1.01,-1.16,1.17,1.22,0.50,2.19,2.18,2.16
538.77,0.91,-1.27,0.91,-1.27,1.28,1.27,0.54,2.19,2.19,2.18
