frequency,raw,error,smoothed,error_smoothed,equalization,parametric_eq,equalized_raw,equalized_smoothed,target
20,-13.44,-15.08,-13.40,-15.04,6.00,2.83,-7.44,-7.40,1.64
21,-12.75,-14.39,-12.77,-14.41,6.00,3.24,-6.75,-6.77,1.64
22,-12.16,-13.79,-12.17,-13.81,6.00,3.70,-6.16,-6.17,1.64
23,-11.47,-13.10,-11.60,-13.23,6.00,4.19,-5.47,-5.60,1.63
24,-11.20,-12.83,-11.04,-12.67,6.00,4.71,-5.20,-5.04,1.63
25,-10.43,-12.06,-10.51,-12.13,6.00,5.25,-4.43,-4.51,1.63
26,-9.95,-11.57,-9.99,-11.62,6.00,5.79,-3.95,-3.99,1.62
27,-9.47,-11.09,-9.50,-11.12,6.00,6.31,-3.47,-3.50,1.62
28,-9.18,-10.80,-9.03,-10.65,6.00,6.77,-3.18,-3.03,1.62
29,-8.66,-10.27,-8.58,-10.19,6.00,7.15,-2.66,-2.58,1.61
30,-8.05,-9.66,-8.14,-9.75,6.00,7.41,-2.05,-2.14,1.61
31,-7.66,-9.26,-7.72,-9.33,6.00,7.53,-1.66,-1.72,1.60
32,-7.32,-8.92,-7.33,-8.92,6.00,7.52,-1.32,-1.33,1.60
33,-6.92,-8.51,-6.95,-8.54,6.00,7.40,-0.92,-0.95,1.59
34,-6.70,-8.28,-6.60,-8.18,6.00,7.18,-0.70,-0.60,1.58
35,-6.21,-7.78,-6.27,-7.84,6.00,6.90,-0.21,-0.27,1.58
36,-5.97,-7.54,-5.95,-7.52,6.00,6.59,0.03,0.05,1.57
37,-5.62,-7.18,-5.66,-7.22,6.00,6.27,0.38,0.34,1.56
38,-5.41,-6.96,-5.37,-6.92,6.00,5.95,0.59,0.63,1.55
39,-5.12,-6.66,-5.10,-6.64,6.00,5.65,0.88,0.90,1.54
40,-4.85,-6.38,-4.84,-6.37,5.95,5.36,1.11,1.11,1.53
41,-4.60,-6.12,-4.59,-6.11,5.86,5.10,1.26,1.27,1.52
42,-4.41,-5.91,-4.36,-5.86,5.72,4.86,1.31,1.36,1.51
43,-4.09,-5.58,-4.13,-5.62,5.55,4.65,1.46,1.42,1.49
44,-3.83,-5.31,-3.91,-5.39,5.37,4.46,1.54,1.46,1.48
45,-3.78,-5.24,-3.71,-5.17,5.17,4.29,1.40,1.46,1.46
46,-3.54,-4.99,-3.52,-4.97,4.97,4.14,1.43,1.45,1.45
47,-3.28,-4.71,-3.34,-4.77,4.77,4.01,1.50,1.43,1.43
48,-3.24,-4.65,-3.18,-4.59,4.59,3.89,1.35,1.42,1.42
49,-3.04,-4.44,-3.02,-4.42,4.42,3.79,1.38,1.40,1.40
50,-2.80,-4.18,-2.88,-4.26,4.26,3.71,1.46,1.38,1.38
51,-2.79,-4.15,-2.75,-4.11,4.11,3.63,1.32,1.36,1.36
52,-2.59,-3.93,-2.63,-3.97,3.97,3.57,1.38,1.34,1.34
53,-2.58,-3.90,-2.52,-3.83,3.83,3.51,1.25,1.32,1.32
54,-2.39,-3.68,-2.41,-3.70,3.70,3.46,1.31,1.29,1.29
55,-2.29,-3.56,-2.31,-3.58,3.58,3.41,1.29,1.27,1.27
56,-2.29,-3.53,-2.22,-3.47,3.47,3.36,1.18,1.25,1.25
57,-2.09,-3.31,-2.14,-3.36,3.36,3.32,1.27,1.22,1.22
58,-2.09,-3.28,-2.06,-3.25,3.25,3.28,1.16,1.19,1.19
59,-1.94,-3.11,-1.99,-3.15,3.15,3.23,1.21,1.17,1.17
60,-1.89,-3.03,-1.92,-3.06,3.06,3.19,1.17,1.14,1.14
61,-1.89,-3.00,-1.86,-2.97,2.97,3.14,1.08,1.11,1.11
62,-1.89,-2.97,-1.80,-2.89,2.89,3.09,1.00,1.08,1.08
63,-1.68,-2.73,-1.75,-2.80,2.80,3.03,1.12,1.05,1.05
64,-1.68,-2.70,-1.71,-2.72,2.72,2.98,1.04,1.02,1.02
65,-1.68,-2.67,-1.66,-2.65,2.65,2.92,0.97,0.99,0.99
66,-1.68,-2.63,-1.62,-2.57,2.57,2.86,0.89,0.95,0.95
67,-1.59,-2.51,-1.58,-2.50,2.50,2.79,0.91,0.92,0.92
68,-1.49,-2.37,-1.54,-2.43,2.43,2.73,0.94,0.88,0.88
69,-1.48,-2.33,-1.51,-2.36,2.36,2.66,0.88,0.85,0.85
70,-1.48,-2.29,-1.48,-2.29,2.29,2.60,0.81,0.81,0.81
71,-1.48,-2.26,-1.45,-2.23,2.23,2.53,0.75,0.78,0.78
72,-1.48,-2.22,-1.43,-2.17,2.17,2.47,0.69,0.74,0.74
73,-1.38,-2.08,-1.41,-2.11,2.11,2.40,0.73,0.70,0.70
74,-1.38,-2.04,-1.40,-2.06,2.06,2.34,0.68,0.66,0.66
75,-1.38,-2.00,-1.39,-2.01,2.01,2.27,0.63,0.62,0.62
76,-1.38,-1.96,-1.38,-1.97,1.97,2.21,0.59,0.59,0.59
77,-1.38,-1.92,-1.38,-1.92,1.92,2.15,0.54,0.55,0.55
78,-1.38,-1.88,-1.37,-1.88,1.88,2.09,0.50,0.51,0.51
79,-1.38,-1.84,-1.37,-1.84,1.84,2.04,0.46,0.47,0.47
80,-1.38,-1.80,-1.38,-1.80,1.80,1.98,0.42,0.42,0.42
81,-1.38,-1.76,-1.38,-1.76,1.76,1.93,0.38,0.38,0.38
82,-1.38,-1.72,-1.38,-1.72,1.72,1.88,0.34,0.34,0.34
83,-1.38,-1.68,-1.38,-1.68,1.68,1.83,0.30,0.30,0.30
84,-1.38,-1.64,-1.38,-1.64,1.64,1.79,0.26,0.26,0.26
85,-1.38,-1.60,-1.38,-1.60,1.60,1.74,0.22,0.22,0.22
86,-1.38,-1.56,-1.38,-1.55,1.55,1.70,0.17,0.18,0.18
87,-1.38,-1.51,-1.37,-1.51,1.51,1.66,0.13,0.14,0.14
88,-1.38,-1.47,-1.37,-1.47,1.47,1.62,0.09,0.09,0.09
89,-1.38,-1.43,-1.38,-1.43,1.43,1.59,0.05,0.05,0.05
90,-1.38,-1.39,-1.38,-1.39,1.39,1.55,0.01,0.01,0.01
91,-1.38,-1.35,-1.39,-1.36,1.36,1.52,-0.02,-0.03,-0.03
92,-1.38,-1.31,-1.40,-1.33,1.33,1.49,-0.05,-0.07,-0.07
93,-1.38,-1.27,-1.41,-1.30,1.30,1.46,-0.08,-0.11,-0.11
94,-1.42,-1.26,-1.43,-1.27,1.27,1.43,-0.15,-0.15,-0.15
95,-1.50,-1.30,-1.44,-1.25,1.25,1.41,-0.25,-0.19,-0.20
96,-1.48,-1.24,-1.46,-1.23,1.23,1.38,-0.25,-0.23,-0.24
97,-1.49,-1.21,-1.48,-1.20,1.20,1.36,-0.29,-0.27,-0.28
98,-1.49,-1.17,-1.49,-1.18,1.18,1.34,-0.31,-0.32,-0.32
99,-1.51,-1.15,-1.51,-1.15,1.15,1.32,-0.36,-0.36,-0.36
100,-1.52,-1.12,-1.53,-1.13,1.13,1.30,-0.39,-0.40,-0.39
101,-1.54,-1.11,-1.56,-1.11,1.11,1.28,-0.43,-0.44,-0.43
102,-1.56,-1.09,-1.59,-1.10,1.10,1.26,-0.46,-0.49,-0.47
104,-1.59,-1.04,-1.62,-1.09,1.09,1.23,-0.50,-0.53,-0.55
105,-1.74,-1.16,-1.67,-1.09,1.09,1.22,-0.64,-0.57,-0.58
106,-1.76,-1.14,-1.72,-1.10,1.10,1.20,-0.65,-0.61,-0.62
107,-1.75,-1.10,-1.77,-1.12,1.12,1.19,-0.63,-0.65,-0.65
108,-1.74,-1.05,-1.83,-1.15,1.15,1.18,-0.59,-0.69,-0.69
109,-1.84,-1.12,-1.90,-1.18,1.18,1.17,-0.66,-0.72,-0.72
110,-2.05,-1.30,-1.96,-1.21,1.21,1.16,-0.84,-0.75,-0.75
111,-2.05,-1.27,-2.02,-1.24,1.24,1.15,-0.81,-0.78,-0.78
112,-2.07,-1.26,-2.08,-1.27,1.27,1.14,-0.80,-0.81,-0.81
113,-2.22,-1.38,-2.13,-1.29,1.29,1.14,-0.93,-0.84,-0.84
114,-2.21,-1.34,-2.18,-1.31,1.31,1.13,-0.90,-0.88,-0.87
115,-2.16,-1.26,-2.23,-1.32,1.32,1.12,-0.84,-0.91,-0.90
117,-2.26,-1.31,-2.27,-1.33,1.33,1.11,-0.93,-0.94,-0.95
118,-2.26,-1.28,-2.31,-1.35,1.35,1.11,-0.91,-0.97,-0.98
119,-2.34,-1.34,-2.36,-1.36,1.36,1.10,-0.98,-1.00,-1.00
120,-2.48,-1.46,-2.40,-1.38,1.38,1.10,-1.10,-1.02,-1.02
121,-2.52,-1.48,-2.45,-1.40,1.40,1.10,-1.12,-1.05,-1.04
123,-2.44,-1.35,-2.50,-1.43,1.43,1.09,-1.01,-1.08,-1.09
124,-2.51,-1.40,-2.56,-1.45,1.45,1.09,-1.06,-1.10,-1.11
125,-2.53,-1.40,-2.60,-1.48,1.48,1.09,-1.05,-1.13,-1.12
126,-2.60,-1.46,-2.64,-1.49,1.49,1.09,-1.10,-1.15,-1.14
128,-2.79,-1.61,-2.68,-1.50,1.50,1.09,-1.29,-1.17,-1.18
129,-2.79,-1.59,-2.69,-1.50,1.50,1.09,-1.29,-1.19,-1.20
130,-2.76,-1.55,-2.70,-1.49,1.49,1.10,-1.27,-1.22,-1.21
131,-2.79,-1.56,-2.70,-1.46,1.46,1.10,-1.33,-1.24,-1.23
133,-2.58,-1.31,-2.69,-1.43,1.43,1.10,-1.15,-1.26,-1.26
134,-2.58,-1.30,-2.68,-1.40,1.40,1.11,-1.18,-1.28,-1.28
135,-2.58,-1.29,-2.67,-1.37,1.37,1.11,-1.21,-1.30,-1.29
137,-2.66,-1.33,-2.66,-1.34,1.34,1.12,-1.32,-1.32,-1.33
138,-2.77,-1.43,-2.66,-1.32,1.32,1.12,-1.45,-1.34,-1.34
140,-2.67,-1.30,-2.66,-1.30,1.30,1.13,-1.37,-1.36,-1.37
141,-2.67,-1.28,-2.67,-1.28,1.28,1.14,-1.39,-1.38,-1.38
142,-2.67,-1.27,-2.67,-1.27,1.27,1.15,-1.40,-1.40,-1.40
144,-2.67,-1.24,-2.67,-1.25,1.25,1.16,-1.42,-1.42,-1.43
145,-2.67,-1.23,-2.67,-1.23,1.23,1.17,-1.44,-1.45,-1.44
147,-2.67,-1.20,-2.67,-1.21,1.21,1.18,-1.46,-1.47,-1.47
148,-2.67,-1.19,-2.67,-1.18,1.18,1.19,-1.49,-1.49,-1.48
150,-2.67,-1.16,-2.66,-1.16,1.16,1.21,-1.51,-1.51,-1.51
151,-2.67,-1.15,-2.66,-1.13,1.13,1.22,-1.54,-1.53,-1.52
153,-2.67,-1.12,-2.65,-1.11,1.11,1.24,-1.56,-1.55,-1.55
154,-2.67,-1.11,-2.66,-1.09,1.09,1.25,-1.58,-1.56,-1.56
156,-2.67,-1.08,-2.66,-1.08,1.08,1.28,-1.59,-1.58,-1.59
157,-2.66,-1.06,-2.68,-1.08,1.08,1.29,-1.58,-1.60,-1.60
159,-2.66,-1.04,-2.71,-1.10,1.10,1.31,-1.56,-1.62,-1.62
160,-2.73,-1.10,-2.76,-1.12,1.12,1.32,-1.61,-1.64,-1.63
162,-2.82,-1.17,-2.81,-1.16,1.16,1.35,-1.66,-1.65,-1.65
164,-2.79,-1.12,-2.87,-1.20,1.20,1.38,-1.59,-1.67,-1.67
165,-2.96,-1.28,-2.94,-1.25,1.25,1.39,-1.71,-1.69,-1.68
167,-3.14,-1.44,-3.00,-1.30,1.30,1.42,-1.84,-1.70,-1.70
169,-3.08,-1.36,-3.06,-1.35,1.35,1.46,-1.73,-1.71,-1.72
170,-3.02,-1.30,-3.11,-1.38,1.38,1.47,-1.64,-1.73,-1.72
172,-3.20,-1.46,-3.15,-1.41,1.41,1.51,-1.79,-1.74,-1.74
174,-3.21,-1.46,-3.18,-1.43,1.43,1.54,-1.78,-1.75,-1.75
175,-3.21,-1.46,-3.20,-1.44,1.44,1.56,-1.77,-1.76,-1.75
177,-3.21,-1.45,-3.21,-1.45,1.45,1.59,-1.76,-1.76,-1.76
179,-3.21,-1.44,-3.23,-1.46,1.46,1.63,-1.75,-1.77,-1.77
181,-3.21,-1.43,-3.24,-1.46,1.46,1.67,-1.75,-1.78,-1.78
183,-3.20,-1.42,-3.25,-1.47,1.47,1.71,-1.73,-1.78,-1.78
184,-3.20,-1.42,-3.26,-1.47,1.47,1.73,-1.72,-1.78,-1.78
186,-3.35,-1.56,-3.26,-1.48,1.48,1.77,-1.87,-1.79,-1.79
188,-3.39,-1.60,-3.27,-1.48,1.48,1.81,-1.91,-1.79,-1.79
190,-3.25,-1.46,-3.27,-1.48,1.48,1.85,-1.77,-1.79,-1.79
192,-3.24,-1.45,-3.26,-1.47,1.47,1.90,-1.77,-1.79,-1.79
194,-3.22,-1.42,-3.26,-1.46,1.46,1.94,-1.76,-1.79,-1.79
196,-3.21,-1.41,-3.25,-1.45,1.45,1.98,-1.76,-1.80,-1.80
198,-3.20,-1.40,-3.24,-1.45,1.45,2.03,-1.75,-1.80,-1.80
200,-3.35,-1.55,-3.24,-1.45,1.45,2.07,-1.90,-1.80,-1.80
202,-3.43,-1.63,-3.26,-1.46,1.46,2.11,-1.97,-1.80,-1.80
204,-3.18,-1.38,-3.28,-1.48,1.48,2.16,-1.70,-1.80,-1.80
206,-3.11,-1.31,-3.32,-1.52,1.52,2.20,-1.59,-1.80,-1.80
208,-3.34,-1.54,-3.37,-1.57,1.57,2.25,-1.77,-1.80,-1.80
210,-3.45,-1.65,-3.44,-1.64,1.64,2.29,-1.81,-1.80,-1.80
212,-3.64,-1.84,-3.52,-1.72,1.72,2.33,-1.92,-1.80,-1.80
214,-3.59,-1.79,-3.61,-1.81,1.81,2.37,-1.78,-1.80,-1.80
216,-3.64,-1.84,-3.70,-1.89,1.89,2.41,-1.74,-1.80,-1.80
218,-3.77,-1.97,-3.77,-1.97,1.97,2.45,-1.80,-1.80,-1.80
221,-3.78,-1.98,-3.83,-2.03,2.03,2.51,-1.75,-1.80,-1.80
223,-4.01,-2.21,-3.87,-2.07,2.07,2.55,-1.94,-1.80,-1.80
225,-4.04,-2.24,-3.89,-2.09,2.09,2.58,-1.95,-1.80,-1.80
227,-4.05,-2.25,-3.90,-2.11,2.11,2.61,-1.94,-1.80,-1.80
229,-3.96,-2.17,-3.91,-2.11,2.11,2.65,-1.85,-1.79,-1.79
232,-3.61,-1.82,-3.91,-2.12,2.12,2.69,-1.49,-1.79,-1.79
234,-3.71,-1.92,-3.93,-2.14,2.14,2.71,-1.56,-1.79,-1.79
236,-3.90,-2.12,-3.96,-2.18,2.18,2.74,-1.72,-1.78,-1.78
239,-4.04,-2.26,-4.00,-2.22,2.22,2.77,-1.82,-1.78,-1.78
241,-4.25,-2.48,-4.05,-2.28,2.28,2.79,-1.97,-1.77,-1.77
244,-4.24,-2.47,-4.10,-2.34,2.34,2.81,-1.90,-1.76,-1.77
246,-4.04,-2.28,-4.15,-2.39,2.39,2.82,-1.65,-1.76,-1.76
248,-4.19,-2.44,-4.20,-2.45,2.45,2.83,-1.74,-1.75,-1.75
251,-4.25,-2.51,-4.24,-2.50,2.50,2.84,-1.75,-1.74,-1.74
253,-4.24,-2.50,-4.27,-2.54,2.54,2.85,-1.70,-1.74,-1.73
256,-4.23,-2.50,-4.30,-2.57,2.57,2.85,-1.66,-1.73,-1.73
259,-4.31,-2.59,-4.32,-2.60,2.60,2.85,-1.71,-1.72,-1.72
261,-4.47,-2.76,-4.33,-2.62,2.62,2.85,-1.85,-1.71,-1.71
264,-4.37,-2.66,-4.34,-2.63,2.63,2.84,-1.74,-1.71,-1.71
266,-4.31,-2.61,-4.34,-2.64,2.64,2.83,-1.66,-1.70,-1.70
269,-4.59,-2.90,-4.35,-2.66,2.66,2.82,-1.93,-1.69,-1.69
272,-4.22,-2.54,-4.38,-2.69,2.69,2.80,-1.53,-1.68,-1.68
274,-4.16,-2.48,-4.42,-2.74,2.74,2.79,-1.42,-1.68,-1.68
277,-4.58,-2.91,-4.48,-2.81,2.81,2.77,-1.77,-1.67,-1.67
280,-4.47,-2.81,-4.56,-2.90,2.90,2.75,-1.57,-1.66,-1.66
283,-4.50,-2.84,-4.66,-3.00,3.00,2.73,-1.50,-1.66,-1.66
286,-4.84,-3.19,-4.76,-3.11,3.11,2.70,-1.73,-1.65,-1.65
288,-4.94,-3.29,-4.85,-3.21,3.21,2.69,-1.73,-1.64,-1.64
291,-5.06,-3.42,-4.93,-3.30,3.30,2.66,-1.76,-1.64,-1.64
294,-5.01,-3.38,-4.99,-3.36,3.36,2.64,-1.65,-1.63,-1.63
297,-5.05,-3.42,-5.03,-3.40,3.40,2.61,-1.65,-1.63,-1.63
300,-5.27,-3.65,-5.04,-3.42,3.42,2.59,-1.85,-1.62,-1.62
303,-5.05,-3.43,-5.04,-3.43,3.43,2.56,-1.62,-1.62,-1.62
306,-4.74,-3.13,-5.04,-3.43,3.43,2.54,-1.31,-1.61,-1.61
309,-4.91,-3.30,-5.03,-3.43,3.43,2.52,-1.48,-1.60,-1.60
312,-4.93,-3.33,-5.04,-3.44,3.44,2.50,-1.49,-1.60,-1.60
316,-5.07,-3.47,-5.04,-3.45,3.45,2.47,-1.62,-1.59,-1.59
319,-5.32,-3.73,-5.05,-3.46,3.46,2.45,-1.86,-1.59,-1.59
322,-5.12,-3.53,-5.05,-3.47,3.47,2.43,-1.65,-1.58,-1.58
325,-4.81,-3.23,-5.04,-3.46,3.46,2.42,-1.35,-1.58,-1.58
328,-5.02,-3.44,-5.01,-3.44,3.44,2.40,-1.58,-1.57,-1.57
332,-5.09,-3.52,-4.95,-3.38,3.38,2.39,-1.71,-1.57,-1.57
335,-4.83,-3.26,-4.87,-3.30,3.30,2.38,-1.52,-1.57,-1.57
338,-4.89,-3.33,-4.77,-3.20,3.20,2.37,-1.68,-1.56,-1.56
342,-4.78,-3.22,-4.65,-3.09,3.09,2.36,-1.69,-1.56,-1.56
345,-4.52,-2.96,-4.52,-2.97,2.97,2.35,-1.55,-1.56,-1.56
349,-4.32,-2.77,-4.40,-2.85,2.85,2.34,-1.47,-1.55,-1.55
352,-4.20,-2.65,-4.30,-2.75,2.75,2.34,-1.45,-1.55,-1.55
356,-4.12,-2.57,-4.22,-2.68,2.68,2.34,-1.44,-1.55,-1.55
359,-4.12,-2.57,-4.18,-2.63,2.63,2.34,-1.49,-1.55,-1.55
363,-4.20,-2.65,-4.17,-2.62,2.62,2.34,-1.58,-1.55,-1.54
366,-4.24,-2.70,-4.18,-2.64,2.64,2.34,-1.60,-1.54,-1.54
370,-4.17,-2.63,-4.22,-2.68,2.68,2.35,-1.49,-1.54,-1.54
374,-4.22,-2.68,-4.29,-2.75,2.75,2.36,-1.47,-1.54,-1.54
377,-4.42,-2.88,-4.36,-2.82,2.82,2.36,-1.60,-1.54,-1.54
381,-4.51,-2.97,-4.43,-2.90,2.90,2.37,-1.61,-1.54,-1.54
385,-4.54,-3.01,-4.51,-2.98,2.98,2.39,-1.56,-1.53,-1.53
389,-4.57,-3.04,-4.59,-3.06,3.06,2.40,-1.51,-1.53,-1.53
393,-4.64,-3.12,-4.66,-3.13,3.13,2.42,-1.50,-1.52,-1.52
397,-4.68,-3.17,-4.72,-3.20,3.20,2.43,-1.48,-1.51,-1.51
401,-4.76,-3.25,-4.77,-3.26,3.26,2.45,-1.50,-1.50,-1.50
405,-4.83,-3.34,-4.81,-3.31,3.31,2.47,-1.51,-1.49,-1.49
409,-4.87,-3.39,-4.83,-3.35,3.35,2.49,-1.51,-1.48,-1.48
413,-4.87,-3.41,-4.85,-3.38,3.38,2.51,-1.49,-1.46,-1.46
417,-4.87,-3.43,-4.84,-3.40,3.40,2.52,-1.47,-1.44,-1.44
421,-4.87,-3.45,-4.83,-3.41,3.41,2.54,-1.46,-1.42,-1.42
425,-4.78,-3.38,-4.80,-3.41,3.41,2.56,-1.37,-1.39,-1.40
430,-4.67,-3.30,-4.77,-3.40,3.40,2.59,-1.27,-1.37,-1.37
434,-4.69,-3.35,-4.72,-3.39,3.39,2.60,-1.30,-1.34,-1.34
438,-4.71,-3.41,-4.67,-3.37,3.37,2.62,-1.34,-1.30,-1.30
443,-4.67,-3.40,-4.61,-3.35,3.35,2.64,-1.32,-1.27,-1.27
447,-4.51,-3.28,-4.55,-3.32,3.32,2.66,-1.19,-1.23,-1.23
451,-4.37,-3.18,-4.47,-3.28,3.28,2.67,-1.09,-1.19,-1.19
456,-4.51,-3.36,-4.38,-3.23,3.23,2.69,-1.28,-1.15,-1.15
460,-4.39,-3.28,-4.27,-3.17,3.17,2.70,-1.22,-1.11,-1.11
465,-3.99,-2.92,-4.16,-3.09,3.09,2.71,-0.90,-1.07,-1.07
470,-4.11,-3.08,-4.04,-3.01,3.01,2.71,-1.10,-1.03,-1.03
474,-4.04,-3.05,-3.91,-2.92,2.92,2.72,-1.12,-0.99,-0.99
479,-3.62,-2.67,-3.79,-2.83,2.83,2.72,-0.78,-0.95,-0.95
484,-3.65,-2.73,-3.67,-2.75,2.75,2.72,-0.90,-0.92,-0.92
489,-3.53,-2.64,-3.55,-2.67,2.67,2.71,-0.86,-0.89,-0.88
494,-3.39,-2.53,-3.45,-2.59,2.59,2.71,-0.80,-0.86,-0.86
499,-3.43,-2.60,-3.35,-2.52,2.52,2.69,-0.91,-0.84,-0.83
504,-3.24,-2.42,-3.26,-2.44,2.44,2.68,-0.80,-0.82,-0.81
509,-3.20,-2.40,-3.17,-2.37,2.37,2.66,-0.83,-0.80,-0.80
514,-3.12,-2.33,-3.09,-2.30,2.30,2.64,-0.82,-0.79,-0.79
519,-3.00,-2.22,-3.00,-2.22,2.22,2.62,-0.78,-0.78,-0.78
524,-2.93,-2.15,-2.92,-2.14,2.14,2.59,-0.79,-0.78,-0.78
529,-2.85,-2.07,-2.85,-2.06,2.06,2.56,-0.79,-0.78,-0.78
535,-2.74,-1.95,-2.78,-1.99,1.99,2.52,-0.75,-0.79,-0.79
540,-2.72,-1.92,-2.72,-1.92,1.92,2.49,-0.80,-0.80,-0.80
545,-2.66,-1.85,-2.67,-1.86,1.86,2.45,-0.79,-0.81,-0.80
551,-2.64,-1.82,-2.63,-1.81,1.81,2.40,-0.83,-0.82,-0.82
556,-2.48,-1.65,-2.59,-1.77,1.77,2.36,-0.71,-0.83,-0.83
562,-2.51,-1.67,-2.56,-1.72,1.72,2.32,-0.79,-0.84,-0.84
568,-2.70,-1.85,-2.53,-1.68,1.68,2.26,-1.02,-0.85,-0.85
573,-2.52,-1.66,-2.49,-1.63,1.63,2.22,-0.89,-0.86,-0.86
579,-2.43,-1.57,-2.44,-1.57,1.57,2.17,-0.85,-0.86,-0.86
585,-2.39,-1.52,-2.38,-1.51,1.51,2.12,-0.88,-0.86,-0.87
591,-2.29,-1.42,-2.31,-1.45,1.45,2.06,-0.84,-0.86,-0.87
596,-2.22,-1.36,-2.24,-1.38,1.38,2.02,-0.84,-0.86,-0.86
602,-2.22,-1.36,-2.16,-1.31,1.31,1.96,-0.91,-0.85,-0.86
608,-2.11,-1.26,-2.08,-1.24,1.24,1.91,-0.87,-0.84,-0.84
615,-1.87,-1.04,-2.01,-1.18,1.18,1.85,-0.69,-0.83,-0.83
621,-1.85,-1.04,-1.93,-1.12,1.12,1.80,-0.73,-0.81,-0.81
627,-2.04,-1.25,-1.86,-1.07,1.07,1.75,-0.96,-0.79,-0.79
633,-1.81,-1.05,-1.79,-1.03,1.03,1.70,-0.78,-0.76,-0.76
639,-1.56,-0.83,-1.72,-0.99,0.99,1.65,-0.57,-0.73,-0.73
646,-1.69,-0.99,-1.65,-0.95,0.95,1.59,-0.74,-0.70,-0.70
652,-1.69,-1.02,-1.57,-0.90,0.90,1.54,-0.79,-0.67,-0.67
659,-1.45,-0.81,-1.49,-0.86,0.86,1.49,-0.59,-0.64,-0.64
665,-1.40,-0.80,-1.41,-0.81,0.81,1.44,-0.59,-0.60,-0.60
672,-1.35,-0.78,-1.32,-0.75,0.75,1.39,-0.60,-0.57,-0.57
679,-1.24,-0.71,-1.23,-0.70,0.70,1.34,-0.54,-0.53,-0.53
686,-1.15,-0.65,-1.14,-0.64,0.64,1.29,-0.51,-0.50,-0.50
692,-1.03,-0.56,-1.06,-0.59,0.59,1.25,-0.44,-0.47,-0.47
699,-0.99,-0.55,-0.98,-0.54,0.54,1.20,-0.45,-0.44,-0.44
706,-0.87,-0.46,-0.91,-0.50,0.50,1.16,-0.37,-0.41,-0.41
713,-0.87,-0.49,-0.86,-0.48,0.48,1.11,-0.39,-0.38,-0.38
721,-0.78,-0.42,-0.82,-0.46,0.46,1.06,-0.32,-0.36,-0.36
728,-0.79,-0.45,-0.79,-0.45,0.45,1.02,-0.34,-0.34,-0.34
735,-0.80,-0.48,-0.77,-0.45,0.45,0.98,-0.35,-0.32,-0.32
742,-0.75,-0.45,-0.76,-0.46,0.46,0.94,-0.29,-0.30,-0.30
750,-0.72,-0.44,-0.75,-0.47,0.47,0.90,-0.25,-0.28,-0.28
757,-0.70,-0.43,-0.75,-0.48,0.48,0.86,-0.22,-0.27,-0.27
765,-0.72,-0.46,-0.74,-0.48,0.48,0.82,-0.24,-0.26,-0.26
773,-0.83,-0.58,-0.72,-0.48,0.48,0.78,-0.35,-0.25,-0.25
780,-0.85,-0.61,-0.70,-0.46,0.46,0.75,-0.38,-0.24,-0.24
788,-0.57,-0.34,-0.67,-0.44,0.44,0.71,-0.13,-0.23,-0.23
796,-0.53,-0.31,-0.62,-0.40,0.40,0.68,-0.12,-0.22,-0.22
804,-0.65,-0.44,-0.57,-0.36,0.36,0.64,-0.29,-0.21,-0.21
812,-0.58,-0.38,-0.51,-0.31,0.31,0.61,-0.27,-0.20,-0.20
820,-0.44,-0.24,-0.46,-0.26,0.26,0.57,-0.18,-0.20,-0.20
828,-0.43,-0.24,-0.40,-0.22,0.22,0.54,-0.21,-0.19,-0.19
837,-0.24,-0.06,-0.36,-0.18,0.18,0.51,-0.06,-0.18,-0.18
845,-0.24,-0.06,-0.32,-0.14,0.14,0.48,-0.10,-0.18,-0.18
853,-0.34,-0.17,-0.29,-0.12,0.12,0.45,-0.22,-0.17,-0.17
862,-0.35,-0.19,-0.27,-0.11,0.11,0.42,-0.24,-0.16,-0.16
871,-0.27,-0.12,-0.26,-0.10,0.10,0.39,-0.17,-0.15,-0.15
879,-0.14,0.01,-0.25,-0.10,0.10,0.36,-0.04,-0.15,-0.15
888,-0.23,-0.09,-0.24,-0.10,0.10,0.34,-0.13,-0.14,-0.14
897,-0.28,-0.15,-0.23,-0.10,0.10,0.31,-0.18,-0.13,-0.13
906,-0.29,-0.17,-0.22,-0.10,0.10,0.28,-0.19,-0.12,-0.12
915,-0.19,-0.08,-0.21,-0.10,0.10,0.26,-0.09,-0.11,-0.11
924,-0.19,-0.09,-0.19,-0.09,0.09,0.24,-0.10,-0.10,-0.10
933,-0.10,-0.01,-0.17,-0.08,0.08,0.21,-0.02,-0.09,-0.09
943,-0.21,-0.13,-0.15,-0.07,0.07,0.19,-0.14,-0.08,-0.08
952,-0.21,-0.14,-0.12,-0.05,0.05,0.17,-0.16,-0.07,-0.07
962,-0.04,0.01,-0.09,-0.04,0.04,0.15,-0.00,-0.05,-0.05
971,0.10,0.14,-0.05,-0.01,0.01,0.13,0.11,-0.04,-0.04
981,0.00,0.02,-0.01,0.01,-0.01,0.11,-0.01,-0.02,-0.02
991,-0.10,-0.09,0.04,0.05,-0.05,0.09,-0.14,-0.01,-0.01
1001,0.01,-0.00,0.09,0.08,-0.08,0.08,-0.07,0.01,0.01
1011,0.08,0.05,0.15,0.12,-0.12,0.06,-0.04,0.03,0.03
1021,0.36,0.31,0.22,0.16,-0.16,0.05,0.20,0.06,0.06
1031,0.39,0.31,0.29,0.21,-0.21,0.03,0.18,0.08,0.08
1041,0.36,0.26,0.36,0.25,-0.25,0.02,0.11,0.10,0.10
1052,0.39,0.26,0.43,0.30,-0.30,0.01,0.09,0.13,0.13
1062,0.43,0.27,0.50,0.34,-0.34,-0.01,0.09,0.16,0.16
1073,0.48,0.29,0.57,0.38,-0.38,-0.02,0.10,0.19,0.19
1084,0.71,0.49,0.64,0.42,-0.42,-0.03,0.29,0.22,0.22
1094,0.76,0.51,0.71,0.45,-0.45,-0.04,0.31,0.25,0.25
1105,0.74,0.45,0.76,0.48,-0.48,-0.05,0.27,0.29,0.29
1116,0.80,0.48,0.81,0.49,-0.49,-0.06,0.32,0.32,0.32
1128,0.85,0.50,0.84,0.48,-0.48,-0.07,0.37,0.36,0.36
1139,0.83,0.44,0.85,0.46,-0.46,-0.08,0.38,0.39,0.39
1150,0.83,0.41,0.83,0.41,-0.41,-0.08,0.42,0.42,0.42
1162,0.81,0.35,0.79,0.33,-0.33,-0.09,0.48,0.46,0.46
1173,0.73,0.24,0.72,0.24,-0.24,-0.10,0.50,0.49,0.49
1185,0.74,0.22,0.63,0.11,-0.11,-0.11,0.63,0.52,0.52
1197,0.57,0.02,0.52,-0.03,0.03,-0.12,0.60,0.55,0.55
1209,0.32,-0.25,0.39,-0.19,0.19,-0.12,0.51,0.57,0.57
1221,0.23,-0.37,0.25,-0.35,0.35,-0.13,0.58,0.60,0.60
1233,0.09,-0.53,0.10,-0.52,0.52,-0.14,0.61,0.62,0.62
1246,-0.18,-0.82,-0.05,-0.69,0.69,-0.15,0.51,0.64,0.64
1258,-0.24,-0.89,-0.21,-0.86,0.86,-0.16,0.62,0.65,0.65
1271,-0.36,-1.03,-0.38,-1.04,1.04,-0.17,0.68,0.67,0.67
1283,-0.54,-1.22,-0.55,-1.23,1.23,-0.17,0.69,0.68,0.68
1296,-0.61,-1.29,-0.75,-1.43,1.43,-0.18,0.82,0.68,0.68
1309,-0.79,-1.48,-0.95,-1.63,1.63,-0.19,0.84,0.69,0.69
1322,-1.10,-1.79,-1.15,-1.84,1.84,-0.20,0.74,0.69,0.69
1335,-1.29,-1.97,-1.34,-2.03,2.03,-0.21,0.74,0.68,0.68
1349,-1.49,-2.17,-1.50,-2.18,2.18,-0.22,0.69,0.68,0.68
1362,-1.78,-2.45,-1.62,-2.29,2.29,-0.24,0.51,0.67,0.67
1376,-1.83,-2.50,-1.66,-2.33,2.33,-0.25,0.50,0.67,0.67
1390,-1.86,-2.52,-1.64,-2.30,2.30,-0.26,0.44,0.66,0.66
1404,-1.65,-2.30,-1.54,-2.19,2.19,-0.27,0.54,0.65,0.65
1418,-1.38,-2.02,-1.37,-2.01,2.01,-0.28,0.64,0.64,0.64
1432,-1.06,-1.69,-1.15,-1.79,1.79,-0.30,0.73,0.63,0.63
1446,-0.78,-1.40,-0.90,-1.52,1.52,-0.31,0.74,0.63,0.63
1461,-0.57,-1.19,-0.62,-1.24,1.24,-0.32,0.67,0.62,0.62
1475,-0.32,-0.94,-0.34,-0.96,0.96,-0.34,0.64,0.62,0.62
1490,-0.05,-0.66,-0.06,-0.68,0.68,-0.35,0.63,0.62,0.62
1505,0.22,-0.40,0.20,-0.42,0.42,-0.37,0.64,0.62,0.62
1520,0.45,-0.17,0.45,-0.17,0.17,-0.38,0.62,0.62,0.62
1535,0.67,0.04,0.69,0.06,-0.06,-0.40,0.61,0.63,0.63
1550,0.89,0.24,0.91,0.26,-0.26,-0.41,0.63,0.65,0.65
1566,1.17,0.50,1.12,0.45,-0.45,-0.43,0.72,0.67,0.67
1582,1.37,0.68,1.32,0.63,-0.63,-0.44,0.74,0.69,0.69
1597,1.57,0.85,1.51,0.79,-0.79,-0.46,0.78,0.72,0.72
1613,1.67,0.92,1.70,0.94,-0.94,-0.47,0.73,0.76,0.75
1629,1.79,1.00,1.88,1.09,-1.09,-0.49,0.70,0.80,0.79
