frequency,raw,error,smoothed,error_smoothed,equalization,parametric_eq,equalized_raw,equalized_smoothed,target
20,-13.44,-12.18,-13.38,-12.11,6.00,2.52,-7.44,-7.38,-1.26
21,-12.75,-11.49,-12.77,-11.50,6.00,2.90,-6.75,-6.77,-1.26
22,-12.16,-10.89,-12.17,-10.90,6.00,3.31,-6.16,-6.17,-1.27
23,-11.47,-10.20,-11.60,-10.32,6.00,3.76,-5.47,-5.60,-1.27
24,-11.20,-9.92,-11.05,-9.77,6.00,4.23,-5.20,-5.05,-1.28
25,-10.43,-9.14,-10.51,-9.23,6.00,4.71,-4.43,-4.51,-1.28
26,-9.95,-8.66,-10.00,-8.71,6.00,5.19,-3.95,-4.00,-1.29
27,-9.47,-8.17,-9.50,-8.21,6.00,5.64,-3.47,-3.50,-1.30
28,-9.18,-7.87,-9.03,-7.72,6.00,6.04,-3.18,-3.03,-1.30
29,-8.66,-7.35,-8.57,-7.26,6.00,6.35,-2.66,-2.57,-1.31
30,-8.05,-6.73,-8.14,-6.82,5.95,6.54,-2.10,-2.19,-1.32
31,-7.66,-6.33,-7.73,-6.40,5.83,6.61,-1.82,-1.90,-1.33
32,-7.32,-5.98,-7.34,-5.99,5.67,6.55,-1.65,-1.67,-1.34
33,-6.92,-5.57,-6.97,-5.61,5.46,6.38,-1.46,-1.51,-1.35
34,-6.70,-5.34,-6.61,-5.25,5.20,6.12,-1.50,-1.41,-1.36
35,-6.21,-4.84,-6.28,-4.90,4.90,5.79,-1.31,-1.38,-1.37
36,-5.97,-4.59,-5.96,-4.57,4.57,5.43,-1.40,-1.39,-1.38
37,-5.62,-4.23,-5.65,-4.25,4.25,5.05,-1.36,-1.40,-1.39
38,-5.41,-4.01,-5.35,-3.95,3.95,4.67,-1.45,-1.40,-1.40
39,-5.12,-3.70,-5.09,-3.67,3.67,4.29,-1.45,-1.42,-1.42
40,-4.85,-3.42,-4.85,-3.40,3.40,3.93,-1.45,-1.45,-1.43
41,-4.60,-3.15,-4.59,-3.14,3.14,3.59,-1.46,-1.46,-1.44
42,-4.41,-2.95,-4.35,-2.89,2.89,3.26,-1.52,-1.47,-1.46
43,-4.09,-2.61,-4.12,-2.65,2.65,2.95,-1.44,-1.48,-1.48
44,-3.83,-2.34,-3.91,-2.42,2.42,2.66,-1.41,-1.49,-1.49
45,-3.78,-2.27,-3.72,-2.20,2.20,2.38,-1.58,-1.52,-1.51
46,-3.54,-2.01,-3.52,-2.00,2.00,2.12,-1.54,-1.53,-1.53
47,-3.28,-1.73,-3.35,-1.80,1.80,1.87,-1.48,-1.55,-1.55
48,-3.24,-1.67,-3.18,-1.62,1.62,1.64,-1.62,-1.56,-1.56
49,-3.04,-1.45,-3.03,-1.44,1.44,1.41,-1.60,-1.59,-1.58
50,-2.80,-1.19,-2.89,-1.27,1.27,1.21,-1.52,-1.61,-1.61
51,-2.79,-1.16,-2.75,-1.12,1.12,1.01,-1.67,-1.63,-1.63
52,-2.59,-0.94,-2.62,-0.97,0.97,0.82,-1.61,-1.65,-1.65
53,-2.58,-0.91,-2.52,-0.84,0.84,0.64,-1.74,-1.68,-1.67
54,-2.39,-0.69,-2.41,-0.71,0.71,0.48,-1.68,-1.71,-1.70
55,-2.29,-0.57,-2.31,-0.58,0.58,0.32,-1.70,-1.72,-1.72
56,-2.29,-0.54,-2.22,-0.47,0.47,0.18,-1.82,-1.75,-1.75
57,-2.09,-0.32,-2.14,-0.36,0.36,0.05,-1.73,-1.77,-1.77
58,-2.09,-0.29,-2.06,-0.26,0.26,-0.08,-1.83,-1.80,-1.80
59,-1.94,-0.11,-1.99,-0.16,0.16,-0.19,-1.78,-1.84,-1.82
60,-1.89,-0.04,-1.93,-0.06,0.06,-0.29,-1.83,-1.86,-1.85
61,-1.89,-0.01,-1.86,0.03,-0.03,-0.38,-1.92,-1.88,-1.88
62,-1.89,0.02,-1.80,0.11,-0.11,-0.46,-2.00,-1.91,-1.91
63,-1.68,0.26,-1.75,0.20,-0.20,-0.53,-1.87,-1.94,-1.94
64,-1.68,0.29,-1.70,0.28,-0.28,-0.60,-1.95,-1.98,-1.97
65,-1.68,0.32,-1.66,0.35,-0.35,-0.65,-2.03,-2.01,-2.00
66,-1.68,0.35,-1.61,0.42,-0.42,-0.70,-2.10,-2.04,-2.03
67,-1.59,0.48,-1.58,0.49,-0.49,-0.74,-2.08,-2.07,-2.06
68,-1.49,0.61,-1.54,0.56,-0.56,-0.77,-2.05,-2.10,-2.10
69,-1.48,0.65,-1.51,0.63,-0.63,-0.80,-2.10,-2.14,-2.13
70,-1.48,0.68,-1.48,0.69,-0.69,-0.83,-2.16,-2.16,-2.16
71,-1.48,0.72,-1.45,0.74,-0.74,-0.85,-2.22,-2.19,-2.20
72,-1.48,0.75,-1.43,0.80,-0.80,-0.87,-2.28,-2.23,-2.23
73,-1.38,0.89,-1.42,0.85,-0.85,-0.89,-2.23,-2.27,-2.27
74,-1.38,0.92,-1.40,0.90,-0.90,-0.90,-2.28,-2.30,-2.30
75,-1.38,0.96,-1.39,0.95,-0.95,-0.92,-2.32,-2.33,-2.34
76,-1.38,0.99,-1.38,0.99,-0.99,-0.93,-2.37,-2.37,-2.37
77,-1.38,1.03,-1.38,1.03,-1.03,-0.94,-2.41,-2.41,-2.41
78,-1.38,1.06,-1.38,1.07,-1.07,-0.95,-2.45,-2.45,-2.44
79,-1.38,1.10,-1.37,1.11,-1.11,-0.97,-2.49,-2.48,-2.48
80,-1.38,1.13,-1.37,1.14,-1.14,-0.98,-2.52,-2.52,-2.51
81,-1.38,1.17,-1.37,1.18,-1.18,-0.99,-2.56,-2.55,-2.55
82,-1.38,1.21,-1.37,1.22,-1.22,-1.01,-2.60,-2.59,-2.59
83,-1.38,1.24,-1.38,1.25,-1.25,-1.03,-2.63,-2.63,-2.62
84,-1.38,1.28,-1.38,1.29,-1.29,-1.04,-2.67,-2.67,-2.66
85,-1.38,1.32,-1.37,1.33,-1.33,-1.06,-2.70,-2.70,-2.70
86,-1.38,1.35,-1.37,1.36,-1.36,-1.08,-2.74,-2.73,-2.73
87,-1.38,1.39,-1.37,1.40,-1.40,-1.10,-2.78,-2.77,-2.77
88,-1.38,1.42,-1.38,1.43,-1.43,-1.12,-2.81,-2.81,-2.80
89,-1.38,1.46,-1.38,1.46,-1.46,-1.14,-2.84,-2.84,-2.84
90,-1.38,1.50,-1.39,1.49,-1.49,-1.16,-2.87,-2.88,-2.88
91,-1.38,1.53,-1.40,1.52,-1.52,-1.19,-2.90,-2.92,-2.91
92,-1.38,1.57,-1.41,1.55,-1.55,-1.21,-2.93,-2.96,-2.95
93,-1.38,1.60,-1.42,1.58,-1.58,-1.24,-2.96,-2.99,-2.98
94,-1.42,1.60,-1.42,1.60,-1.60,-1.26,-3.02,-3.02,-3.02
95,-1.50,1.55,-1.43,1.62,-1.62,-1.29,-3.12,-3.05,-3.05
96,-1.48,1.61,-1.45,1.64,-1.64,-1.32,-3.12,-3.09,-3.09
97,-1.49,1.63,-1.47,1.66,-1.66,-1.35,-3.15,-3.13,-3.12
98,-1.49,1.67,-1.49,1.68,-1.68,-1.38,-3.17,-3.17,-3.16
99,-1.51,1.68,-1.51,1.69,-1.69,-1.41,-3.20,-3.20,-3.19
100,-1.52,1.70,-1.53,1.70,-1.70,-1.44,-3.22,-3.23,-3.22
101,-1.54,1.72,-1.56,1.71,-1.71,-1.46,-3.25,-3.27,-3.26
102,-1.56,1.73,-1.59,1.71,-1.71,-1.49,-3.27,-3.30,-3.29
104,-1.59,1.77,-1.63,1.71,-1.71,-1.55,-3.30,-3.34,-3.35
105,-1.74,1.65,-1.68,1.70,-1.70,-1.58,-3.44,-3.38,-3.39
106,-1.76,1.66,-1.73,1.69,-1.69,-1.61,-3.45,-3.41,-3.42
107,-1.75,1.70,-1.78,1.67,-1.67,-1.64,-3.42,-3.45,-3.45
108,-1.74,1.74,-1.84,1.65,-1.65,-1.67,-3.39,-3.49,-3.48
109,-1.84,1.67,-1.89,1.63,-1.63,-1.69,-3.47,-3.52,-3.51
110,-2.05,1.49,-1.95,1.60,-1.60,-1.72,-3.65,-3.55,-3.54
111,-2.05,1.52,-2.01,1.57,-1.57,-1.74,-3.62,-3.59,-3.57
112,-2.07,1.53,-2.07,1.55,-1.55,-1.76,-3.62,-3.62,-3.60
113,-2.22,1.41,-2.13,1.52,-1.52,-1.78,-3.74,-3.65,-3.63
114,-2.21,1.44,-2.18,1.50,-1.50,-1.80,-3.70,-3.67,-3.65
115,-2.16,1.52,-2.22,1.47,-1.47,-1.82,-3.63,-3.68,-3.67
117,-2.26,1.47,-2.27,1.44,-1.44,-1.85,-3.70,-3.71,-3.72
118,-2.26,1.49,-2.32,1.42,-1.42,-1.87,-3.68,-3.74,-3.74
119,-2.34,1.42,-2.37,1.39,-1.39,-1.88,-3.73,-3.76,-3.76
120,-2.48,1.30,-2.42,1.37,-1.37,-1.89,-3.85,-3.79,-3.78
121,-2.52,1.28,-2.47,1.34,-1.34,-1.89,-3.86,-3.82,-3.80
123,-2.44,1.40,-2.52,1.32,-1.32,-1.90,-3.76,-3.85,-3.84
124,-2.51,1.34,-2.56,1.30,-1.30,-1.90,-3.81,-3.87,-3.85
125,-2.53,1.33,-2.58,1.29,-1.29,-1.90,-3.82,-3.88,-3.86
126,-2.60,1.28,-2.62,1.28,-1.28,-1.90,-3.88,-3.90,-3.88
128,-2.79,1.12,-2.65,1.28,-1.28,-1.89,-4.07,-3.93,-3.91
129,-2.79,1.13,-2.67,1.28,-1.28,-1.88,-4.07,-3.95,-3.92
130,-2.76,1.18,-2.68,1.28,-1.28,-1.87,-4.04,-3.97,-3.94
131,-2.79,1.16,-2.69,1.29,-1.29,-1.86,-4.08,-3.98,-3.95
133,-2.58,1.40,-2.69,1.31,-1.31,-1.83,-3.89,-4.00,-3.98
134,-2.58,1.41,-2.69,1.32,-1.32,-1.82,-3.90,-4.02,-3.99
135,-2.58,1.43,-2.70,1.35,-1.35,-1.80,-3.92,-4.04,-4.01
137,-2.66,1.38,-2.69,1.37,-1.37,-1.76,-4.03,-4.06,-4.04
138,-2.77,1.28,-2.68,1.39,-1.39,-1.74,-4.16,-4.07,-4.05
140,-2.67,1.42,-2.67,1.42,-1.42,-1.70,-4.09,-4.08,-4.09
141,-2.67,1.43,-2.65,1.44,-1.44,-1.68,-4.11,-4.10,-4.10
142,-2.67,1.44,-2.66,1.46,-1.46,-1.66,-4.13,-4.12,-4.11
144,-2.67,1.47,-2.66,1.49,-1.49,-1.61,-4.16,-4.15,-4.14
145,-2.67,1.49,-2.66,1.51,-1.51,-1.59,-4.18,-4.18,-4.16
147,-2.67,1.52,-2.67,1.53,-1.53,-1.54,-4.20,-4.20,-4.19
148,-2.67,1.53,-2.67,1.55,-1.55,-1.51,-4.22,-4.22,-4.20
150,-2.67,1.56,-2.66,1.58,-1.58,-1.47,-4.24,-4.23,-4.23
151,-2.67,1.57,-2.64,1.59,-1.59,-1.44,-4.26,-4.23,-4.24
153,-2.67,1.59,-2.64,1.60,-1.60,-1.39,-4.27,-4.25,-4.26
154,-2.67,1.60,-2.67,1.61,-1.61,-1.37,-4.28,-4.28,-4.27
156,-2.67,1.62,-2.68,1.61,-1.61,-1.32,-4.28,-4.29,-4.29
157,-2.66,1.64,-2.71,1.60,-1.60,-1.30,-4.26,-4.31,-4.30
159,-2.66,1.67,-2.74,1.59,-1.59,-1.25,-4.25,-4.33,-4.33
160,-2.73,1.61,-2.78,1.57,-1.57,-1.23,-4.30,-4.35,-4.34
162,-2.82,1.54,-2.83,1.54,-1.54,-1.18,-4.36,-4.38,-4.36
164,-2.79,1.59,-2.88,1.52,-1.52,-1.14,-4.30,-4.40,-4.38
165,-2.96,1.43,-2.93,1.48,-1.48,-1.12,-4.44,-4.42,-4.39
167,-3.14,1.28,-2.99,1.45,-1.45,-1.07,-4.59,-4.44,-4.41
169,-3.08,1.36,-3.03,1.42,-1.42,-1.03,-4.50,-4.45,-4.44
170,-3.02,1.43,-3.07,1.39,-1.39,-1.01,-4.41,-4.47,-4.45
172,-3.20,1.27,-3.12,1.36,-1.36,-0.98,-4.56,-4.49,-4.47
174,-3.21,1.28,-3.17,1.34,-1.34,-0.94,-4.55,-4.51,-4.49
175,-3.21,1.29,-3.20,1.32,-1.32,-0.92,-4.53,-4.52,-4.50
177,-3.21,1.30,-3.23,1.31,-1.31,-0.89,-4.52,-4.53,-4.51
179,-3.21,1.32,-3.24,1.30,-1.30,-0.85,-4.51,-4.54,-4.52
181,-3.21,1.33,-3.25,1.29,-1.29,-0.82,-4.50,-4.54,-4.53
183,-3.20,1.34,-3.24,1.28,-1.28,-0.79,-4.48,-4.52,-4.54
184,-3.20,1.34,-3.25,1.28,-1.28,-0.77,-4.48,-4.53,-4.53
186,-3.35,1.18,-3.27,1.28,-1.28,-0.74,-4.63,-4.55,-4.53
188,-3.39,1.14,-3.27,1.28,-1.28,-0.72,-4.67,-4.55,-4.53
190,-3.25,1.28,-3.25,1.28,-1.28,-0.69,-4.53,-4.53,-4.53
192,-3.24,1.28,-3.24,1.28,-1.28,-0.66,-4.52,-4.52,-4.52
194,-3.22,1.30,-3.24,1.28,-1.28,-0.64,-4.50,-4.52,-4.52
196,-3.21,1.30,-3.25,1.28,-1.28,-0.61,-4.49,-4.52,-4.51
198,-3.20,1.31,-3.25,1.27,-1.27,-0.59,-4.47,-4.52,-4.51
200,-3.35,1.16,-3.27,1.25,-1.25,-0.57,-4.60,-4.52,-4.50
202,-3.43,1.08,-3.28,1.23,-1.23,-0.55,-4.66,-4.51,-4.50
204,-3.18,1.33,-3.30,1.20,-1.20,-0.53,-4.38,-4.50,-4.51
206,-3.11,1.40,-3.33,1.17,-1.17,-0.51,-4.28,-4.50,-4.51
208,-3.34,1.18,-3.40,1.13,-1.13,-0.49,-4.46,-4.52,-4.52
210,-3.45,1.08,-3.49,1.08,-1.08,-0.47,-4.52,-4.57,-4.53
212,-3.64,0.90,-3.56,1.03,-1.03,-0.45,-4.66,-4.59,-4.53
214,-3.59,0.96,-3.62,0.98,-0.98,-0.44,-4.57,-4.60,-4.54
216,-3.64,0.92,-3.67,0.93,-0.93,-0.42,-4.57,-4.60,-4.56
218,-3.77,0.80,-3.71,0.89,-0.89,-0.40,-4.66,-4.60,-4.57
221,-3.78,0.80,-3.75,0.85,-0.85,-0.38,-4.62,-4.59,-4.58
223,-4.01,0.57,-3.81,0.80,-0.80,-0.37,-4.81,-4.62,-4.58
225,-4.04,0.55,-3.87,0.77,-0.77,-0.35,-4.81,-4.64,-4.59
227,-4.05,0.54,-3.91,0.73,-0.73,-0.34,-4.78,-4.64,-4.59
229,-3.96,0.63,-3.93,0.70,-0.70,-0.33,-4.66,-4.62,-4.59
232,-3.61,0.98,-3.95,0.66,-0.66,-0.31,-4.27,-4.62,-4.59
234,-3.71,0.87,-3.98,0.63,-0.63,-0.30,-4.34,-4.60,-4.58
236,-3.90,0.67,-4.00,0.59,-0.59,-0.29,-4.49,-4.59,-4.57
239,-4.04,0.53,-4.03,0.55,-0.55,-0.28,-4.59,-4.58,-4.56
241,-4.25,0.30,-4.06,0.50,-0.50,-0.27,-4.75,-4.56,-4.55
244,-4.24,0.30,-4.08,0.46,-0.46,-0.26,-4.70,-4.54,-4.54
246,-4.04,0.48,-4.12,0.41,-0.41,-0.25,-4.45,-4.53,-4.52
248,-4.19,0.32,-4.18,0.36,-0.36,-0.24,-4.55,-4.55,-4.51
251,-4.25,0.25,-4.22,0.32,-0.32,-0.24,-4.57,-4.53,-4.50
253,-4.24,0.25,-4.27,0.28,-0.28,-0.23,-4.52,-4.54,-4.49
256,-4.23,0.25,-4.31,0.24,-0.24,-0.22,-4.47,-4.55,-4.48
259,-4.31,0.16,-4.30,0.22,-0.22,-0.22,-4.53,-4.52,-4.47
261,-4.47,-0.00,-4.30,0.19,-0.19,-0.21,-4.66,-4.49,-4.47
264,-4.37,0.10,-4.30,0.17,-0.17,-0.21,-4.54,-4.47,-4.47
266,-4.31,0.16,-4.33,0.14,-0.14,-0.20,-4.45,-4.46,-4.46
269,-4.59,-0.12,-4.37,0.10,-0.10,-0.20,-4.69,-4.48,-4.47
272,-4.22,0.25,-4.42,0.06,-0.06,-0.19,-4.28,-4.48,-4.47
274,-4.16,0.31,-4.47,0.01,-0.01,-0.19,-4.17,-4.49,-4.47
277,-4.58,-0.11,-4.56,-0.04,0.04,-0.19,-4.54,-4.51,-4.47
280,-4.47,0.00,-4.63,-0.10,0.10,-0.19,-4.37,-4.52,-4.47
283,-4.50,-0.03,-4.69,-0.17,0.17,-0.19,-4.33,-4.52,-4.47
286,-4.84,-0.37,-4.74,-0.24,0.24,-0.19,-4.60,-4.51,-4.47
288,-4.94,-0.48,-4.78,-0.30,0.30,-0.18,-4.64,-4.48,-4.46
291,-5.06,-0.61,-4.85,-0.37,0.37,-0.18,-4.69,-4.48,-4.45
294,-5.01,-0.57,-4.93,-0.43,0.43,-0.18,-4.58,-4.50,-4.44
297,-5.05,-0.61,-4.98,-0.50,0.50,-0.18,-4.55,-4.48,-4.43
300,-5.27,-0.84,-5.03,-0.55,0.55,-0.18,-4.72,-4.48,-4.42
303,-5.05,-0.63,-5.07,-0.60,0.60,-0.19,-4.45,-4.47,-4.41
306,-4.74,-0.33,-5.07,-0.63,0.63,-0.19,-4.11,-4.44,-4.41
309,-4.91,-0.51,-5.08,-0.65,0.65,-0.19,-4.26,-4.44,-4.40
312,-4.93,-0.54,-5.09,-0.66,0.66,-0.19,-4.27,-4.43,-4.39
316,-5.07,-0.68,-5.08,-0.66,0.66,-0.19,-4.41,-4.42,-4.39
319,-5.32,-0.94,-5.06,-0.65,0.65,-0.19,-4.67,-4.42,-4.38
322,-5.12,-0.74,-5.04,-0.62,0.62,-0.19,-4.50,-4.42,-4.38
325,-4.81,-0.43,-5.00,-0.58,0.58,-0.19,-4.23,-4.43,-4.38
328,-5.02,-0.64,-4.94,-0.52,0.52,-0.20,-4.49,-4.42,-4.38
332,-5.09,-0.71,-4.87,-0.46,0.46,-0.20,-4.63,-4.42,-4.38
335,-4.83,-0.45,-4.82,-0.38,0.38,-0.20,-4.45,-4.44,-4.38
338,-4.89,-0.51,-4.75,-0.29,0.29,-0.20,-4.59,-4.45,-4.38
342,-4.78,-0.40,-4.63,-0.21,0.21,-0.21,-4.57,-4.43,-4.38
345,-4.52,-0.14,-4.52,-0.12,0.12,-0.21,-4.40,-4.40,-4.38
349,-4.32,0.06,-4.42,-0.04,0.04,-0.21,-4.28,-4.38,-4.38
352,-4.20,0.18,-4.34,0.03,-0.03,-0.21,-4.23,-4.38,-4.38
356,-4.12,0.26,-4.30,0.09,-0.09,-0.22,-4.21,-4.38,-4.38
359,-4.12,0.25,-4.26,0.12,-0.12,-0.22,-4.24,-4.38,-4.37
363,-4.20,0.17,-4.22,0.13,-0.13,-0.22,-4.33,-4.36,-4.36
366,-4.24,0.12,-4.21,0.13,-0.13,-0.23,-4.37,-4.34,-4.36
370,-4.17,0.18,-4.24,0.10,-0.10,-0.23,-4.27,-4.34,-4.35
374,-4.22,0.12,-4.27,0.06,-0.06,-0.23,-4.28,-4.33,-4.34
377,-4.42,-0.09,-4.34,-0.00,0.00,-0.24,-4.42,-4.34,-4.33
381,-4.51,-0.18,-4.42,-0.07,0.07,-0.24,-4.44,-4.35,-4.33
385,-4.54,-0.22,-4.50,-0.15,0.15,-0.24,-4.39,-4.36,-4.32
389,-4.57,-0.25,-4.59,-0.22,0.22,-0.25,-4.35,-4.36,-4.32
393,-4.64,-0.32,-4.65,-0.29,0.29,-0.25,-4.34,-4.36,-4.32
397,-4.68,-0.36,-4.70,-0.36,0.36,-0.26,-4.32,-4.35,-4.31
401,-4.76,-0.44,-4.75,-0.41,0.41,-0.26,-4.35,-4.34,-4.32
405,-4.83,-0.51,-4.79,-0.45,0.45,-0.27,-4.38,-4.34,-4.32
409,-4.87,-0.55,-4.83,-0.48,0.48,-0.27,-4.39,-4.35,-4.32
413,-4.87,-0.55,-4.83,-0.50,0.50,-0.28,-4.37,-4.33,-4.32
417,-4.87,-0.56,-4.82,-0.51,0.51,-0.28,-4.36,-4.31,-4.31
421,-4.87,-0.56,-4.83,-0.51,0.51,-0.29,-4.35,-4.31,-4.31
425,-4.78,-0.48,-4.81,-0.51,0.51,-0.29,-4.27,-4.30,-4.30
430,-4.67,-0.39,-4.77,-0.50,0.50,-0.30,-4.17,-4.27,-4.28
434,-4.69,-0.43,-4.74,-0.48,0.48,-0.30,-4.21,-4.26,-4.26
438,-4.71,-0.48,-4.69,-0.46,0.46,-0.31,-4.25,-4.23,-4.22
443,-4.67,-0.48,-4.62,-0.43,0.43,-0.32,-4.24,-4.19,-4.19
447,-4.51,-0.37,-4.54,-0.39,0.39,-0.33,-4.12,-4.15,-4.14
451,-4.37,-0.28,-4.44,-0.35,0.35,-0.33,-4.02,-4.09,-4.09
456,-4.51,-0.47,-4.35,-0.31,0.31,-0.34,-4.20,-4.04,-4.04
460,-4.39,-0.41,-4.25,-0.26,0.26,-0.35,-4.13,-3.99,-3.98
465,-3.99,-0.07,-4.14,-0.21,0.21,-0.36,-3.78,-3.93,-3.92
470,-4.11,-0.24,-4.04,-0.16,0.16,-0.37,-3.95,-3.88,-3.86
474,-4.04,-0.23,-3.92,-0.10,0.10,-0.38,-3.94,-3.83,-3.81
479,-3.62,0.13,-3.80,-0.03,0.03,-0.39,-3.59,-3.77,-3.75
484,-3.65,0.05,-3.69,0.03,-0.03,-0.40,-3.68,-3.72,-3.70
489,-3.53,0.13,-3.57,0.10,-0.10,-0.42,-3.63,-3.67,-3.66
494,-3.39,0.23,-3.47,0.17,-0.17,-0.43,-3.56,-3.64,-3.62
499,-3.43,0.15,-3.36,0.24,-0.24,-0.44,-3.67,-3.60,-3.58
504,-3.24,0.32,-3.25,0.32,-0.32,-0.46,-3.56,-3.57,-3.55
509,-3.20,0.34,-3.16,0.40,-0.40,-0.47,-3.60,-3.56,-3.54
514,-3.12,0.41,-3.07,0.47,-0.47,-0.49,-3.59,-3.55,-3.53
519,-3.00,0.53,-2.98,0.55,-0.55,-0.50,-3.55,-3.54,-3.52
524,-2.93,0.60,-2.92,0.63,-0.63,-0.52,-3.56,-3.55,-3.53
529,-2.85,0.70,-2.86,0.71,-0.71,-0.54,-3.56,-3.58,-3.55
535,-2.74,0.83,-2.80,0.79,-0.79,-0.56,-3.53,-3.59,-3.57
540,-2.72,0.88,-2.75,0.87,-0.87,-0.58,-3.59,-3.61,-3.60
545,-2.66,0.97,-2.69,0.95,-0.95,-0.60,-3.61,-3.64,-3.63
551,-2.64,1.02,-2.64,1.03,-1.03,-0.62,-3.66,-3.66,-3.66
556,-2.48,1.22,-2.61,1.10,-1.10,-0.64,-3.58,-3.71,-3.70
562,-2.51,1.22,-2.56,1.18,-1.18,-0.66,-3.68,-3.74,-3.73
568,-2.70,1.06,-2.50,1.25,-1.25,-0.69,-3.95,-3.75,-3.76
573,-2.52,1.26,-2.46,1.32,-1.32,-0.71,-3.84,-3.78,-3.78
579,-2.43,1.37,-2.42,1.39,-1.39,-0.73,-3.82,-3.81,-3.80
585,-2.39,1.42,-2.36,1.46,-1.46,-0.76,-3.85,-3.82,-3.81
591,-2.29,1.53,-2.29,1.52,-1.52,-0.79,-3.81,-3.81,-3.82
596,-2.22,1.59,-2.23,1.58,-1.58,-0.81,-3.80,-3.81,-3.81
602,-2.22,1.58,-2.17,1.64,-1.64,-0.84,-3.86,-3.81,-3.80
608,-2.11,1.68,-2.10,1.69,-1.69,-0.87,-3.80,-3.79,-3.79
615,-1.87,1.90,-2.03,1.74,-1.74,-0.90,-3.61,-3.77,-3.76
621,-1.85,1.89,-1.94,1.79,-1.79,-0.93,-3.64,-3.73,-3.74
627,-2.04,1.66,-1.86,1.83,-1.83,-0.96,-3.87,-3.69,-3.70
633,-1.81,1.85,-1.79,1.87,-1.87,-0.99,-3.68,-3.66,-3.66
639,-1.56,2.06,-1.72,1.90,-1.90,-1.02,-3.46,-3.62,-3.62
646,-1.69,1.88,-1.64,1.94,-1.94,-1.06,-3.63,-3.58,-3.57
652,-1.69,1.83,-1.56,1.97,-1.97,-1.09,-3.66,-3.53,-3.52
659,-1.45,2.02,-1.47,2.01,-2.01,-1.13,-3.45,-3.48,-3.47
665,-1.40,2.02,-1.39,2.04,-2.04,-1.17,-3.44,-3.43,-3.42
672,-1.35,2.02,-1.31,2.08,-2.08,-1.21,-3.43,-3.39,-3.37
679,-1.24,2.08,-1.23,2.12,-2.12,-1.25,-3.35,-3.35,-3.32
686,-1.15,2.13,-1.15,2.15,-2.15,-1.29,-3.30,-3.30,-3.27
692,-1.03,2.21,-1.06,2.19,-2.19,-1.32,-3.22,-3.25,-3.24
699,-0.99,2.22,-1.00,2.23,-2.23,-1.37,-3.22,-3.23,-3.21
706,-0.87,2.31,-0.93,2.26,-2.26,-1.41,-3.13,-3.20,-3.18
713,-0.87,2.30,-0.88,2.30,-2.30,-1.46,-3.16,-3.17,-3.17
721,-0.78,2.38,-0.84,2.32,-2.32,-1.51,-3.10,-3.17,-3.16
728,-0.79,2.37,-0.81,2.35,-2.35,-1.55,-3.14,-3.16,-3.16
735,-0.80,2.36,-0.78,2.37,-2.37,-1.60,-3.17,-3.15,-3.16
742,-0.75,2.41,-0.76,2.39,-2.39,-1.65,-3.14,-3.15,-3.16
750,-0.72,2.44,-0.75,2.41,-2.41,-1.70,-3.13,-3.15,-3.16
757,-0.70,2.46,-0.74,2.42,-2.42,-1.75,-3.12,-3.16,-3.16
765,-0.72,2.44,-0.73,2.44,-2.44,-1.80,-3.16,-3.17,-3.15
773,-0.83,2.32,-0.70,2.46,-2.46,-1.86,-3.28,-3.16,-3.15
780,-0.85,2.29,-0.67,2.48,-2.48,-1.91,-3.32,-3.14,-3.14
788,-0.57,2.56,-0.63,2.50,-2.50,-1.96,-3.07,-3.13,-3.13
796,-0.53,2.59,-0.61,2.52,-2.52,-2.02,-3.05,-3.13,-3.11
804,-0.65,2.45,-0.56,2.55,-2.55,-2.07,-3.20,-3.11,-3.10
812,-0.58,2.50,-0.51,2.58,-2.58,-2.13,-3.16,-3.09,-3.08
820,-0.44,2.63,-0.47,2.61,-2.61,-2.18,-3.05,-3.07,-3.06
828,-0.43,2.62,-0.42,2.63,-2.63,-2.24,-3.06,-3.06,-3.05
837,-0.24,2.79,-0.38,2.66,-2.66,-2.30,-2.90,-3.04,-3.03
845,-0.24,2.78,-0.34,2.68,-2.68,-2.35,-2.92,-3.03,-3.02
853,-0.34,2.67,-0.30,2.70,-2.70,-2.41,-3.04,-3.00,-3.01
862,-0.35,2.65,-0.27,2.72,-2.72,-2.46,-3.07,-2.99,-3.00
871,-0.27,2.73,-0.27,2.73,-2.73,-2.52,-3.00,-3.00,-2.99
879,-0.14,2.85,-0.26,2.74,-2.74,-2.57,-2.88,-3.00,-2.99
888,-0.23,2.76,-0.23,2.75,-2.75,-2.62,-2.98,-2.99,-2.99
897,-0.28,2.70,-0.22,2.76,-2.76,-2.67,-3.04,-2.97,-2.98
906,-0.29,2.68,-0.21,2.77,-2.77,-2.72,-3.06,-2.97,-2.97
915,-0.19,2.78,-0.20,2.78,-2.78,-2.77,-2.96,-2.97,-2.97
924,-0.19,2.77,-0.20,2.78,-2.78,-2.81,-2.97,-2.98,-2.96
933,-0.10,2.86,-0.18,2.79,-2.79,-2.85,-2.89,-2.98,-2.95
943,-0.21,2.74,-0.15,2.81,-2.81,-2.89,-3.02,-2.96,-2.95
952,-0.21,2.73,-0.12,2.83,-2.83,-2.92,-3.04,-2.95,-2.94
962,-0.04,2.89,-0.09,2.85,-2.85,-2.96,-2.89,-2.94,-2.93
971,0.10,3.02,-0.04,2.88,-2.88,-2.99,-2.78,-2.92,-2.92
981,0.00,2.90,-0.00,2.91,-2.91,-3.01,-2.90,-2.91,-2.90
991,-0.10,2.79,0.05,2.94,-2.94,-3.03,-3.04,-2.89,-2.89
1001,0.01,2.88,0.10,2.97,-2.97,-3.05,-2.96,-2.87,-2.87
1011,0.08,2.93,0.16,3.01,-3.01,-3.07,-2.93,-2.86,-2.85
1021,0.36,3.19,0.22,3.06,-3.06,-3.08,-2.70,-2.84,-2.82
1031,0.39,3.19,0.29,3.10,-3.10,-3.09,-2.71,-2.81,-2.80
1041,0.36,3.13,0.37,3.15,-3.15,-3.10,-2.79,-2.78,-2.77
1052,0.39,3.14,0.44,3.19,-3.19,-3.10,-2.80,-2.75,-2.75
1062,0.43,3.15,0.51,3.24,-3.24,-3.10,-2.81,-2.73,-2.72
1073,0.48,3.17,0.57,3.28,-3.28,-3.09,-2.80,-2.71,-2.69
1084,0.71,3.37,0.65,3.32,-3.32,-3.09,-2.60,-2.66,-2.66
1094,0.76,3.39,0.73,3.34,-3.34,-3.08,-2.58,-2.61,-2.63
1105,0.74,3.34,0.77,3.35,-3.35,-3.07,-2.61,-2.58,-2.60
1116,0.80,3.37,0.80,3.35,-3.35,-3.06,-2.55,-2.55,-2.56
1128,0.85,3.38,0.82,3.33,-3.33,-3.05,-2.48,-2.52,-2.53
1139,0.83,3.33,0.82,3.30,-3.30,-3.04,-2.47,-2.48,-2.50
1150,0.83,3.29,0.80,3.24,-3.24,-3.02,-2.41,-2.44,-2.46
1162,0.81,3.24,0.76,3.17,-3.17,-3.01,-2.36,-2.40,-2.42
1173,0.73,3.12,0.69,3.07,-3.07,-2.99,-2.34,-2.38,-2.39
1185,0.74,3.09,0.60,2.96,-2.96,-2.98,-2.22,-2.35,-2.35
1197,0.57,2.89,0.50,2.82,-2.82,-2.96,-2.25,-2.32,-2.32
1209,0.32,2.60,0.39,2.67,-2.67,-2.95,-2.35,-2.27,-2.28
1221,0.23,2.47,0.27,2.49,-2.49,-2.94,-2.26,-2.23,-2.24
1233,0.09,2.30,0.13,2.31,-2.31,-2.92,-2.22,-2.18,-2.21
1246,-0.18,2.00,-0.03,2.12,-2.12,-2.91,-2.30,-2.15,-2.18
1258,-0.24,1.92,-0.20,1.92,-1.92,-2.90,-2.16,-2.12,-2.15
1271,-0.36,1.78,-0.41,1.72,-1.72,-2.90,-2.08,-2.13,-2.14
1283,-0.54,1.58,-0.62,1.53,-1.53,-2.89,-2.07,-2.15,-2.12
1296,-0.61,1.51,-0.83,1.35,-1.35,-2.89,-1.96,-2.19,-2.12
1309,-0.79,1.33,-1.03,1.19,-1.19,-2.88,-1.98,-2.23,-2.12
1322,-1.10,1.03,-1.20,1.05,-1.05,-2.88,-2.15,-2.25,-2.13
1335,-1.29,0.85,-1.33,0.95,-0.95,-2.88,-2.23,-2.28,-2.14
1349,-1.49,0.66,-1.44,0.87,-0.87,-2.89,-2.36,-2.31,-2.15
1362,-1.78,0.39,-1.51,0.83,-0.83,-2.90,-2.61,-2.34,-2.17
1376,-1.83,0.36,-1.52,0.84,-0.84,-2.90,-2.67,-2.36,-2.19
1390,-1.86,0.36,-1.50,0.89,-0.89,-2.92,-2.75,-2.39,-2.21
1404,-1.65,0.58,-1.43,0.98,-0.98,-2.93,-2.63,-2.41,-2.23
1418,-1.38,0.87,-1.31,1.11,-1.11,-2.95,-2.49,-2.42,-2.25
1432,-1.06,1.21,-1.15,1.28,-1.28,-2.96,-2.34,-2.43,-2.26
1446,-0.78,1.49,-0.93,1.47,-1.47,-2.98,-2.25,-2.41,-2.27
1461,-0.57,1.71,-0.68,1.69,-1.69,-3.01,-2.26,-2.36,-2.28
1475,-0.32,1.96,-0.40,1.92,-1.92,-3.03,-2.24,-2.32,-2.28
1490,-0.05,2.22,-0.12,2.16,-2.16,-3.06,-2.20,-2.27,-2.27
1505,0.22,2.49,0.17,2.40,-2.40,-3.09,-2.18,-2.23,-2.26
1520,0.45,2.71,0.43,2.64,-2.64,-3.12,-2.19,-2.21,-2.26
1535,0.67,2.91,0.67,2.87,-2.87,-3.16,-2.20,-2.21,-2.24
