frequency,raw,error,smoothed,error_smoothed,equalization,equalized_raw,equalized_smoothed,target
20,-4.451243026914769,-5.2371292277606365,-4.470713504420493,-5.256584358040225,5.256584358040223,0.8053413311254545,0.7858708536197305,0.785886200845868
21,-4.018173507631548,-4.8040407562398295,-4.011276428757418,-4.79714603161731,4.7971460316173085,0.7789725239857601,0.7858696028598908,0.7858672486082812
22,-3.581431962306147,-4.36727441894258,-3.572922057385621,-4.3587768284269135,4.3587768284269135,0.7773448661207665,0.7858547710412926,0.7858424566364333
23,-3.1812545791837263,-3.967064997885185,-3.155650390305103,-3.941476748469036,3.9414767484690354,0.7602221692853091,0.7858263581639324,0.7858104187014585
24,-2.7947549341026794,-3.580524409756812,-2.7594614275158587,-3.545245791743672,3.5452457917436715,0.7504908576409921,0.7857843642278128,0.7857694756541327
25,-2.3829571348483216,-3.1686748188269878,-2.384920298039187,-3.1706505636068343,3.170650563606835,0.7876934287585136,0.7857302655676484,0.7857176839786661
26,-1.9109496429754758,-2.696602425024584,-2.031498497551281,-2.8171611051688124,2.817161105168813,0.906211462193337,0.7856626076175317,0.7856527820491079
27,-1.8017790488885823,-2.5873512029261225,-1.6985347748127826,-2.484114596541006,2.4841145965410063,0.682335547652424,0.7855798217282237,0.7855721540375402
28,-1.2958034730037853,-2.0812762644324962,-1.384907426149979,-2.1703867504255463,2.170386750425546,0.8745832774217606,0.7854793242755669,0.785472791428711
29,-1.0907386251237208,-1.8760898772251733,-1.0891029677874986,-1.874460463424111,1.8744604634241118,0.783721838300391,0.7853574956366132,0.7853512521014525
30,-0.8671816182423125,-1.6523852351873245,-0.8095789299138615,-1.594789186779325,1.5947891867793251,0.7276075685370126,0.7852102568654636,0.7852036169450121
31,-0.5722460817442495,-1.3572715257310684,-0.5449622419833133,-1.3299951044981073,1.3299951044981069,0.7577490227538574,0.7850328625147935,0.785025443986819
32,-0.2967009076795372,-1.0815126276981233,-0.2943083623849381,-1.079128421357373,1.0791284213573729,0.7824275136778356,0.7848200589724348,0.784811720018586
33,-0.02901162430011094,-0.8135684340198922,-0.057180217994021273,-0.8417463011769046,0.8417463011769046,0.8127346768767937,0.7845660831828833,0.7845568097197813
34,0.16813735300496954,-0.6161170492868443,0.1664883426744312,-0.6177762160469418,0.6177762160469416,0.7859135690519111,0.7842645587213728,0.7842544022918139
35,0.3554890389262394,-0.4284084167068408,0.3766756241525081,-0.40723282214886175,0.4072328221488618,0.7627218610751012,0.7839084463013699,0.7838974556330802
36,0.5925379575266405,-0.19094018057799222,0.573602459515802,-0.20988748155129294,0.20988748155129294,0.8024254390779335,0.783489941067095,0.7834781381046327
37,0.7767108571608136,-0.006276910798250213,0.7579557415614986,-0.025044646084633054,0.025044646084633065,0.8017555032454466,0.7830003876461317,0.7829877679590638
38,1.049091504612222,0.2666747540805461,0.9309001816109608,0.1484699713747154,-0.14846997137471543,0.9006215332375066,0.7824302102362454,0.7824167505316759
39,0.9148764737211738,0.1331219603977155,1.093864911089315,0.3120960691302825,-0.31209606913028254,0.6027804045908912,0.7817688419590325,0.7817545133234582
40,1.2350155876105426,0.45402614847010625,1.248191127575017,0.4671864647225905,-0.46718646472259046,0.7678291228879521,0.7810046628524265,0.7809894391404364
41,1.5088398158683698,0.7287310183745004,1.394788631206871,0.6146636954058631,-0.6146636954058629,0.8941761204625069,0.7801249358010081,0.7801087974938694
42,1.4257582261607291,0.6466595516495357,1.5339436961202184,0.7548279569585026,-0.7548279569585028,0.6709302692022263,0.7791157391617156,0.7790986745111934
43,1.6572352718943049,0.8792913702353826,1.6653510388839607,0.8873891416887574,-0.8873891416887574,0.7698461302055475,0.7779618971952034,0.7779439016589222
44,1.8268249041957765,1.050196920559378,1.7883451803682502,1.0116982726824084,-1.011698272682408,0.8151266315133685,0.7766469076858422,0.7766279836363985
45,1.93486106857726,1.1597280427134193,1.9022295148685164,1.1270766460989279,-1.1270766460989279,0.8077844224783322,0.7751528687695886,0.7751330258638407
46,2.034164821738167,1.2607251596783238,2.0065756650353617,1.233115259100884,-1.2331152591008838,0.8010495626372831,0.7734604059344778,0.7734396620598432
47,2.1251117956453185,1.3535848131625121,2.101398723401822,1.3298501235496518,-1.3298501235496523,0.7952616720956662,0.7715485998521698,0.7715269824828064
48,2.1104687601188563,1.341096296621037,2.1871819627275126,1.4177870468947527,-1.4177870468947527,0.6926817132241037,0.76939491583276,0.7693724634978194
49,2.2454549860466337,1.4785030868211222,2.2647876690970676,1.4978125336539523,-1.4978125336539518,0.7476424523926819,0.7669751354431158,0.7669518992255115
50,2.3405986818727684,1.5763593457405878,2.335317960590132,1.5710546695217094,-1.5710546695217091,0.7695440123510593,0.7642632910684231,0.7642393361321806
51,2.43829245240598,1.677085440875072,2.3999745172345275,1.6387429128650832,-1.6387429128650834,0.7995495395408965,0.761231604369444,0.761207011530908
52,2.4583651452024933,1.7005398481216272,2.4599298196126815,1.702079389895874,-1.7020793898958735,0.7562857553066198,0.757850429716808,0.7578252970808661
53,2.5640771368447406,1.8100144883489717,2.51619499542382,1.7621067915750572,-1.7621067915750577,0.8019703452696829,0.7540882038487622,0.7540626484957689
54,2.5097428009543687,1.759857238153086,2.569471491133573,1.8195600880255665,-1.8195600880255665,0.6901827129288023,0.7499114031080065,0.7498855628012828
55,2.6311299122919616,1.885871367678336,2.620004437083347,1.8747199273455184,-1.8747199273455184,0.7564099849464432,0.7452845097378287,0.7452585446136255
56,2.6311299054524584,1.8909858224070883,2.6674909553469726,1.9273209664954798,-1.9273209664954802,0.7038089389569782,0.7401699888514923,0.74014408304537
57,2.618747160781321,1.8842445198041755,2.7111068067271065,1.976578528908924,-1.9765785289089237,0.6421686318723974,0.7345282778181828,0.7345026409771456
58,2.8432511132111578,2.1149584546490434,2.749684095643989,2.0213663057029687,-2.021366305702969,0.8218848075081886,0.7283177899410198,0.7282926585621143
59,2.823967385936865,2.1024968129868626,2.7820120584825423,2.060517124058545,-2.0605171240585447,0.7634502618783201,0.7214949344239976,0.7214705729500022
60,2.8239674318625116,2.1099765755381465,2.8071734141364577,2.0931592594050956,-2.093159259405096,0.7308081724574156,0.7140141547313616,0.7139908563243651
61,2.8239675047871264,2.1181614303517726,2.8248034781236733,2.1189754905924563,-2.1189754905924567,0.7049920141946697,0.7058279875312166,0.7058060744353538
62,2.8239675854641795,2.1271006175898286,2.8351845439611574,2.1382973994832652,-2.1382973994832652,0.6856701859809142,0.6968871444778921,0.6968669678743509
63,2.8239676247105847,2.13684506634093,2.839152551555709,2.152011932438942,-2.152011932438942,0.6719556922716428,0.687140619116767,0.6871225583696545
64,2.8239675408223275,2.147447258446057,2.837864587649552,2.161328766429822,-2.161328766429822,0.6626387743925055,0.6765358212197299,0.6765202823762704
65,2.8239672344382427,2.1589610802584347,2.8325202487810905,2.1675015081428275,-2.167501508142826,0.6564657262954166,0.6650187406382644,0.665006154179808
66,2.8239666297927437,2.171441669166875,2.8241298168227758,2.1715956738521944,-2.171595673852195,0.6523709559405488,0.6525341429705809,0.6525249606258687
67,2.823965744941465,2.1849452555279787,2.8133848910334924,2.174359091806908,-2.1743590918069073,0.6496066531345575,0.6390257992265851,0.6390204894134861
68,2.8415629471426787,2.2171271544972138,2.8006368190924262,2.176200068461039,-2.1762000684610396,0.665362878681639,0.6244367506313866,0.6244357926454649
69,2.7774945357733207,2.1687810487715202,2.7859513036436736,2.177241694663101,-2.1772416946631004,0.6002528411102204,0.6087096089805732,0.6087134870018005
70,2.7275460151482647,2.135749923660825,2.769197713952887,2.1774108198842925,-2.1774108198842925,0.5501351952639721,0.5917868940685946,0.5917960914874398
71,2.7275486275354646,2.1539222243386513,2.7501438380327623,2.1765324264257604,-2.1765324264257604,0.5510162011097042,0.5736114116070019,0.5736264031968132
72,2.727554159355941,2.1734062484249894,2.728545251129018,2.174418577039862,-2.174418577039862,0.5531355823160791,0.5541266740891562,0.5541479109309515
73,2.7275629226041085,2.194257676806343,2.704228336930251,2.1709509772819384,-2.1709509772819384,0.5566119453221701,0.5332773596483125,0.5333052457977656
74,2.7275740630540657,2.216529395929768,2.6771626218507936,2.1661528238361787,-2.1661528238361787,0.561421239217887,0.5110097980146149,0.5110446671242976
75,2.6581321078932616,2.1708175267752785,2.6475084484397167,2.160235980487874,-2.160235980487874,0.49789612740538747,0.48727246795184254,0.4873145811179831
76,2.5892674366726602,2.127201347929623,2.6156214004629232,2.1536049032684064,-2.1536049032684064,0.43566253340425387,0.4620164971945169,0.46206608874303745
77,2.534746206054036,2.099492647809834,2.582003007716482,2.146806817525006,-2.146806817525006,0.3879393885290301,0.4351961901914758,0.4352535582442023
78,2.534718435461571,2.1278832187867636,2.5472065593683184,2.1404368996846173,-2.1404368996846173,0.3942815357769538,0.40676965968370116,0.4068352166748075
79,2.539845322381585,2.1630715686847557,2.5117271342996923,2.135027489233542,-2.1350274892335426,0.40481783314804254,0.3766996450661497,0.3767737536968294
80,2.5213606598734493,2.176323730023458,2.4759150927064977,2.1309606017095146,-2.130960601709515,0.3904000581639342,0.3449544909969826,0.3450369298499911
81,2.43803511579339,2.126436935320508,2.4399458934140963,2.12843686492341,-2.1284368649234104,0.3095982508699797,0.31150902849068585,0.311598180472882
82,2.3606198789958586,2.0841826734524416,2.4038577709691067,2.127512885133619,-2.127512885133619,0.23310699386223943,0.27634488583548755,0.276437205543417
83,2.341371203837064,2.101830668903577,2.367641240875362,2.128191484997792,-2.128191484997792,0.21317971883927234,0.23944975587757034,0.23954053493348715
84,2.342502585820494,2.141600527831216,2.331341859329007,2.130526244539408,-2.1305262445394084,0.21197634128108556,0.20081561478959875,0.20090205798927796
85,2.341407688888744,2.180884182889453,2.2951296474725416,2.134692744132224,-2.1346927441322245,0.20671494475651953,0.16043690334031702,0.16052350599929088
86,2.2677218271230872,2.1493069510849017,2.259299026701646,2.1409881769041266,-2.1409881769041257,0.12673365021896155,0.11831084979752049,0.11841487603818557
87,2.2142901852037418,2.139695400292248,2.224188785239231,2.1497462672981094,-2.14974626729811,0.06454391790563196,0.074442517941121,0.07459478491149385
88,2.150262151025429,2.1211714085244604,2.1900441078386614,2.161188296297028,-2.1611882962970284,-0.010926145271599186,0.02885581154163308,0.02909074250096877
89,2.151430664400376,2.169491329662206,2.156869905622763,2.1752616734318635,-2.175261673431863,-0.02383100903148705,-0.018391767809100124,-0.01806066526182981
90,2.1528446219359223,2.219658314219072,2.1243347916351416,2.191532160161078,-2.191532160161078,-0.038687538225155915,-0.06719736852593661,-0.0668136922831497
91,2.0579381519536306,2.1750516058740397,2.091772254289146,2.2091865289315695,-2.2091865289315695,-0.15124837697793891,-0.1174142746424236,-0.11711345392040906
92,2.0593070562586044,2.228203115507286,2.058293294767286,2.227169562644203,-2.227169562644203,-0.16786250638559874,-0.16887626787691712,-0.16889605924868167
93,2.0601953610393053,2.2822842177430296,2.0229852574184717,2.244433046979024,-2.2444330469790246,-0.18423768593971923,-0.2214477895605529,-0.22208885670372425
94,1.9713218308547675,2.2479326242704483,1.9851407794860716,2.260231513438982,-2.260231513438982,-0.28890968258421457,-0.2750907339529105,-0.27661079341568096
95,1.9623704569320568,2.294743342939169,1.9444510441743805,2.2743765979909876,-2.274376597990987,-0.3120061410589303,-0.3299255538166066,-0.33237288600711246
96,1.925186859369698,2.314465657412299,1.9011122789381654,2.2873689878975094,-2.2873689878975094,-0.3621821285278115,-0.38625670895934405,-0.38927879804260135
97,1.857062528924988,2.304288045701065,1.855825530763782,2.300361771960983,-2.3003617719609832,-0.4432992430359952,-0.44453624119720114,-0.447225516776077
98,1.7771602184651119,2.2832643379049244,1.8097019433913952,2.314958364459141,-2.314958364459141,-0.5377981459940291,-0.5052564210677457,-0.5061041194398124
99,1.7409330245448378,2.3067336416914093,1.764105910953541,2.332894964165971,-2.332894964165971,-0.5919619396211333,-0.56878905321243,-0.5658006171465715
100,1.7264869193983443,2.352683782014937,1.7204723043761794,2.355687625220761,-2.355687625220761,-0.6292007058224167,-0.6352153208445817,-0.6261968626165926
101,1.7090530381826143,2.3962245446472155,1.6801266943090738,2.3843308370059706,-2.384330837005971,-0.6752777988233567,-0.7042041426968972,-0.6871715064646011
102,1.6889394421966286,2.4375404279403714,1.6441287783728757,2.419119299585704,-2.4191192995857036,-0.730179857389075,-0.7749905212128279,-0.7486009857437428
104,1.5702299008088774,2.4425550538491665,1.613156000884517,2.459633851947115,-2.459633851947115,-0.8894039511382374,-0.8464778510625979,-0.8723251530402893
105,1.5464304461453222,2.4808011045741427,1.5874468088227593,2.5048948002544904,-2.50489480025449,-0.9584643541091677,-0.9174479914317306,-0.9343706584288203
106,1.5219133032933627,2.5182878720639783,1.5668238596644393,2.5536483264818672,-2.553648326481867,-1.031735023188504,-0.9868244668174275,-0.9963745687706158
107,1.5939560148999234,2.65217305352491,1.550807911114568,2.6047202829999296,-2.6047202829999296,-1.0107642681000062,-1.0539123718853616,-1.0582170386249867
108,1.5705876602266473,2.6903693539182947,1.538810490427604,2.65735313735168,-2.65735313735168,-1.0867654771250326,-1.1185426469240758,-1.1197816936916474
109,1.5490410472422227,2.7299974474495823,1.5303649300029183,2.711442446479853,-2.711442446479853,-1.1624013992376303,-1.1810775164769347,-1.1809564002073594
110,1.5300226342273209,2.7716565878279935,1.5253339350725013,2.7676115358960924,-2.767611535896092,-1.2375889016687711,-1.2422776008235907,-1.2416339536006729
111,1.5140855962683746,2.8157982760375893,1.5240292234609356,2.8271030805446,-2.8271030805446005,-1.3130174842762259,-1.3030738570836649,-1.301712679769215
112,1.5015971254242768,2.8626940699945314,1.5271992910590675,2.891513768275359,-2.891513768275359,-1.3899166428510823,-1.3643144772162916,-1.3610969445702543
113,1.5215225819776974,2.941220151274713,1.535879847928233,2.96243942674631,-2.96243942674631,-1.4409168447686127,-1.4265595788180772,-1.419697569297016
114,1.5838362303078564,3.0612683822901037,1.5511444072118108,3.0411198162198674,-3.0411198162198674,-1.457283585912011,-1.4899754090080566,-1.4774321519822475
115,1.5818768400933187,3.116102136364597,1.5738242420492436,3.1281681171984497,-3.1281681171984506,-1.5462912771051318,-1.554343875149207,-1.5342252962712783
117,1.5828764079277104,3.2275978753354444,1.6042767732996261,3.223443013798814,-3.223443013798813,-1.6405666058711024,-1.6191662404991867,-1.644721467407734
118,1.6121791225531703,3.310488696416173,1.6422672324846543,3.3260818456642696,-3.3260818456642687,-1.7139027231110984,-1.6838146131796143,-1.698309573863003
119,1.6881100093331978,3.438836294683907,1.6869947888602943,3.4346733876853857,-3.434673387685385,-1.7465633783521874,-1.747678598825091,-1.750726285350709
120,1.7245684776042267,3.5265002226432127,1.7372509744891211,3.547517822160234,-3.547517822160235,-1.8229493445560083,-1.810266847671114,-1.8019317450389858
121,1.7986720526563027,3.650564864748837,1.791658194653047,3.662905486993436,-3.662905486993437,-1.8642334343371343,-1.87124729234039,-1.8518928120925344
123,1.9028826826023888,3.8508638692373127,1.8489121726602342,3.77934699977525,-3.77934699977525,-1.8764643171728612,-1.9304348271150158,-1.947981186634924
124,1.9140181064545156,3.9080913719316612,1.9079527025643197,3.8957038019920667,-3.895703801992067,-1.9816856955375515,-1.9877510994277474,-1.9940732654771458
125,1.9232144826881727,3.9620642922962697,1.9680134691173305,4.011196633265584,-4.011196633265584,-2.087982150577411,-2.043183164148253,-2.038849809608097
126,2.0216130636291365,4.103919755031017,2.0285468893311416,4.1253047596100245,-4.125304759610024,-2.103691695980887,-2.096757870278882,-2.0823066914018797
128,2.124620321086736,4.289888490489332,2.089068709186791,4.237602681997489,-4.2376026819974895,-2.1129823609107534,-2.1485339728106982,-2.1652681694025966
129,2.1307299117294467,4.3355164764042495,2.1489995122975416,4.347601449095838,-4.34760144909584,-2.216871537366393,-2.198601936798298,-2.204786564674803
130,2.198761386865542,4.441773516797094,2.207580816333465,4.454658625359759,-4.45465862535976,-2.2558972384942177,-2.247077809026295,-2.2430121299315524
131,2.2380248445350706,4.517985347274477,2.2639097276397004,4.557993016185996,-4.557993016185995,-2.319968171650925,-2.294083288546295,-2.279960502739406
133,2.3392355239454217,4.689337585441081,2.317080507763987,4.656795433465445,-4.6567954334654456,-2.317559909520024,-2.3397149257014584,-2.3501020614956585
134,2.384574260248781,4.767913605857171,2.3663672172763377,4.750381696149107,-4.750381696149108,-2.365807435900327,-2.3840144788727704,-2.38333934560839
135,2.4438248791135697,4.859211875020524,2.4113536796871697,4.838308269538661,-4.838308269538662,-2.3944833904250924,-2.4269545898514924,-2.4153869959069536
137,2.447092700294084,4.923113588948139,2.451929317836604,4.920377394420097,-4.920377394420097,-2.4732846941260127,-2.468448076583493,-2.476020888654055
138,2.449738381031369,4.954402241874829,2.4881168910974973,4.996495574256832,-4.996495574256832,-2.5467571932254627,-2.5083786831593344,-2.5046638608434595
140,2.4942431608187468,5.052993299414084,2.5197585050559494,5.066399757333949,-5.066399757333949,-2.5721565965152022,-2.5466412522779995,-2.558750138595337
141,2.549486301966746,5.133740755987899,2.5461319260333575,5.129306993711003,-5.129306993711004,-2.5798206917442577,-2.5831750676776464,-2.5842544540211527
142,2.550225575195978,5.1589996457681,2.5655829902782505,5.183560702777344,-5.183560702777346,-2.6333351275813675,-2.617977712499095,-2.6087740705721214
144,2.5504632508327725,5.205446515460034,2.575242195843377,5.226338333837803,-5.226338333837802,-2.6758750830050295,-2.651096137994425,-2.6549832646272615
145,2.5503370306281523,5.227071637650589,2.570864536925898,5.253466392274808,-5.253466392274808,-2.7031293616466554,-2.68260185534891,-2.6767346070224365
147,2.550009548951716,5.267692769761767,2.5468187337664974,5.259382073823143,-5.259382073823142,-2.709372524871426,-2.7125633400566445,-2.7176832208100508
148,2.546233973661859,5.283174257115158,2.4962702146347646,5.237298641590225,-5.2372986415902245,-2.6910646679283654,-2.74102842695546,-2.7369402834532996
150,2.379130678460224,5.152296215886006,2.4116398590890005,5.179663375927417,-5.179663375927417,-2.800532697467193,-2.7680235168384164,-2.773165537425782
151,2.320384386886003,5.110574572534443,2.2854407244225254,5.079008500090387,-5.079008500090389,-2.7586241132043856,-2.793567775667863,-2.79019018564844
153,2.100073718624893,4.922273383211085,2.1115532177322818,4.9292467285047294,-4.929246728504728,-2.8291730098798347,-2.817693510772446,-2.8221996645861918
154,1.9854338418588635,4.822670659437053,1.8868720980006846,4.727333802142732,-4.727333802142732,-2.741899960283868,-2.8404617041420472,-2.837236817578189
156,1.6882691506822616,4.553770322607522,1.6130645721653303,4.475029370058593,-4.475029370058593,-2.7867602193763314,-2.8619647978932625,-2.8655011719252608
157,1.463003171894718,4.34177934888886,1.2979869805320323,4.18030223513396,-4.180302235133959,-2.7172990632392406,-2.8823152546019264,-2.878776176994142
159,0.940207589016342,3.8439331754621535,0.9562158905884093,3.8578408134896263,-3.8578408134896263,-2.9176332244732843,-2.9016249229012168,-2.9037255864458116
