frequency,raw,smoothed,error,error_smoothed,equalization,parametric_eq,fixed_band_eq,equalized_raw,equalized_smoothed,target
20.00,-18.69,-18.69,-21.96,-21.96,6.00,6.03,2.57,-12.69,-12.69,3.27
20.20,-18.56,-18.56,-21.87,-21.87,6.00,6.03,2.65,-12.56,-12.56,3.31
20.40,-18.44,-18.43,-21.78,-21.78,6.00,6.03,2.72,-12.44,-12.43,3.34
20.61,-18.31,-18.31,-21.68,-21.69,6.00,6.03,2.80,-12.31,-12.31,3.37
20.81,-18.18,-18.18,-21.59,-21.59,6.00,6.03,2.88,-12.18,-12.18,3.41
21.02,-18.06,-18.06,-21.51,-21.50,6.00,6.03,2.96,-12.06,-12.06,3.45
21.23,-17.94,-17.94,-21.40,-21.41,6.00,6.03,3.04,-11.94,-11.94,3.46
21.44,-17.83,-17.83,-21.31,-21.31,6.00,6.03,3.13,-11.83,-11.83,3.48
21.66,-17.71,-17.71,-21.21,-21.21,6.00,6.03,3.22,-11.71,-11.71,3.50
21.87,-17.60,-17.59,-21.11,-21.10,6.00,6.03,3.31,-11.60,-11.59,3.51
22.09,-17.46,-17.45,-20.99,-20.98,6.00,6.03,3.40,-11.46,-11.45,3.53
22.31,-17.30,-17.30,-20.82,-20.84,6.00,6.03,3.50,-11.30,-11.30,3.53
22.54,-17.15,-17.14,-20.69,-20.68,6.00,6.03,3.60,-11.15,-11.14,3.54
22.76,-16.99,-16.98,-20.53,-20.53,6.00,6.03,3.70,-10.99,-10.98,3.55
22.99,-16.83,-16.84,-20.37,-20.39,6.00,6.03,3.81,-10.83,-10.84,3.55
23.22,-16.72,-16.72,-20.27,-20.28,6.00,6.03,3.91,-10.72,-10.72,3.56
23.45,-16.62,-16.62,-20.18,-20.18,6.00,6.03,4.02,-10.62,-10.62,3.57
23.69,-16.52,-16.52,-20.09,-20.09,6.00,6.03,4.13,-10.52,-10.52,3.57
23.92,-16.41,-16.40,-19.99,-19.99,6.00,6.03,4.25,-10.41,-10.40,3.58
24.16,-16.28,-16.27,-19.87,-19.87,6.00,6.03,4.36,-10.28,-10.27,3.59
24.40,-16.13,-16.13,-19.73,-19.72,6.00,6.03,4.48,-10.13,-10.13,3.60
24.65,-15.98,-15.98,-19.57,-19.57,6.00,6.03,4.60,-9.98,-9.98,3.59
24.89,-15.82,-15.82,-19.41,-19.41,6.00,6.03,4.72,-9.82,-9.82,3.59
25.14,-15.68,-15.67,-19.27,-19.26,6.00,6.03,4.84,-9.68,-9.67,3.59
25.39,-15.53,-15.52,-19.11,-19.11,6.00,6.03,4.97,-9.53,-9.52,3.59
25.65,-15.38,-15.37,-18.97,-18.96,6.00,6.03,5.09,-9.38,-9.37,3.59
25.91,-15.23,-15.24,-18.81,-18.83,6.00,6.03,5.22,-9.23,-9.24,3.58
26.16,-15.13,-15.13,-18.71,-18.71,6.00,6.03,5.34,-9.13,-9.13,3.59
26.43,-15.05,-15.04,-18.63,-18.63,6.00,6.03,5.47,-9.05,-9.04,3.58
26.69,-14.96,-14.96,-18.54,-18.55,6.00,6.03,5.59,-8.96,-8.96,3.58
26.96,-14.88,-14.87,-18.46,-18.45,6.00,6.03,5.71,-8.88,-8.87,3.58
27.23,-14.76,-14.75,-18.34,-18.33,6.00,6.03,5.83,-8.76,-8.75,3.58
27.50,-14.62,-14.62,-18.20,-18.20,6.00,6.03,5.95,-8.62,-8.62,3.58
27.77,-14.48,-14.48,-18.04,-18.05,6.00,6.03,6.07,-8.48,-8.48,3.57
28.05,-14.35,-14.34,-17.91,-17.91,6.00,6.03,6.18,-8.35,-8.34,3.57
28.33,-14.21,-14.21,-17.76,-17.77,6.00,6.03,6.28,-8.21,-8.21,3.55
28.62,-14.08,-14.08,-17.64,-17.64,6.00,6.03,6.39,-8.08,-8.08,3.56
28.90,-13.95,-13.95,-17.51,-17.50,6.00,6.03,6.48,-7.95,-7.95,3.56
29.19,-13.82,-13.82,-17.37,-17.37,6.00,6.03,6.57,-7.82,-7.82,3.55
29.48,-13.69,-13.69,-17.24,-17.24,6.00,6.03,6.65,-7.69,-7.69,3.56
29.78,-13.56,-13.56,-17.12,-17.12,6.00,6.02,6.73,-7.56,-7.56,3.56
30.08,-13.44,-13.44,-16.99,-16.99,6.00,6.02,6.79,-7.44,-7.44,3.55
30.38,-13.31,-13.31,-16.85,-16.86,6.00,6.02,6.85,-7.31,-7.31,3.54
30.68,-13.19,-13.19,-16.73,-16.73,6.00,6.02,6.90,-7.19,-7.19,3.54
30.99,-13.07,-13.07,-16.60,-16.61,6.00,6.02,6.94,-7.07,-7.07,3.53
31.30,-12.97,-12.97,-16.50,-16.50,6.00,6.02,6.97,-6.97,-6.97,3.53
31.61,-12.88,-12.88,-16.40,-16.39,6.00,6.02,6.99,-6.88,-6.88,3.52
31.93,-12.78,-12.77,-16.29,-16.28,6.00,6.02,7.00,-6.78,-6.77,3.51
32.24,-12.65,-12.64,-16.15,-16.15,6.00,6.02,7.01,-6.65,-6.64,3.50
32.57,-12.51,-12.51,-16.01,-16.01,6.00,6.02,7.00,-6.51,-6.51,3.50
32.89,-12.38,-12.38,-15.87,-15.88,6.00,6.02,6.99,-6.38,-6.38,3.49
33.22,-12.27,-12.28,-15.76,-15.77,6.00,6.02,6.97,-6.27,-6.28,3.49
33.55,-12.19,-12.19,-15.68,-15.68,6.00,6.02,6.94,-6.19,-6.19,3.49
33.89,-12.11,-12.09,-15.59,-15.58,6.00,6.02,6.91,-6.11,-6.09,3.49
34.23,-11.99,-11.99,-15.47,-15.47,6.00,6.01,6.87,-5.99,-5.99,3.48
34.57,-11.86,-11.86,-15.33,-15.34,6.00,6.01,6.82,-5.86,-5.86,3.47
34.92,-11.72,-11.71,-15.19,-15.18,6.00,6.01,6.77,-5.72,-5.71,3.47
35.27,-11.55,-11.53,-15.01,-14.99,6.00,6.01,6.72,-5.55,-5.53,3.46
35.62,-11.37,-11.36,-14.82,-14.81,6.00,6.01,6.66,-5.37,-5.36,3.45
35.97,-11.18,-11.23,-14.62,-14.68,6.00,6.01,6.60,-5.18,-5.23,3.45
36.33,-11.16,-11.17,-14.60,-14.61,6.00,6.01,6.54,-5.16,-5.17,3.44
36.70,-11.15,-11.13,-14.59,-14.56,6.00,6.00,6.48,-5.15,-5.13,3.44
37.06,-11.11,-11.07,-14.53,-14.49,6.00,6.00,6.42,-5.11,-5.07,3.42
37.43,-10.93,-10.93,-14.35,-14.35,6.00,6.00,6.36,-4.93,-4.93,3.42
37.81,-10.75,-10.76,-14.16,-14.17,6.00,6.00,6.30,-4.75,-4.76,3.42
38.19,-10.58,-10.58,-13.98,-13.98,6.00,6.00,6.24,-4.58,-4.58,3.40
38.57,-10.43,-10.42,-13.82,-13.82,6.00,6.00,6.19,-4.43,-4.42,3.40
38.95,-10.27,-10.28,-13.66,-13.67,6.00,5.99,6.13,-4.27,-4.28,3.39
39.34,-10.16,-10.16,-13.53,-13.54,6.00,5.99,6.08,-4.16,-4.16,3.38
39.74,-10.06,-10.05,-13.42,-13.42,6.00,5.99,6.03,-4.06,-4.05,3.36
40.14,-9.94,-9.92,-13.30,-13.28,6.00,5.99,5.98,-3.94,-3.92,3.37
40.54,-9.77,-9.77,-13.13,-13.13,6.00,5.99,5.94,-3.77,-3.77,3.36
40.94,-9.59,-9.62,-12.94,-12.97,6.00,5.98,5.90,-3.59,-3.62,3.35
41.35,-9.49,-9.48,-12.83,-12.82,6.00,5.98,5.87,-3.49,-3.48,3.34
41.76,-9.39,-9.38,-12.71,-12.71,6.00,5.98,5.84,-3.39,-3.38,3.32
42.18,-9.30,-9.30,-12.60,-12.61,6.00,5.98,5.81,-3.30,-3.30,3.31
42.60,-9.20,-9.20,-12.48,-12.48,6.00,5.97,5.78,-3.20,-3.20,3.28
43.03,-9.10,-9.06,-12.36,-12.32,6.00,5.97,5.77,-3.10,-3.06,3.26
43.46,-8.90,-8.90,-12.13,-12.13,6.00,5.97,5.75,-2.90,-2.90,3.23
43.90,-8.71,-8.73,-11.90,-11.92,6.00,5.96,5.74,-2.71,-2.73,3.19
44.33,-8.58,-8.58,-11.74,-11.74,6.00,5.96,5.73,-2.58,-2.58,3.16
44.78,-8.48,-8.48,-11.60,-11.61,6.00,5.96,5.73,-2.48,-2.48,3.12
45.23,-8.42,-8.43,-11.51,-11.53,6.00,5.95,5.73,-2.42,-2.43,3.09
45.68,-8.39,-8.38,-11.45,-11.44,6.00,5.95,5.74,-2.39,-2.38,3.06
46.13,-8.32,-8.28,-11.36,-11.33,6.00,5.95,5.75,-2.32,-2.28,3.05
46.60,-8.14,-8.14,-11.18,-11.17,6.00,5.94,5.77,-2.14,-2.14,3.04
47.06,-7.96,-7.98,-10.97,-11.00,6.00,5.94,5.79,-1.96,-1.98,3.02
47.53,-7.83,-7.82,-10.83,-10.83,6.00,5.94,5.81,-1.83,-1.82,3.01
48.01,-7.70,-7.71,-10.70,-10.71,6.00,5.93,5.84,-1.70,-1.71,3.01
48.49,-7.61,-7.61,-10.60,-10.60,6.00,5.93,5.87,-1.61,-1.61,3.00
48.97,-7.52,-7.50,-10.50,-10.48,6.00,5.92,5.90,-1.52,-1.50,2.98
49.46,-7.41,-7.40,-10.38,-10.38,6.00,5.92,5.94,-1.41,-1.40,2.97
49.96,-7.30,-7.32,-10.27,-10.30,6.00,5.92,5.98,-1.30,-1.32,2.97
50.46,-7.29,-7.28,-10.27,-10.26,6.00,5.91,6.02,-1.29,-1.28,2.98
50.96,-7.29,-7.28,-10.27,-10.26,6.00,5.91,6.07,-1.29,-1.28,2.99
51.47,-7.34,-7.33,-10.31,-10.30,6.00,5.90,6.12,-1.34,-1.33,2.97
51.99,-7.39,-7.43,-10.35,-10.39,6.00,5.90,6.16,-1.39,-1.43,2.96
52.51,-7.57,-7.57,-10.51,-10.51,6.00,5.89,6.22,-1.57,-1.57,2.95
53.03,-7.76,-7.71,-10.68,-10.63,6.00,5.89,6.27,-1.76,-1.71,2.92
53.56,-7.88,-7.87,-10.76,-10.76,6.00,5.88,6.32,-1.88,-1.87,2.89
54.10,-8.02,-8.03,-10.86,-10.88,6.00,5.88,6.37,-2.02,-2.03,2.84
54.64,-8.25,-8.26,-11.04,-11.06,6.00,5.87,6.42,-2.25,-2.26,2.80
55.18,-8.56,-8.59,-11.31,-11.34,6.00,5.87,6.47,-2.56,-2.59,2.75
55.74,-9.00,-8.99,-11.70,-11.69,6.00,5.86,6.52,-3.00,-2.99,2.69
56.29,-9.40,-9.38,-12.04,-12.02,6.00,5.86,6.56,-3.40,-3.38,2.64
56.86,-9.72,-9.70,-12.30,-12.28,6.00,5.85,6.60,-3.72,-3.70,2.59
57.42,-9.90,-9.90,-12.42,-12.42,6.00,5.85,6.64,-3.90,-3.90,2.52
58.00,-10.03,-10.01,-12.49,-12.47,6.00,5.84,6.68,-4.03,-4.01,2.46
58.58,-10.03,-10.05,-12.43,-12.45,6.00,5.84,6.70,-4.03,-4.05,2.40
59.16,-10.03,-10.05,-12.38,-12.39,6.00,5.83,6.73,-4.03,-4.05,2.35
59.76,-10.03,-10.01,-12.31,-12.29,6.00,5.83,6.74,-4.03,-4.01,2.29
60.35,-9.95,-9.93,-12.16,-12.16,6.00,5.83,6.75,-3.95,-3.93,2.21
60.96,-9.81,-9.82,-11.97,-11.97,6.00,5.82,6.76,-3.81,-3.82,2.16
61.57,-9.67,-9.68,-11.76,-11.77,6.00,5.82,6.75,-3.67,-3.68,2.09
62.18,-9.53,-9.53,-11.55,-11.56,6.00,5.82,6.74,-3.53,-3.53,2.03
62.80,-9.38,-9.36,-11.36,-11.34,6.00,5.81,6.73,-3.38,-3.36,1.98
63.43,-9.20,-9.19,-11.12,-11.12,6.00,5.81,6.70,-3.20,-3.19,1.93
64.07,-9.01,-9.03,-10.89,-10.91,6.00,5.81,6.67,-3.01,-3.03,1.88
64.71,-8.89,-8.89,-10.72,-10.72,6.00,5.81,6.62,-2.89,-2.89,1.83
65.35,-8.78,-8.77,-10.56,-10.56,6.00,5.81,6.58,-2.78,-2.77,1.79
66.01,-8.66,-8.65,-10.41,-10.40,6.00,5.81,6.52,-2.66,-2.65,1.75
66.67,-8.51,-8.49,-10.22,-10.20,6.00,5.81,6.46,-2.51,-2.49,1.71
67.33,-8.32,-8.31,-10.00,-9.99,6.00,5.81,6.40,-2.32,-2.31,1.68
68.01,-8.11,-8.14,-9.76,-9.79,6.00,5.81,6.33,-2.11,-2.14,1.65
68.69,-8.00,-7.99,-9.62,-9.61,6.00,5.82,6.25,-2.00,-1.99,1.62
69.37,-7.87,-7.85,-9.45,-9.43,6.00,5.82,6.17,-1.87,-1.85,1.59
70.07,-7.73,-7.72,-9.28,-9.28,6.00,5.83,6.08,-1.73,-1.72,1.55
70.77,-7.57,-7.61,-9.11,-9.14,6.00,5.84,6.00,-1.57,-1.61,1.54
71.48,-7.52,-7.52,-9.02,-9.03,6.00,5.85,5.91,-1.52,-1.52,1.50
72.19,-7.47,-7.42,-8.95,-8.90,6.00,5.86,5.82,-1.47,-1.42,1.48
72.91,-7.31,-7.31,-8.75,-8.75,6.00,5.87,5.72,-1.31,-1.31,1.44
73.64,-7.14,-7.15,-8.55,-8.57,6.00,5.88,5.63,-1.14,-1.15,1.42
74.38,-7.00,-7.00,-8.39,-8.39,6.00,5.90,5.54,-1.00,-1.00,1.39
75.12,-6.88,-6.88,-8.23,-8.23,6.00,5.91,5.44,-0.88,-0.88,1.35
75.87,-6.79,-6.77,-8.11,-8.09,6.00,5.93,5.35,-0.79,-0.77,1.32
76.63,-6.67,-6.68,-7.96,-7.97,6.00,5.95,5.26,-0.67,-0.68,1.29
77.40,-6.58,-6.58,-7.85,-7.84,6.00,5.97,5.17,-0.58,-0.58,1.27
78.17,-6.51,-6.49,-7.75,-7.74,6.00,5.99,5.08,-0.51,-0.49,1.24
78.95,-6.39,-6.42,-7.61,-7.65,6.00,6.01,4.99,-0.39,-0.42,1.23
79.74,-6.38,-6.36,-7.59,-7.56,6.00,6.03,4.91,-0.38,-0.36,1.21
80.54,-6.30,-6.30,-7.49,-7.49,6.00,6.06,4.82,-0.30,-0.30,1.19
81.35,-6.20,-6.20,-7.37,-7.37,6.00,6.08,4.74,-0.20,-0.20,1.17
82.16,-6.09,-6.05,-7.25,-7.22,6.00,6.10,4.67,-0.09,-0.05,1.17
82.98,-5.83,-5.87,-7.00,-7.04,6.00,6.12,4.59,0.17,0.13,1.17
83.81,-5.72,-5.70,-6.88,-6.86,6.00,6.14,4.52,0.28,0.30,1.16
84.65,-5.55,-5.56,-6.70,-6.73,6.00,6.15,4.45,0.45,0.44,1.16
85.50,-5.47,-5.51,-6.64,-6.67,6.00,6.16,4.39,0.53,0.49,1.17
86.35,-5.47,-5.43,-6.64,-6.60,6.00,6.16,4.32,0.53,0.57,1.17
87.22,-5.42,-5.38,-6.59,-6.55,6.00,6.16,4.26,0.58,0.62,1.17
88.09,-5.24,-5.30,-6.41,-6.48,6.01,6.15,4.21,0.77,0.71,1.17
88.97,-5.24,-5.19,-6.42,-6.37,6.02,6.13,4.15,0.78,0.83,1.19
89.86,-5.09,-5.10,-6.27,-6.29,6.02,6.11,4.10,0.93,0.91,1.19
90.76,-5.02,-5.05,-6.19,-6.23,6.01,6.07,4.06,0.99,0.96,1.17
91.66,-5.01,-4.97,-6.19,-6.15,6.00,6.03,4.01,0.99,1.02,1.18
92.58,-4.93,-4.92,-6.09,-6.09,5.97,5.97,3.97,1.04,1.05,1.16
93.51,-4.83,-4.86,-5.99,-6.02,5.93,5.90,3.93,1.10,1.08,1.16
94.44,-4.78,-4.76,-5.93,-5.90,5.88,5.83,3.90,1.11,1.13,1.15
95.39,-4.69,-4.67,-5.82,-5.80,5.82,5.75,3.87,1.14,1.16,1.14
96.34,-4.56,-4.61,-5.66,-5.71,5.75,5.65,3.84,1.19,1.15,1.10
97.30,-4.56,-4.57,-5.64,-5.65,5.67,5.55,3.81,1.11,1.10,1.09
98.28,-4.56,-4.52,-5.62,-5.58,5.59,5.45,3.79,1.03,1.07,1.06
99.26,-4.50,-4.46,-5.53,-5.50,5.49,5.33,3.77,0.99,1.03,1.03
100.25,-4.33,-4.40,-5.34,-5.40,5.39,5.22,3.75,1.06,0.99,1.01
101.25,-4.33,-4.32,-5.30,-5.30,5.29,5.10,3.73,0.96,0.97,0.97
102.27,-4.30,-4.25,-5.23,-5.19,5.18,4.98,3.71,0.88,0.93,0.94
103.29,-4.18,-4.20,-5.07,-5.10,5.07,4.85,3.70,0.89,0.87,0.89
104.32,-4.10,-4.10,-4.95,-4.96,4.95,4.73,3.68,0.85,0.85,0.85
105.37,-4.04,-4.00,-4.85,-4.81,4.84,4.61,3.67,0.80,0.83,0.81
106.42,-3.91,-3.93,-4.66,-4.68,4.73,4.48,3.66,0.82,0.79,0.75
107.48,-3.87,-3.88,-4.55,-4.57,4.61,4.36,3.65,0.74,0.73,0.69
108.56,-3.87,-3.88,-4.48,-4.49,4.49,4.24,3.64,0.62,0.61,0.61
109.64,-3.87,-3.86,-4.41,-4.40,4.36,4.12,3.63,0.50,0.51,0.54
110.74,-3.87,-3.80,-4.34,-4.28,4.23,4.00,3.62,0.37,0.43,0.48
111.85,-3.67,-3.74,-4.08,-4.15,4.10,3.89,3.61,0.44,0.36,0.41
112.97,-3.64,-3.64,-3.96,-3.97,3.97,3.78,3.60,0.33,0.33,0.33
114.10,-3.60,-3.54,-3.86,-3.79,3.82,3.67,3.59,0.22,0.28,0.26
115.24,-3.42,-3.49,-3.60,-3.68,3.67,3.56,3.57,0.25,0.18,0.19
116.39,-3.42,-3.41,-3.53,-3.53,3.53,3.46,3.56,0.11,0.11,0.11
117.55,-3.40,-3.33,-3.44,-3.38,3.40,3.36,3.54,0.00,0.07,0.05
118.73,-3.24,-3.28,-3.22,-3.26,3.29,3.26,3.52,0.05,0.02,-0.02
119.92,-3.19,-3.21,-3.13,-3.14,3.20,3.16,3.50,0.01,-0.01,-0.06
121.12,-3.19,-3.18,-3.08,-3.06,3.12,3.07,3.48,-0.07,-0.06,-0.11
122.33,-3.19,-3.20,-3.03,-3.05,3.03,2.98,3.45,-0.15,-0.16,-0.15
123.55,-3.19,-3.19,-3.01,-3.00,2.95,2.89,3.42,-0.24,-0.23,-0.18
124.79,-3.19,-3.14,-2.97,-2.93,2.87,2.80,3.39,-0.32,-0.27,-0.22
126.03,-3.04,-3.08,-2.79,-2.84,2.78,2.72,3.36,-0.25,-0.30,-0.25
127.29,-2.99,-2.98,-2.71,-2.70,2.69,2.64,3.32,-0.30,-0.29,-0.28
128.57,-2.91,-2.87,-2.59,-2.55,2.59,2.56,3.28,-0.32,-0.28,-0.32
129.85,-2.75,-2.81,-2.40,-2.46,2.48,2.48,3.24,-0.26,-0.32,-0.35
131.15,-2.73,-2.74,-2.35,-2.36,2.37,2.41,3.19,-0.35,-0.36,-0.37
132.46,-2.73,-2.66,-2.32,-2.25,2.27,2.34,3.14,-0.46,-0.40,-0.41
133.79,-2.59,-2.61,-2.15,-2.16,2.16,2.26,3.09,-0.43,-0.44,-0.44
135.12,-2.51,-2.55,-2.02,-2.08,2.07,2.20,3.04,-0.44,-0.49,-0.48
136.48,-2.51,-2.50,-2.00,-1.99,1.98,2.13,2.98,-0.53,-0.52,-0.51
137.84,-2.51,-2.46,-1.96,-1.90,1.90,2.06,2.92,-0.61,-0.56,-0.54
139.22,-2.39,-2.39,-1.79,-1.80,1.81,2.00,2.87,-0.58,-0.58,-0.60
140.61,-2.29,-2.32,-1.65,-1.69,1.72,1.94,2.80,-0.57,-0.60,-0.64
142.02,-2.28,-2.29,-1.62,-1.62,1.63,1.88,2.74,-0.64,-0.65,-0.66
143.44,-2.28,-2.27,-1.57,-1.56,1.54,1.82,2.68,-0.73,-0.72,-0.70
144.87,-2.28,-2.22,-1.53,-1.48,1.45,1.76,2.62,-0.83,-0.77,-0.74
146.32,-2.13,-2.15,-1.33,-1.36,1.35,1.71,2.55,-0.78,-0.80,-0.79
147.78,-2.05,-2.08,-1.22,-1.24,1.24,1.66,2.48,-0.81,-0.84,-0.83
149.26,-2.05,-2.05,-1.15,-1.15,1.13,1.60,2.42,-0.92,-0.92,-0.90
150.75,-2.05,-2.03,-1.07,-1.06,1.02,1.55,2.35,-1.03,-1.01,-0.98
152.26,-2.04,-1.98,-0.99,-0.93,0.91,1.51,2.29,-1.12,-1.06,-1.04
153.78,-1.89,-1.94,-0.77,-0.81,0.82,1.46,2.22,-1.06,-1.12,-1.12
155.32,-1.88,-1.93,-0.66,-0.73,0.77,1.41,2.16,-1.11,-1.17,-1.21
156.88,-2.03,-1.96,-0.74,-0.67,0.75,1.37,2.09,-1.28,-1.21,-1.29
158.44,-2.05,-2.04,-0.69,-0.68,0.75,1.32,2.03,-1.29,-1.29,-1.36
160.03,-2.11,-2.13,-0.67,-0.70,0.78,1.28,1.96,-1.33,-1.36,-1.43
161.63,-2.25,-2.27,-0.75,-0.78,0.81,1.24,1.90,-1.44,-1.47,-1.49
163.24,-2.44,-2.46,-0.89,-0.92,0.85,1.20,1.84,-1.59,-1.61,-1.54
164.88,-2.67,-2.60,-1.08,-1.01,0.89,1.16,1.78,-1.78,-1.71,-1.58
166.53,-2.68,-2.64,-1.05,-1.02,0.92,1.12,1.71,-1.76,-1.73,-1.62
168.19,-2.58,-2.61,-0.93,-0.96,0.94,1.08,1.65,-1.64,-1.67,-1.65
169.87,-2.51,-2.54,-0.84,-0.87,0.93,1.05,1.60,-1.58,-1.61,-1.67
171.57,-2.51,-2.50,-0.83,-0.83,0.90,1.01,1.54,-1.61,-1.60,-1.68
173.29,-2.51,-2.52,-0.83,-0.85,0.86,0.98,1.48,-1.65,-1.66,-1.67
175.02,-2.51,-2.50,-0.85,-0.84,0.81,0.95,1.43,-1.70,-1.69,-1.66
176.77,-2.51,-2.45,-0.84,-0.79,0.77,0.92,1.37,-1.74,-1.68,-1.66
178.54,-2.33,-2.37,-0.67,-0.72,0.73,0.88,1.32,-1.60,-1.64,-1.66
180.32,-2.28,-2.30,-0.63,-0.65,0.69,0.85,1.26,-1.59,-1.62,-1.65
182.13,-2.28,-2.28,-0.63,-0.63,0.64,0.83,1.21,-1.63,-1.63,-1.64
183.95,-2.28,-2.27,-0.63,-0.62,0.59,0.80,1.16,-1.69,-1.68,-1.65
185.79,-2.28,-2.22,-0.62,-0.56,0.53,0.77,1.11,-1.75,-1.69,-1.66
187.65,-2.11,-2.14,-0.43,-0.47,0.47,0.74,1.06,-1.64,-1.68,-1.68
189.52,-2.05,-2.09,-0.35,-0.39,0.40,0.72,1.01,-1.65,-1.69,-1.70
191.42,-2.05,-2.04,-0.33,-0.32,0.33,0.69,0.97,-1.72,-1.71,-1.72
193.33,-2.05,-2.01,-0.31,-0.28,0.26,0.67,0.92,-1.79,-1.75,-1.74
195.27,-1.95,-1.95,-0.20,-0.20,0.19,0.65,0.87,-1.76,-1.76,-1.74
197.22,-1.85,-1.88,-0.09,-0.11,0.12,0.62,0.83,-1.73,-1.76,-1.76
199.19,-1.82,-1.82,-0.02,-0.04,0.06,0.60,0.78,-1.76,-1.76,-1.80
201.18,-1.82,-1.81,-0.01,-0.00,0.01,0.58,0.74,-1.80,-1.79,-1.81
203.19,-1.82,-1.81,0.00,0.01,-0.02,0.56,0.70,-1.84,-1.83,-1.82
205.23,-1.82,-1.82,0.03,0.02,-0.04,0.54,0.66,-1.86,-1.86,-1.85
207.28,-1.82,-1.80,0.03,0.06,-0.04,0.52,0.62,-1.86,-1.84,-1.85
209.35,-1.82,-1.82,0.06,0.06,-0.03,0.50,0.58,-1.84,-1.84,-1.88
211.44,-1.82,-1.87,0.08,0.02,0.01,0.48,0.54,-1.81,-1.87,-1.90
213.56,-1.98,-1.94,-0.07,-0.03,0.05,0.47,0.50,-1.93,-1.89,-1.90
215.69,-2.05,-2.01,-0.14,-0.10,0.10,0.45,0.46,-1.95,-1.91,-1.91
217.85,-2.05,-2.09,-0.12,-0.16,0.15,0.43,0.43,-1.90,-1.94,-1.93
220.03,-2.14,-2.15,-0.20,-0.20,0.21,0.42,0.39,-1.93,-1.94,-1.94
222.23,-2.24,-2.21,-0.27,-0.26,0.25,0.40,0.36,-1.98,-1.96,-1.96
224.45,-2.28,-2.27,-0.31,-0.30,0.28,0.39,0.32,-2.00,-1.99,-1.97
226.70,-2.28,-2.29,-0.31,-0.32,0.28,0.37,0.29,-2.00,-2.01,-1.97
228.96,-2.28,-2.30,-0.30,-0.32,0.26,0.36,0.26,-2.01,-2.03,-1.98
231.25,-2.28,-2.26,-0.30,-0.28,0.24,0.34,0.23,-2.04,-2.02,-1.98
233.57,-2.25,-2.19,-0.26,-0.20,0.20,0.33,0.20,-2.05,-1.99,-1.99
235.90,-2.06,-2.12,-0.06,-0.12,0.16,0.32,0.17,-1.90,-1.96,-2.00
238.26,-2.05,-2.06,-0.05,-0.06,0.12,0.31,0.14,-1.93,-1.94,-2.00
240.64,-2.05,-2.03,-0.05,-0.04,0.09,0.29,0.11,-1.96,-1.94,-2.00
243.05,-2.05,-2.05,-0.06,-0.06,0.06,0.28,0.09,-1.98,-1.98,-1.99
245.48,-2.05,-2.05,-0.06,-0.07,0.05,0.27,0.06,-2.00,-2.00,-1.98
247.93,-2.05,-2.05,-0.08,-0.07,0.04,0.26,0.04,-2.01,-2.01,-1.97
250.41,-2.05,-2.05,-0.07,-0.08,0.05,0.25,0.01,-2.00,-2.00,-1.98
252.92,-2.05,-2.05,-0.08,-0.09,0.07,0.24,-0.01,-1.98,-1.98,-1.97
255.45,-2.05,-2.05,-0.10,-0.09,0.10,0.23,-0.03,-1.95,-1.95,-1.94
258.00,-2.05,-2.03,-0.11,-0.09,0.13,0.22,-0.05,-1.91,-1.90,-1.94
260.58,-2.05,-2.06,-0.11,-0.13,0.17,0.21,-0.07,-1.87,-1.89,-1.94
263.19,-2.07,-2.12,-0.14,-0.19,0.22,0.20,-0.09,-1.85,-1.90,-1.92
265.82,-2.25,-2.20,-0.33,-0.28,0.26,0.19,-0.11,-1.98,-1.93,-1.92
268.48,-2.28,-2.26,-0.38,-0.36,0.32,0.18,-0.13,-1.96,-1.95,-1.90
271.16,-2.28,-2.29,-0.39,-0.41,0.37,0.17,-0.15,-1.91,-1.92,-1.88
273.87,-2.28,-2.28,-0.41,-0.42,0.43,0.16,-0.17,-1.85,-1.85,-1.87
276.61,-2.28,-2.28,-0.44,-0.44,0.48,0.15,-0.18,-1.80,-1.80,-1.83
279.38,-2.28,-2.28,-0.46,-0.46,0.50,0.15,-0.20,-1.78,-1.78,-1.82
282.17,-2.28,-2.29,-0.48,-0.49,0.50,0.14,-0.22,-1.78,-1.79,-1.79
284.99,-2.28,-2.30,-0.51,-0.53,0.47,0.13,-0.23,-1.81,-1.83,-1.77
287.84,-2.28,-2.25,-0.53,-0.51,0.42,0.12,-0.25,-1.86,-1.83,-1.74
290.72,-2.20,-2.15,-0.49,-0.44,0.36,0.11,-0.26,-1.84,-1.79,-1.71
293.63,-1.95,-1.99,-0.26,-0.31,0.29,0.11,-0.28,-1.65,-1.70,-1.68
296.57,-1.83,-1.81,-0.17,-0.15,0.22,0.10,-0.29,-1.61,-1.59,-1.66
299.53,-1.65,-1.67,-0.02,-0.04,0.13,0.09,-0.31,-1.51,-1.54,-1.63
302.53,-1.59,-1.62,0.03,-0.01,0.05,0.09,-0.32,-1.53,-1.56,-1.62
305.55,-1.59,-1.55,-0.01,0.03,-0.02,0.08,-0.34,-1.60,-1.57,-1.58
308.61,-1.54,-1.50,0.03,0.06,-0.08,0.07,-0.36,-1.61,-1.57,-1.56
311.69,-1.39,-1.43,0.16,0.11,-0.13,0.07,-0.37,-1.52,-1.56,-1.55
314.81,-1.37,-1.39,0.15,0.14,-0.17,0.06,-0.39,-1.54,-1.56,-1.52
317.96,-1.37,-1.35,0.16,0.18,-0.21,0.05,-0.40,-1.58,-1.56,-1.52
321.14,-1.36,-1.30,0.17,0.22,-0.25,0.05,-0.42,-1.60,-1.55,-1.53
324.35,-1.19,-1.23,0.33,0.29,-0.28,0.04,-0.44,-1.47,-1.51,-1.52
327.59,-1.14,-1.16,0.37,0.35,-0.31,0.03,-0.45,-1.45,-1.47,-1.51
330.87,-1.14,-1.12,0.37,0.38,-0.33,0.03,-0.47,-1.47,-1.45,-1.51
334.18,-1.14,-1.13,0.36,0.36,-0.34,0.02,-0.49,-1.47,-1.47,-1.50
337.52,-1.14,-1.14,0.35,0.35,-0.34,0.01,-0.51,-1.48,-1.48,-1.49
340.90,-1.14,-1.14,0.33,0.33,-0.34,0.01,-0.53,-1.48,-1.48,-1.46
344.30,-1.14,-1.15,0.32,0.31,-0.35,-0.00,-0.55,-1.48,-1.49,-1.46
347.75,-1.14,-1.14,0.30,0.29,-0.35,-0.01,-0.57,-1.49,-1.49,-1.44
351.23,-1.14,-1.10,0.27,0.31,-0.35,-0.01,-0.59,-1.49,-1.46,-1.41
354.74,-1.04,-1.03,0.35,0.36,-0.36,-0.02,-0.61,-1.40,-1.40,-1.39
358.28,-0.93,-0.96,0.44,0.40,-0.37,-0.03,-0.63,-1.30,-1.33,-1.36
361.87,-0.91,-0.91,0.44,0.43,-0.37,-0.03,-0.65,-1.28,-1.28,-1.35
365.49,-0.91,-0.90,0.41,0.42,-0.37,-0.04,-0.68,-1.28,-1.27,-1.32
369.14,-0.91,-0.91,0.39,0.39,-0.37,-0.05,-0.70,-1.28,-1.28,-1.30
372.83,-0.91,-0.91,0.36,0.37,-0.38,-0.06,-0.72,-1.29,-1.29,-1.27
376.56,-0.91,-0.92,0.35,0.33,-0.38,-0.06,-0.75,-1.29,-1.30,-1.25
380.33,-0.91,-0.91,0.32,0.32,-0.38,-0.07,-0.77,-1.29,-1.29,-1.23
384.13,-0.91,-0.86,0.30,0.36,-0.39,-0.08,-0.80,-1.30,-1.24,-1.21
387.97,-0.76,-0.78,0.44,0.41,-0.40,-0.09,-0.82,-1.16,-1.18,-1.20
391.85,-0.69,-0.71,0.50,0.47,-0.42,-0.09,-0.85,-1.11,-1.14,-1.19
395.77,-0.68,-0.67,0.50,0.51,-0.45,-0.10,-0.88,-1.13,-1.12,-1.18
399.73,-0.68,-0.68,0.50,0.49,-0.48,-0.11,-0.90,-1.16,-1.17,-1.17
403.72,-0.68,-0.68,0.49,0.49,-0.52,-0.12,-0.93,-1.20,-1.20,-1.16
407.76,-0.68,-0.63,0.48,0.52,-0.56,-0.13,-0.96,-1.24,-1.19,-1.16
411.84,-0.55,-0.56,0.60,0.58,-0.60,-0.14,-0.98,-1.15,-1.17,-1.15
415.96,-0.46,-0.50,0.68,0.64,-0.64,-0.15,-1.01,-1.10,-1.15,-1.14
420.12,-0.45,-0.44,0.69,0.70,-0.69,-0.16,-1.04,-1.14,-1.13,-1.14
424.32,-0.43,-0.38,0.71,0.76,-0.75,-0.17,-1.06,-1.18,-1.12,-1.14
428.56,-0.29,-0.31,0.85,0.83,-0.81,-0.18,-1.09,-1.10,-1.13,-1.14
