frequency,raw,smoothed,error,error_smoothed,equalization,parametric_eq,fixed_band_eq,equalized_raw,equalized_smoothed,target
20.00,-3.87,-3.88,-5.71,-5.72,5.68,5.81,1.33,1.81,1.80,1.84
20.20,-3.78,-3.78,-5.65,-5.65,5.64,5.75,1.37,1.86,1.86,1.87
20.40,-3.69,-3.68,-5.59,-5.58,5.59,5.68,1.41,1.90,1.91,1.90
20.61,-3.59,-3.59,-5.51,-5.51,5.54,5.62,1.45,1.95,1.95,1.92
20.81,-3.50,-3.50,-5.45,-5.45,5.48,5.56,1.50,1.98,1.98,1.95
21.02,-3.41,-3.42,-5.39,-5.39,5.43,5.49,1.55,2.02,2.01,1.98
21.23,-3.36,-3.36,-5.35,-5.35,5.37,5.43,1.59,2.01,2.01,1.99
21.44,-3.31,-3.30,-5.31,-5.30,5.30,5.36,1.64,2.00,2.00,2.00
21.66,-3.25,-3.26,-5.26,-5.26,5.25,5.30,1.69,1.99,1.99,2.01
21.87,-3.20,-3.19,-5.21,-5.21,5.18,5.23,1.75,1.98,1.98,2.01
22.09,-3.13,-3.12,-5.15,-5.14,5.11,5.17,1.80,1.98,1.99,2.02
22.31,-3.03,-3.04,-5.04,-5.05,5.03,5.10,1.85,2.00,2.00,2.02
22.54,-2.94,-2.93,-4.96,-4.95,4.95,5.03,1.91,2.01,2.02,2.01
22.76,-2.84,-2.84,-4.85,-4.85,4.87,4.96,1.97,2.04,2.04,2.01
22.99,-2.74,-2.75,-4.74,-4.76,4.80,4.90,2.03,2.06,2.04,2.00
23.22,-2.69,-2.68,-4.69,-4.69,4.72,4.83,2.09,2.03,2.04,2.00
23.45,-2.63,-2.63,-4.63,-4.63,4.64,4.76,2.15,2.01,2.01,2.00
23.69,-2.58,-2.58,-4.58,-4.59,4.57,4.69,2.21,1.99,1.98,2.00
23.92,-2.53,-2.52,-4.53,-4.52,4.49,4.62,2.28,1.96,1.97,2.00
24.16,-2.44,-2.44,-4.45,-4.45,4.41,4.55,2.34,1.97,1.97,2.01
24.40,-2.34,-2.34,-4.35,-4.35,4.33,4.47,2.41,1.99,1.99,2.01
24.65,-2.24,-2.24,-4.24,-4.24,4.24,4.40,2.47,2.00,2.01,2.00
24.89,-2.13,-2.14,-4.13,-4.14,4.15,4.33,2.54,2.02,2.02,2.00
25.14,-2.05,-2.05,-4.05,-4.05,4.07,4.25,2.61,2.02,2.01,2.00
25.39,-1.98,-1.98,-3.97,-3.97,3.98,4.18,2.68,2.00,2.01,2.00
25.65,-1.91,-1.91,-3.90,-3.90,3.91,4.11,2.74,2.00,2.00,1.99
25.91,-1.85,-1.85,-3.83,-3.84,3.85,4.03,2.81,2.00,2.00,1.98
26.16,-1.79,-1.80,-3.77,-3.78,3.79,3.96,2.88,2.00,1.99,1.98
26.43,-1.75,-1.75,-3.73,-3.73,3.73,3.88,2.94,1.98,1.98,1.98
26.69,-1.71,-1.71,-3.69,-3.69,3.68,3.80,3.01,1.97,1.97,1.98
26.96,-1.67,-1.66,-3.65,-3.64,3.62,3.73,3.07,1.95,1.95,1.98
27.23,-1.60,-1.60,-3.58,-3.57,3.55,3.65,3.13,1.95,1.96,1.98
27.50,-1.52,-1.52,-3.50,-3.50,3.49,3.57,3.19,1.97,1.96,1.98
27.77,-1.44,-1.44,-3.40,-3.41,3.42,3.50,3.24,1.98,1.97,1.96
28.05,-1.37,-1.37,-3.33,-3.33,3.34,3.42,3.29,1.97,1.97,1.96
28.33,-1.30,-1.30,-3.25,-3.25,3.26,3.34,3.34,1.97,1.97,1.95
28.62,-1.23,-1.23,-3.18,-3.18,3.19,3.26,3.38,1.96,1.96,1.95
28.90,-1.16,-1.16,-3.11,-3.11,3.11,3.18,3.42,1.95,1.95,1.95
29.19,-1.10,-1.10,-3.04,-3.04,3.04,3.10,3.46,1.94,1.94,1.94
29.48,-1.03,-1.03,-2.97,-2.97,2.96,3.02,3.48,1.93,1.93,1.94
29.78,-0.96,-0.96,-2.89,-2.90,2.89,2.94,3.51,1.93,1.93,1.93
30.08,-0.89,-0.89,-2.82,-2.82,2.82,2.86,3.52,1.93,1.93,1.93
30.38,-0.82,-0.82,-2.74,-2.74,2.74,2.78,3.53,1.92,1.92,1.92
30.68,-0.75,-0.75,-2.67,-2.66,2.67,2.69,3.53,1.92,1.92,1.92
30.99,-0.68,-0.68,-2.59,-2.59,2.59,2.61,3.53,1.91,1.91,1.91
31.30,-0.61,-0.62,-2.51,-2.52,2.52,2.53,3.51,1.91,1.90,1.90
31.61,-0.55,-0.55,-2.45,-2.44,2.44,2.45,3.50,1.89,1.89,1.90
31.93,-0.48,-0.48,-2.37,-2.37,2.36,2.37,3.47,1.88,1.88,1.89
32.24,-0.40,-0.40,-2.27,-2.28,2.28,2.28,3.44,1.88,1.88,1.88
32.57,-0.33,-0.33,-2.20,-2.20,2.20,2.20,3.40,1.87,1.87,1.87
32.89,-0.25,-0.25,-2.12,-2.12,2.12,2.12,3.35,1.87,1.87,1.87
33.22,-0.18,-0.18,-2.04,-2.04,2.04,2.03,3.30,1.86,1.87,1.86
33.55,-0.10,-0.10,-1.95,-1.95,1.96,1.95,3.24,1.87,1.86,1.86
33.89,-0.03,-0.03,-1.87,-1.88,1.88,1.87,3.18,1.85,1.85,1.84
34.23,0.04,0.03,-1.80,-1.80,1.80,1.78,3.11,1.84,1.83,1.84
34.57,0.09,0.09,-1.74,-1.74,1.71,1.70,3.03,1.80,1.80,1.83
34.92,0.15,0.16,-1.66,-1.66,1.63,1.62,2.96,1.78,1.79,1.81
35.27,0.24,0.25,-1.57,-1.56,1.56,1.53,2.87,1.80,1.81,1.81
35.62,0.34,0.34,-1.46,-1.46,1.49,1.45,2.79,1.83,1.83,1.80
35.97,0.44,0.41,-1.34,-1.37,1.42,1.37,2.70,1.86,1.84,1.78
36.33,0.45,0.45,-1.33,-1.33,1.36,1.28,2.60,1.81,1.80,1.78
36.70,0.46,0.47,-1.31,-1.30,1.28,1.20,2.51,1.74,1.75,1.77
37.06,0.47,0.49,-1.28,-1.26,1.21,1.12,2.41,1.68,1.71,1.75
37.43,0.56,0.55,-1.19,-1.19,1.14,1.04,2.31,1.70,1.69,1.75
37.81,0.64,0.63,-1.09,-1.10,1.07,0.95,2.21,1.71,1.71,1.73
38.19,0.72,0.73,-1.00,-0.99,1.01,0.87,2.11,1.73,1.74,1.72
38.57,0.81,0.81,-0.90,-0.90,0.94,0.79,2.01,1.75,1.75,1.71
38.95,0.90,0.87,-0.80,-0.82,0.86,0.71,1.90,1.76,1.74,1.70
39.34,0.91,0.90,-0.77,-0.78,0.79,0.63,1.80,1.70,1.69,1.68
39.74,0.91,0.92,-0.76,-0.75,0.73,0.55,1.70,1.64,1.65,1.67
40.14,0.94,0.96,-0.72,-0.70,0.67,0.47,1.59,1.61,1.64,1.66
40.54,1.03,1.03,-0.62,-0.62,0.62,0.39,1.49,1.65,1.66,1.65
40.94,1.13,1.09,-0.51,-0.54,0.57,0.32,1.39,1.70,1.67,1.64
41.35,1.14,1.13,-0.49,-0.50,0.51,0.24,1.28,1.65,1.64,1.63
41.76,1.14,1.16,-0.48,-0.46,0.44,0.16,1.18,1.58,1.60,1.62
42.18,1.18,1.20,-0.43,-0.41,0.36,0.09,1.08,1.54,1.55,1.61
42.60,1.28,1.27,-0.31,-0.33,0.28,0.01,0.97,1.56,1.55,1.60
43.03,1.38,1.38,-0.21,-0.20,0.20,-0.06,0.87,1.58,1.58,1.59
43.46,1.48,1.49,-0.09,-0.08,0.12,-0.13,0.77,1.60,1.61,1.57
43.90,1.58,1.56,0.03,0.01,0.05,-0.20,0.67,1.63,1.61,1.54
44.33,1.60,1.60,0.07,0.07,-0.02,-0.28,0.57,1.58,1.57,1.53
44.78,1.60,1.61,0.09,0.10,-0.09,-0.34,0.47,1.51,1.52,1.51
45.23,1.61,1.61,0.12,0.12,-0.15,-0.41,0.37,1.46,1.46,1.49
45.68,1.64,1.64,0.17,0.17,-0.21,-0.48,0.27,1.43,1.44,1.47
46.13,1.68,1.69,0.23,0.24,-0.26,-0.54,0.17,1.42,1.44,1.45
46.60,1.76,1.75,0.32,0.32,-0.31,-0.61,0.07,1.44,1.44,1.44
47.06,1.82,1.80,0.40,0.38,-0.38,-0.67,-0.03,1.44,1.42,1.42
47.53,1.85,1.85,0.45,0.44,-0.45,-0.73,-0.12,1.40,1.40,1.40
48.01,1.87,1.90,0.48,0.51,-0.52,-0.79,-0.22,1.35,1.38,1.39
48.49,1.96,1.96,0.60,0.60,-0.59,-0.85,-0.31,1.37,1.37,1.36
48.97,2.05,2.02,0.72,0.68,-0.66,-0.90,-0.41,1.39,1.36,1.33
49.46,2.05,2.05,0.75,0.75,-0.73,-0.96,-0.50,1.32,1.33,1.30
49.96,2.05,2.06,0.78,0.78,-0.79,-1.01,-0.60,1.26,1.26,1.27
50.46,2.07,2.07,0.81,0.82,-0.86,-1.06,-0.69,1.21,1.21,1.26
50.96,2.10,2.12,0.87,0.90,-0.92,-1.11,-0.78,1.18,1.21,1.23
51.47,2.19,2.19,0.99,0.99,-0.97,-1.16,-0.87,1.22,1.22,1.20
51.99,2.28,2.25,1.10,1.07,-1.03,-1.20,-0.96,1.25,1.22,1.18
52.51,2.28,2.28,1.12,1.12,-1.09,-1.25,-1.05,1.19,1.19,1.16
53.03,2.28,2.28,1.14,1.14,-1.16,-1.29,-1.14,1.12,1.12,1.14
53.56,2.28,2.29,1.17,1.17,-1.23,-1.33,-1.22,1.05,1.06,1.11
54.10,2.30,2.34,1.21,1.25,-1.30,-1.36,-1.30,1.00,1.05,1.09
54.64,2.43,2.41,1.37,1.35,-1.35,-1.40,-1.39,1.08,1.06,1.06
55.18,2.51,2.48,1.47,1.44,-1.40,-1.44,-1.46,1.11,1.08,1.04
55.74,2.51,2.52,1.50,1.51,-1.45,-1.47,-1.54,1.06,1.07,1.01
56.29,2.51,2.52,1.52,1.53,-1.49,-1.50,-1.61,1.02,1.02,0.99
56.86,2.51,2.51,1.55,1.55,-1.54,-1.53,-1.68,0.97,0.97,0.96
57.42,2.51,2.51,1.58,1.57,-1.59,-1.56,-1.75,0.92,0.92,0.93
58.00,2.51,2.50,1.59,1.59,-1.64,-1.58,-1.82,0.87,0.86,0.92
58.58,2.51,2.52,1.61,1.63,-1.68,-1.61,-1.88,0.83,0.84,0.90
59.16,2.55,2.58,1.68,1.71,-1.73,-1.63,-1.93,0.82,0.85,0.87
59.76,2.68,2.65,1.83,1.80,-1.79,-1.65,-1.99,0.89,0.86,0.85
60.35,2.73,2.71,1.91,1.89,-1.85,-1.67,-2.04,0.88,0.86,0.82
60.96,2.74,2.75,1.94,1.95,-1.91,-1.69,-2.08,0.83,0.83,0.80
61.57,2.74,2.74,1.98,1.98,-1.97,-1.70,-2.12,0.77,0.78,0.76
62.18,2.74,2.74,2.02,2.01,-2.02,-1.72,-2.16,0.72,0.73,0.72
62.80,2.74,2.74,2.04,2.05,-2.05,-1.73,-2.19,0.69,0.69,0.70
63.43,2.74,2.74,2.08,2.07,-2.08,-1.74,-2.22,0.66,0.66,0.66
64.07,2.74,2.74,2.10,2.10,-2.11,-1.76,-2.24,0.63,0.63,0.64
64.71,2.74,2.74,2.13,2.13,-2.13,-1.77,-2.26,0.61,0.61,0.61
65.35,2.74,2.74,2.16,2.16,-2.16,-1.77,-2.28,0.58,0.58,0.58
66.01,2.74,2.74,2.19,2.19,-2.19,-1.78,-2.29,0.55,0.55,0.55
66.67,2.74,2.74,2.21,2.21,-2.23,-1.79,-2.30,0.51,0.51,0.53
67.33,2.74,2.74,2.24,2.24,-2.26,-1.80,-2.31,0.48,0.48,0.50
68.01,2.74,2.74,2.27,2.27,-2.29,-1.80,-2.31,0.45,0.45,0.47
68.69,2.74,2.74,2.31,2.31,-2.31,-1.81,-2.31,0.43,0.43,0.43
69.37,2.74,2.75,2.34,2.35,-2.32,-1.81,-2.31,0.42,0.43,0.40
70.07,2.74,2.75,2.37,2.37,-2.33,-1.82,-2.31,0.41,0.41,0.37
70.77,2.74,2.70,2.39,2.36,-2.33,-1.82,-2.30,0.41,0.36,0.35
71.48,2.63,2.63,2.32,2.32,-2.32,-1.83,-2.29,0.31,0.30,0.31
72.19,2.51,2.56,2.23,2.28,-2.31,-1.83,-2.29,0.20,0.26,0.28
72.91,2.51,2.51,2.27,2.27,-2.28,-1.83,-2.28,0.23,0.23,0.24
73.64,2.51,2.48,2.31,2.27,-2.26,-1.84,-2.26,0.25,0.21,0.20
74.38,2.45,2.43,2.27,2.26,-2.25,-1.84,-2.25,0.20,0.18,0.18
75.12,2.33,2.36,2.19,2.22,-2.24,-1.85,-2.24,0.09,0.12,0.14
75.87,2.29,2.30,2.18,2.19,-2.23,-1.85,-2.23,0.06,0.07,0.11
76.63,2.28,2.27,2.20,2.20,-2.23,-1.85,-2.22,0.05,0.05,0.08
77.40,2.28,2.29,2.23,2.25,-2.22,-1.86,-2.21,0.06,0.08,0.05
78.17,2.28,2.28,2.28,2.26,-2.21,-1.86,-2.20,0.07,0.07,0.00
78.95,2.28,2.22,2.30,2.24,-2.20,-1.86,-2.19,0.08,0.02,-0.02
79.74,2.11,2.15,2.16,2.20,-2.20,-1.87,-2.18,-0.09,-0.05,-0.05
80.54,2.05,2.08,2.14,2.16,-2.20,-1.87,-2.17,-0.15,-0.13,-0.09
81.35,2.05,2.04,2.17,2.16,-2.22,-1.88,-2.16,-0.17,-0.18,-0.12
82.16,2.05,2.04,2.21,2.20,-2.23,-1.89,-2.16,-0.18,-0.19,-0.16
82.98,2.05,2.05,2.23,2.24,-2.25,-1.89,-2.15,-0.20,-0.20,-0.18
83.81,2.05,2.05,2.28,2.28,-2.28,-1.90,-2.15,-0.23,-0.23,-0.23
84.65,2.05,2.05,2.32,2.32,-2.30,-1.91,-2.15,-0.25,-0.24,-0.27
85.50,2.05,2.06,2.35,2.36,-2.31,-1.92,-2.15,-0.26,-0.25,-0.30
86.35,2.05,2.02,2.38,2.36,-2.32,-1.92,-2.15,-0.27,-0.30,-0.33
87.22,2.00,1.97,2.37,2.34,-2.32,-1.93,-2.15,-0.32,-0.35,-0.37
88.09,1.82,1.88,2.24,2.29,-2.30,-1.94,-2.16,-0.48,-0.42,-0.41
88.97,1.82,1.77,2.27,2.22,-2.27,-1.95,-2.17,-0.45,-0.50,-0.45
89.86,1.67,1.69,2.16,2.18,-2.23,-1.96,-2.17,-0.56,-0.54,-0.49
90.76,1.61,1.65,2.15,2.18,-2.18,-1.98,-2.19,-0.57,-0.54,-0.54
91.66,1.60,1.57,2.17,2.15,-2.13,-1.99,-2.20,-0.53,-0.56,-0.57
92.58,1.52,1.48,2.15,2.10,-2.07,-2.00,-2.21,-0.55,-0.59,-0.63
93.51,1.32,1.35,1.98,2.01,-1.99,-2.02,-2.23,-0.67,-0.64,-0.66
94.44,1.16,1.18,1.86,1.89,-1.90,-2.03,-2.24,-0.74,-0.71,-0.70
95.39,1.04,1.03,1.79,1.78,-1.79,-2.05,-2.26,-0.75,-0.75,-0.75
96.34,0.88,0.89,1.68,1.69,-1.66,-2.06,-2.28,-0.78,-0.77,-0.80
97.30,0.73,0.70,1.58,1.54,-1.52,-2.08,-2.30,-0.79,-0.83,-0.85
98.28,0.47,0.46,1.36,1.35,-1.37,-2.10,-2.33,-0.90,-0.91,-0.89
99.26,0.20,0.24,1.14,1.18,-1.21,-2.11,-2.35,-1.01,-0.97,-0.94
100.25,-0.00,0.03,0.98,1.02,-1.03,-2.13,-2.37,-1.03,-1.00,-0.98
101.25,-0.10,-0.16,0.93,0.87,-0.84,-2.15,-2.40,-0.94,-1.00,-1.03
102.27,-0.36,-0.36,0.72,0.72,-0.64,-2.17,-2.43,-1.00,-1.00,-1.08
103.29,-0.62,-0.61,0.51,0.51,-0.44,-2.19,-2.46,-1.06,-1.05,-1.13
104.32,-0.88,-0.89,0.29,0.28,-0.26,-2.21,-2.49,-1.14,-1.14,-1.17
105.37,-1.14,-1.12,0.08,0.09,-0.11,-2.23,-2.52,-1.25,-1.23,-1.22
106.42,-1.33,-1.34,-0.07,-0.08,0.00,-2.25,-2.55,-1.33,-1.34,-1.26
107.48,-1.47,-1.48,-0.16,-0.17,0.07,-2.28,-2.58,-1.40,-1.41,-1.31
108.56,-1.59,-1.53,-0.23,-0.17,0.08,-2.30,-2.61,-1.51,-1.45,-1.36
109.64,-1.45,-1.47,-0.04,-0.06,0.02,-2.32,-2.64,-1.43,-1.45,-1.41
110.74,-1.36,-1.37,0.10,0.09,-0.09,-2.34,-2.67,-1.45,-1.45,-1.46
111.85,-1.17,-1.22,0.33,0.29,-0.25,-2.37,-2.70,-1.42,-1.46,-1.50
112.97,-1.12,-1.06,0.45,0.50,-0.45,-2.39,-2.73,-1.57,-1.51,-1.57
114.10,-0.87,-0.88,0.74,0.74,-0.69,-2.42,-2.76,-1.57,-1.57,-1.61
115.24,-0.65,-0.71,1.02,0.96,-0.97,-2.44,-2.78,-1.62,-1.68,-1.67
116.39,-0.51,-0.48,1.21,1.24,-1.27,-2.47,-2.81,-1.78,-1.75,-1.72
117.55,-0.30,-0.26,1.48,1.51,-1.58,-2.49,-2.83,-1.88,-1.85,-1.78
118.73,0.04,0.02,1.87,1.84,-1.90,-2.52,-2.86,-1.86,-1.89,-1.83
119.92,0.33,0.35,2.20,2.22,-2.23,-2.55,-2.88,-1.90,-1.88,-1.87
121.12,0.70,0.68,2.62,2.61,-2.55,-2.57,-2.90,-1.85,-1.86,-1.93
122.33,0.97,0.97,2.95,2.94,-2.86,-2.60,-2.92,-1.89,-1.89,-1.98
123.55,1.23,1.20,3.25,3.22,-3.16,-2.63,-2.94,-1.93,-1.96,-2.02
124.79,1.36,1.38,3.43,3.45,-3.44,-2.66,-2.95,-2.08,-2.06,-2.07
126.03,1.52,1.54,3.64,3.66,-3.70,-2.68,-2.96,-2.18,-2.16,-2.12
127.29,1.71,1.71,3.88,3.88,-3.92,-2.71,-2.97,-2.21,-2.21,-2.17
128.57,1.87,1.87,4.10,4.09,-4.11,-2.74,-2.98,-2.24,-2.25,-2.23
129.85,2.03,2.01,4.31,4.29,-4.28,-2.77,-2.99,-2.25,-2.27,-2.28
131.15,2.10,2.13,4.43,4.46,-4.43,-2.80,-3.00,-2.33,-2.30,-2.33
132.46,2.23,2.22,4.60,4.59,-4.56,-2.83,-3.00,-2.33,-2.34,-2.37
133.79,2.28,2.26,4.69,4.68,-4.67,-2.86,-3.01,-2.39,-2.41,-2.41
135.12,2.28,2.29,4.75,4.75,-4.76,-2.90,-3.01,-2.48,-2.47,-2.47
136.48,2.28,2.28,4.78,4.79,-4.82,-2.93,-3.01,-2.54,-2.53,-2.50
137.84,2.28,2.29,4.83,4.84,-4.85,-2.96,-3.01,-2.57,-2.56,-2.55
139.22,2.28,2.28,4.88,4.88,-4.87,-2.99,-3.01,-2.59,-2.59,-2.60
140.61,2.28,2.24,4.92,4.88,-4.87,-3.03,-3.01,-2.59,-2.63,-2.64
142.02,2.17,2.19,4.84,4.86,-4.86,-3.06,-3.01,-2.69,-2.67,-2.67
143.44,2.08,2.11,4.79,4.82,-4.82,-3.10,-3.00,-2.74,-2.71,-2.71
144.87,2.05,2.01,4.80,4.75,-4.77,-3.14,-3.00,-2.72,-2.76,-2.75
146.32,1.90,1.91,4.69,4.69,-4.69,-3.18,-3.00,-2.79,-2.78,-2.79
147.78,1.77,1.80,4.58,4.61,-4.58,-3.21,-3.00,-2.81,-2.79,-2.82
149.26,1.66,1.65,4.51,4.50,-4.47,-3.26,-3.00,-2.81,-2.82,-2.85
150.75,1.49,1.46,4.39,4.35,-4.35,-3.30,-3.01,-2.86,-2.89,-2.90
152.26,1.25,1.25,4.19,4.19,-4.22,-3.34,-3.01,-2.97,-2.97,-2.94
153.78,0.98,1.03,3.95,4.01,-4.05,-3.39,-3.01,-3.07,-3.01,-2.97
155.32,0.87,0.84,3.89,3.85,-3.85,-3.44,-3.02,-2.98,-3.01,-3.02
156.88,0.68,0.70,3.73,3.75,-3.64,-3.48,-3.03,-2.96,-2.95,-3.05
158.44,0.52,0.53,3.61,3.63,-3.46,-3.54,-3.04,-2.94,-2.93,-3.09
160.03,0.35,0.28,3.49,3.41,-3.32,-3.59,-3.05,-2.97,-3.04,-3.14
161.63,-0.04,-0.06,3.14,3.12,-3.24,-3.65,-3.06,-3.28,-3.30,-3.18
163.24,-0.42,-0.43,2.80,2.79,-3.21,-3.71,-3.08,-3.63,-3.64,-3.22
164.88,-0.74,-0.68,2.51,2.58,-3.24,-3.77,-3.10,-3.98,-3.92,-3.25
166.53,-0.73,-0.66,2.56,2.63,-3.34,-3.84,-3.12,-4.07,-4.00,-3.29
168.19,-0.40,-0.40,2.93,2.92,-3.51,-3.91,-3.14,-3.91,-3.91,-3.33
169.87,0.05,0.01,3.41,3.37,-3.74,-3.98,-3.16,-3.69,-3.73,-3.36
171.57,0.45,0.42,3.85,3.82,-4.02,-4.05,-3.19,-3.57,-3.59,-3.40
173.29,0.78,0.78,4.22,4.21,-4.31,-4.13,-3.22,-3.53,-3.53,-3.44
175.02,1.05,1.08,4.52,4.55,-4.58,-4.22,-3.26,-3.53,-3.50,-3.47
176.77,1.32,1.32,4.84,4.84,-4.80,-4.30,-3.29,-3.48,-3.47,-3.52
178.54,1.54,1.50,5.10,5.06,-4.98,-4.39,-3.33,-3.44,-3.48,-3.56
180.32,1.60,1.60,5.19,5.19,-5.12,-4.48,-3.37,-3.52,-3.52,-3.59
182.13,1.60,1.62,5.23,5.25,-5.23,-4.58,-3.41,-3.63,-3.61,-3.63
183.95,1.60,1.61,5.27,5.27,-5.30,-4.68,-3.46,-3.70,-3.70,-3.67
185.79,1.60,1.61,5.30,5.31,-5.34,-4.78,-3.50,-3.74,-3.74,-3.70
187.65,1.60,1.61,5.34,5.35,-5.35,-4.88,-3.55,-3.75,-3.74,-3.74
189.52,1.60,1.58,5.37,5.35,-5.34,-4.98,-3.61,-3.74,-3.77,-3.77
191.42,1.54,1.52,5.34,5.32,-5.32,-5.08,-3.66,-3.78,-3.80,-3.80
193.33,1.42,1.46,5.25,5.29,-5.29,-5.18,-3.72,-3.87,-3.83,-3.83
195.27,1.37,1.39,5.23,5.25,-5.25,-5.28,-3.78,-3.88,-3.86,-3.86
197.22,1.37,1.31,5.25,5.20,-5.20,-5.37,-3.84,-3.83,-3.88,-3.88
199.19,1.23,1.25,5.15,5.17,-5.14,-5.45,-3.90,-3.91,-3.89,-3.92
201.18,1.14,1.16,5.08,5.10,-5.08,-5.52,-3.96,-3.94,-3.92,-3.94
203.19,1.09,1.05,5.04,5.01,-5.03,-5.58,-4.02,-3.94,-3.98,-3.95
205.23,0.97,0.98,4.95,4.96,-4.98,-5.63,-4.09,-4.01,-4.00,-3.98
207.28,0.91,0.93,4.90,4.92,-4.95,-5.66,-4.15,-4.04,-4.02,-3.99
209.35,0.91,0.90,4.92,4.91,-4.93,-5.67,-4.22,-4.02,-4.03,-4.01
211.44,0.91,0.90,4.94,4.93,-4.93,-5.68,-4.28,-4.02,-4.02,-4.03
213.56,0.91,0.90,4.95,4.94,-4.94,-5.65,-4.35,-4.03,-4.04,-4.04
215.69,0.91,0.90,4.95,4.95,-4.97,-5.62,-4.41,-4.06,-4.07,-4.04
217.85,0.91,0.94,4.96,5.00,-5.01,-5.56,-4.47,-4.10,-4.07,-4.05
220.03,1.00,1.01,5.07,5.07,-5.06,-5.49,-4.53,-4.06,-4.06,-4.07
222.23,1.10,1.08,5.18,5.15,-5.13,-5.40,-4.58,-4.03,-4.05,-4.08
224.45,1.14,1.11,5.21,5.19,-5.19,-5.31,-4.64,-4.05,-4.08,-4.07
226.70,1.14,1.15,5.21,5.22,-5.26,-5.19,-4.69,-4.12,-4.11,-4.07
228.96,1.14,1.20,5.21,5.27,-5.31,-5.08,-4.73,-4.17,-4.10,-4.07
231.25,1.31,1.28,5.37,5.35,-5.34,-4.95,-4.77,-4.03,-4.05,-4.06
233.57,1.37,1.35,5.43,5.41,-5.34,-4.82,-4.81,-3.97,-4.00,-4.06
235.90,1.37,1.34,5.43,5.40,-5.33,-4.68,-4.83,-3.96,-3.98,-4.06
238.26,1.26,1.28,5.32,5.34,-5.29,-4.55,-4.86,-4.03,-4.01,-4.06
240.64,1.16,1.19,5.21,5.24,-5.25,-4.41,-4.87,-4.09,-4.06,-4.05
243.05,1.14,1.08,5.18,5.12,-5.19,-4.27,-4.88,-4.05,-4.11,-4.04
245.48,0.98,1.01,5.01,5.03,-5.11,-4.14,-4.88,-4.13,-4.10,-4.03
247.93,0.91,0.95,4.93,4.97,-5.00,-4.00,-4.88,-4.09,-4.05,-4.02
250.41,0.91,0.89,4.92,4.90,-4.88,-3.88,-4.86,-3.97,-3.99,-4.01
252.92,0.87,0.84,4.86,4.83,-4.75,-3.75,-4.84,-3.88,-3.91,-3.99
255.45,0.71,0.71,4.68,4.68,-4.62,-3.63,-4.81,-3.91,-3.91,-3.97
258.00,0.55,0.54,4.50,4.50,-4.48,-3.51,-4.78,-3.93,-3.94,-3.95
260.58,0.31,0.35,4.25,4.29,-4.33,-3.40,-4.73,-4.02,-3.98,-3.94
263.19,0.22,0.19,4.14,4.11,-4.17,-3.28,-4.68,-3.95,-3.98,-3.92
265.82,0.02,0.05,3.92,3.95,-3.99,-3.18,-4.62,-3.97,-3.94,-3.90
268.48,-0.05,-0.05,3.83,3.83,-3.81,-3.08,-4.56,-3.86,-3.86,-3.88
271.16,-0.18,-0.20,3.68,3.66,-3.63,-2.98,-4.49,-3.81,-3.83,-3.86
273.87,-0.31,-0.34,3.53,3.50,-3.46,-2.88,-4.41,-3.77,-3.80,-3.84
276.61,-0.57,-0.52,3.25,3.30,-3.29,-2.79,-4.33,-3.86,-3.81,-3.82
279.38,-0.67,-0.69,3.13,3.12,-3.13,-2.71,-4.25,-3.80,-3.81,-3.80
282.17,-0.85,-0.85,2.94,2.94,-2.96,-2.62,-4.16,-3.81,-3.81,-3.79
284.99,-0.96,-0.97,2.80,2.79,-2.80,-2.54,-4.07,-3.76,-3.77,-3.76
287.84,-1.13,-1.12,2.62,2.63,-2.64,-2.46,-3.97,-3.77,-3.76,-3.75
290.72,-1.21,-1.22,2.51,2.51,-2.50,-2.39,-3.87,-3.71,-3.72,-3.72
293.63,-1.35,-1.32,2.36,2.38,-2.38,-2.31,-3.77,-3.73,-3.70,-3.71
296.57,-1.37,-1.42,2.31,2.26,-2.28,-2.24,-3.67,-3.65,-3.70,-3.68
299.53,-1.54,-1.52,2.12,2.15,-2.19,-2.17,-3.57,-3.73,-3.70,-3.66
302.53,-1.60,-1.57,2.05,2.07,-2.11,-2.10,-3.46,-3.71,-3.68,-3.65
305.55,-1.60,-1.60,2.01,2.02,-2.03,-2.04,-3.36,-3.63,-3.63,-3.61
308.61,-1.60,-1.61,2.00,1.99,-1.95,-1.98,-3.25,-3.55,-3.55,-3.60
311.69,-1.60,-1.65,1.97,1.92,-1.87,-1.92,-3.15,-3.47,-3.52,-3.57
314.81,-1.74,-1.70,1.79,1.84,-1.79,-1.85,-3.04,-3.53,-3.50,-3.53
317.96,-1.81,-1.79,1.71,1.73,-1.72,-1.80,-2.94,-3.53,-3.51,-3.52
321.14,-1.83,-1.89,1.67,1.61,-1.64,-1.74,-2.83,-3.47,-3.53,-3.50
324.35,-2.00,-1.97,1.48,1.51,-1.55,-1.68,-2.73,-3.55,-3.51,-3.48
327.59,-2.05,-2.01,1.41,1.44,-1.46,-1.62,-2.63,-3.51,-3.47,-3.46
330.87,-2.05,-2.06,1.39,1.38,-1.37,-1.57,-2.53,-3.42,-3.43,-3.44
334.18,-2.05,-2.10,1.37,1.32,-1.29,-1.51,-2.43,-3.34,-3.39,-3.42
337.52,-2.18,-2.16,1.22,1.24,-1.22,-1.46,-2.33,-3.40,-3.38,-3.40
340.90,-2.26,-2.23,1.12,1.15,-1.16,-1.41,-2.23,-3.42,-3.40,-3.38
344.30,-2.28,-2.28,1.08,1.08,-1.12,-1.35,-2.13,-3.40,-3.40,-3.36
347.75,-2.28,-2.29,1.06,1.05,-1.09,-1.30,-2.04,-3.37,-3.37,-3.34
351.23,-2.28,-2.28,1.04,1.04,-1.06,-1.25,-1.94,-3.34,-3.34,-3.32
354.74,-2.28,-2.28,1.03,1.02,-1.03,-1.19,-1.85,-3.31,-3.31,-3.31
358.28,-2.28,-2.28,1.01,1.01,-0.99,-1.14,-1.76,-3.27,-3.27,-3.29
361.87,-2.28,-2.27,0.99,1.01,-0.96,-1.09,-1.67,-3.24,-3.22,-3.27
365.49,-2.28,-2.29,0.98,0.97,-0.92,-1.03,-1.58,-3.20,-3.21,-3.26
369.14,-2.30,-2.35,0.95,0.91,-0.89,-0.98,-1.50,-3.19,-3.23,-3.25
372.83,-2.45,-2.42,0.79,0.82,-0.84,-0.93,-1.41,-3.29,-3.26,-3.24
376.56,-2.51,-2.48,0.72,0.74,-0.79,-0.87,-1.33,-3.30,-3.28,-3.23
380.33,-2.51,-2.52,0.69,0.68,-0.73,-0.82,-1.25,-3.24,-3.25,-3.20
384.13,-2.51,-2.50,0.68,0.69,-0.67,-0.77,-1.16,-3.18,-3.17,-3.19
387.97,-2.51,-2.51,0.67,0.67,-0.61,-0.72,-1.08,-3.12,-3.13,-3.18
391.85,-2.52,-2.57,0.65,0.60,-0.57,-0.66,-1.01,-3.09,-3.14,-3.17
395.77,-2.67,-2.64,0.49,0.52,-0.53,-0.61,-0.93,-3.20,-3.17,-3.16
399.73,-2.74,-2.71,0.41,0.44,-0.49,-0.56,-0.85,-3.23,-3.20,-3.15
403.72,-2.74,-2.75,0.40,0.39,-0.45,-0.51,-0.78,-3.19,-3.20,-3.14
407.76,-2.74,-2.73,0.39,0.40,-0.38,-0.47,-0.71,-3.12,-3.12,-3.13
411.84,-2.74,-2.74,0.37,0.37,-0.31,-0.42,-0.64,-3.05,-3.05,-3.11
415.96,-2.74,-2.79,0.36,0.32,-0.22,-0.38,-0.57,-2.96,-3.01,-3.10
420.12,-2.91,-2.88,0.18,0.21,-0.15,-0.35,-0.50,-3.06,-3.03,-3.09
424.32,-2.98,-3.00,0.10,0.08,-0.08,-0.31,-0.44,-3.06,-3.08,-3.08
428.56,-3.13,-3.11,-0.06,-0.04,-0.02,-0.28,-0.38,-3.15,-3.14,-3.07
432.85,-3.19,-3.18,-0.12,-0.12,0.02,-0.26,-0.32,-3.17,-3.16,-3.07
437.18,-3.19,-3.20,-0.13,-0.15,0.06,-0.24,-0.26,-3.13,-3.14,-3.06
441.55,-3.19,-3.14,-0.15,-0.10,0.07,-0.22,-0.21,-3.12,-3.06,-3.04
445.96,-3.03,-3.06,-0.00,-0.03,0.06,-0.21,-0.15,-2.97,-3.00,-3.03
450.42,-2.96,-3.00,0.06,0.02,0.02,-0.20,-0.11,-2.94,-2.98,-3.02
454.93,-2.96,-2.95,0.04,0.05,-0.03,-0.20,-0.06,-2.99,-2.98,-3.00
459.48,-2.96,-2.92,0.03,0.07,-0.08,-0.20,-0.02,-3.04,-3.00,-2.99
464.07,-2.87,-2.87,0.10,0.11,-0.12,-0.20,0.02,-2.99,-2.98,-2.97
468.71,-2.77,-2.80,0.18,0.16,-0.15,-0.21,0.06,-2.92,-2.95,-2.95
473.40,-2.74,-2.75,0.20,0.19,-0.16,-0.22,0.09,-2.90,-2.91,-2.94
478.13,-2.74,-2.73,0.18,0.20,-0.17,-0.23,0.12,-2.91,-2.90,-2.92
482.91,-2.74,-2.74,0.18,0.17,-0.17,-0.25,0.15,-2.91,-2.91,-2.92
