frequency,raw,smoothed,error,error_smoothed,equalization,parametric_eq,fixed_band_eq,equalized_raw,equalized_smoothed,target
20.00,-5.92,-5.91,-7.95,-7.94,6.00,6.32,2.84,0.08,0.09,2.03
20.20,-6.07,-6.08,-8.10,-8.11,6.00,6.31,2.92,-0.07,-0.08,2.03
20.40,-6.26,-6.27,-8.29,-8.30,6.00,6.30,3.00,-0.26,-0.27,2.03
20.61,-6.48,-6.49,-8.50,-8.52,6.00,6.30,3.09,-0.48,-0.49,2.03
20.81,-6.75,-6.75,-8.78,-8.78,6.00,6.29,3.18,-0.75,-0.75,2.03
21.02,-7.02,-7.02,-9.05,-9.05,6.00,6.28,3.27,-1.02,-1.02,2.03
21.23,-7.30,-7.29,-9.33,-9.32,6.00,6.27,3.36,-1.30,-1.29,2.03
21.44,-7.55,-7.55,-9.58,-9.58,6.00,6.26,3.46,-1.55,-1.55,2.03
21.66,-7.79,-7.80,-9.82,-9.83,6.00,6.26,3.56,-1.79,-1.80,2.03
21.87,-8.02,-8.01,-10.05,-10.04,6.00,6.25,3.66,-2.02,-2.01,2.03
22.09,-8.20,-8.20,-10.23,-10.23,6.00,6.24,3.76,-2.20,-2.20,2.03
22.31,-8.35,-8.35,-10.38,-10.38,6.00,6.23,3.87,-2.35,-2.35,2.03
22.54,-8.46,-8.46,-10.49,-10.49,6.00,6.22,3.98,-2.46,-2.46,2.03
22.76,-8.54,-8.53,-10.57,-10.56,6.00,6.21,4.10,-2.54,-2.53,2.03
22.99,-8.59,-8.59,-10.62,-10.61,6.00,6.20,4.21,-2.59,-2.59,2.03
23.22,-8.62,-8.62,-10.65,-10.65,6.00,6.19,4.33,-2.62,-2.62,2.03
23.45,-8.67,-8.67,-10.70,-10.70,6.00,6.18,4.45,-2.67,-2.67,2.03
23.69,-8.74,-8.74,-10.77,-10.77,6.00,6.17,4.58,-2.74,-2.74,2.03
23.92,-8.85,-8.86,-10.88,-10.89,6.00,6.16,4.70,-2.85,-2.86,2.03
24.16,-9.01,-9.02,-11.04,-11.05,6.00,6.15,4.83,-3.01,-3.02,2.03
24.40,-9.22,-9.23,-11.25,-11.26,6.00,6.14,4.96,-3.22,-3.23,2.03
24.65,-9.45,-9.44,-11.48,-11.47,6.00,6.13,5.10,-3.45,-3.44,2.03
24.89,-9.65,-9.64,-11.68,-11.67,6.00,6.12,5.23,-3.65,-3.64,2.03
25.14,-9.80,-9.80,-11.83,-11.83,6.00,6.11,5.37,-3.80,-3.80,2.03
25.39,-9.91,-9.89,-11.94,-11.92,6.00,6.10,5.50,-3.91,-3.89,2.03
25.65,-9.95,-9.95,-11.98,-11.98,6.00,6.09,5.64,-3.95,-3.95,2.03
25.91,-10.01,-10.01,-12.04,-12.04,6.00,6.08,5.78,-4.01,-4.01,2.03
26.16,-10.12,-10.14,-12.15,-12.17,6.00,6.07,5.92,-4.12,-4.14,2.03
26.43,-10.36,-10.38,-12.39,-12.41,6.00,6.06,6.06,-4.36,-4.38,2.03
26.69,-10.77,-10.76,-12.80,-12.79,6.00,6.05,6.20,-4.77,-4.76,2.03
26.96,-11.26,-11.28,-13.29,-13.31,6.00,6.04,6.34,-5.26,-5.28,2.03
27.23,-11.90,-11.91,-13.93,-13.94,6.00,6.02,6.47,-5.90,-5.91,2.03
27.50,-12.63,-12.62,-14.66,-14.65,6.00,6.01,6.60,-6.63,-6.62,2.03
27.77,-13.37,-13.36,-15.40,-15.39,6.00,6.00,6.73,-7.37,-7.36,2.03
28.05,-14.08,-14.08,-16.11,-16.11,6.00,5.99,6.85,-8.08,-8.08,2.03
28.33,-14.75,-14.76,-16.78,-16.79,6.00,5.98,6.96,-8.75,-8.76,2.03
28.62,-15.36,-15.36,-17.39,-17.39,6.00,5.97,7.08,-9.36,-9.36,2.03
28.90,-15.90,-15.89,-17.93,-17.92,6.00,5.95,7.18,-9.90,-9.89,2.03
29.19,-16.31,-16.32,-18.34,-18.35,6.00,5.94,7.27,-10.31,-10.32,2.03
29.48,-16.66,-16.63,-18.69,-18.66,6.00,5.93,7.36,-10.66,-10.63,2.03
29.78,-16.81,-16.83,-18.84,-18.86,6.00,5.92,7.44,-10.81,-10.83,2.03
30.08,-16.91,-16.90,-18.94,-18.93,6.00,5.91,7.50,-10.91,-10.90,2.03
30.38,-16.86,-16.85,-18.89,-18.88,6.00,5.89,7.56,-10.86,-10.85,2.03
30.68,-16.69,-16.68,-18.72,-18.71,6.00,5.88,7.59,-10.69,-10.68,2.03
30.99,-16.40,-16.40,-18.43,-18.43,6.00,5.87,7.63,-10.40,-10.40,2.03
31.30,-16.05,-16.05,-18.08,-18.08,6.00,5.86,7.64,-10.05,-10.05,2.03
31.61,-15.67,-15.67,-17.70,-17.70,6.00,5.85,7.65,-9.67,-9.67,2.03
31.93,-15.29,-15.29,-17.31,-17.32,6.00,5.83,7.64,-9.29,-9.29,2.03
32.24,-14.97,-14.97,-17.00,-17.00,6.00,5.82,7.63,-8.97,-8.97,2.03
32.57,-14.72,-14.74,-16.75,-16.77,6.00,5.81,7.60,-8.72,-8.74,2.03
32.89,-14.60,-14.61,-16.63,-16.64,6.00,5.80,7.56,-8.60,-8.61,2.03
33.22,-14.60,-14.59,-16.63,-16.62,6.00,5.79,7.51,-8.60,-8.59,2.03
33.55,-14.65,-14.65,-16.68,-16.68,6.00,5.78,7.45,-8.65,-8.65,2.03
33.89,-14.76,-14.75,-16.79,-16.78,6.00,5.77,7.38,-8.76,-8.75,2.03
34.23,-14.87,-14.85,-16.90,-16.88,6.00,5.75,7.31,-8.87,-8.85,2.03
34.57,-15.00,-14.99,-17.03,-17.02,6.00,5.74,7.22,-9.00,-8.99,2.03
34.92,-15.17,-15.18,-17.20,-17.21,6.00,5.74,7.14,-9.17,-9.18,2.03
35.27,-15.49,-15.48,-17.51,-17.51,6.00,5.73,7.04,-9.49,-9.48,2.03
35.62,-15.94,-15.95,-17.97,-17.98,6.00,5.72,6.95,-9.94,-9.95,2.03
35.97,-16.58,-16.61,-18.61,-18.64,6.00,5.71,6.85,-10.58,-10.61,2.03
36.33,-17.47,-17.47,-19.50,-19.50,6.00,5.70,6.74,-11.47,-11.47,2.03
36.70,-18.45,-18.51,-20.48,-20.54,6.00,5.70,6.64,-12.45,-12.51,2.03
37.06,-19.54,-19.54,-21.57,-21.57,6.00,5.69,6.53,-13.54,-13.54,2.03
37.43,-20.56,-20.49,-22.59,-22.52,6.00,5.68,6.43,-14.56,-14.49,2.03
37.81,-21.07,-21.16,-23.10,-23.18,6.00,5.68,6.32,-15.07,-15.16,2.03
38.19,-21.48,-21.32,-23.51,-23.35,6.00,5.68,6.22,-15.48,-15.32,2.03
38.57,-21.01,-20.94,-23.04,-22.97,6.00,5.68,6.12,-15.01,-14.94,2.03
38.95,-20.09,-20.13,-22.11,-22.16,6.00,5.68,6.02,-14.09,-14.13,2.03
39.34,-18.97,-19.00,-21.00,-21.03,6.00,5.68,5.92,-12.97,-13.00,2.03
39.74,-17.84,-17.83,-19.87,-19.86,6.00,5.68,5.82,-11.84,-11.83,2.03
40.14,-16.74,-16.75,-18.77,-18.78,6.00,5.68,5.73,-10.74,-10.75,2.03
40.54,-15.79,-15.83,-17.82,-17.86,6.00,5.69,5.64,-9.79,-9.83,2.03
40.94,-15.11,-15.11,-17.14,-17.14,6.00,5.70,5.56,-9.11,-9.11,2.03
41.35,-14.59,-14.60,-16.62,-16.63,6.00,5.71,5.47,-8.59,-8.60,2.03
41.76,-14.24,-14.25,-16.27,-16.28,6.00,5.72,5.39,-8.24,-8.25,2.03
42.18,-14.01,-13.99,-16.04,-16.02,6.00,5.74,5.32,-8.01,-7.99,2.03
42.60,-13.79,-13.79,-15.82,-15.82,6.00,5.75,5.25,-7.79,-7.79,2.03
43.03,-13.59,-13.58,-15.62,-15.61,6.00,5.77,5.18,-7.59,-7.58,2.03
43.46,-13.33,-13.32,-15.36,-15.35,6.00,5.80,5.11,-7.33,-7.32,2.03
43.90,-13.04,-13.03,-15.07,-15.06,6.00,5.82,5.05,-7.04,-7.03,2.03
44.33,-12.70,-12.70,-14.73,-14.73,6.00,5.85,5.00,-6.70,-6.70,2.03
44.78,-12.35,-12.35,-14.38,-14.38,6.00,5.88,4.95,-6.35,-6.35,2.03
45.23,-12.00,-12.01,-14.03,-14.04,6.00,5.92,4.90,-6.00,-6.01,2.03
45.68,-11.67,-11.67,-13.70,-13.70,6.00,5.96,4.85,-5.67,-5.67,2.03
46.13,-11.35,-11.35,-13.38,-13.38,6.00,6.00,4.81,-5.35,-5.35,2.03
46.60,-11.04,-11.03,-13.07,-13.06,6.00,6.04,4.78,-5.04,-5.03,2.03
47.06,-10.72,-10.72,-12.75,-12.75,6.00,6.08,4.74,-4.72,-4.72,2.03
47.53,-10.40,-10.41,-12.43,-12.44,6.00,6.13,4.71,-4.40,-4.41,2.03
48.01,-10.12,-10.12,-12.15,-12.15,6.00,6.18,4.68,-4.12,-4.12,2.03
48.49,-9.85,-9.85,-11.88,-11.88,6.00,6.23,4.66,-3.85,-3.85,2.03
48.97,-9.59,-9.59,-11.62,-11.62,6.00,6.27,4.64,-3.59,-3.59,2.03
49.46,-9.33,-9.32,-11.36,-11.35,6.00,6.32,4.62,-3.33,-3.32,2.03
49.96,-9.05,-9.05,-11.08,-11.08,6.00,6.36,4.61,-3.05,-3.05,2.03
50.46,-8.75,-8.76,-10.78,-10.79,6.00,6.39,4.59,-2.75,-2.76,2.03
50.96,-8.44,-8.44,-10.47,-10.47,6.00,6.41,4.58,-2.44,-2.44,2.03
51.47,-8.10,-8.09,-10.13,-10.11,6.00,6.43,4.57,-2.10,-2.09,2.03
51.99,-7.69,-7.69,-9.72,-9.72,6.00,6.43,4.56,-1.69,-1.69,2.03
52.51,-7.26,-7.26,-9.29,-9.29,6.00,6.42,4.55,-1.26,-1.26,2.03
53.03,-6.82,-6.83,-8.85,-8.86,6.00,6.40,4.54,-0.82,-0.83,2.03
53.56,-6.43,-6.43,-8.46,-8.46,6.00,6.36,4.53,-0.43,-0.43,2.03
54.10,-6.06,-6.06,-8.09,-8.09,6.00,6.29,4.52,-0.06,-0.06,2.03
54.64,-5.72,-5.72,-7.75,-7.75,6.00,6.22,4.51,0.28,0.28,2.03
55.18,-5.40,-5.40,-7.43,-7.43,6.02,6.12,4.50,0.62,0.61,2.03
55.74,-5.11,-5.11,-7.14,-7.14,6.04,6.00,4.49,0.93,0.93,2.03
56.29,-4.85,-4.85,-6.88,-6.88,6.05,5.87,4.47,1.21,1.21,2.03
56.86,-4.61,-4.62,-6.64,-6.64,6.05,5.72,4.45,1.44,1.44,2.03
57.42,-4.40,-4.40,-6.43,-6.43,6.02,5.55,4.42,1.63,1.62,2.03
58.00,-4.20,-4.20,-6.23,-6.23,5.95,5.38,4.39,1.75,1.76,2.03
58.58,-3.99,-3.98,-6.02,-6.01,5.84,5.19,4.36,1.85,1.85,2.03
59.16,-3.75,-3.74,-5.78,-5.77,5.67,4.99,4.32,1.92,1.93,2.03
59.76,-3.47,-3.47,-5.50,-5.50,5.45,4.79,4.28,1.98,1.99,2.03
60.35,-3.16,-3.16,-5.19,-5.19,5.19,4.58,4.23,2.03,2.03,2.03
60.96,-2.82,-2.82,-4.85,-4.85,4.88,4.37,4.17,2.06,2.05,2.03
61.57,-2.48,-2.48,-4.51,-4.51,4.54,4.16,4.10,2.06,2.06,2.03
62.18,-2.13,-2.13,-4.16,-4.16,4.19,3.95,4.03,2.06,2.06,2.03
62.80,-1.79,-1.79,-3.82,-3.82,3.84,3.74,3.95,2.05,2.05,2.03
63.43,-1.47,-1.47,-3.50,-3.49,3.52,3.52,3.87,2.05,2.06,2.03
64.07,-1.16,-1.17,-3.19,-3.19,3.23,3.31,3.77,2.07,2.06,2.03
64.71,-0.89,-0.89,-2.92,-2.92,2.96,3.10,3.67,2.07,2.07,2.03
65.35,-0.65,-0.65,-2.68,-2.68,2.71,2.89,3.57,2.06,2.06,2.03
66.01,-0.43,-0.44,-2.46,-2.47,2.48,2.69,3.45,2.05,2.05,2.03
66.67,-0.25,-0.25,-2.28,-2.28,2.27,2.48,3.33,2.02,2.03,2.03
67.33,-0.07,-0.06,-2.10,-2.09,2.07,2.28,3.20,2.00,2.01,2.03
68.01,0.12,0.13,-1.91,-1.90,1.88,2.08,3.07,2.00,2.00,2.03
68.69,0.33,0.33,-1.70,-1.70,1.68,1.88,2.93,2.01,2.01,2.03
69.37,0.54,0.54,-1.49,-1.49,1.47,1.68,2.79,2.02,2.01,2.03
70.07,0.76,0.76,-1.27,-1.27,1.26,1.48,2.64,2.02,2.02,2.03
70.77,0.98,0.98,-1.05,-1.05,1.04,1.29,2.48,2.03,2.03,2.03
71.48,1.21,1.21,-0.82,-0.82,0.82,1.10,2.32,2.03,2.03,2.03
72.19,1.43,1.43,-0.60,-0.60,0.60,0.90,2.16,2.03,2.04,2.03
72.91,1.65,1.65,-0.38,-0.38,0.39,0.71,2.00,2.04,2.04,2.03
73.64,1.87,1.87,-0.16,-0.16,0.17,0.52,1.83,2.05,2.04,2.03
74.38,2.07,2.07,0.04,0.04,-0.03,0.33,1.66,2.04,2.04,2.03
75.12,2.27,2.27,0.24,0.24,-0.23,0.14,1.48,2.04,2.04,2.03
75.87,2.46,2.46,0.43,0.43,-0.43,-0.06,1.31,2.03,2.03,2.03
76.63,2.65,2.65,0.62,0.62,-0.63,-0.25,1.13,2.02,2.03,2.03
77.40,2.84,2.84,0.81,0.81,-0.82,-0.44,0.95,2.02,2.02,2.03
78.17,3.04,3.04,1.01,1.01,-1.02,-0.63,0.77,2.03,2.02,2.03
78.95,3.23,3.23,1.20,1.20,-1.21,-0.82,0.59,2.02,2.02,2.03
79.74,3.43,3.43,1.40,1.40,-1.41,-1.01,0.40,2.02,2.02,2.03
80.54,3.63,3.63,1.60,1.60,-1.61,-1.20,0.22,2.02,2.02,2.03
81.35,3.83,3.83,1.80,1.80,-1.80,-1.39,0.03,2.03,2.03,2.03
82.16,4.03,4.03,2.00,2.00,-2.00,-1.59,-0.15,2.03,2.04,2.03
82.98,4.23,4.23,2.20,2.20,-2.19,-1.78,-0.34,2.04,2.04,2.03
83.81,4.41,4.41,2.38,2.38,-2.37,-1.97,-0.53,2.04,2.04,2.03
84.65,4.58,4.58,2.55,2.55,-2.55,-2.16,-0.72,2.03,2.03,2.03
85.50,4.75,4.75,2.72,2.72,-2.72,-2.36,-0.91,2.03,2.03,2.03
86.35,4.91,4.91,2.88,2.88,-2.89,-2.55,-1.11,2.02,2.02,2.03
87.22,5.07,5.07,3.04,3.04,-3.05,-2.74,-1.30,2.02,2.03,2.03
88.09,5.23,5.23,3.20,3.20,-3.20,-2.93,-1.49,2.03,2.03,2.03
88.97,5.38,5.38,3.35,3.35,-3.34,-3.12,-1.69,2.04,2.04,2.03
89.86,5.53,5.53,3.50,3.50,-3.49,-3.31,-1.89,2.04,2.04,2.03
90.76,5.66,5.66,3.63,3.63,-3.63,-3.50,-2.09,2.03,2.03,2.03
91.66,5.80,5.80,3.77,3.77,-3.77,-3.69,-2.28,2.03,2.03,2.03
92.58,5.93,5.93,3.90,3.90,-3.91,-3.88,-2.48,2.02,2.02,2.03
93.51,6.07,6.07,4.04,4.04,-4.05,-4.06,-2.69,2.02,2.02,2.03
94.44,6.21,6.21,4.18,4.18,-4.19,-4.24,-2.89,2.02,2.02,2.03
95.39,6.36,6.36,4.33,4.33,-4.33,-4.42,-3.09,2.03,2.03,2.03
96.34,6.50,6.50,4.47,4.47,-4.46,-4.60,-3.30,2.04,2.04,2.03
97.30,6.63,6.63,4.60,4.60,-4.60,-4.77,-3.50,2.04,2.04,2.03
98.28,6.76,6.76,4.73,4.73,-4.73,-4.94,-3.71,2.03,2.03,2.03
99.26,6.88,6.88,4.85,4.85,-4.85,-5.11,-3.92,2.03,2.03,2.03
100.25,7.00,7.00,4.97,4.97,-4.98,-5.26,-4.12,2.02,2.02,2.03
101.25,7.12,7.12,5.09,5.09,-5.09,-5.42,-4.33,2.03,2.02,2.03
102.27,7.23,7.24,5.20,5.21,-5.21,-5.56,-4.54,2.02,2.03,2.03
103.29,7.35,7.35,5.32,5.32,-5.31,-5.71,-4.74,2.04,2.03,2.03
104.32,7.45,7.45,5.42,5.42,-5.41,-5.84,-4.95,2.04,2.04,2.03
105.37,7.54,7.54,5.51,5.51,-5.51,-5.96,-5.15,2.03,2.04,2.03
106.42,7.63,7.63,5.60,5.60,-5.60,-6.08,-5.35,2.03,2.03,2.03
107.48,7.71,7.71,5.68,5.68,-5.68,-6.19,-5.55,2.03,2.03,2.03
108.56,7.78,7.79,5.75,5.76,-5.76,-6.28,-5.74,2.02,2.03,2.03
109.64,7.86,7.86,5.83,5.83,-5.83,-6.37,-5.94,2.03,2.02,2.03
110.74,7.93,7.93,5.90,5.90,-5.91,-6.45,-6.12,2.02,2.03,2.03
111.85,8.00,8.00,5.97,5.97,-5.97,-6.52,-6.30,2.03,2.03,2.03
112.97,8.07,8.07,6.04,6.04,-6.04,-6.57,-6.46,2.03,2.03,2.03
114.10,8.13,8.13,6.10,6.10,-6.10,-6.62,-6.62,2.03,2.03,2.03
115.24,8.19,8.19,6.16,6.16,-6.16,-6.65,-6.77,2.03,2.03,2.03
116.39,8.24,8.24,6.21,6.21,-6.21,-6.68,-6.91,2.03,2.03,2.03
117.55,8.29,8.29,6.26,6.26,-6.26,-6.68,-7.03,2.03,2.03,2.03
118.73,8.33,8.33,6.30,6.30,-6.30,-6.69,-7.14,2.03,2.03,2.03
119.92,8.37,8.37,6.34,6.34,-6.34,-6.67,-7.23,2.03,2.03,2.03
121.12,8.40,8.40,6.37,6.37,-6.36,-6.66,-7.31,2.04,2.03,2.03
122.33,8.42,8.42,6.39,6.39,-6.38,-6.62,-7.36,2.04,2.03,2.03
123.55,8.42,8.43,6.39,6.40,-6.40,-6.58,-7.41,2.02,2.03,2.03
124.79,8.43,8.43,6.40,6.40,-6.40,-6.53,-7.43,2.03,2.03,2.03
126.03,8.42,8.43,6.39,6.40,-6.40,-6.47,-7.44,2.02,2.03,2.03
127.29,8.42,8.42,6.39,6.39,-6.39,-6.40,-7.42,2.03,2.03,2.03
128.57,8.40,8.40,6.37,6.37,-6.37,-6.33,-7.40,2.04,2.03,2.03
129.85,8.36,8.37,6.33,6.34,-6.34,-6.24,-7.34,2.02,2.03,2.03
131.15,8.33,8.33,6.30,6.30,-6.30,-6.15,-7.28,2.03,2.03,2.03
132.46,8.29,8.29,6.26,6.26,-6.25,-6.05,-7.20,2.04,2.03,2.03
133.79,8.23,8.23,6.20,6.20,-6.20,-5.95,-7.11,2.03,2.03,2.03
135.12,8.17,8.17,6.14,6.14,-6.14,-5.84,-6.99,2.03,2.03,2.03
136.48,8.10,8.10,6.07,6.07,-6.07,-5.72,-6.88,2.03,2.03,2.03
137.84,8.02,8.02,5.99,5.99,-6.00,-5.60,-6.74,2.02,2.03,2.03
139.22,7.94,7.94,5.91,5.91,-5.92,-5.48,-6.60,2.02,2.02,2.03
140.61,7.85,7.86,5.82,5.83,-5.83,-5.35,-6.45,2.02,2.03,2.03
142.02,7.77,7.77,5.74,5.74,-5.74,-5.23,-6.29,2.03,2.03,2.03
143.44,7.68,7.68,5.65,5.65,-5.64,-5.09,-6.13,2.04,2.03,2.03
144.87,7.58,7.58,5.55,5.55,-5.55,-4.96,-5.96,2.03,2.03,2.03
146.32,7.47,7.47,5.44,5.44,-5.44,-4.82,-5.79,2.03,2.03,2.03
147.78,7.36,7.36,5.33,5.33,-5.34,-4.68,-5.61,2.02,2.03,2.03
149.26,7.25,7.25,5.22,5.22,-5.22,-4.54,-5.44,2.03,2.03,2.03
150.75,7.13,7.13,5.10,5.10,-5.10,-4.40,-5.26,2.03,2.03,2.03
152.26,7.01,7.01,4.98,4.98,-4.98,-4.25,-5.08,2.03,2.03,2.03
153.78,6.88,6.88,4.85,4.85,-4.85,-4.11,-4.90,2.03,2.03,2.03
155.32,6.75,6.75,4.72,4.72,-4.71,-3.96,-4.72,2.04,2.03,2.03
156.88,6.60,6.60,4.57,4.57,-4.57,-3.82,-4.53,2.03,2.03,2.03
158.44,6.44,6.45,4.41,4.42,-4.42,-3.68,-4.36,2.02,2.03,2.03
160.03,6.29,6.29,4.26,4.26,-4.26,-3.53,-4.18,2.03,2.02,2.03
161.63,6.12,6.12,4.10,4.10,-4.10,-3.39,-4.00,2.02,2.02,2.02
163.24,5.95,5.95,3.93,3.93,-3.93,-3.24,-3.82,2.02,2.02,2.02
164.88,5.78,5.77,3.76,3.76,-3.76,-3.10,-3.65,2.03,2.02,2.02
166.53,5.59,5.59,3.57,3.57,-3.57,-2.96,-3.47,2.02,2.02,2.02
168.19,5.40,5.40,3.38,3.38,-3.39,-2.82,-3.30,2.01,2.02,2.02
169.87,5.21,5.21,3.19,3.19,-3.19,-2.67,-3.13,2.02,2.02,2.02
171.57,5.01,5.01,2.99,2.99,-2.99,-2.54,-2.96,2.02,2.02,2.02
173.29,4.80,4.80,2.78,2.78,-2.78,-2.40,-2.80,2.02,2.03,2.02
175.02,4.59,4.59,2.57,2.57,-2.56,-2.26,-2.63,2.03,2.03,2.02
176.77,4.36,4.36,2.34,2.34,-2.33,-2.12,-2.47,2.03,2.03,2.02
178.54,4.12,4.12,2.10,2.10,-2.10,-1.99,-2.31,2.02,2.02,2.02
180.32,3.88,3.88,1.86,1.86,-1.86,-1.86,-2.15,2.02,2.02,2.02
182.13,3.63,3.63,1.61,1.61,-1.61,-1.73,-1.99,2.02,2.02,2.02
183.95,3.38,3.38,1.36,1.36,-1.36,-1.60,-1.84,2.02,2.03,2.02
185.79,3.13,3.13,1.11,1.11,-1.11,-1.48,-1.68,2.03,2.02,2.02
187.65,2.88,2.88,0.86,0.86,-0.86,-1.35,-1.53,2.02,2.02,2.02
189.52,2.62,2.63,0.60,0.61,-0.62,-1.23,-1.38,2.00,2.01,2.02
191.42,2.39,2.39,0.37,0.37,-0.38,-1.11,-1.23,2.01,2.01,2.02
193.33,2.17,2.17,0.15,0.15,-0.16,-1.00,-1.08,2.01,2.01,2.02
195.27,1.96,1.96,-0.06,-0.05,0.06,-0.88,-0.94,2.02,2.02,2.02
197.22,1.77,1.77,-0.25,-0.25,0.26,-0.77,-0.80,2.03,2.03,2.02
199.19,1.59,1.59,-0.43,-0.43,0.44,-0.66,-0.65,2.03,2.03,2.02
201.18,1.41,1.41,-0.61,-0.61,0.61,-0.56,-0.52,2.02,2.02,2.02
203.19,1.25,1.25,-0.77,-0.77,0.76,-0.46,-0.38,2.01,2.01,2.02
205.23,1.11,1.11,-0.91,-0.91,0.89,-0.36,-0.24,2.00,2.00,2.02
207.28,1.00,1.00,-1.02,-1.02,1.00,-0.26,-0.11,2.00,2.01,2.02
209.35,0.91,0.91,-1.11,-1.11,1.10,-0.17,0.02,2.01,2.01,2.02
211.44,0.84,0.84,-1.18,-1.18,1.18,-0.08,0.15,2.02,2.02,2.02
213.56,0.78,0.78,-1.24,-1.24,1.25,0.01,0.27,2.03,2.03,2.02
215.69,0.73,0.73,-1.29,-1.29,1.30,0.09,0.39,2.03,2.03,2.02
217.85,0.69,0.69,-1.33,-1.33,1.34,0.17,0.51,2.03,2.03,2.02
220.03,0.65,0.65,-1.37,-1.36,1.37,0.25,0.62,2.02,2.02,2.02
222.23,0.63,0.63,-1.39,-1.39,1.39,0.32,0.73,2.02,2.02,2.02
224.45,0.62,0.62,-1.40,-1.40,1.41,0.39,0.84,2.03,2.02,2.02
226.70,0.61,0.61,-1.41,-1.41,1.41,0.46,0.94,2.02,2.02,2.02
228.96,0.62,0.62,-1.40,-1.40,1.40,0.53,1.03,2.02,2.02,2.02
231.25,0.63,0.63,-1.39,-1.39,1.38,0.58,1.12,2.01,2.01,2.02
233.57,0.66,0.66,-1.36,-1.36,1.34,0.64,1.21,2.00,2.00,2.02
235.90,0.70,0.70,-1.31,-1.31,1.30,0.69,1.29,2.00,2.00,2.01
238.26,0.76,0.76,-1.25,-1.25,1.24,0.75,1.36,2.00,2.00,2.01
240.64,0.83,0.83,-1.18,-1.18,1.18,0.79,1.43,2.01,2.01,2.01
243.05,0.90,0.90,-1.11,-1.11,1.11,0.84,1.49,2.01,2.01,2.01
245.48,0.97,0.97,-1.04,-1.04,1.05,0.88,1.54,2.02,2.02,2.01
247.93,1.04,1.04,-0.97,-0.97,0.99,0.92,1.59,2.03,2.02,2.01
250.41,1.10,1.10,-0.91,-0.91,0.93,0.95,1.63,2.03,2.02,2.01
252.92,1.14,1.14,-0.87,-0.87,0.87,0.98,1.66,2.01,2.02,2.01
255.45,1.18,1.18,-0.83,-0.83,0.83,1.01,1.69,2.01,2.01,2.01
258.00,1.22,1.22,-0.79,-0.79,0.78,1.04,1.71,2.00,2.00,2.01
260.58,1.25,1.25,-0.76,-0.76,0.75,1.06,1.73,2.00,2.00,2.01
263.19,1.28,1.29,-0.73,-0.72,0.71,1.08,1.74,1.99,2.00,2.01
265.82,1.32,1.32,-0.69,-0.69,0.69,1.10,1.74,2.01,2.01,2.01
268.48,1.35,1.35,-0.66,-0.66,0.67,1.12,1.74,2.02,2.02,2.01
271.16,1.37,1.37,-0.64,-0.64,0.66,1.13,1.73,2.03,2.03,2.01
273.87,1.37,1.37,-0.64,-0.64,0.66,1.14,1.72,2.03,2.03,2.01
276.61,1.36,1.36,-0.65,-0.65,0.66,1.15,1.70,2.02,2.02,2.01
279.38,1.34,1.34,-0.67,-0.67,0.66,1.16,1.68,2.00,2.00,2.01
282.17,1.33,1.33,-0.68,-0.69,0.67,1.17,1.65,2.00,2.00,2.01
284.99,1.31,1.32,-0.71,-0.70,0.68,1.17,1.62,1.99,2.00,2.02
287.84,1.32,1.32,-0.71,-0.71,0.69,1.17,1.59,2.01,2.01,2.03
290.72,1.32,1.32,-0.71,-0.71,0.70,1.18,1.56,2.03,2.03,2.03
293.63,1.33,1.33,-0.70,-0.71,0.72,1.18,1.52,2.05,2.04,2.03
296.57,1.32,1.32,-0.72,-0.72,0.73,1.17,1.48,2.05,2.05,2.04
299.53,1.31,1.31,-0.74,-0.73,0.74,1.17,1.44,2.05,2.05,2.05
302.53,1.30,1.30,-0.75,-0.75,0.76,1.17,1.40,2.06,2.06,2.05
305.55,1.28,1.28,-0.78,-0.78,0.78,1.16,1.36,2.06,2.06,2.06
308.61,1.26,1.26,-0.80,-0.80,0.81,1.16,1.32,2.07,2.06,2.06
311.69,1.23,1.23,-0.84,-0.83,0.83,1.15,1.27,2.07,2.07,2.07
314.81,1.21,1.21,-0.86,-0.86,0.87,1.14,1.23,2.08,2.07,2.07
317.96,1.18,1.18,-0.90,-0.90,0.89,1.13,1.18,2.07,2.08,2.08
321.14,1.16,1.16,-0.92,-0.93,0.92,1.12,1.14,2.08,2.08,2.08
324.35,1.13,1.13,-0.96,-0.95,0.95,1.11,1.09,2.08,2.08,2.09
327.59,1.12,1.12,-0.98,-0.98,0.97,1.10,1.05,2.09,2.09,2.10
330.87,1.11,1.11,-0.99,-0.99,0.99,1.09,1.00,2.10,2.10,2.10
334.18,1.11,1.11,-1.00,-1.00,1.00,1.08,0.96,2.11,2.11,2.11
337.52,1.10,1.10,-1.01,-1.01,1.02,1.06,0.91,2.12,2.12,2.11
340.90,1.10,1.10,-1.02,-1.02,1.03,1.05,0.87,2.13,2.12,2.12
344.30,1.09,1.09,-1.04,-1.04,1.04,1.04,0.83,2.13,2.13,2.13
347.75,1.09,1.09,-1.05,-1.05,1.05,1.02,0.79,2.14,2.14,2.14
351.23,1.09,1.09,-1.05,-1.05,1.06,1.01,0.74,2.15,2.15,2.14
354.74,1.10,1.10,-1.06,-1.06,1.06,1.00,0.70,2.16,2.16,2.16
358.28,1.10,1.10,-1.06,-1.06,1.07,0.98,0.66,2.17,2.17,2.16
361.87,1.10,1.10,-1.07,-1.07,1.07,0.97,0.62,2.17,2.17,2.17
365.49,1.11,1.11,-1.07,-1.07,1.06,0.95,0.58,2.17,2.17,2.18
369.14,1.13,1.13,-1.05,-1.05,1.04,0.94,0.54,2.17,2.17,2.18
372.83,1.16,1.16,-1.04,-1.03,1.01,0.93,0.51,2.17,2.18,2.20
376.56,1.21,1.21,-0.99,-0.99,0.98,0.91,0.47,2.20,2.19,2.20
380.33,1.26,1.26,-0.95,-0.94,0.95,0.90,0.43,2.21,2.22,2.21
384.13,1.32,1.32,-0.89,-0.89,0.92,0.88,0.40,2.24,2.24,2.21
387.97,1.37,1.37,-0.85,-0.86,0.88,0.87,0.36,2.25,2.25,2.22
391.85,1.41,1.41,-0.83,-0.82,0.84,0.85,0.33,2.25,2.25,2.24
395.77,1.44,1.45,-0.80,-0.80,0.79,0.84,0.30,2.23,2.24,2.24
399.73,1.49,1.49,-0.76,-0.76,0.74,0.83,0.27,2.23,2.23,2.25
403.72,1.54,1.54,-0.72,-0.71,0.69,0.81,0.23,2.23,2.23,2.26
407.76,1.61,1.61,-0.65,-0.65,0.63,0.80,0.20,2.24,2.24,2.26
411.84,1.69,1.69,-0.58,-0.58,0.56,0.79,0.17,2.25,2.26,2.27
415.96,1.78,1.78,-0.50,-0.49,0.50,0.77,0.15,2.28,2.28,2.28
420.12,1.87,1.87,-0.41,-0.41,0.43,0.76,0.12,2.30,2.30,2.28
424.32,1.96,1.95,-0.33,-0.34,0.36,0.75,0.09,2.32,2.31,2.29
428.56,2.02,2.02,-0.28,-0.28,0.30,0.73,0.07,2.32,2.32,2.30
432.85,2.07,2.07,-0.24,-0.23,0.25,0.72,0.04,2.32,2.32,2.31
437.18,2.11,2.11,-0.20,-0.20,0.20,0.71,0.02,2.31,2.32,2.31
441.55,2.16,2.16,-0.16,-0.16,0.16,0.70,0.00,2.32,2.32,2.32
445.96,2.20,2.20,-0.13,-0.13,0.12,0.69,-0.02,2.32,2.32,2.33
450.42,2.25,2.25,-0.10,-0.10,0.08,0.68,-0.04,2.33,2.33,2.35
454.93,2.29,2.30,-0.07,-0.06,0.03,0.66,-0.05,2.32,2.33,2.36
459.48,2.36,2.36,-0.01,-0.01,-0.02,0.65,-0.07,2.34,2.34,2.37
464.07,2.43,2.43,0.06,0.06,-0.07,0.64,-0.08,2.36,2.37,2.37
468.71,2.51,2.51,0.13,0.13,-0.11,0.63,-0.09,2.40,2.40,2.38
473.40,2.58,2.57,0.19,0.18,-0.15,0.62,-0.10,2.43,2.42,2.39
478.13,2.62,2.62,0.22,0.22,-0.18,0.61,-0.11,2.44,2.43,2.40
482.91,2.64,2.64,0.23,0.23,-0.21,0.60,-0.11,2.43,2.43,2.41
487.74,2.65,2.65,0.23,0.23,-0.23,0.60,-0.12,2.42,2.42,2.42
492.62,2.65,2.65,0.22,0.22,-0.24,0.59,-0.12,2.41,2.41,2.43
497.55,2.66,2.67,0.22,0.23,-0.25,0.58,-0.12,2.41,2.41,2.44
