frequency,raw,error,smoothed,error_smoothed,equalization,equalized_raw,equalized_smoothed,target
20,-14.791961113870649,-15.577847314716516,-14.76174135785714,-15.547612211476851,5.999999999999999,-8.791961113870649,-8.76174135785714,0.785886200845868
21,-14.153493502715412,-14.939360751323694,-14.258004887196325,-15.043874490056202,6.0,-8.153493502715412,-8.258004887196325,0.7858672486082812
22,-13.872101388631473,-14.657943845267905,-13.775660889460003,-14.561515660501284,6.0,-7.872101388631473,-7.775660889460003,0.7858424566364333
23,-13.316663102856536,-14.102473521557995,-13.314709364648174,-14.100535722812099,5.999999999999999,-7.316663102856537,-7.3147093646481744,0.7858104187014585
24,-12.89432921099355,-13.680098686647684,-12.875150312760823,-13.660934676988628,5.999999999999998,-6.894329210993552,-6.875150312760825,0.7857694756541327
25,-12.405038247501471,-13.190755931480137,-12.456797525159514,-13.242527790727157,6.000000000000001,-6.40503824750147,-6.456797525159513,0.7857176839786661
26,-12.003928109169793,-12.7895808912189,-12.060068051784693,-12.845730659402223,6.0,-6.003928109169793,-6.060068051784693,0.7856527820491079
27,-11.790712173587805,-12.576284327625345,-11.685166430944786,-12.47074625267301,6.0,-5.790712173587805,-5.685166430944786,0.7855721540375402
28,-11.253622535113998,-12.039095326542709,-11.332071882493022,-12.117551206768587,6.0,-5.253622535113998,-5.332071882493022,0.785472791428711
29,-11.083089675570466,-11.86844092767192,-11.0003150827569,-11.785672578393513,6.000000000000001,-5.0830896755704655,-5.0003150827569,0.7853512521014525
30,-10.620489241589672,-11.405692858534684,-10.688720724796191,-11.473930981661653,6.0,-4.620489241589672,-4.688720724796191,0.7852036169450121
31,-10.35526079541696,-11.140286239403778,-10.395509775457347,-11.18054263797214,5.999999999999999,-4.355260795416961,-4.395509775457348,0.785025443986819
32,-10.071576255354232,-10.856387975372819,-10.118461343552461,-10.903281402524895,5.999999999999999,-4.071576255354233,-4.118461343552462,0.784811720018586
33,-9.91992597234316,-10.704482782062941,-9.855236713944898,-10.63980279712778,6.0,-3.91992597234316,-3.8552367139448975,0.7845568097197813
34,-9.704133810371335,-10.48838821266315,-9.603753674685102,-10.38801823340647,5.999999999999998,-3.704133810371337,-3.6037536746851035,0.7842544022918139
35,-9.374214268464797,-10.158111724097878,-9.362464124852735,-10.146372571154103,6.000000000000001,-3.3742142684647964,-3.3624641248527345,0.7838974556330802
36,-9.07391292543044,-9.857391063535072,-9.130493070368816,-9.91398301143591,5.999999999999998,-3.0739129254304416,-3.130493070368818,0.7834781381046327
37,-8.862377752469632,-9.645365520428696,-8.907593425889493,-9.690593813535624,6.0,-2.862377752469632,-2.907593425889493,0.7829877679590638
38,-8.676207980078797,-9.458624730610472,-8.693954495788567,-9.476384706024813,6.000000000000001,-2.6762079800787957,-2.6939544957885664,0.7824167505316759
39,-8.563699411501098,-9.345453924824556,-8.48994496334961,-9.271713805308643,6.0,-2.563699411501098,-2.4899449633496094,0.7817545133234582
40,-8.299004454794412,-9.079993893934848,-8.295869068459861,-9.07687373131229,5.999999999999999,-2.299004454794413,-2.2958690684598624,0.7809894391404364
41,-8.07226963331436,-8.85237843080823,-8.111797332869426,-8.891922268670434,5.999999999999999,-2.0722696333143604,-2.1117973328694264,0.7801087974938694
42,-7.956098777573918,-8.735197452085112,-7.9374912401719975,-8.716606979333715,6.000000000000003,-1.9560987775739154,-1.9374912401719948,0.7790986745111934
43,-7.765018866164469,-8.54296276782339,-7.772407242975762,-8.550369140170966,6.0,-1.7650188661644686,-1.7724072429757616,0.7779439016589222
44,-7.5638694408734946,-8.340497424509893,-7.615751057807108,-8.392397965492954,6.0,-1.5638694408734946,-1.615751057807108,0.7766279836363985
45,-7.523551711546153,-8.298684737409994,-7.46655716522212,-8.241710033991712,5.999999999999998,-1.5235517115461548,-1.466557165222122,0.7751330258638407
46,-7.312062542231583,-8.085502204291426,-7.323783562295794,-8.097243968230272,6.0,-1.3120625422315833,-1.3237835622957936,0.7734396620598432
47,-7.2056965942288365,-7.977223576711642,-7.186421012445834,-7.9579696122980055,6.0,-1.2056965942288365,-1.1864210124458339,0.7715269824828064
48,-7.060995877763889,-7.830368341261709,-7.053612188253104,-7.823007104085866,6.0,-1.0609958777638893,-1.053612188253104,0.7693724634978194
49,-6.859846452444075,-7.626798351669587,-6.924763523532314,-7.69173865897543,5.999999999999999,-0.8598464524440761,-0.9247635235323148,0.7669518992255115
50,-6.8598464521913485,-7.624085788323529,-6.799622271690797,-7.5638855627592205,5.999999999999999,-0.8598464521913494,-0.7996222716907981,0.7642393361321806
51,-6.658697026362111,-7.419904037893019,-6.678294801807942,-7.439526406177388,5.999999999999999,-0.6586970263621117,-0.6782948018079429,0.761207011530908
52,-6.635211216553879,-7.393036513634745,-6.561203073621285,-7.319053503338095,5.999999999999999,-0.6352112165538797,-0.5612030736212859,0.7578252970808661
53,-6.4072602441628845,-7.161322892658653,-6.449006426854089,-7.203094630702854,6.000000000000002,-0.40726024416288276,-0.449006426854087,0.7540626484957689
54,-6.356972889617918,-7.106858452419201,-6.342537595097897,-7.0924489982059065,6.0,-0.35697288961791784,-0.3425375950978973,0.7498855628012828
55,-6.155823468822473,-6.901082013436099,-6.242796534982141,-6.988081044719973,6.0,-0.1558234688224731,-0.2427965349821406,0.7452585446136255
56,-6.155823475661977,-6.895967558707348,-6.151010136060056,-6.891180124911552,6.000000000000002,-0.1558234756619754,-0.1510101360600542,0.74014408304537
57,-6.155823481697223,-6.890326122674368,-6.068713197985811,-6.803241475803996,5.999999999999999,-0.15582348169722415,-0.06871319798581155,0.7345026409771456
58,-6.055248767380812,-6.783541425942927,-5.997762790730988,-6.726080580672011,6.0,-0.05524876738081197,0.0022372092690119416,0.7282926585621143
59,-5.872552486949671,-6.594023059899673,-5.940192040092703,-6.6616869745167016,6.0,0.12744751305032942,0.059807959907296926,0.7214705729500022
60,-5.853255840823027,-6.567246697147392,-5.897855372859407,-6.61186952759077,6.000000000000001,0.1467441591769738,0.10214462714059369,0.7139908563243651
61,-5.854099203961012,-6.559905278396366,-5.871905437321994,-6.5777334248532116,6.000000000000001,0.14590079603898864,0.12809456267800723,0.7058060744353538
62,-5.85409912328396,-6.55096609115831,-5.862237443163902,-6.559124587641795,5.999999999999999,0.14590087671603946,0.13776255683609673,0.6968669678743509
63,-5.854099084037554,-6.5412216424072085,-5.867093612338744,-6.554234231455511,6.0,0.1459009159624456,0.13290638766125618,0.6871225583696545
64,-5.854099167925812,-6.530619450302082,-5.883006293981191,-6.559542115200923,6.000000000000001,0.14590083207418925,0.11699370601880954,0.6765202823762704
65,-5.864243023574374,-6.529249177754181,-5.905165615214074,-6.570184355852336,6.0,0.13575697642562634,0.09483438478592632,0.665006154179808
66,-5.974499969986459,-6.627024930612327,-5.928155376771006,-6.580689519741587,6.000000000000003,0.02550003001354373,0.07184462322899687,0.6525249606258687
67,-5.9546756764503534,-6.5936961658638396,-5.946863563459386,-6.585889362685972,5.999999999999999,0.04532432354964566,0.05313643654061284,0.6390204894134861
68,-6.095481238425563,-6.719917031071028,-5.957299819066748,-6.581736569698134,6.000000000000001,-0.09548123842556233,0.04270018093325323,0.6244357926454649
69,-5.894332394222918,-6.503045881224718,-5.957075942738371,-6.565785551718944,6.0,0.10566760577708223,0.0429240572616294,0.6087134870018005
70,-6.015021501047395,-6.606817592534835,-5.945421228898405,-6.537208122967,6.0,-0.015021501047394636,0.05457877110159526,0.5917960914874398
71,-5.8540993484303065,-6.42772575162712,-5.922768416344132,-6.496379827951134,6.000000000000001,0.14590065156969434,0.0772315836558688,0.5736264031968132
72,-5.854093816609829,-6.408241727540781,-5.890094985836779,-6.444221659925935,5.999999999999999,0.1459061833901698,0.1099050141632203,0.5541479109309515
73,-5.854085053361662,-6.387390299159428,-5.8482783989259755,-6.3815557585742875,5.999999999999998,0.14591494663833604,0.15172160107402277,0.5333052457977656
74,-5.7720560912822565,-6.283100758406555,-5.797697413332507,-6.308707211347121,6.000000000000001,0.2279439087177444,0.20230258666749368,0.5110446671242976
75,-5.738659892983568,-6.225974474101552,-5.738200785710463,-6.225473253662306,6.0,0.26134010701643184,0.2617992142895371,0.4873145811179831
76,-5.80704677918908,-6.269112867932117,-5.669419111719748,-6.131435608914265,5.976216034963576,0.16916925577449593,0.30679692324382835,0.46206608874303745
77,-5.5241637118702895,-5.959417270114492,-5.59127310281869,-6.026469293010168,5.925578048512868,0.40141433664257864,0.33430494569417846,0.4352535582442023
78,-5.472463213786498,-5.879298430461306,-5.504474958920111,-5.9112446186038134,5.849146794094133,0.3766835803076347,0.34467183517402145,0.4068352166748075
79,-5.450537537480724,-5.827311291177553,-5.4108404806657955,-5.787540125731947,5.754306192532669,0.30376865505194495,0.34346571186687314,0.3767737536968294
80,-5.41170936886922,-5.756746298719211,-5.313307769902854,-5.658262260899838,5.646816426989402,0.23510705812018262,0.333508657086548,0.3450369298499911
81,-5.141739756288619,-5.453337936761501,-5.215653637105561,-5.527162665596248,5.527162665596249,0.38542290930763023,0.31150902849068807,0.311598180472882
82,-5.058548692164611,-5.3349858977080284,-5.121977624987254,-5.398322510822743,5.398322510822742,0.3397738186581307,0.27634488583548755,0.276437205543417
83,-5.028503546693089,-5.2680440816265754,-5.036068198588236,-5.275517954465807,5.275517954465806,0.247014407772717,0.2394497558775699,0.23954053493348715
84,-4.991913767890399,-5.192815825879677,-4.960778511510567,-5.161594126300166,5.161594126300166,0.16968035840976725,0.2008156147895992,0.20090205798927796
85,-4.882861723147141,-5.043385229146432,-4.897531794072673,-5.057968697412992,5.057968697412993,0.17510697426585153,0.16043690334031968,0.16052350599929088
86,-4.8386791238561155,-4.957093999894301,-4.84605865295242,-4.964369502749939,4.964369502749938,0.12569037889382262,0.11831084979751783,0.11841487603818557
87,-4.747410468932224,-4.822005253843718,-4.804440215360708,-4.878882733301829,4.878882733301831,0.13147226436960668,0.07444251794112233,0.07459478491149385
88,-4.726436646636934,-4.755527389137903,-4.7694839033482594,-4.798339714889893,4.798339714889895,0.07190306825296133,0.028855811541635745,0.02909074250096877
89,-4.784495464041043,-4.766434798779213,-4.737387994499182,-4.718996226690081,4.718996226690081,-0.06549923735096197,-0.01839176780910101,-0.01806066526182981
90,-4.723854175726441,-4.657040483443291,-4.704568871708128,-4.637371503182192,4.637371503182193,-0.08648267254424802,-0.06719736852593527,-0.0668136922831497
91,-4.734883992601016,-4.617770538680606,-4.6684575750248865,-4.551043300382462,4.551043300382462,-0.1838406922185536,-0.11741427464242449,-0.11711345392040906
92,-4.640513238506445,-4.4716171792577635,-4.628053797203077,-4.45917752932616,4.459177529326161,-0.18133570918028408,-0.16887626787691623,-0.16889605924868167
93,-4.639624933725744,-4.41753607702202,-4.584076972744809,-4.362629183184257,4.362629183184257,-0.27699575054148706,-0.22144778956055156,-0.22208885670372425
94,-4.5390633319602856,-4.262452538544604,-4.538669204443762,-4.263578470490852,4.263578470490854,-0.2754848614694314,-0.27509073395290784,-0.27661079341568096
95,-4.399651794705795,-4.0672789086986825,-4.494746350227361,-4.164820796410755,4.164820796410754,-0.23483099829504095,-0.32992555381660704,-0.33237288600711246
96,-4.402922656265955,-4.013643858223354,-4.455208115134839,-4.068951406175496,4.068951406175495,-0.33397125009045947,-0.38625670895934405,-0.38927879804260135
97,-4.448770874987967,-4.0015453582118905,-4.42225890341642,-3.977722662219219,3.9777226622192186,-0.47104821276874853,-0.4445362411972016,-0.447225516776077
98,-4.457126770577512,-3.9510226511376993,-4.397039917821045,-3.8917834967533,3.8917834967533,-0.5653432738242117,-0.5052564210677453,-0.5061041194398124
99,-4.307562106355864,-3.741761489209292,-4.379648589451841,-3.810859536239411,3.8108595362394104,-0.49670257011645313,-0.5687890532124302,-0.5658006171465715
100,-4.3442887986937775,-3.718091936077185,-4.369474716322642,-3.7342593954780607,3.7342593954780616,-0.6100294032157159,-0.6352153208445808,-0.6261968626165926
101,-4.4601317478904985,-3.7729602414258974,-4.365671521095738,-3.6614673783988407,3.661467378398841,-0.7986643694916573,-0.7042041426968968,-0.6871715064646011
102,-4.370992445653996,-3.622391459910253,-4.36754488412816,-3.5925543629153323,3.5925543629153314,-0.7784380827386643,-0.7749905212128283,-0.7486009857437428
104,-4.341616612251984,-3.469291459211695,-4.3746942919486145,-3.528216440886016,3.528216440886016,-0.8134001713659682,-0.8464778510625983,-0.8723251530402893
105,-4.365416066915539,-3.4310454084867184,-4.386851986906537,-3.4694039954748073,3.469403995474807,-0.8960120714407318,-0.9174479914317302,-0.9343706584288203
106,-4.389933209767499,-3.3935586409968828,-4.4034974474674655,-3.4166729806500387,3.4166729806500378,-0.9732602291174608,-0.9868244668174277,-0.9963745687706158
107,-4.4143092309433065,-3.35609219231832,-4.423422605111191,-3.3695102332258307,3.3695102332258307,-1.0447989977174759,-1.0539123718853602,-1.0582170386249867
108,-4.437677585616582,-3.3178958919249344,-4.444454154580953,-3.325911507656878,3.3259115076568775,-1.1117660779597043,-1.1185426469240753,-1.1197816936916474
109,-4.459224198601007,-3.2782677983936472,-4.463493560855522,-3.282416044378588,3.2824160443785892,-1.1768081542224174,-1.1810775164769325,-1.1809564002073594
110,-4.478242611615908,-3.236608658015235,-4.476927700168666,-3.2346500993450755,3.234650099345074,-1.2435925122708338,-1.2422776008235918,-1.2416339536006729
111,-4.494179649574853,-3.1924669698056385,-4.481328577114371,-3.178254720030708,3.1782547200307083,-1.315924929544145,-1.3030738570836626,-1.301712679769215
112,-4.5066681204189525,-3.145571175848698,-4.4742459075695695,-3.1099314303532783,3.1099314303532783,-1.3967366900656741,-1.3643144772162912,-1.3610969445702543
113,-4.5155441275633414,-3.0958465582663255,-4.454845064605505,-3.028285485787428,3.028285485787428,-1.4872586417759135,-1.4265595788180767,-1.419697569297016
114,-4.4370533058876225,-2.959621153905375,-4.424176962957576,-2.9342015539495194,2.93420155394952,-1.5028517519381026,-1.4899754090080561,-1.4774321519822475
115,-4.405261353619563,-2.871036057348285,-4.384977480877857,-2.830633605728651,2.830633605728652,-1.5746277478909114,-1.554343875149205,-1.5342252962712783
117,-4.320658145410532,-2.6759366780027984,-4.341045505030618,-2.72187926453143,2.721879264531429,-1.5987788808791032,-1.6191662404991884,-1.644721467407734
118,-4.294975126918258,-2.596665553055255,-4.296385986661289,-2.6125713734816745,2.6125713734816736,-1.6824037534365845,-1.683814613179615,-1.698309573863003
119,-4.160182715802405,-2.4094564304516957,-4.254374316156686,-2.5066957173315942,2.5066957173315942,-1.6534869984708105,-1.7476785988250918,-1.750726285350709
120,-4.154461640553082,-2.3525298955140963,-4.2171744638607835,-2.406907616189671,2.4069076161896708,-1.7475540243634113,-1.8102668476711128,-1.8019317450389858
121,-4.197125253602998,-2.3452324415104635,-4.185539806788275,-2.314292514447886,2.3142925144478865,-1.8828327391551114,-1.8712472923403882,-1.8518928120925344
123,-4.24967818402549,-2.3016969973905663,-4.158989131422477,-2.2285543043074627,2.228554304307463,-2.021123879718027,-1.9304348271150142,-1.947981186634924
124,-4.183668091229033,-2.1895948257518874,-4.136236571535036,-2.148485472107291,2.1484854721072915,-2.0351826191217417,-1.987751099427745,-1.9940732654771458
125,-4.0735125577718465,-2.0346627481637496,-4.115703732086569,-2.0725205679383176,2.0725205679383176,-2.000991989833529,-2.0431831641482514,-2.038849809608097
126,-4.066446995551226,-1.9841403041493466,-4.0959632443212,-1.9992053740423192,1.9992053740423192,-2.067241621508907,-2.0967578702788807,-2.0823066914018797
128,-4.059858470875996,-1.8945903014733996,-4.076029436415406,-1.9274954636047104,1.9274954636047108,-2.1323630072712856,-2.1485339728106956,-2.1652681694025966
129,-4.053748880233283,-1.8489623155584805,-4.055481360774861,-1.8568794239765658,1.8568794239765662,-2.1968694562567173,-2.198601936798295,-2.204786564674803
130,-4.048094471783889,-1.8050823418523367,-4.034444725046314,-1.7873669160200203,1.7873669160200207,-2.2607275557638684,-2.2470778090262935,-2.2430121299315524
131,-4.042872680210031,-1.7629121774706253,-4.013467597749086,-1.7193843092027907,1.7193843092027907,-2.3234883710072407,-2.2940832885462954,-2.279960502739406
133,-4.038080733582049,-1.6879786720863907,-3.9933172903304457,-1.6536023646289884,1.6536023646289886,-2.3844783689530606,-2.339714925701457,-2.3501020614956585
134,-3.983790279053371,-1.6004509334449812,-3.974725334953879,-1.5907108560811098,1.59071085608111,-2.393079422972261,-2.384014478872769,-2.38333934560839
135,-3.868990570966385,-1.4536035750594314,-3.958125640639806,-1.5311710507883152,1.5311710507883154,-2.3378195201780696,-2.4269545898514906,-2.4153869959069536
137,-3.919522754862416,-1.443501866208361,-3.9434579619483774,-1.4750098853648863,1.4750098853648863,-2.4445128694975296,-2.468448076583491,-2.476020888654055
138,-3.923421896634793,-1.4187580357913334,-3.9301186904757026,-1.4217400073163695,1.4217400073163697,-2.501681889318423,-2.508378683159333,-2.5046638608434595
140,-3.9214318078410697,-1.3626816692457329,-3.9171114130410394,-1.3704701607630405,1.3704701607630403,-2.5509616470780294,-2.546641252277999,-2.558750138595337
141,-3.9333695986599646,-1.3491151446388119,-3.903381593536534,-1.3202065258588909,1.3202065258588909,-2.6131630728010737,-2.5831750676776433,-2.5842544540211527
142,-3.973153173042612,-1.3643791024704908,-3.888240147369628,-1.2702624348705354,1.2702624348705356,-2.7028907381720764,-2.6179777124990924,-2.6087740705721214
144,-3.871512387551868,-1.2165291229246065,-3.871728290138363,-1.220632152143939,1.220632152143939,-2.650880235407929,-2.6510961379944242,-2.6549832646272615
145,-3.8186672671767004,-1.1419326601542639,-3.854780981178574,-1.1721791258296657,1.1721791258296654,-2.646488141347035,-2.682601855348908,-2.6767346070224365
147,-3.818994748853136,-1.1013115280430852,-3.839112749215422,-1.1265494091587769,1.1265494091587767,-2.692445339694359,-2.7125633400566453,-2.7176832208100508
148,-3.8193554624201007,-1.082415178966801,-3.826850587370563,-1.0858221604151033,1.085822160415103,-2.7335333020049974,-2.7410284269554603,-2.7369402834532996
150,-3.8195981726713937,-1.0464326352456115,-3.8200283002452586,-1.0520047834068418,1.0520047834068418,-2.767593389264552,-2.768023516838417,-2.773165537425782
151,-3.8196108058862834,-1.0294206202378433,-3.820095984179047,-1.0265282085111849,1.0265282085111849,-2.793082597375099,-2.793567775667862,-2.79019018564844
153,-3.819340501196207,-0.9971408366100154,-3.8275746346465134,-1.0098811238740655,1.0098811238740655,-2.809459377322142,-2.8176935107724477,-2.8221996645861918
154,-3.818808855821584,-0.981572038243395,-3.841917488072929,-1.0014557839308829,1.0014557839308829,-2.817353071890701,-2.8404617041420464,-2.837236817578189
156,-3.8181198901687163,-0.9526187182434556,-3.8615647013019947,-0.9995999034087328,0.9995999034087331,-2.8185199867599833,-2.8619647978932616,-2.8655011719252608
157,-3.8934456905716006,-1.0146695135774588,-3.88413361545411,-1.0018183608521838,1.0018183608521838,-2.891627329719417,-2.8823152546019264,-2.878776176994142
159,-3.971015062069875,-1.0672894756240634,-3.9066884319323236,-1.005063509031106,1.0050635090311062,-2.965951553038769,-2.9016249229012177,-2.9037255864458116
160,-3.9362858576376576,-1.020842669894908,-3.926065849549542,-1.0060818240137102,1.00608182401371,-2.930204033623948,-2.9199840255358325,-2.9154431877427496
