frequency,raw,error,smoothed,error_smoothed,equalization,parametric_eq,fixed_band_eq,equalized_raw,equalized_smoothed,target
20.00,1.34,-3.10,1.35,-3.10,3.13,2.68,0.71,4.47,4.47,4.44
20.20,1.38,-3.05,1.38,-3.05,3.06,2.65,0.74,4.44,4.44,4.43
20.40,1.43,-2.99,1.43,-3.00,2.99,2.63,0.76,4.42,4.42,4.42
20.61,1.47,-2.95,1.47,-2.94,2.92,2.60,0.79,4.40,4.40,4.42
20.81,1.52,-2.88,1.52,-2.88,2.86,2.58,0.82,4.38,4.38,4.40
21.02,1.57,-2.83,1.58,-2.82,2.79,2.55,0.84,4.37,4.37,4.40
21.23,1.64,-2.75,1.64,-2.75,2.73,2.52,0.87,4.38,4.38,4.39
21.44,1.71,-2.69,1.72,-2.68,2.67,2.49,0.90,4.39,4.39,4.40
21.66,1.79,-2.60,1.79,-2.59,2.60,2.46,0.93,4.40,4.40,4.39
21.87,1.86,-2.51,1.86,-2.52,2.54,2.43,0.96,4.40,4.40,4.38
22.09,1.91,-2.45,1.91,-2.46,2.48,2.40,1.00,4.39,4.39,4.37
22.31,1.94,-2.42,1.95,-2.42,2.42,2.37,1.03,4.37,4.37,4.37
22.54,1.98,-2.38,1.98,-2.38,2.38,2.34,1.06,4.36,4.36,4.36
22.76,2.01,-2.34,2.01,-2.34,2.34,2.31,1.10,4.35,4.35,4.36
22.99,2.04,-2.30,2.04,-2.31,2.30,2.28,1.13,4.35,4.35,4.35
23.22,2.06,-2.27,2.07,-2.28,2.28,2.24,1.17,4.34,4.34,4.34
23.45,2.09,-2.25,2.09,-2.25,2.25,2.21,1.21,4.34,4.34,4.35
23.69,2.11,-2.22,2.11,-2.22,2.22,2.18,1.25,4.34,4.34,4.34
23.92,2.13,-2.20,2.14,-2.20,2.20,2.14,1.29,4.33,4.34,4.33
24.16,2.17,-2.17,2.17,-2.17,2.17,2.11,1.32,4.34,4.34,4.34
24.40,2.21,-2.14,2.21,-2.14,2.13,2.07,1.36,4.35,4.34,4.35
24.65,2.24,-2.11,2.25,-2.11,2.10,2.04,1.41,4.34,4.34,4.35
24.89,2.28,-2.07,2.29,-2.07,2.06,2.00,1.45,4.34,4.34,4.35
25.14,2.33,-2.02,2.33,-2.02,2.01,1.97,1.49,4.35,4.35,4.35
25.39,2.38,-1.97,2.38,-1.97,1.97,1.93,1.53,4.36,4.35,4.35
25.65,2.43,-1.92,2.44,-1.92,1.93,1.90,1.57,4.36,4.36,4.35
25.91,2.48,-1.88,2.48,-1.88,1.89,1.86,1.61,4.37,4.37,4.36
26.16,2.52,-1.84,2.52,-1.84,1.85,1.83,1.65,4.37,4.37,4.37
26.43,2.55,-1.81,2.56,-1.81,1.81,1.79,1.69,4.37,4.37,4.37
26.69,2.58,-1.78,2.59,-1.78,1.78,1.75,1.73,4.36,4.37,4.37
26.96,2.61,-1.75,2.61,-1.75,1.75,1.72,1.77,4.37,4.37,4.36
27.23,2.64,-1.72,2.64,-1.72,1.73,1.68,1.81,4.37,4.37,4.36
27.50,2.66,-1.70,2.66,-1.70,1.70,1.65,1.84,4.37,4.37,4.36
27.77,2.68,-1.69,2.69,-1.68,1.68,1.61,1.88,4.36,4.36,4.37
28.05,2.71,-1.66,2.71,-1.66,1.65,1.57,1.91,4.37,4.36,4.37
28.33,2.73,-1.62,2.74,-1.63,1.63,1.54,1.94,4.36,4.36,4.36
28.62,2.76,-1.59,2.76,-1.60,1.60,1.50,1.97,4.36,4.36,4.36
28.90,2.79,-1.57,2.79,-1.57,1.57,1.46,1.99,4.36,4.36,4.37
29.19,2.82,-1.54,2.82,-1.54,1.54,1.43,2.01,4.36,4.36,4.36
29.48,2.85,-1.51,2.86,-1.51,1.51,1.39,2.03,4.36,4.36,4.36
29.78,2.89,-1.47,2.89,-1.48,1.47,1.36,2.05,4.37,4.36,4.36
30.08,2.92,-1.45,2.92,-1.44,1.44,1.32,2.06,4.36,4.36,4.37
30.38,2.95,-1.41,2.95,-1.40,1.40,1.29,2.07,4.36,4.36,4.36
30.68,2.98,-1.36,2.98,-1.37,1.37,1.25,2.07,4.35,4.35,4.35
30.99,3.01,-1.33,3.01,-1.33,1.33,1.22,2.07,4.34,4.34,4.35
31.30,3.04,-1.29,3.04,-1.29,1.29,1.18,2.06,4.33,4.33,4.33
31.61,3.07,-1.26,3.07,-1.26,1.25,1.15,2.05,4.32,4.32,4.33
31.93,3.10,-1.22,3.10,-1.22,1.21,1.11,2.04,4.32,4.32,4.32
32.24,3.13,-1.18,3.14,-1.18,1.18,1.08,2.02,4.31,4.32,4.32
32.57,3.17,-1.13,3.17,-1.13,1.15,1.04,2.00,4.32,4.32,4.30
32.89,3.20,-1.10,3.20,-1.10,1.12,1.01,1.98,4.33,4.32,4.30
33.22,3.21,-1.09,3.21,-1.09,1.10,0.97,1.95,4.31,4.31,4.30
33.55,3.21,-1.08,3.21,-1.09,1.08,0.94,1.92,4.29,4.29,4.30
33.89,3.21,-1.09,3.22,-1.08,1.06,0.91,1.88,4.27,4.28,4.31
34.23,3.23,-1.06,3.24,-1.05,1.04,0.87,1.84,4.28,4.28,4.29
34.57,3.27,-1.02,3.27,-1.02,1.03,0.84,1.80,4.30,4.30,4.29
34.92,3.30,-0.98,3.30,-0.99,1.01,0.81,1.76,4.31,4.31,4.29
35.27,3.31,-0.98,3.31,-0.98,0.99,0.77,1.71,4.30,4.30,4.29
35.62,3.31,-0.97,3.31,-0.97,0.96,0.74,1.66,4.27,4.27,4.28
35.97,3.31,-0.96,3.32,-0.95,0.93,0.71,1.61,4.24,4.25,4.28
36.33,3.34,-0.92,3.35,-0.92,0.90,0.67,1.55,4.25,4.25,4.26
36.70,3.38,-0.87,3.38,-0.87,0.88,0.64,1.50,4.26,4.26,4.25
37.06,3.41,-0.82,3.40,-0.83,0.85,0.61,1.44,4.26,4.26,4.24
37.43,3.41,-0.80,3.42,-0.80,0.82,0.58,1.39,4.24,4.24,4.21
37.81,3.41,-0.78,3.42,-0.78,0.79,0.54,1.33,4.21,4.21,4.20
38.19,3.41,-0.76,3.41,-0.76,0.76,0.51,1.27,4.17,4.17,4.17
38.57,3.41,-0.74,3.41,-0.74,0.72,0.48,1.21,4.13,4.13,4.15
38.95,3.41,-0.71,3.42,-0.70,0.68,0.45,1.15,4.09,4.10,4.13
39.34,3.44,-0.65,3.45,-0.65,0.63,0.42,1.09,4.08,4.08,4.09
39.74,3.48,-0.59,3.48,-0.59,0.59,0.39,1.03,4.07,4.07,4.08
40.14,3.52,-0.53,3.52,-0.53,0.54,0.36,0.97,4.06,4.06,4.05
40.54,3.55,-0.47,3.55,-0.47,0.49,0.32,0.91,4.04,4.04,4.03
40.94,3.58,-0.42,3.58,-0.42,0.44,0.29,0.85,4.02,4.02,4.00
41.35,3.59,-0.39,3.60,-0.38,0.39,0.26,0.78,3.99,3.99,3.99
41.76,3.60,-0.35,3.61,-0.35,0.35,0.23,0.72,3.96,3.96,3.95
42.18,3.61,-0.32,3.61,-0.32,0.32,0.20,0.66,3.94,3.93,3.93
42.60,3.61,-0.30,3.61,-0.30,0.30,0.17,0.60,3.91,3.91,3.92
43.03,3.61,-0.28,3.61,-0.28,0.27,0.14,0.54,3.89,3.89,3.89
43.46,3.61,-0.25,3.61,-0.25,0.25,0.11,0.48,3.86,3.86,3.86
43.90,3.61,-0.23,3.61,-0.23,0.23,0.08,0.43,3.84,3.84,3.85
44.33,3.61,-0.21,3.61,-0.21,0.21,0.05,0.37,3.82,3.82,3.82
44.78,3.61,-0.18,3.61,-0.19,0.18,0.02,0.31,3.80,3.80,3.79
45.23,3.61,-0.17,3.61,-0.16,0.16,-0.01,0.25,3.77,3.77,3.78
45.68,3.61,-0.13,3.61,-0.13,0.13,-0.04,0.19,3.74,3.74,3.75
46.13,3.61,-0.09,3.61,-0.10,0.10,-0.07,0.13,3.71,3.71,3.71
46.60,3.61,-0.06,3.61,-0.07,0.07,-0.10,0.08,3.68,3.68,3.68
47.06,3.61,-0.04,3.61,-0.03,0.04,-0.13,0.02,3.65,3.65,3.65
47.53,3.61,-0.01,3.61,0.00,0.00,-0.16,-0.04,3.62,3.62,3.62
48.01,3.61,0.04,3.61,0.04,-0.04,-0.19,-0.09,3.58,3.58,3.57
48.49,3.61,0.08,3.61,0.08,-0.08,-0.22,-0.15,3.53,3.53,3.53
48.97,3.61,0.13,3.61,0.12,-0.13,-0.25,-0.20,3.48,3.48,3.49
49.46,3.61,0.16,3.61,0.16,-0.19,-0.28,-0.26,3.43,3.43,3.46
49.96,3.61,0.22,3.63,0.23,-0.24,-0.31,-0.31,3.37,3.39,3.40
50.46,3.66,0.30,3.66,0.30,-0.29,-0.34,-0.37,3.37,3.37,3.36
50.96,3.71,0.38,3.69,0.37,-0.35,-0.37,-0.42,3.37,3.35,3.33
51.47,3.71,0.41,3.72,0.42,-0.40,-0.40,-0.47,3.32,3.32,3.30
51.99,3.71,0.46,3.72,0.46,-0.44,-0.43,-0.53,3.27,3.27,3.26
52.51,3.71,0.49,3.71,0.49,-0.49,-0.45,-0.58,3.22,3.22,3.22
53.03,3.71,0.51,3.71,0.52,-0.53,-0.48,-0.63,3.18,3.18,3.20
53.56,3.71,0.56,3.71,0.56,-0.57,-0.51,-0.68,3.14,3.14,3.15
54.10,3.71,0.60,3.71,0.60,-0.61,-0.54,-0.73,3.11,3.11,3.11
54.64,3.71,0.64,3.71,0.64,-0.64,-0.57,-0.78,3.07,3.07,3.07
55.18,3.71,0.69,3.71,0.68,-0.68,-0.60,-0.83,3.03,3.03,3.03
55.74,3.71,0.72,3.71,0.72,-0.71,-0.63,-0.87,3.00,3.00,2.99
56.29,3.71,0.75,3.71,0.75,-0.75,-0.66,-0.92,2.97,2.97,2.96
56.86,3.71,0.78,3.71,0.79,-0.78,-0.69,-0.96,2.93,2.93,2.94
57.42,3.71,0.83,3.71,0.82,-0.81,-0.72,-1.00,2.90,2.90,2.89
58.00,3.71,0.84,3.71,0.84,-0.84,-0.75,-1.04,2.87,2.87,2.87
58.58,3.71,0.86,3.71,0.87,-0.87,-0.78,-1.08,2.84,2.84,2.85
59.16,3.71,0.89,3.71,0.89,-0.91,-0.81,-1.12,2.81,2.81,2.82
59.76,3.71,0.93,3.71,0.93,-0.94,-0.84,-1.16,2.77,2.77,2.79
60.35,3.71,0.98,3.71,0.97,-0.99,-0.87,-1.19,2.73,2.73,2.74
60.96,3.71,1.02,3.71,1.02,-1.03,-0.90,-1.22,2.68,2.68,2.69
61.57,3.71,1.07,3.71,1.07,-1.07,-0.93,-1.25,2.64,2.64,2.64
62.18,3.71,1.13,3.72,1.13,-1.11,-0.96,-1.28,2.60,2.60,2.59
62.80,3.71,1.18,3.71,1.18,-1.15,-0.99,-1.31,2.56,2.56,2.53
63.43,3.70,1.22,3.70,1.21,-1.18,-1.02,-1.34,2.52,2.52,2.49
64.07,3.68,1.23,3.67,1.22,-1.22,-1.05,-1.36,2.47,2.46,2.45
64.71,3.63,1.23,3.64,1.24,-1.25,-1.08,-1.38,2.39,2.40,2.41
65.35,3.61,1.25,3.62,1.25,-1.28,-1.11,-1.40,2.33,2.34,2.37
66.01,3.61,1.29,3.61,1.28,-1.31,-1.14,-1.42,2.30,2.30,2.32
66.67,3.61,1.32,3.61,1.33,-1.34,-1.17,-1.44,2.27,2.27,2.29
67.33,3.61,1.38,3.62,1.38,-1.37,-1.20,-1.46,2.24,2.24,2.23
68.01,3.61,1.42,3.61,1.42,-1.41,-1.23,-1.47,2.21,2.21,2.19
68.69,3.61,1.47,3.61,1.47,-1.44,-1.26,-1.49,2.17,2.17,2.14
69.37,3.59,1.49,3.59,1.49,-1.47,-1.29,-1.50,2.12,2.12,2.11
70.07,3.57,1.52,3.56,1.51,-1.51,-1.32,-1.51,2.06,2.06,2.05
70.77,3.52,1.51,3.54,1.52,-1.54,-1.35,-1.52,1.98,1.99,2.01
71.48,3.51,1.55,3.52,1.56,-1.58,-1.38,-1.54,1.94,1.94,1.97
72.19,3.51,1.60,3.51,1.60,-1.61,-1.41,-1.55,1.90,1.90,1.91
72.91,3.51,1.65,3.51,1.65,-1.65,-1.44,-1.56,1.87,1.87,1.86
73.64,3.51,1.70,3.51,1.70,-1.69,-1.47,-1.57,1.83,1.83,1.82
74.38,3.51,1.73,3.51,1.74,-1.73,-1.51,-1.58,1.78,1.78,1.78
75.12,3.51,1.78,3.51,1.78,-1.77,-1.54,-1.60,1.74,1.74,1.73
75.87,3.51,1.81,3.51,1.82,-1.81,-1.57,-1.61,1.70,1.70,1.70
76.63,3.51,1.85,3.51,1.85,-1.86,-1.60,-1.62,1.66,1.66,1.66
77.40,3.51,1.89,3.51,1.89,-1.90,-1.63,-1.64,1.62,1.62,1.63
78.17,3.51,1.93,3.51,1.92,-1.93,-1.66,-1.65,1.58,1.58,1.59
78.95,3.51,1.95,3.51,1.95,-1.96,-1.69,-1.67,1.55,1.55,1.56
79.74,3.51,1.99,3.52,1.99,-1.99,-1.72,-1.68,1.53,1.53,1.53
80.54,3.51,2.02,3.52,2.03,-2.00,-1.76,-1.70,1.51,1.52,1.49
81.35,3.51,2.06,3.51,2.05,-2.01,-1.79,-1.72,1.50,1.50,1.46
82.16,3.49,2.06,3.47,2.04,-2.02,-1.82,-1.74,1.48,1.45,1.43
82.98,3.41,2.02,3.41,2.02,-2.02,-1.85,-1.76,1.39,1.39,1.39
83.81,3.33,1.98,3.36,2.00,-2.03,-1.88,-1.78,1.30,1.32,1.36
84.65,3.31,2.00,3.32,2.00,-2.04,-1.91,-1.80,1.27,1.28,1.32
85.50,3.31,2.05,3.31,2.03,-2.05,-1.94,-1.83,1.26,1.25,1.27
86.35,3.31,2.08,3.31,2.08,-2.07,-1.98,-1.86,1.24,1.24,1.24
87.22,3.31,2.11,3.31,2.11,-2.10,-2.01,-1.88,1.21,1.21,1.21
88.09,3.31,2.15,3.31,2.15,-2.14,-2.04,-1.91,1.17,1.17,1.16
88.97,3.31,2.18,3.31,2.19,-2.19,-2.07,-1.95,1.12,1.12,1.13
89.86,3.31,2.23,3.31,2.23,-2.23,-2.10,-1.98,1.08,1.08,1.08
90.76,3.31,2.27,3.32,2.28,-2.27,-2.13,-2.01,1.04,1.05,1.05
91.66,3.31,2.32,3.32,2.32,-2.30,-2.17,-2.05,1.01,1.02,0.99
92.58,3.32,2.37,3.31,2.35,-2.33,-2.20,-2.08,0.99,0.98,0.96
93.51,3.28,2.37,3.28,2.37,-2.35,-2.23,-2.12,0.93,0.93,0.91
94.44,3.23,2.37,3.25,2.38,-2.38,-2.26,-2.16,0.86,0.87,0.87
95.39,3.20,2.39,3.20,2.38,-2.40,-2.29,-2.20,0.81,0.80,0.81
96.34,3.16,2.41,3.15,2.40,-2.42,-2.32,-2.25,0.75,0.74,0.76
97.30,3.10,2.40,3.12,2.42,-2.44,-2.36,-2.29,0.66,0.68,0.70
98.28,3.09,2.45,3.09,2.46,-2.47,-2.39,-2.33,0.62,0.62,0.64
99.26,3.08,2.51,3.08,2.50,-2.50,-2.42,-2.38,0.58,0.57,0.58
100.25,3.06,2.55,3.06,2.54,-2.53,-2.45,-2.43,0.53,0.53,0.52
101.25,3.04,2.57,3.05,2.58,-2.56,-2.48,-2.47,0.48,0.48,0.47
102.27,3.02,2.61,3.03,2.61,-2.60,-2.51,-2.52,0.43,0.43,0.41
103.29,3.00,2.65,2.99,2.63,-2.62,-2.54,-2.57,0.38,0.37,0.36
104.32,2.95,2.65,2.95,2.64,-2.65,-2.57,-2.62,0.31,0.30,0.31
105.37,2.88,2.63,2.90,2.65,-2.67,-2.60,-2.67,0.22,0.23,0.25
106.42,2.85,2.66,2.86,2.67,-2.68,-2.63,-2.72,0.17,0.18,0.19
107.48,2.83,2.71,2.83,2.70,-2.69,-2.67,-2.77,0.14,0.14,0.12
108.56,2.80,2.72,2.80,2.72,-2.70,-2.70,-2.81,0.10,0.09,0.09
109.64,2.75,2.73,2.75,2.72,-2.71,-2.73,-2.86,0.04,0.03,0.03
110.74,2.68,2.71,2.69,2.72,-2.72,-2.76,-2.91,-0.04,-0.03,-0.03
111.85,2.64,2.72,2.66,2.73,-2.74,-2.79,-2.95,-0.09,-0.08,-0.08
112.97,2.63,2.76,2.62,2.75,-2.76,-2.82,-3.00,-0.12,-0.13,-0.12
114.10,2.61,2.78,2.59,2.77,-2.78,-2.85,-3.04,-0.17,-0.19,-0.17
115.24,2.53,2.76,2.56,2.78,-2.81,-2.87,-3.08,-0.27,-0.25,-0.23
116.39,2.53,2.82,2.54,2.81,-2.83,-2.90,-3.12,-0.30,-0.30,-0.28
117.55,2.53,2.85,2.53,2.86,-2.86,-2.93,-3.15,-0.32,-0.32,-0.32
118.73,2.54,2.92,2.54,2.91,-2.88,-2.96,-3.18,-0.33,-0.33,-0.37
119.92,2.54,2.95,2.54,2.94,-2.89,-2.99,-3.21,-0.35,-0.36,-0.41
121.12,2.51,2.95,2.50,2.94,-2.91,-3.02,-3.24,-0.40,-0.41,-0.43
122.33,2.45,2.93,2.45,2.92,-2.93,-3.05,-3.26,-0.47,-0.47,-0.47
123.55,2.39,2.90,2.41,2.91,-2.95,-3.07,-3.28,-0.55,-0.54,-0.51
124.79,2.37,2.91,2.38,2.93,-2.97,-3.10,-3.30,-0.59,-0.59,-0.54
126.03,2.38,2.97,2.38,2.96,-2.99,-3.13,-3.31,-0.61,-0.62,-0.58
127.29,2.39,3.02,2.39,3.01,-3.03,-3.16,-3.33,-0.63,-0.64,-0.62
128.57,2.39,3.06,2.40,3.06,-3.06,-3.18,-3.33,-0.67,-0.66,-0.66
129.85,2.40,3.11,2.40,3.11,-3.09,-3.21,-3.34,-0.69,-0.69,-0.70
131.15,2.40,3.15,2.42,3.16,-3.12,-3.24,-3.34,-0.71,-0.70,-0.74
132.46,2.41,3.19,2.41,3.19,-3.14,-3.26,-3.34,-0.73,-0.73,-0.78
133.79,2.40,3.22,2.37,3.19,-3.16,-3.29,-3.33,-0.75,-0.79,-0.82
135.12,2.29,3.15,2.31,3.16,-3.17,-3.31,-3.33,-0.87,-0.85,-0.85
136.48,2.24,3.12,2.26,3.14,-3.18,-3.34,-3.32,-0.94,-0.92,-0.88
137.84,2.22,3.14,2.22,3.14,-3.20,-3.36,-3.31,-0.97,-0.97,-0.92
139.22,2.22,3.19,2.22,3.18,-3.22,-3.38,-3.30,-0.99,-1.00,-0.97
140.61,2.22,3.22,2.23,3.22,-3.24,-3.41,-3.29,-1.01,-1.01,-0.99
142.02,2.23,3.27,2.23,3.27,-3.26,-3.43,-3.27,-1.03,-1.03,-1.04
143.44,2.23,3.31,2.24,3.31,-3.28,-3.45,-3.26,-1.05,-1.04,-1.08
144.87,2.23,3.34,2.24,3.35,-3.30,-3.48,-3.24,-1.07,-1.06,-1.11
146.32,2.23,3.37,2.21,3.36,-3.31,-3.50,-3.23,-1.08,-1.10,-1.14
147.78,2.17,3.35,2.16,3.34,-3.33,-3.52,-3.21,-1.15,-1.17,-1.18
149.26,2.07,3.29,2.09,3.31,-3.34,-3.54,-3.20,-1.26,-1.24,-1.22
150.75,2.02,3.29,2.04,3.30,-3.35,-3.56,-3.19,-1.32,-1.31,-1.26
152.26,2.02,3.31,2.02,3.31,-3.36,-3.58,-3.17,-1.33,-1.34,-1.29
153.78,2.02,3.35,2.02,3.35,-3.37,-3.60,-3.16,-1.34,-1.35,-1.33
155.32,2.02,3.39,2.03,3.40,-3.38,-3.62,-3.15,-1.36,-1.35,-1.36
156.88,2.03,3.44,2.03,3.44,-3.40,-3.64,-3.14,-1.36,-1.37,-1.41
158.44,2.02,3.47,2.01,3.46,-3.42,-3.65,-3.13,-1.39,-1.41,-1.45
160.03,1.96,3.46,1.97,3.46,-3.44,-3.67,-3.13,-1.47,-1.47,-1.49
161.63,1.90,3.44,1.91,3.44,-3.46,-3.69,-3.12,-1.55,-1.55,-1.53
163.24,1.85,3.44,1.86,3.44,-3.47,-3.70,-3.12,-1.62,-1.62,-1.58
164.88,1.82,3.45,1.83,3.45,-3.48,-3.72,-3.12,-1.66,-1.66,-1.62
166.53,1.81,3.49,1.82,3.49,-3.50,-3.73,-3.12,-1.68,-1.68,-1.67
168.19,1.81,3.53,1.81,3.52,-3.51,-3.75,-3.13,-1.70,-1.70,-1.71
169.87,1.80,3.56,1.79,3.55,-3.53,-3.76,-3.13,-1.72,-1.74,-1.76
171.57,1.75,3.56,1.75,3.56,-3.54,-3.78,-3.14,-1.79,-1.79,-1.81
173.29,1.70,3.56,1.72,3.57,-3.56,-3.79,-3.15,-1.86,-1.84,-1.85
175.02,1.68,3.57,1.69,3.58,-3.58,-3.80,-3.17,-1.89,-1.89,-1.89
176.77,1.68,3.62,1.65,3.59,-3.60,-3.81,-3.18,-1.91,-1.94,-1.93
178.54,1.61,3.59,1.62,3.60,-3.62,-3.82,-3.20,-2.00,-1.99,-1.98
180.32,1.58,3.60,1.60,3.61,-3.64,-3.83,-3.22,-2.05,-2.04,-2.02
182.13,1.59,3.64,1.59,3.64,-3.66,-3.84,-3.25,-2.07,-2.07,-2.05
183.95,1.60,3.69,1.61,3.69,-3.68,-3.85,-3.27,-2.08,-2.08,-2.08
185.79,1.61,3.74,1.61,3.73,-3.71,-3.86,-3.30,-2.09,-2.09,-2.12
187.65,1.62,3.78,1.60,3.76,-3.73,-3.87,-3.33,-2.11,-2.13,-2.15
189.52,1.56,3.76,1.58,3.77,-3.75,-3.88,-3.37,-2.19,-2.17,-2.19
191.42,1.55,3.77,1.55,3.77,-3.78,-3.88,-3.40,-2.22,-2.23,-2.21
193.33,1.52,3.78,1.52,3.77,-3.80,-3.89,-3.44,-2.28,-2.28,-2.25
195.27,1.49,3.78,1.50,3.79,-3.82,-3.89,-3.48,-2.32,-2.31,-2.29
197.22,1.49,3.82,1.50,3.83,-3.83,-3.90,-3.52,-2.34,-2.33,-2.33
199.19,1.50,3.86,1.50,3.86,-3.85,-3.90,-3.56,-2.34,-2.34,-2.35
201.18,1.51,3.90,1.49,3.88,-3.86,-3.90,-3.61,-2.35,-2.37,-2.39
203.19,1.46,3.88,1.47,3.88,-3.87,-3.91,-3.65,-2.41,-2.40,-2.42
205.23,1.42,3.86,1.45,3.89,-3.88,-3.91,-3.70,-2.45,-2.43,-2.44
207.28,1.42,3.89,1.42,3.89,-3.89,-3.91,-3.75,-2.46,-2.47,-2.47
209.35,1.41,3.91,1.39,3.88,-3.89,-3.91,-3.79,-2.48,-2.51,-2.50
211.44,1.33,3.87,1.36,3.89,-3.90,-3.91,-3.84,-2.57,-2.55,-2.53
213.56,1.31,3.87,1.32,3.88,-3.91,-3.91,-3.89,-2.59,-2.59,-2.56
215.69,1.31,3.90,1.30,3.89,-3.92,-3.91,-3.94,-2.60,-2.61,-2.59
217.85,1.30,3.92,1.31,3.93,-3.92,-3.91,-3.98,-2.62,-2.61,-2.61
220.03,1.30,3.96,1.30,3.95,-3.92,-3.90,-4.03,-2.62,-2.62,-2.65
222.23,1.30,3.98,1.28,3.96,-3.92,-3.90,-4.07,-2.62,-2.64,-2.68
224.45,1.22,3.92,1.24,3.94,-3.92,-3.90,-4.11,-2.69,-2.67,-2.70
226.70,1.20,3.92,1.20,3.91,-3.91,-3.89,-4.15,-2.71,-2.72,-2.72
228.96,1.15,3.88,1.15,3.88,-3.91,-3.89,-4.19,-2.76,-2.76,-2.73
231.25,1.12,3.86,1.13,3.88,-3.91,-3.88,-4.22,-2.79,-2.78,-2.74
233.57,1.12,3.88,1.12,3.88,-3.91,-3.87,-4.25,-2.78,-2.78,-2.76
235.90,1.13,3.90,1.13,3.90,-3.91,-3.87,-4.28,-2.77,-2.78,-2.77
238.26,1.14,3.92,1.15,3.92,-3.90,-3.86,-4.30,-2.76,-2.75,-2.78
240.64,1.16,3.93,1.16,3.93,-3.90,-3.85,-4.32,-2.74,-2.74,-2.76
243.05,1.17,3.95,1.16,3.94,-3.90,-3.84,-4.33,-2.73,-2.74,-2.77
245.48,1.14,3.92,1.14,3.92,-3.90,-3.83,-4.34,-2.75,-2.76,-2.78
247.93,1.11,3.90,1.11,3.89,-3.89,-3.82,-4.34,-2.78,-2.79,-2.79
250.41,1.05,3.83,1.08,3.86,-3.89,-3.81,-4.34,-2.84,-2.81,-2.78
252.92,1.06,3.84,1.06,3.84,-3.88,-3.80,-4.33,-2.82,-2.82,-2.77
255.45,1.07,3.86,1.07,3.85,-3.88,-3.79,-4.32,-2.80,-2.81,-2.79
258.00,1.08,3.87,1.08,3.87,-3.86,-3.77,-4.30,-2.78,-2.78,-2.79
260.58,1.08,3.88,1.09,3.88,-3.85,-3.76,-4.28,-2.76,-2.76,-2.79
263.19,1.08,3.88,1.08,3.88,-3.83,-3.75,-4.25,-2.75,-2.75,-2.80
265.82,1.05,3.87,1.04,3.85,-3.82,-3.73,-4.22,-2.77,-2.78,-2.81
268.48,0.99,3.81,0.98,3.81,-3.81,-3.72,-4.19,-2.81,-2.82,-2.82
271.16,0.90,3.74,0.92,3.76,-3.79,-3.70,-4.15,-2.89,-2.87,-2.84
273.87,0.87,3.71,0.88,3.73,-3.78,-3.68,-4.11,-2.90,-2.90,-2.84
276.61,0.87,3.73,0.87,3.73,-3.76,-3.67,-4.06,-2.89,-2.89,-2.86
279.38,0.87,3.75,0.88,3.75,-3.74,-3.65,-4.01,-2.87,-2.87,-2.88
282.17,0.87,3.75,0.88,3.76,-3.72,-3.63,-3.96,-2.85,-2.84,-2.88
284.99,0.88,3.76,0.87,3.75,-3.70,-3.62,-3.91,-2.82,-2.83,-2.88
287.84,0.84,3.72,0.84,3.72,-3.69,-3.60,-3.85,-2.85,-2.85,-2.87
290.72,0.80,3.69,0.80,3.68,-3.68,-3.58,-3.80,-2.87,-2.88,-2.89
293.63,0.73,3.62,0.75,3.63,-3.67,-3.56,-3.74,-2.93,-2.91,-2.88
296.57,0.72,3.60,0.73,3.61,-3.65,-3.54,-3.69,-2.93,-2.92,-2.88
299.53,0.73,3.61,0.73,3.61,-3.64,-3.52,-3.63,-2.90,-2.91,-2.88
302.53,0.74,3.62,0.75,3.62,-3.63,-3.50,-3.57,-2.88,-2.88,-2.87
305.55,0.76,3.64,0.76,3.64,-3.62,-3.48,-3.52,-2.86,-2.86,-2.88
308.61,0.76,3.63,0.76,3.64,-3.62,-3.45,-3.46,-2.85,-2.86,-2.87
311.69,0.76,3.65,0.74,3.62,-3.61,-3.43,-3.41,-2.85,-2.87,-2.88
314.81,0.70,3.58,0.72,3.60,-3.60,-3.41,-3.35,-2.89,-2.88,-2.88
317.96,0.68,3.57,0.70,3.58,-3.57,-3.39,-3.30,-2.89,-2.87,-2.89
321.14,0.68,3.57,0.67,3.55,-3.54,-3.36,-3.25,-2.85,-2.87,-2.88
324.35,0.64,3.53,0.63,3.52,-3.50,-3.34,-3.20,-2.86,-2.87,-2.89
327.59,0.58,3.46,0.58,3.46,-3.47,-3.32,-3.15,-2.88,-2.89,-2.88
330.87,0.50,3.38,0.52,3.40,-3.43,-3.29,-3.11,-2.93,-2.91,-2.88
334.18,0.47,3.37,0.48,3.37,-3.40,-3.27,-3.07,-2.93,-2.92,-2.89
337.52,0.47,3.36,0.47,3.36,-3.38,-3.24,-3.02,-2.90,-2.91,-2.89
340.90,0.47,3.36,0.48,3.36,-3.35,-3.22,-2.98,-2.88,-2.87,-2.89
344.30,0.47,3.35,0.48,3.36,-3.33,-3.19,-2.95,-2.86,-2.86,-2.88
347.75,0.47,3.35,0.46,3.33,-3.32,-3.17,-2.91,-2.84,-2.86,-2.87
351.23,0.42,3.31,0.43,3.30,-3.30,-3.14,-2.88,-2.88,-2.88,-2.88
354.74,0.38,3.25,0.40,3.27,-3.28,-3.12,-2.85,-2.90,-2.89,-2.87
358.28,0.37,3.24,0.38,3.25,-3.25,-3.09,-2.82,-2.88,-2.87,-2.87
361.87,0.38,3.24,0.38,3.24,-3.22,-3.06,-2.80,-2.84,-2.84,-2.86
365.49,0.39,3.24,0.37,3.22,-3.19,-3.04,-2.77,-2.79,-2.82,-2.85
369.14,0.32,3.17,0.33,3.17,-3.16,-3.01,-2.75,-2.83,-2.83,-2.84
372.83,0.26,3.10,0.27,3.11,-3.13,-2.98,-2.73,-2.86,-2.86,-2.83
376.56,0.22,3.06,0.23,3.06,-3.10,-2.96,-2.71,-2.88,-2.87,-2.84
380.33,0.21,3.05,0.22,3.05,-3.07,-2.93,-2.70,-2.86,-2.85,-2.84
384.13,0.22,3.05,0.22,3.05,-3.05,-2.90,-2.68,-2.83,-2.83,-2.83
387.97,0.23,3.06,0.22,3.05,-3.03,-2.87,-2.67,-2.80,-2.81,-2.83
391.85,0.20,3.03,0.20,3.03,-3.02,-2.84,-2.66,-2.81,-2.82,-2.83
395.77,0.15,3.00,0.17,3.00,-3.01,-2.82,-2.65,-2.86,-2.84,-2.84
399.73,0.13,2.98,0.14,2.98,-3.00,-2.79,-2.65,-2.87,-2.86,-2.84
403.72,0.13,2.97,0.13,2.97,-2.99,-2.76,-2.64,-2.86,-2.86,-2.83
407.76,0.12,2.98,0.13,2.98,-2.97,-2.73,-2.64,-2.85,-2.84,-2.86
411.84,0.12,2.98,0.12,2.97,-2.94,-2.70,-2.63,-2.82,-2.83,-2.86
415.96,0.09,2.95,0.08,2.95,-2.91,-2.67,-2.63,-2.82,-2.83,-2.86
420.12,0.03,2.90,0.04,2.90,-2.88,-2.65,-2.63,-2.84,-2.84,-2.87
424.32,-0.03,2.83,-0.01,2.85,-2.84,-2.62,-2.63,-2.87,-2.85,-2.86
428.56,-0.05,2.79,-0.05,2.79,-2.81,-2.59,-2.63,-2.85,-2.86,-2.84
432.85,-0.06,2.76,-0.08,2.75,-2.77,-2.56,-2.63,-2.83,-2.85,-2.82
437.18,-0.11,2.71,-0.09,2.72,-2.75,-2.53,-2.63,-2.85,-2.83,-2.81
441.55,-0.09,2.69,-0.08,2.70,-2.73,-2.50,-2.63,-2.81,-2.80,-2.77
445.96,-0.04,2.70,-0.04,2.69,-2.71,-2.47,-2.63,-2.75,-2.76,-2.73
450.42,0.01,2.71,0.02,2.71,-2.70,-2.44,-2.63,-2.69,-2.68,-2.69
454.93,0.07,2.72,0.08,2.72,-2.69,-2.41,-2.62,-2.62,-2.61,-2.64
459.48,0.13,2.72,0.12,2.70,-2.67,-2.39,-2.62,-2.54,-2.56,-2.59
464.07,0.14,2.66,0.15,2.67,-2.65,-2.36,-2.62,-2.50,-2.49,-2.52
468.71,0.15,2.62,0.17,2.63,-2.61,-2.33,-2.61,-2.46,-2.44,-2.47
473.40,0.19,2.60,0.17,2.58,-2.58,-2.30,-2.60,-2.38,-2.40,-2.41
478.13,0.17,2.52,0.17,2.52,-2.53,-2.27,-2.59,-2.36,-2.36,-2.35
482.91,0.15,2.45,0.16,2.46,-2.49,-2.24,-2.58,-2.34,-2.33,-2.30
487.74,0.15,2.41,0.16,2.42,-2.45,-2.21,-2.57,-2.30,-2.29,-2.26
492.62,0.18,2.40,0.18,2.40,-2.42,-2.18,-2.55,-2.23,-2.23,-2.22
497.55,0.21,2.39,0.21,2.40,-2.38,-2.15,-2.54,-2.17,-2.17,-2.18
502.52,0.23,2.39,0.22,2.37,-2.36,-2.12,-2.52,-2.12,-2.14,-2.16
507.55,0.21,2.34,0.22,2.35,-2.33,-2.10,-2.49,-2.12,-2.12,-2.13
512.62,0.17,2.29,0.20,2.31,-2.31,-2.07,-2.47,-2.14,-2.11,-2.12
