frequency,raw
20.00,-17.67
20.20,-17.61
20.40,-17.50
20.61,-17.34
20.81,-17.17
21.02,-17.03
21.23,-16.88
21.44,-16.71
21.66,-16.57
21.87,-16.44
22.09,-16.28
22.31,-16.15
22.54,-16.02
22.76,-15.88
22.99,-15.73
23.22,-15.58
23.45,-15.42
23.69,-15.28
23.92,-15.11
24.16,-14.95
24.40,-14.79
24.65,-14.65
24.89,-14.49
25.14,-14.35
25.39,-14.20
25.65,-14.05
25.91,-13.89
26.16,-13.74
26.43,-13.56
26.69,-13.43
26.96,-13.27
27.23,-13.11
27.50,-12.97
27.77,-12.83
28.05,-12.66
28.33,-12.50
28.62,-12.35
28.90,-12.19
29.19,-12.03
29.48,-11.86
29.78,-11.71
30.08,-11.55
30.38,-11.40
30.68,-11.22
30.99,-11.07
31.30,-10.91
31.61,-10.76
31.93,-10.58
32.24,-10.43
32.57,-10.27
32.89,-10.10
33.22,-9.94
33.55,-9.81
33.89,-9.65
34.23,-9.50
34.57,-9.34
34.92,-9.17
35.27,-8.99
35.62,-8.84
35.97,-8.68
36.33,-8.51
36.70,-8.35
37.06,-8.20
37.43,-8.06
37.81,-7.91
38.19,-7.74
38.57,-7.60
38.95,-7.44
39.34,-7.30
39.74,-7.13
40.14,-6.99
40.54,-6.85
40.94,-6.67
41.35,-6.50
41.76,-6.34
42.18,-6.18
42.60,-6.01
43.03,-5.85
43.46,-5.69
43.90,-5.54
44.33,-5.39
44.78,-5.26
45.23,-5.10
45.68,-4.95
46.13,-4.81
46.60,-4.66
47.06,-4.50
47.53,-4.37
48.01,-4.22
48.49,-4.08
48.97,-3.93
49.46,-3.80
49.96,-3.66
50.46,-3.51
50.96,-3.41
51.47,-3.28
51.99,-3.18
52.51,-3.08
53.03,-3.00
53.56,-2.89
54.10,-2.83
54.64,-2.75
55.18,-2.68
55.74,-2.63
56.29,-2.57
56.86,-2.53
57.42,-2.48
58.00,-2.45
58.58,-2.43
59.16,-2.39
59.76,-2.36
60.35,-2.33
60.96,-2.28
61.57,-2.24
62.18,-2.19
62.80,-2.13
63.43,-2.07
64.07,-1.99
64.71,-1.90
65.35,-1.80
66.01,-1.70
66.67,-1.58
67.33,-1.47
68.01,-1.33
68.69,-1.22
69.37,-1.08
70.07,-0.94
70.77,-0.83
71.48,-0.68
72.19,-0.58
72.91,-0.45
73.64,-0.35
74.38,-0.25
75.12,-0.14
75.87,-0.06
76.63,0.04
77.40,0.09
78.17,0.16
78.95,0.23
79.74,0.27
80.54,0.32
81.35,0.35
82.16,0.40
82.98,0.43
83.81,0.46
84.65,0.49
85.50,0.51
86.35,0.55
87.22,0.56
88.09,0.56
88.97,0.56
89.86,0.56
90.76,0.56
91.66,0.56
92.58,0.56
93.51,0.56
94.44,0.51
95.39,0.51
96.34,0.50
97.30,0.47
98.28,0.44
99.26,0.43
100.25,0.38
101.25,0.35
102.27,0.32
103.29,0.26
104.32,0.23
105.37,0.18
106.42,0.12
107.48,0.06
108.56,0.01
109.64,-0.03
110.74,-0.08
111.85,-0.14
112.97,-0.20
114.10,-0.25
115.24,-0.29
116.39,-0.33
117.55,-0.38
118.73,-0.44
119.92,-0.49
121.12,-0.52
122.33,-0.57
123.55,-0.60
124.79,-0.65
126.03,-0.68
127.29,-0.71
128.57,-0.74
129.85,-0.79
131.15,-0.82
132.46,-0.85
133.79,-0.88
135.12,-0.92
136.48,-0.96
137.84,-0.99
139.22,-1.04
140.61,-1.07
142.02,-1.13
143.44,-1.16
144.87,-1.21
146.32,-1.24
147.78,-1.29
149.26,-1.32
150.75,-1.35
152.26,-1.39
153.78,-1.43
155.32,-1.46
156.88,-1.49
158.44,-1.52
160.03,-1.57
161.63,-1.60
163.24,-1.65
164.88,-1.68
166.53,-1.72
168.19,-1.76
169.87,-1.82
171.57,-1.87
173.29,-1.92
175.02,-1.96
176.77,-2.02
178.54,-2.05
180.32,-2.10
182.13,-2.15
183.95,-2.18
185.79,-2.24
187.65,-2.27
189.52,-2.30
191.42,-2.35
193.33,-2.38
195.27,-2.41
197.22,-2.46
199.19,-2.49
201.18,-2.54
203.19,-2.57
205.23,-2.61
207.28,-2.63
209.35,-2.66
211.44,-2.69
213.56,-2.74
215.69,-2.75
217.85,-2.78
220.03,-2.80
222.23,-2.82
224.45,-2.83
226.70,-2.87
228.96,-2.87
231.25,-2.87
233.57,-2.91
235.90,-2.91
238.26,-2.91
240.64,-2.94
243.05,-2.95
245.48,-2.95
247.93,-2.99
250.41,-3.00
252.92,-3.00
255.45,-3.00
258.00,-3.02
260.58,-3.04
263.19,-3.04
265.82,-3.04
268.48,-3.04
271.16,-3.04
273.87,-3.06
276.61,-3.08
279.38,-3.08
282.17,-3.08
284.99,-3.13
287.84,-3.13
290.72,-3.13
293.63,-3.13
296.57,-3.17
299.53,-3.17
302.53,-3.17
305.55,-3.17
308.61,-3.19
311.69,-3.19
314.81,-3.17
317.96,-3.17
321.14,-3.17
324.35,-3.17
327.59,-3.17
330.87,-3.17
334.18,-3.17
337.52,-3.13
340.90,-3.13
344.30,-3.11
347.75,-3.13
351.23,-3.13
354.74,-3.17
358.28,-3.21
361.87,-3.23
365.49,-3.26
369.14,-3.30
372.83,-3.31
376.56,-3.34
380.33,-3.37
384.13,-3.39
387.97,-3.41
391.85,-3.43
395.77,-3.43
399.73,-3.47
403.72,-3.47
407.76,-3.51
411.84,-3.52
415.96,-3.52
420.12,-3.56
424.32,-3.56
428.56,-3.56
432.85,-3.56
437.18,-3.56
441.55,-3.56
445.96,-3.56
450.42,-3.56
454.93,-3.56
459.48,-3.56
464.07,-3.52
468.71,-3.52
473.40,-3.49
478.13,-3.47
482.91,-3.47
487.74,-3.43
492.62,-3.43
497.55,-3.42
502.52,-3.39
507.55,-3.36
512.62,-3.34
517.75,-3.30
522.93,-3.29
528.16,-3.26
533.44,-3.21
538.77,-3.21
544.16,-3.17
549.60,-3.17
555.10,-3.17
560.65,-3.17
566.25,-3.21
571.92,-3.21
577.64,-3.26
583.41,-3.26
589.25,-3.21
595.14,-3.18
601.09,-3.12
607.10,-3.06
613.17,-3.02
619.30,-3.00
625.50,-2.95
631.75,-2.93
638.07,-2.87
644.45,-2.81
650.89,-2.70
657.40,-2.63
663.98,-2.54
670.62,-2.48
677.32,-2.38
684.10,-2.31
690.94,-2.21
697.85,-2.15
704.83,-2.07
711.87,-2.00
718.99,-1.92
726.18,-1.87
733.44,-1.79
740.78,-1.71
748.19,-1.65
755.67,-1.58
763.23,-1.49
770.86,-1.43
778.57,-1.36
786.35,-1.29
794.22,-1.23
802.16,-1.17
810.18,-1.11
818.28,-1.05
826.46,-0.98
834.73,-0.93
843.08,-0.86
851.51,-0.81
860.02,-0.73
868.62,-0.66
877.31,-0.59
886.08,-0.52
894.94,-0.47
903.89,-0.41
912.93,-0.36
922.06,-0.33
931.28,-0.29
940.59,-0.25
950.00,-0.22
959.50,-0.19
969.09,-0.14
978.78,-0.11
988.57,-0.06
998.46,-0.00
1008.44,0.03
1018.53,0.06
1028.71,0.09
1039.00,0.12
1049.39,0.12
1059.88,0.17
1070.48,0.17
1081.19,0.17
1092.00,0.21
1102.92,0.21
1113.95,0.21
1125.09,0.21
1136.34,0.21
1147.70,0.25
1159.18,0.25
1170.77,0.25
1182.48,0.27
1194.30,0.30
1206.25,0.30
1218.31,0.30
1230.49,0.30
1242.80,0.30
1255.22,0.34
1267.78,0.37
1280.45,0.40
1293.26,0.45
1306.19,0.51
1319.25,0.57
1332.45,0.62
1345.77,0.68
1359.23,0.75
1372.82,0.83
1386.55,0.92
1400.41,0.99
1414.42,1.09
1428.56,1.18
1442.85,1.26
1457.28,1.36
1471.85,1.46
1486.57,1.57
1501.43,1.69
1516.45,1.77
1531.61,1.88
1546.93,1.98
1562.40,2.04
1578.02,2.14
1593.80,2.27
1609.74,2.37
1625.84,2.47
1642.10,2.58
1658.52,2.69
1675.10,2.82
1691.85,2.98
1708.77,3.17
1725.86,3.39
1743.12,3.60
1760.55,3.81
1778.15,3.99
1795.94,4.18
1813.90,4.34
1832.03,4.52
1850.36,4.69
1868.86,4.89
1887.55,5.12
1906.42,5.33
1925.49,5.55
1944.74,5.76
1964.19,5.95
1983.83,6.13
2003.67,6.30
2023.71,6.43
2043.94,6.59
2064.38,6.70
2085.03,6.80
2105.88,6.83
2126.94,6.86
2148.20,6.84
2169.69,6.88
2191.38,6.97
2213.30,7.11
2235.43,7.28
2257.78,7.45
2280.36,7.65
2303.17,7.84
2326.20,7.99
2349.46,8.13
2372.95,8.25
2396.68,8.36
2420.65,8.44
2444.86,8.54
2469.31,8.64
2494.00,8.70
2518.94,8.80
2544.13,8.85
2569.57,8.90
2595.27,8.92
2621.22,8.92
2647.43,8.91
2673.90,8.86
2700.64,8.81
2727.65,8.75
2754.93,8.70
2782.48,8.66
2810.30,8.66
2838.40,8.64
2866.79,8.66
2895.46,8.66
2924.41,8.66
2953.65,8.70
2983.19,8.72
3013.02,8.75
3043.15,8.78
3073.58,8.79
3104.32,8.83
3135.36,8.85
3166.72,8.92
3198.38,8.99
3230.37,9.07
3262.67,9.13
3295.30,9.18
3328.25,9.22
3361.53,9.20
3395.15,9.16
3429.10,9.13
3463.39,9.08
3498.03,9.03
3533.01,8.97
3568.34,8.89
3604.02,8.76
3640.06,8.66
3676.46,8.56
3713.22,8.43
3750.36,8.31
3787.86,8.20
3825.74,8.07
3864.00,7.91
3902.64,7.73
3941.66,7.50
3981.08,7.26
4020.89,7.00
4061.10,6.77
4101.71,6.53
4142.73,6.36
4184.15,6.18
4226.00,6.02
4268.26,5.86
4310.94,5.69
4354.05,5.51
4397.59,5.30
4441.56,5.10
4485.98,4.89
4530.84,4.69
4576.15,4.55
4621.91,4.41
4668.13,4.33
4714.81,4.24
4761.96,4.20
4809.58,4.15
4857.67,4.12
4906.25,4.09
4955.31,4.12
5004.87,4.22
5054.91,4.48
5105.46,4.91
5156.52,5.52
5208.08,6.37
5260.16,7.44
5312.77,8.67
5365.89,9.94
5419.55,11.16
5473.75,12.17
5528.49,12.88
5583.77,13.31
5639.61,13.11
5696.00,12.68
5752.96,12.09
5810.49,11.37
5868.60,10.67
5927.28,10.02
5986.56,9.41
6046.42,8.90
6106.89,8.45
6167.96,8.06
6229.64,7.75
6291.93,7.47
6354.85,7.21
6418.40,6.98
6482.58,6.75
6547.41,6.58
6612.88,6.43
6679.01,6.32
6745.80,6.28
6813.26,6.30
6881.39,6.34
6950.21,6.36
7019.71,6.39
7089.91,6.41
7160.81,6.38
7232.41,6.33
7304.74,6.27
7377.79,6.17
7451.56,6.08
7526.08,5.98
7601.34,5.88
7677.35,5.80
7754.13,5.67
7831.67,5.51
7909.98,5.31
7989.08,5.02
8068.98,4.67
8149.67,4.29
8231.16,3.92
8313.47,3.56
8396.61,3.28
8480.57,3.02
8565.38,2.85
8651.03,2.72
8737.54,2.56
8824.92,2.31
8913.17,1.95
9002.30,1.52
9092.32,0.97
9183.25,0.38
9275.08,-0.21
9367.83,-0.82
9461.51,-1.37
9556.12,-1.90
9651.68,-2.30
9748.20,-2.72
9845.68,-3.09
9944.14,-3.45
10043.58,-3.73
10144.02,-3.84
10245.46,-3.58
10347.91,-3.26
10451.39,-2.86
10555.91,-2.50
10661.46,-2.22
10768.08,-2.09
10875.76,-2.26
10984.52,-2.50
11094.36,-2.76
11205.31,-2.99
11317.36,-3.20
11430.53,-3.21
11544.84,-3.15
11660.29,-2.98
11776.89,-2.82
11894.66,-2.69
12013.60,-2.59
12133.74,-2.76
12255.08,-3.06
12377.63,-3.55
12501.41,-4.24
12626.42,-5.09
12752.68,-6.08
12880.21,-7.13
13009.01,-8.11
13139.10,-8.96
13270.49,-9.66
13403.20,-10.08
13537.23,-10.39
13672.60,-10.51
13809.33,-10.35
13947.42,-10.10
14086.90,-9.85
14227.77,-9.62
14370.04,-9.46
14513.74,-9.39
14658.88,-9.37
14805.47,-9.32
14953.52,-9.29
15103.06,-9.08
15254.09,-8.70
15406.63,-8.09
15560.70,-7.32
15716.30,-6.51
15873.47,-5.89
16032.20,-5.43
16192.52,-5.41
16354.45,-5.69
16517.99,-6.14
16683.17,-6.90
16850.01,-7.85
17018.51,-8.99
17188.69,-10.14
17360.58,-11.17
17534.18,-11.93
17709.53,-12.45
17886.62,-12.75
18065.49,-12.90
18246.14,-13.03
18428.60,-13.23
18612.89,-13.52
18799.02,-13.87
18987.01,-14.30
19176.88,-14.69
19368.65,-15.06
19562.33,-15.50
19757.96,-16.09
19955.54,-16.34
