frequency,raw,smoothed,error,error_smoothed,equalization,parametric_eq,fixed_band_eq,equalized_raw,equalized_smoothed,target
20.00,7.68,7.68,0.43,0.43,-0.38,-1.25,-0.67,7.30,7.30,7.25
20.20,7.70,7.69,0.45,0.44,-0.43,-1.25,-0.69,7.27,7.26,7.25
20.40,7.72,7.72,0.47,0.47,-0.48,-1.26,-0.71,7.24,7.23,7.25
20.61,7.74,7.75,0.49,0.50,-0.54,-1.27,-0.73,7.20,7.22,7.25
20.81,7.80,7.80,0.55,0.55,-0.59,-1.27,-0.75,7.21,7.21,7.25
21.02,7.86,7.86,0.61,0.61,-0.64,-1.28,-0.77,7.22,7.22,7.25
21.23,7.92,7.92,0.67,0.68,-0.69,-1.29,-0.79,7.23,7.23,7.25
21.44,7.99,7.99,0.74,0.74,-0.74,-1.29,-0.82,7.25,7.25,7.25
21.66,8.06,8.06,0.81,0.81,-0.81,-1.30,-0.84,7.25,7.25,7.25
21.87,8.12,8.12,0.88,0.87,-0.87,-1.31,-0.87,7.25,7.25,7.24
22.09,8.17,8.17,0.93,0.93,-0.92,-1.31,-0.89,7.25,7.25,7.24
22.31,8.22,8.22,0.98,0.98,-0.97,-1.32,-0.92,7.25,7.25,7.24
22.54,8.26,8.26,1.02,1.02,-1.01,-1.33,-0.95,7.25,7.25,7.24
22.76,8.29,8.28,1.05,1.04,-1.03,-1.33,-0.97,7.25,7.25,7.24
22.99,8.30,8.30,1.06,1.06,-1.06,-1.34,-1.00,7.24,7.25,7.24
23.22,8.31,8.31,1.07,1.07,-1.07,-1.35,-1.03,7.24,7.24,7.24
23.45,8.32,8.32,1.08,1.08,-1.08,-1.35,-1.06,7.24,7.23,7.24
23.69,8.32,8.32,1.08,1.08,-1.09,-1.36,-1.09,7.23,7.23,7.24
23.92,8.33,8.33,1.09,1.09,-1.10,-1.37,-1.12,7.23,7.23,7.24
24.16,8.34,8.34,1.10,1.11,-1.11,-1.37,-1.15,7.23,7.23,7.23
24.40,8.36,8.36,1.13,1.12,-1.13,-1.38,-1.18,7.23,7.23,7.23
24.65,8.38,8.38,1.15,1.15,-1.15,-1.39,-1.21,7.23,7.23,7.23
24.89,8.40,8.40,1.17,1.17,-1.17,-1.40,-1.25,7.23,7.23,7.23
25.14,8.43,8.43,1.20,1.20,-1.20,-1.40,-1.28,7.23,7.23,7.23
25.39,8.46,8.46,1.23,1.23,-1.23,-1.41,-1.31,7.23,7.23,7.23
25.65,8.49,8.49,1.26,1.26,-1.26,-1.42,-1.34,7.23,7.22,7.23
25.91,8.52,8.52,1.29,1.29,-1.30,-1.43,-1.38,7.22,7.22,7.22
26.16,8.55,8.55,1.33,1.33,-1.33,-1.44,-1.41,7.22,7.22,7.22
26.43,8.59,8.59,1.37,1.36,-1.36,-1.44,-1.44,7.22,7.22,7.22
26.69,8.62,8.62,1.40,1.40,-1.40,-1.45,-1.48,7.22,7.22,7.22
26.96,8.65,8.65,1.43,1.43,-1.42,-1.46,-1.51,7.23,7.22,7.22
27.23,8.67,8.67,1.45,1.45,-1.45,-1.47,-1.54,7.22,7.22,7.22
27.50,8.69,8.69,1.47,1.47,-1.47,-1.48,-1.57,7.22,7.22,7.21
27.77,8.70,8.70,1.49,1.49,-1.48,-1.49,-1.60,7.22,7.22,7.21
28.05,8.71,8.71,1.50,1.50,-1.50,-1.50,-1.63,7.21,7.21,7.21
28.33,8.72,8.72,1.51,1.51,-1.51,-1.50,-1.65,7.21,7.21,7.21
28.62,8.72,8.72,1.51,1.52,-1.52,-1.51,-1.68,7.20,7.20,7.21
28.90,8.73,8.73,1.53,1.52,-1.53,-1.52,-1.70,7.20,7.20,7.20
29.19,8.74,8.74,1.54,1.54,-1.54,-1.53,-1.73,7.20,7.20,7.20
29.48,8.75,8.75,1.55,1.55,-1.56,-1.54,-1.75,7.19,7.20,7.20
29.78,8.77,8.77,1.57,1.57,-1.57,-1.55,-1.77,7.20,7.19,7.20
30.08,8.78,8.78,1.58,1.59,-1.59,-1.56,-1.78,7.19,7.19,7.19
30.38,8.80,8.80,1.61,1.61,-1.61,-1.57,-1.80,7.19,7.19,7.19
30.68,8.82,8.82,1.63,1.63,-1.63,-1.58,-1.81,7.19,7.19,7.19
30.99,8.84,8.84,1.65,1.65,-1.65,-1.59,-1.82,7.19,7.19,7.19
31.30,8.85,8.85,1.67,1.67,-1.67,-1.61,-1.83,7.18,7.18,7.18
31.61,8.87,8.87,1.69,1.69,-1.69,-1.62,-1.84,7.18,7.18,7.18
31.93,8.89,8.89,1.71,1.71,-1.71,-1.63,-1.84,7.18,7.18,7.18
32.24,8.90,8.90,1.73,1.73,-1.73,-1.64,-1.84,7.17,7.17,7.17
32.57,8.91,8.91,1.74,1.74,-1.74,-1.65,-1.84,7.17,7.17,7.17
32.89,8.92,8.92,1.75,1.75,-1.75,-1.66,-1.84,7.16,7.17,7.17
33.22,8.93,8.93,1.77,1.77,-1.77,-1.68,-1.83,7.16,7.16,7.16
33.55,8.94,8.94,1.78,1.78,-1.77,-1.69,-1.83,7.16,7.16,7.16
33.89,8.94,8.94,1.79,1.79,-1.78,-1.70,-1.82,7.16,7.16,7.15
34.23,8.94,8.94,1.79,1.79,-1.79,-1.71,-1.81,7.15,7.15,7.15
34.57,8.94,8.94,1.79,1.79,-1.80,-1.73,-1.80,7.14,7.14,7.15
34.92,8.94,8.94,1.80,1.80,-1.80,-1.74,-1.79,7.14,7.14,7.14
35.27,8.94,8.94,1.80,1.81,-1.81,-1.75,-1.78,7.13,7.13,7.14
35.62,8.95,8.95,1.82,1.82,-1.82,-1.76,-1.76,7.13,7.13,7.13
35.97,8.95,8.95,1.82,1.83,-1.82,-1.77,-1.75,7.13,7.13,7.13
36.33,8.96,8.96,1.84,1.84,-1.83,-1.78,-1.73,7.13,7.13,7.12
36.70,8.96,8.96,1.84,1.84,-1.84,-1.79,-1.72,7.12,7.12,7.12
37.06,8.96,8.96,1.85,1.85,-1.85,-1.80,-1.70,7.11,7.11,7.11
37.43,8.96,8.96,1.86,1.86,-1.86,-1.80,-1.69,7.10,7.10,7.10
37.81,8.97,8.97,1.87,1.87,-1.88,-1.81,-1.67,7.09,7.09,7.10
38.19,8.97,8.97,1.88,1.88,-1.89,-1.81,-1.66,7.08,7.09,7.09
38.57,8.99,8.98,1.90,1.90,-1.90,-1.82,-1.64,7.09,7.09,7.08
38.95,8.99,8.99,1.91,1.91,-1.91,-1.82,-1.63,7.08,7.08,7.08
39.34,9.00,9.00,1.93,1.92,-1.91,-1.82,-1.62,7.08,7.08,7.07
39.74,8.99,8.99,1.93,1.93,-1.92,-1.82,-1.61,7.07,7.07,7.06
40.14,8.98,8.98,1.92,1.92,-1.92,-1.82,-1.59,7.06,7.06,7.06
40.54,8.96,8.96,1.91,1.91,-1.91,-1.82,-1.58,7.05,7.05,7.05
40.94,8.94,8.94,1.90,1.90,-1.90,-1.81,-1.57,7.04,7.04,7.04
41.35,8.92,8.92,1.89,1.89,-1.89,-1.81,-1.56,7.03,7.03,7.03
41.76,8.90,8.90,1.88,1.88,-1.88,-1.81,-1.55,7.01,7.02,7.02
42.18,8.89,8.89,1.88,1.87,-1.88,-1.81,-1.55,7.01,7.01,7.01
42.60,8.87,8.87,1.86,1.87,-1.87,-1.80,-1.54,7.00,7.00,7.00
43.03,8.86,8.86,1.86,1.86,-1.86,-1.80,-1.54,7.00,7.00,6.99
43.46,8.84,8.84,1.85,1.86,-1.86,-1.79,-1.53,6.98,6.98,6.98
43.90,8.83,8.83,1.86,1.85,-1.85,-1.79,-1.53,6.98,6.97,6.97
44.33,8.81,8.81,1.85,1.85,-1.85,-1.79,-1.53,6.96,6.96,6.96
44.78,8.80,8.80,1.85,1.84,-1.84,-1.78,-1.53,6.96,6.95,6.95
45.23,8.78,8.78,1.84,1.84,-1.84,-1.78,-1.53,6.94,6.94,6.94
45.68,8.76,8.76,1.83,1.83,-1.83,-1.78,-1.53,6.93,6.93,6.93
46.13,8.74,8.74,1.82,1.82,-1.82,-1.77,-1.54,6.92,6.92,6.92
46.60,8.72,8.72,1.82,1.82,-1.82,-1.77,-1.54,6.90,6.90,6.90
47.06,8.70,8.70,1.81,1.81,-1.81,-1.77,-1.55,6.89,6.89,6.89
47.53,8.68,8.68,1.80,1.80,-1.80,-1.76,-1.55,6.88,6.87,6.88
48.01,8.65,8.65,1.79,1.79,-1.79,-1.76,-1.56,6.86,6.86,6.86
48.49,8.63,8.63,1.78,1.78,-1.79,-1.76,-1.57,6.84,6.84,6.85
48.97,8.61,8.61,1.78,1.77,-1.78,-1.75,-1.58,6.83,6.83,6.83
49.46,8.58,8.58,1.76,1.77,-1.76,-1.75,-1.59,6.82,6.82,6.82
49.96,8.56,8.56,1.76,1.76,-1.75,-1.75,-1.60,6.81,6.81,6.80
50.46,8.53,8.53,1.75,1.74,-1.74,-1.75,-1.62,6.79,6.79,6.78
50.96,8.49,8.49,1.72,1.72,-1.72,-1.75,-1.63,6.77,6.77,6.77
51.47,8.45,8.45,1.70,1.70,-1.70,-1.74,-1.64,6.75,6.75,6.75
51.99,8.41,8.41,1.68,1.68,-1.69,-1.74,-1.66,6.72,6.72,6.73
52.51,8.38,8.38,1.67,1.67,-1.68,-1.74,-1.67,6.70,6.70,6.71
53.03,8.35,8.35,1.66,1.66,-1.66,-1.74,-1.68,6.68,6.68,6.69
53.56,8.32,8.32,1.65,1.65,-1.66,-1.74,-1.70,6.66,6.66,6.67
54.10,8.30,8.30,1.65,1.65,-1.65,-1.74,-1.71,6.64,6.64,6.65
54.64,8.28,8.28,1.65,1.65,-1.66,-1.74,-1.73,6.62,6.62,6.63
55.18,8.26,8.26,1.66,1.66,-1.66,-1.73,-1.74,6.60,6.60,6.60
55.74,8.24,8.24,1.66,1.66,-1.66,-1.73,-1.75,6.57,6.58,6.58
56.29,8.22,8.22,1.66,1.67,-1.67,-1.73,-1.77,6.55,6.56,6.56
56.86,8.21,8.20,1.68,1.67,-1.67,-1.73,-1.78,6.54,6.54,6.53
57.42,8.18,8.18,1.67,1.68,-1.66,-1.73,-1.79,6.52,6.52,6.50
58.00,8.15,8.15,1.67,1.67,-1.65,-1.73,-1.80,6.50,6.49,6.48
58.58,8.10,8.10,1.65,1.65,-1.64,-1.73,-1.81,6.46,6.46,6.45
59.16,8.05,8.05,1.63,1.63,-1.63,-1.72,-1.82,6.42,6.42,6.42
59.76,8.00,8.00,1.61,1.60,-1.61,-1.72,-1.82,6.39,6.38,6.39
60.35,7.95,7.95,1.58,1.59,-1.60,-1.72,-1.83,6.35,6.35,6.36
60.96,7.91,7.91,1.58,1.58,-1.59,-1.72,-1.83,6.32,6.32,6.33
61.57,7.88,7.88,1.58,1.57,-1.58,-1.72,-1.83,6.30,6.30,6.30
62.18,7.84,7.84,1.57,1.57,-1.57,-1.72,-1.83,6.27,6.27,6.27
62.80,7.81,7.81,1.57,1.57,-1.57,-1.71,-1.83,6.24,6.24,6.24
63.43,7.77,7.77,1.57,1.57,-1.56,-1.71,-1.82,6.21,6.21,6.20
64.07,7.73,7.73,1.56,1.56,-1.56,-1.71,-1.82,6.17,6.17,6.17
64.71,7.68,7.68,1.55,1.55,-1.55,-1.71,-1.81,6.13,6.13,6.13
65.35,7.64,7.64,1.54,1.55,-1.54,-1.71,-1.80,6.09,6.10,6.09
66.01,7.60,7.59,1.54,1.54,-1.53,-1.70,-1.79,6.07,6.06,6.06
66.67,7.54,7.54,1.52,1.53,-1.52,-1.70,-1.78,6.02,6.02,6.02
67.33,7.49,7.49,1.51,1.51,-1.51,-1.70,-1.77,5.98,5.98,5.98
68.01,7.43,7.43,1.49,1.49,-1.49,-1.70,-1.75,5.94,5.94,5.94
68.69,7.37,7.37,1.48,1.48,-1.48,-1.69,-1.74,5.89,5.89,5.89
69.37,7.31,7.31,1.46,1.46,-1.47,-1.69,-1.72,5.84,5.85,5.85
70.07,7.26,7.26,1.45,1.45,-1.46,-1.69,-1.71,5.80,5.80,5.81
70.77,7.21,7.21,1.45,1.45,-1.45,-1.69,-1.69,5.76,5.76,5.76
71.48,7.16,7.16,1.44,1.44,-1.44,-1.68,-1.67,5.71,5.71,5.72
72.19,7.11,7.11,1.44,1.44,-1.45,-1.68,-1.65,5.66,5.67,5.67
72.91,7.07,7.07,1.45,1.45,-1.45,-1.68,-1.63,5.62,5.62,5.62
73.64,7.03,7.03,1.46,1.46,-1.46,-1.67,-1.61,5.57,5.57,5.57
74.38,6.99,6.99,1.47,1.47,-1.47,-1.67,-1.59,5.52,5.52,5.52
75.12,6.96,6.96,1.49,1.49,-1.49,-1.66,-1.58,5.47,5.47,5.47
75.87,6.92,6.92,1.50,1.50,-1.50,-1.66,-1.56,5.42,5.42,5.42
76.63,6.88,6.88,1.52,1.52,-1.51,-1.66,-1.54,5.36,5.37,5.36
77.40,6.84,6.84,1.53,1.53,-1.53,-1.65,-1.52,5.31,5.31,5.31
78.17,6.80,6.80,1.55,1.54,-1.54,-1.65,-1.50,5.26,5.26,5.25
78.95,6.75,6.75,1.55,1.55,-1.55,-1.64,-1.49,5.20,5.20,5.20
79.74,6.70,6.70,1.56,1.56,-1.56,-1.64,-1.47,5.14,5.14,5.14
80.54,6.65,6.65,1.57,1.56,-1.56,-1.63,-1.45,5.09,5.08,5.08
81.35,6.59,6.59,1.57,1.57,-1.57,-1.63,-1.44,5.02,5.02,5.02
82.16,6.53,6.53,1.57,1.57,-1.57,-1.62,-1.43,4.96,4.96,4.96
82.98,6.47,6.47,1.57,1.57,-1.57,-1.62,-1.41,4.90,4.90,4.90
83.81,6.42,6.42,1.58,1.58,-1.58,-1.61,-1.40,4.84,4.84,4.84
84.65,6.36,6.36,1.58,1.58,-1.58,-1.61,-1.39,4.78,4.78,4.78
85.50,6.29,6.29,1.58,1.58,-1.58,-1.60,-1.38,4.71,4.72,4.71
86.35,6.23,6.23,1.58,1.58,-1.58,-1.60,-1.37,4.65,4.65,4.65
87.22,6.16,6.16,1.58,1.58,-1.58,-1.59,-1.36,4.58,4.58,4.58
88.09,6.10,6.10,1.58,1.58,-1.58,-1.59,-1.35,4.52,4.52,4.52
88.97,6.03,6.03,1.58,1.58,-1.58,-1.58,-1.35,4.45,4.45,4.45
89.86,5.96,5.96,1.58,1.58,-1.58,-1.57,-1.34,4.38,4.38,4.38
90.76,5.89,5.89,1.57,1.58,-1.58,-1.57,-1.34,4.31,4.31,4.32
91.66,5.83,5.83,1.58,1.58,-1.58,-1.56,-1.34,4.25,4.25,4.25
92.58,5.76,5.76,1.58,1.58,-1.58,-1.56,-1.34,4.18,4.18,4.18
93.51,5.69,5.69,1.58,1.58,-1.58,-1.55,-1.33,4.11,4.11,4.11
94.44,5.62,5.62,1.58,1.58,-1.58,-1.54,-1.33,4.04,4.04,4.04
95.39,5.55,5.55,1.58,1.58,-1.58,-1.54,-1.34,3.97,3.97,3.97
96.34,5.48,5.48,1.58,1.58,-1.58,-1.53,-1.34,3.90,3.90,3.90
97.30,5.40,5.40,1.57,1.58,-1.58,-1.52,-1.34,3.82,3.82,3.82
98.28,5.33,5.33,1.58,1.57,-1.58,-1.52,-1.34,3.75,3.75,3.75
99.26,5.25,5.25,1.57,1.57,-1.57,-1.51,-1.35,3.68,3.68,3.68
100.25,5.18,5.18,1.57,1.57,-1.57,-1.50,-1.35,3.61,3.61,3.61
101.25,5.11,5.10,1.57,1.57,-1.57,-1.49,-1.36,3.54,3.53,3.54
102.27,5.03,5.03,1.57,1.57,-1.57,-1.49,-1.37,3.46,3.46,3.46
103.29,4.96,4.96,1.57,1.57,-1.57,-1.48,-1.37,3.39,3.39,3.39
104.32,4.89,4.89,1.57,1.57,-1.57,-1.47,-1.38,3.32,3.32,3.32
105.37,4.82,4.82,1.58,1.57,-1.57,-1.47,-1.39,3.25,3.25,3.24
106.42,4.74,4.74,1.57,1.57,-1.57,-1.46,-1.39,3.17,3.17,3.17
107.48,4.67,4.67,1.57,1.57,-1.57,-1.45,-1.40,3.10,3.10,3.10
108.56,4.59,4.59,1.56,1.56,-1.56,-1.44,-1.41,3.03,3.02,3.02
109.64,4.51,4.51,1.56,1.56,-1.56,-1.44,-1.42,2.95,2.95,2.95
110.74,4.43,4.43,1.55,1.55,-1.55,-1.43,-1.42,2.87,2.88,2.88
111.85,4.36,4.36,1.55,1.55,-1.55,-1.42,-1.43,2.81,2.80,2.81
112.97,4.28,4.28,1.54,1.55,-1.55,-1.41,-1.44,2.73,2.73,2.73
114.10,4.21,4.21,1.55,1.55,-1.55,-1.41,-1.44,2.66,2.66,2.66
115.24,4.14,4.14,1.55,1.55,-1.55,-1.40,-1.45,2.59,2.59,2.59
116.39,4.07,4.07,1.55,1.55,-1.55,-1.39,-1.45,2.52,2.52,2.52
117.55,4.00,4.00,1.55,1.55,-1.55,-1.38,-1.46,2.45,2.45,2.45
118.73,3.94,3.94,1.56,1.56,-1.55,-1.38,-1.46,2.39,2.39,2.38
119.92,3.87,3.87,1.56,1.55,-1.54,-1.37,-1.46,2.32,2.32,2.31
121.12,3.79,3.79,1.55,1.55,-1.54,-1.36,-1.46,2.25,2.25,2.24
122.33,3.70,3.70,1.53,1.53,-1.53,-1.36,-1.46,2.17,2.18,2.17
123.55,3.62,3.62,1.51,1.51,-1.51,-1.35,-1.46,2.11,2.10,2.11
124.79,3.53,3.53,1.49,1.49,-1.50,-1.34,-1.46,2.03,2.03,2.04
126.03,3.45,3.45,1.48,1.48,-1.48,-1.33,-1.45,1.97,1.97,1.97
127.29,3.37,3.37,1.46,1.46,-1.46,-1.33,-1.45,1.90,1.90,1.91
128.57,3.29,3.29,1.45,1.45,-1.45,-1.32,-1.44,1.84,1.84,1.84
129.85,3.22,3.22,1.44,1.44,-1.44,-1.31,-1.43,1.78,1.78,1.78
131.15,3.14,3.14,1.42,1.42,-1.42,-1.31,-1.43,1.72,1.72,1.72
132.46,3.07,3.07,1.41,1.41,-1.41,-1.30,-1.42,1.66,1.66,1.65
133.79,2.99,2.99,1.40,1.40,-1.40,-1.29,-1.41,1.59,1.59,1.59
135.12,2.92,2.92,1.39,1.39,-1.38,-1.29,-1.39,1.53,1.53,1.53
136.48,2.85,2.84,1.38,1.37,-1.37,-1.28,-1.38,1.48,1.47,1.47
137.84,2.77,2.77,1.35,1.36,-1.36,-1.27,-1.37,1.41,1.42,1.41
139.22,2.70,2.70,1.34,1.34,-1.34,-1.27,-1.35,1.36,1.36,1.36
140.61,2.63,2.63,1.33,1.33,-1.33,-1.26,-1.34,1.30,1.30,1.30
142.02,2.56,2.56,1.31,1.31,-1.31,-1.25,-1.32,1.25,1.24,1.24
143.44,2.49,2.49,1.30,1.30,-1.30,-1.25,-1.31,1.19,1.19,1.19
144.87,2.42,2.42,1.28,1.28,-1.29,-1.24,-1.29,1.13,1.14,1.14
146.32,2.36,2.36,1.28,1.27,-1.27,-1.24,-1.28,1.09,1.08,1.08
147.78,2.29,2.29,1.26,1.26,-1.26,-1.23,-1.26,1.03,1.03,1.03
149.26,2.23,2.23,1.25,1.25,-1.24,-1.22,-1.25,0.98,0.98,0.98
150.75,2.17,2.16,1.24,1.23,-1.23,-1.22,-1.23,0.94,0.93,0.93
152.26,2.10,2.10,1.22,1.22,-1.22,-1.21,-1.22,0.88,0.88,0.88
153.78,2.04,2.04,1.20,1.20,-1.21,-1.21,-1.20,0.83,0.83,0.84
155.32,1.98,1.98,1.19,1.19,-1.19,-1.20,-1.19,0.79,0.79,0.79
156.88,1.93,1.92,1.18,1.18,-1.18,-1.19,-1.17,0.75,0.74,0.74
158.44,1.87,1.87,1.17,1.17,-1.17,-1.19,-1.16,0.70,0.70,0.70
160.03,1.81,1.81,1.15,1.16,-1.16,-1.18,-1.14,0.65,0.65,0.66
161.63,1.76,1.76,1.15,1.15,-1.15,-1.18,-1.13,0.61,0.61,0.60
163.24,1.71,1.70,1.15,1.14,-1.14,-1.17,-1.12,0.57,0.57,0.56
164.88,1.65,1.65,1.13,1.13,-1.13,-1.17,-1.11,0.52,0.52,0.52
166.53,1.60,1.60,1.12,1.12,-1.12,-1.16,-1.10,0.48,0.48,0.48
168.19,1.55,1.55,1.10,1.11,-1.11,-1.16,-1.09,0.44,0.44,0.45
169.87,1.51,1.50,1.10,1.10,-1.10,-1.15,-1.08,0.41,0.41,0.41
171.57,1.46,1.46,1.09,1.09,-1.09,-1.15,-1.07,0.37,0.37,0.37
173.29,1.41,1.41,1.07,1.08,-1.08,-1.14,-1.06,0.33,0.34,0.34
175.02,1.37,1.37,1.07,1.06,-1.06,-1.14,-1.06,0.30,0.30,0.30
176.77,1.32,1.32,1.05,1.05,-1.05,-1.13,-1.05,0.26,0.27,0.27
178.54,1.28,1.28,1.04,1.04,-1.04,-1.13,-1.05,0.23,0.23,0.24
180.32,1.24,1.24,1.04,1.03,-1.03,-1.12,-1.04,0.20,0.20,0.20
182.13,1.20,1.20,1.03,1.03,-1.03,-1.12,-1.04,0.17,0.17,0.17
183.95,1.16,1.16,1.02,1.02,-1.02,-1.11,-1.04,0.14,0.14,0.14
185.79,1.12,1.12,1.01,1.01,-1.01,-1.11,-1.04,0.11,0.11,0.11
187.65,1.09,1.09,1.00,1.00,-1.00,-1.10,-1.03,0.09,0.08,0.08
189.52,1.05,1.05,0.99,0.99,-0.99,-1.10,-1.03,0.05,0.06,0.06
191.42,1.02,1.02,0.99,0.99,-0.99,-1.09,-1.03,0.03,0.03,0.03
193.33,0.99,0.99,0.98,0.98,-0.98,-1.09,-1.04,0.01,0.01,0.00
195.27,0.96,0.96,0.98,0.98,-0.98,-1.08,-1.04,-0.02,-0.02,-0.02
197.22,0.93,0.93,0.97,0.97,-0.97,-1.08,-1.04,-0.05,-0.04,-0.04
199.19,0.90,0.90,0.97,0.97,-0.97,-1.07,-1.04,-0.07,-0.07,-0.07
201.18,0.88,0.88,0.97,0.97,-0.97,-1.07,-1.05,-0.09,-0.09,-0.09
203.19,0.85,0.85,0.96,0.96,-0.96,-1.06,-1.05,-0.11,-0.11,-0.11
205.23,0.83,0.83,0.96,0.96,-0.96,-1.06,-1.05,-0.13,-0.13,-0.13
207.28,0.80,0.80,0.95,0.96,-0.96,-1.05,-1.06,-0.16,-0.15,-0.16
209.35,0.78,0.78,0.95,0.95,-0.95,-1.05,-1.06,-0.17,-0.17,-0.18
211.44,0.76,0.75,0.95,0.95,-0.95,-1.04,-1.07,-0.19,-0.19,-0.19
213.56,0.73,0.73,0.94,0.95,-0.95,-1.04,-1.07,-0.22,-0.21,-0.21
215.69,0.71,0.71,0.94,0.94,-0.94,-1.03,-1.08,-0.23,-0.23,-0.23
217.85,0.69,0.69,0.94,0.94,-0.94,-1.03,-1.08,-0.25,-0.25,-0.25
220.03,0.67,0.67,0.94,0.94,-0.94,-1.02,-1.09,-0.27,-0.27,-0.27
222.23,0.65,0.65,0.93,0.93,-0.94,-1.02,-1.09,-0.29,-0.28,-0.28
224.45,0.64,0.64,0.94,0.94,-0.93,-1.01,-1.09,-0.30,-0.30,-0.30
226.70,0.62,0.62,0.93,0.94,-0.93,-1.01,-1.10,-0.32,-0.31,-0.31
228.96,0.61,0.61,0.94,0.93,-0.93,-1.00,-1.10,-0.33,-0.33,-0.33
231.25,0.59,0.59,0.93,0.93,-0.93,-1.00,-1.10,-0.35,-0.35,-0.34
233.57,0.57,0.57,0.93,0.93,-0.93,-0.99,-1.10,-0.37,-0.36,-0.36
235.90,0.56,0.56,0.94,0.93,-0.93,-0.99,-1.10,-0.37,-0.38,-0.38
238.26,0.54,0.54,0.93,0.94,-0.93,-0.98,-1.10,-0.39,-0.39,-0.39
240.64,0.53,0.53,0.94,0.93,-0.93,-0.98,-1.10,-0.40,-0.41,-0.41
243.05,0.51,0.51,0.93,0.93,-0.93,-0.97,-1.10,-0.42,-0.42,-0.42
245.48,0.50,0.50,0.93,0.93,-0.93,-0.97,-1.09,-0.43,-0.43,-0.43
247.93,0.49,0.49,0.93,0.93,-0.93,-0.96,-1.09,-0.44,-0.44,-0.44
250.41,0.48,0.48,0.93,0.93,-0.93,-0.96,-1.08,-0.45,-0.45,-0.45
252.92,0.47,0.47,0.93,0.93,-0.93,-0.95,-1.07,-0.46,-0.46,-0.46
255.45,0.45,0.45,0.92,0.93,-0.93,-0.94,-1.06,-0.48,-0.47,-0.47
258.00,0.44,0.44,0.92,0.92,-0.92,-0.94,-1.05,-0.48,-0.48,-0.48
260.58,0.43,0.42,0.92,0.92,-0.92,-0.93,-1.04,-0.49,-0.49,-0.49
263.19,0.41,0.41,0.91,0.92,-0.92,-0.93,-1.03,-0.51,-0.50,-0.50
265.82,0.40,0.40,0.91,0.91,-0.91,-0.92,-1.02,-0.51,-0.51,-0.51
268.48,0.39,0.38,0.91,0.90,-0.91,-0.92,-1.00,-0.52,-0.52,-0.52
271.16,0.37,0.37,0.90,0.90,-0.90,-0.91,-0.99,-0.53,-0.53,-0.53
273.87,0.36,0.36,0.90,0.90,-0.90,-0.90,-0.97,-0.54,-0.54,-0.54
276.61,0.35,0.35,0.89,0.89,-0.89,-0.90,-0.95,-0.54,-0.54,-0.54
279.38,0.34,0.34,0.89,0.89,-0.88,-0.89,-0.93,-0.54,-0.55,-0.55
282.17,0.32,0.32,0.88,0.88,-0.88,-0.88,-0.92,-0.56,-0.55,-0.56
284.99,0.31,0.31,0.86,0.86,-0.87,-0.88,-0.90,-0.56,-0.56,-0.56
287.84,0.30,0.30,0.85,0.85,-0.86,-0.87,-0.88,-0.56,-0.56,-0.55
290.72,0.29,0.29,0.85,0.85,-0.85,-0.87,-0.86,-0.56,-0.56,-0.56
293.63,0.28,0.28,0.84,0.84,-0.84,-0.86,-0.84,-0.56,-0.56,-0.56
296.57,0.27,0.27,0.83,0.83,-0.82,-0.85,-0.82,-0.56,-0.56,-0.56
299.53,0.26,0.26,0.82,0.82,-0.81,-0.84,-0.79,-0.55,-0.56,-0.56
302.53,0.24,0.24,0.80,0.80,-0.80,-0.84,-0.77,-0.56,-0.56,-0.56
305.55,0.23,0.23,0.79,0.79,-0.79,-0.83,-0.75,-0.56,-0.56,-0.56
308.61,0.21,0.21,0.77,0.77,-0.78,-0.82,-0.73,-0.57,-0.57,-0.56
311.69,0.20,0.20,0.76,0.76,-0.77,-0.82,-0.71,-0.57,-0.57,-0.56
314.81,0.19,0.19,0.75,0.75,-0.75,-0.81,-0.69,-0.56,-0.56,-0.56
317.96,0.19,0.19,0.75,0.75,-0.74,-0.80,-0.67,-0.55,-0.56,-0.56
321.14,0.18,0.18,0.74,0.74,-0.73,-0.79,-0.65,-0.55,-0.55,-0.56
324.35,0.17,0.17,0.72,0.73,-0.72,-0.79,-0.63,-0.55,-0.55,-0.56
327.59,0.16,0.16,0.71,0.71,-0.71,-0.78,-0.61,-0.55,-0.55,-0.55
330.87,0.15,0.15,0.70,0.70,-0.70,-0.77,-0.59,-0.55,-0.55,-0.55
334.18,0.13,0.13,0.68,0.68,-0.68,-0.76,-0.57,-0.55,-0.55,-0.55
337.52,0.12,0.12,0.67,0.67,-0.67,-0.75,-0.55,-0.55,-0.55,-0.55
340.90,0.11,0.11,0.65,0.65,-0.65,-0.74,-0.53,-0.55,-0.54,-0.54
344.30,0.11,0.10,0.65,0.64,-0.64,-0.73,-0.52,-0.54,-0.54,-0.54
347.75,0.10,0.10,0.63,0.63,-0.64,-0.73,-0.50,-0.54,-0.54,-0.53
351.23,0.10,0.10,0.63,0.63,-0.63,-0.72,-0.48,-0.54,-0.53,-0.53
354.74,0.11,0.11,0.63,0.63,-0.64,-0.71,-0.46,-0.53,-0.53,-0.52
358.28,0.12,0.12,0.64,0.64,-0.64,-0.70,-0.45,-0.52,-0.52,-0.52
361.87,0.13,0.13,0.64,0.65,-0.65,-0.69,-0.43,-0.52,-0.52,-0.51
365.49,0.15,0.15,0.65,0.66,-0.66,-0.68,-0.41,-0.51,-0.51,-0.51
369.14,0.17,0.17,0.68,0.67,-0.67,-0.67,-0.40,-0.50,-0.50,-0.51
372.83,0.18,0.18,0.67,0.68,-0.68,-0.66,-0.38,-0.50,-0.49,-0.49
376.56,0.20,0.20,0.69,0.69,-0.68,-0.65,-0.37,-0.48,-0.49,-0.49
380.33,0.21,0.21,0.69,0.69,-0.69,-0.64,-0.35,-0.48,-0.48,-0.49
384.13,0.21,0.21,0.70,0.69,-0.68,-0.63,-0.34,-0.47,-0.47,-0.49
387.97,0.20,0.20,0.68,0.68,-0.67,-0.61,-0.32,-0.47,-0.47,-0.48
391.85,0.19,0.19,0.65,0.66,-0.66,-0.60,-0.31,-0.47,-0.47,-0.46
395.77,0.18,0.18,0.64,0.64,-0.64,-0.59,-0.30,-0.46,-0.47,-0.46
399.73,0.16,0.16,0.62,0.62,-0.62,-0.58,-0.28,-0.46,-0.46,-0.46
403.72,0.15,0.15,0.60,0.60,-0.60,-0.57,-0.27,-0.45,-0.45,-0.45
407.76,0.13,0.13,0.58,0.57,-0.58,-0.55,-0.26,-0.45,-0.45,-0.45
411.84,0.11,0.11,0.55,0.55,-0.55,-0.54,-0.24,-0.44,-0.44,-0.44
415.96,0.09,0.09,0.52,0.53,-0.53,-0.53,-0.23,-0.44,-0.44,-0.43
420.12,0.08,0.08,0.51,0.51,-0.51,-0.52,-0.22,-0.43,-0.43,-0.44
424.32,0.06,0.06,0.49,0.48,-0.48,-0.50,-0.21,-0.42,-0.42,-0.43
428.56,0.04,0.04,0.46,0.46,-0.46,-0.49,-0.20,-0.42,-0.42,-0.42
432.85,0.02,0.02,0.43,0.43,-0.43,-0.47,-0.19,-0.41,-0.41,-0.41
437.18,-0.00,-0.00,0.41,0.41,-0.40,-0.46,-0.17,-0.41,-0.41,-0.41
441.55,-0.02,-0.02,0.38,0.38,-0.38,-0.44,-0.16,-0.40,-0.40,-0.40
445.96,-0.04,-0.04,0.35,0.35,-0.35,-0.43,-0.15,-0.39,-0.39,-0.39
450.42,-0.06,-0.06,0.31,0.32,-0.32,-0.41,-0.14,-0.38,-0.38,-0.38
454.93,-0.07,-0.07,0.30,0.29,-0.30,-0.40,-0.13,-0.37,-0.37,-0.37
459.48,-0.09,-0.09,0.27,0.27,-0.27,-0.38,-0.12,-0.37,-0.36,-0.36
464.07,-0.10,-0.10,0.26,0.25,-0.25,-0.36,-0.11,-0.35,-0.36,-0.36
468.71,-0.12,-0.12,0.23,0.23,-0.23,-0.34,-0.10,-0.35,-0.35,-0.35
473.40,-0.13,-0.13,0.21,0.21,-0.21,-0.33,-0.09,-0.34,-0.34,-0.34
478.13,-0.14,-0.14,0.19,0.19,-0.19,-0.31,-0.08,-0.33,-0.33,-0.33
482.91,-0.15,-0.15,0.17,0.17,-0.17,-0.29,-0.07,-0.32,-0.32,-0.32
487.74,-0.16,-0.16,0.15,0.15,-0.15,-0.27,-0.06,-0.31,-0.31,-0.31
492.62,-0.17,-0.17,0.13,0.13,-0.13,-0.25,-0.05,-0.30,-0.30,-0.30
497.55,-0.19,-0.19,0.10,0.11,-0.11,-0.23,-0.04,-0.30,-0.29,-0.30
502.52,-0.20,-0.20,0.09,0.08,-0.08,-0.21,-0.03,-0.28,-0.28,-0.29
507.55,-0.21,-0.21,0.06,0.06,-0.06,-0.18,-0.02,-0.27,-0.27,-0.27
512.62,-0.23,-0.23,0.03,0.03,-0.03,-0.16,-0.01,-0.26,-0.26,-0.26
517.75,-0.24,-0.24,0.01,0.00,-0.01,-0.14,-0.00,-0.25,-0.25,-0.25
