frequency,raw
20.00,-1.82
20.20,-1.78
20.40,-1.73
20.61,-1.69
20.81,-1.64
21.02,-1.60
21.23,-1.55
21.44,-1.50
21.66,-1.45
21.87,-1.40
22.09,-1.37
22.31,-1.35
22.54,-1.34
22.76,-1.33
22.99,-1.32
23.22,-1.28
23.45,-1.24
23.69,-1.20
23.92,-1.15
24.16,-1.10
24.40,-1.05
24.65,-0.99
24.89,-0.93
25.14,-0.90
25.39,-0.88
25.65,-0.86
25.91,-0.84
26.16,-0.80
26.43,-0.77
26.69,-0.73
26.96,-0.69
27.23,-0.63
27.50,-0.57
27.77,-0.52
28.05,-0.47
28.33,-0.47
28.62,-0.46
28.90,-0.46
29.19,-0.42
29.48,-0.36
29.78,-0.30
30.08,-0.25
30.38,-0.24
30.68,-0.24
30.99,-0.23
31.30,-0.23
31.61,-0.23
31.93,-0.23
32.24,-0.17
32.57,-0.10
32.89,-0.02
33.22,0.00
33.55,0.00
33.89,0.00
34.23,0.00
34.57,0.00
34.92,0.00
35.27,0.06
35.62,0.14
35.97,0.22
36.33,0.23
36.70,0.23
37.06,0.23
37.43,0.23
37.81,0.23
38.19,0.23
38.57,0.23
38.95,0.23
39.34,0.24
39.74,0.25
40.14,0.29
40.54,0.37
40.94,0.45
41.35,0.46
41.76,0.46
42.18,0.46
42.60,0.46
43.03,0.46
43.46,0.46
43.90,0.46
44.33,0.46
44.78,0.46
45.23,0.46
45.68,0.46
46.13,0.46
46.60,0.46
47.06,0.46
47.53,0.43
48.01,0.41
48.49,0.32
48.97,0.23
49.46,0.12
49.96,0.01
50.46,-0.02
50.96,-0.05
51.47,-0.18
51.99,-0.33
52.51,-0.40
53.03,-0.46
53.56,-0.46
54.10,-0.44
54.64,-0.31
55.18,-0.19
55.74,-0.06
56.29,0.14
56.86,0.39
57.42,0.46
58.00,0.46
58.58,0.59
59.16,0.68
59.76,0.68
60.35,0.68
60.96,0.68
61.57,0.55
62.18,0.46
62.80,0.46
63.43,0.32
64.07,0.12
64.71,0.00
65.35,-0.11
66.01,-0.23
66.67,-0.23
67.33,-0.20
68.01,-0.13
68.69,-0.02
69.37,0.11
70.07,0.25
70.77,0.41
71.48,0.57
72.19,0.73
72.91,0.89
73.64,0.91
74.38,0.97
75.12,1.09
75.87,1.13
76.63,1.14
77.40,1.16
78.17,1.23
78.95,1.36
79.74,1.37
80.54,1.45
81.35,1.54
82.16,1.60
82.98,1.60
83.81,1.60
84.65,1.60
85.50,1.60
86.35,1.60
87.22,1.60
88.09,1.60
88.97,1.60
89.86,1.75
90.76,1.81
91.66,1.82
92.58,1.82
93.51,1.82
94.44,1.82
95.39,1.82
96.34,1.82
97.30,1.82
98.28,1.82
99.26,1.82
100.25,1.82
101.25,1.82
102.27,1.82
103.29,1.82
104.32,1.87
105.37,1.99
106.42,2.05
107.48,2.05
108.56,2.05
109.64,2.05
110.74,2.05
111.85,2.05
112.97,2.05
114.10,2.05
115.24,2.05
116.39,2.05
117.55,2.05
118.73,2.05
119.92,2.05
121.12,2.05
122.33,2.05
123.55,2.05
124.79,2.05
126.03,2.05
127.29,2.05
128.57,2.05
129.85,2.05
131.15,2.05
132.46,2.05
133.79,2.05
135.12,2.05
136.48,2.05
137.84,2.05
139.22,2.05
140.61,2.05
142.02,2.05
143.44,2.05
144.87,2.05
146.32,2.05
147.78,2.05
149.26,2.05
150.75,2.05
152.26,2.05
153.78,2.05
155.32,2.05
156.88,2.05
158.44,2.05
160.03,2.05
161.63,2.05
163.24,1.91
164.88,1.82
166.53,1.82
168.19,1.82
169.87,1.88
171.57,2.02
173.29,2.05
175.02,2.05
176.77,2.05
178.54,2.05
180.32,2.05
182.13,2.05
183.95,2.05
185.79,2.05
187.65,2.05
189.52,2.05
191.42,2.05
193.33,2.05
195.27,2.05
197.22,2.05
199.19,2.05
201.18,2.05
203.19,2.05
205.23,2.05
207.28,2.05
209.35,2.05
211.44,2.05
213.56,2.05
215.69,2.05
217.85,2.05
220.03,2.05
222.23,2.05
224.45,2.05
226.70,2.05
228.96,2.05
231.25,2.05
233.57,2.05
235.90,2.05
238.26,2.05
240.64,2.05
243.05,2.05
245.48,2.05
247.93,2.05
250.41,2.05
252.92,2.05
255.45,2.05
258.00,2.05
260.58,2.05
263.19,2.05
265.82,2.05
268.48,2.05
271.16,2.05
273.87,2.05
276.61,2.05
279.38,2.05
282.17,2.05
284.99,2.05
287.84,2.05
290.72,2.05
293.63,2.05
296.57,2.05
299.53,2.05
302.53,2.05
305.55,2.05
308.61,1.99
311.69,1.84
314.81,1.82
317.96,1.82
321.14,1.82
324.35,1.82
327.59,1.82
330.87,1.82
334.18,1.82
337.52,1.82
340.90,1.82
344.30,1.82
347.75,1.82
351.23,1.82
354.74,1.82
358.28,1.82
361.87,1.82
365.49,1.82
369.14,1.82
372.83,1.82
376.56,1.82
380.33,1.82
384.13,1.82
387.97,1.82
391.85,1.82
395.77,1.82
399.73,1.82
403.72,1.82
407.76,1.82
411.84,1.69
415.96,1.61
420.12,1.60
424.32,1.60
428.56,1.60
432.85,1.60
437.18,1.60
441.55,1.60
445.96,1.60
450.42,1.60
454.93,1.60
459.48,1.60
464.07,1.60
468.71,1.60
473.40,1.60
478.13,1.60
482.91,1.60
487.74,1.60
492.62,1.51
497.55,1.40
502.52,1.37
507.55,1.37
512.62,1.37
517.75,1.37
522.93,1.37
528.16,1.37
533.44,1.37
538.77,1.37
544.16,1.37
549.60,1.37
555.10,1.37
560.65,1.37
566.25,1.37
571.92,1.37
577.64,1.37
583.41,1.37
589.25,1.37
595.14,1.37
601.09,1.37
607.10,1.37
613.17,1.37
619.30,1.37
625.50,1.20
631.75,1.14
638.07,1.14
644.45,1.14
650.89,1.14
657.40,1.14
663.98,1.14
670.62,1.14
677.32,1.14
684.10,1.14
690.94,1.14
697.85,1.14
704.83,1.14
711.87,1.14
718.99,1.11
726.18,0.96
733.44,0.91
740.78,0.91
748.19,0.91
755.67,0.91
763.23,0.91
770.86,0.91
778.57,0.91
786.35,0.91
794.22,0.91
802.16,0.91
810.18,0.91
818.28,0.91
826.46,0.91
834.73,0.91
843.08,0.91
851.51,0.91
860.02,0.91
868.62,0.91
877.31,0.90
886.08,0.73
894.94,0.61
903.89,0.49
912.93,0.34
922.06,0.25
931.28,0.23
940.59,0.06
950.00,0.00
959.50,0.00
969.09,0.00
978.78,0.00
988.57,0.00
998.46,0.00
1008.44,0.00
1018.53,0.00
1028.71,-0.08
1039.00,-0.21
1049.39,-0.23
1059.88,-0.23
1070.48,-0.25
1081.19,-0.41
1092.00,-0.46
1102.92,-0.46
1113.95,-0.57
1125.09,-0.81
1136.34,-0.90
1147.70,-1.11
1159.18,-1.27
1170.77,-1.17
1182.48,-1.04
1194.30,-0.93
1206.25,-0.91
1218.31,-0.73
1230.49,-0.71
1242.80,-0.86
1255.22,-0.91
1267.78,-0.91
1280.45,-0.78
1293.26,-0.69
1306.19,-0.68
1319.25,-0.68
1332.45,-0.74
1345.77,-0.88
1359.23,-0.80
1372.82,-0.70
1386.55,-0.68
1400.41,-0.68
1414.42,-0.64
1428.56,-0.50
1442.85,-0.36
1457.28,-0.38
1471.85,-0.45
1486.57,-0.46
1501.43,-0.43
1516.45,-0.27
1531.61,-0.23
1546.93,-0.23
1562.40,-0.23
1578.02,-0.39
1593.80,-0.46
1609.74,-0.64
1625.84,-0.68
1642.10,-0.68
1658.52,-0.68
1675.10,-0.54
1691.85,-0.47
1708.77,-0.46
1725.86,-0.46
1743.12,-0.46
1760.55,-0.46
1778.15,-0.33
1795.94,-0.25
1813.90,-0.05
1832.03,0.02
1850.36,0.19
1868.86,0.31
1887.55,0.53
1906.42,0.66
1925.49,0.53
1944.74,0.46
1964.19,0.63
1983.83,0.68
2003.67,0.77
2023.71,0.88
2043.94,1.05
2064.38,1.13
2085.03,1.32
2105.88,1.52
2126.94,1.84
2148.20,2.11
2169.69,2.38
2191.38,2.71
2213.30,3.01
2235.43,3.36
2257.78,3.60
2280.36,3.57
2303.17,3.55
2326.20,3.63
2349.46,3.80
2372.95,3.87
2396.68,3.84
2420.65,3.63
2444.86,3.53
2469.31,3.62
2494.00,3.65
2518.94,3.65
2544.13,3.93
2569.57,4.23
2595.27,4.43
2621.22,4.36
2647.43,4.45
2673.90,4.61
2700.64,5.01
2727.65,5.53
2754.93,6.02
2782.48,6.44
2810.30,6.78
2838.40,7.12
2866.79,7.43
2895.46,7.78
2924.41,8.28
2953.65,8.78
2983.19,9.07
3013.02,9.12
3043.15,9.25
3073.58,9.49
3104.32,9.84
3135.36,10.01
3166.72,10.09
3198.38,10.22
3230.37,10.14
3262.67,10.05
3295.30,9.86
3328.25,9.78
3361.53,9.62
3395.15,9.65
3429.10,9.97
3463.39,10.40
3498.03,10.50
3533.01,10.48
3568.34,10.48
3604.02,10.51
3640.06,10.66
3676.46,11.02
3713.22,11.38
3750.36,11.74
3787.86,11.85
3825.74,12.03
3864.00,12.08
3902.64,12.08
3941.66,11.96
3981.08,11.87
4020.89,11.85
4061.10,11.66
4101.71,11.40
4142.73,11.21
4184.15,10.98
4226.00,10.58
4268.26,10.02
4310.94,9.56
4354.05,9.37
4397.59,9.29
4441.56,9.04
4485.98,8.77
4530.84,8.67
4576.15,8.50
4621.91,8.26
4668.13,8.21
4714.81,8.26
4761.96,8.31
4809.58,8.06
4857.67,7.89
4906.25,8.11
4955.31,8.38
5004.87,8.48
5054.91,8.62
5105.46,8.75
5156.52,8.98
5208.08,9.17
5260.16,9.40
5312.77,9.74
5365.89,10.03
5419.55,10.30
5473.75,10.35
5528.49,10.15
5583.77,10.20
5639.61,10.43
5696.00,10.71
5752.96,11.10
5810.49,11.65
5868.60,12.34
5927.28,13.12
5986.56,13.82
6046.42,14.47
6106.89,14.92
6167.96,15.28
6229.64,15.38
6291.93,15.05
6354.85,14.27
6418.40,13.34
6482.58,12.43
6547.41,11.62
6612.88,10.79
6679.01,9.84
6745.80,8.94
6813.26,7.97
6881.39,7.30
6950.21,6.68
7019.71,6.10
7089.91,5.51
7160.81,5.02
7232.41,4.68
7304.74,4.41
7377.79,4.15
7451.56,3.92
7526.08,3.87
7601.34,3.96
7677.35,4.19
7754.13,4.38
7831.67,4.69
7909.98,5.17
7989.08,5.72
8068.98,6.31
8149.67,6.86
8231.16,7.32
8313.47,7.42
8396.61,7.23
8480.57,6.35
8565.38,5.20
8651.03,3.98
8737.54,3.00
8824.92,2.73
8913.17,3.04
9002.30,3.76
9092.32,4.97
9183.25,6.41
9275.08,7.83
9367.83,9.06
9461.51,9.89
9556.12,10.45
9651.68,10.87
9748.20,11.10
9845.68,10.97
9944.14,10.62
10043.58,10.16
10144.02,9.65
10245.46,9.04
10347.91,7.97
10451.39,6.66
10555.91,5.21
10661.46,3.70
10768.08,2.24
10875.76,0.88
10984.52,-0.42
11094.36,-1.28
11205.31,-1.74
11317.36,-1.91
11430.53,-2.25
11544.84,-2.89
11660.29,-4.07
11776.89,-6.39
11894.66,-9.70
12013.60,-13.00
12133.74,-15.25
12255.08,-14.42
12377.63,-10.97
12501.41,-6.14
12626.42,-1.74
12752.68,1.37
12880.21,3.43
13009.01,4.55
13139.10,4.81
13270.49,4.80
13403.20,4.42
13537.23,3.90
13672.60,3.27
13809.33,2.65
13947.42,2.06
14086.90,1.42
14227.77,0.60
14370.04,-0.21
14513.74,-0.98
14658.88,-1.63
14805.47,-2.17
14953.52,-2.58
15103.06,-2.86
15254.09,-3.12
15406.63,-3.21
15560.70,-3.38
15716.30,-3.49
15873.47,-3.72
16032.20,-3.60
16192.52,-3.14
16354.45,-2.52
16517.99,-1.79
16683.17,-1.08
16850.01,-0.36
17018.51,0.32
17188.69,0.83
17360.58,1.25
17534.18,1.35
17709.53,1.01
17886.62,0.43
18065.49,-0.07
18246.14,-0.36
18428.60,-0.16
18612.89,0.24
18799.02,0.82
18987.01,1.23
19176.88,1.07
19368.65,0.65
19562.33,0.26
19757.96,0.06
19955.54,-0.17
