frequency,raw,error,smoothed,error_smoothed,equalization,parametric_eq,fixed_band_eq,equalized_raw,equalized_smoothed,target
20.00,-29.64,-30.66,-29.63,-30.65,6.00,5.78,2.76,-23.64,-23.63,1.02
20.20,-29.52,-30.53,-29.52,-30.54,6.00,5.78,2.84,-23.52,-23.52,1.01
20.40,-29.40,-30.40,-29.41,-30.41,6.00,5.78,2.92,-23.40,-23.41,1.00
20.61,-29.28,-30.28,-29.28,-30.28,6.00,5.79,3.00,-23.28,-23.28,1.00
20.81,-29.15,-30.14,-29.16,-30.14,6.00,5.79,3.09,-23.15,-23.16,0.98
21.02,-29.03,-30.01,-29.01,-30.00,6.00,5.79,3.18,-23.03,-23.01,0.98
21.23,-28.85,-29.82,-28.85,-29.83,6.00,5.79,3.27,-22.85,-22.85,0.97
21.44,-28.66,-29.65,-28.67,-29.65,6.00,5.80,3.36,-22.66,-22.67,0.98
21.66,-28.49,-29.46,-28.48,-29.45,6.00,5.80,3.45,-22.49,-22.48,0.97
21.87,-28.30,-29.27,-28.31,-29.28,6.00,5.80,3.55,-22.30,-22.31,0.96
22.09,-28.15,-29.11,-28.16,-29.12,6.00,5.80,3.65,-22.15,-22.16,0.95
22.31,-28.03,-28.99,-28.03,-28.98,6.00,5.80,3.76,-22.03,-22.03,0.95
22.54,-27.92,-28.86,-27.92,-28.87,6.00,5.81,3.86,-21.92,-21.92,0.94
22.76,-27.80,-28.74,-27.80,-28.74,6.00,5.81,3.97,-21.80,-21.80,0.94
22.99,-27.69,-28.62,-27.67,-28.60,6.00,5.81,4.08,-21.69,-21.67,0.93
23.22,-27.52,-28.44,-27.52,-28.45,6.00,5.81,4.20,-21.52,-21.52,0.92
23.45,-27.36,-28.29,-27.36,-28.28,6.00,5.82,4.31,-21.36,-21.36,0.93
23.69,-27.19,-28.11,-27.18,-28.11,6.00,5.82,4.43,-21.19,-21.18,0.92
23.92,-27.01,-27.94,-27.02,-27.95,6.00,5.82,4.55,-21.01,-21.02,0.92
24.16,-26.86,-27.80,-26.87,-27.80,6.00,5.82,4.68,-20.86,-20.87,0.93
24.40,-26.72,-27.67,-26.72,-27.66,6.00,5.83,4.80,-20.72,-20.72,0.94
24.65,-26.59,-27.53,-26.58,-27.53,6.00,5.83,4.93,-20.59,-20.58,0.94
24.89,-26.43,-27.38,-26.43,-27.38,6.00,5.83,5.06,-20.43,-20.43,0.94
25.14,-26.28,-27.23,-26.28,-27.22,6.00,5.84,5.19,-20.28,-20.28,0.94
25.39,-26.11,-27.06,-26.12,-27.06,6.00,5.84,5.32,-20.11,-20.12,0.94
25.65,-25.96,-26.90,-25.96,-26.90,6.00,5.84,5.45,-19.96,-19.96,0.94
25.91,-25.80,-26.75,-25.80,-26.75,6.00,5.84,5.59,-19.80,-19.80,0.95
26.16,-25.65,-26.62,-25.66,-26.62,6.00,5.85,5.72,-19.65,-19.66,0.96
26.43,-25.53,-26.49,-25.53,-26.49,6.00,5.85,5.85,-19.53,-19.53,0.96
26.69,-25.41,-26.37,-25.40,-26.37,6.00,5.85,5.99,-19.41,-19.40,0.96
26.96,-25.28,-26.24,-25.28,-26.24,6.00,5.86,6.12,-19.28,-19.28,0.96
27.23,-25.15,-26.11,-25.15,-26.11,6.00,5.86,6.25,-19.15,-19.15,0.96
27.50,-25.02,-25.98,-25.02,-25.99,6.00,5.86,6.37,-19.02,-19.02,0.96
27.77,-24.88,-25.86,-24.89,-25.86,6.00,5.87,6.49,-18.88,-18.89,0.97
28.05,-24.76,-25.73,-24.74,-25.71,6.00,5.87,6.61,-18.76,-18.74,0.97
28.33,-24.56,-25.53,-24.57,-25.54,6.00,5.87,6.73,-18.56,-18.57,0.96
28.62,-24.39,-25.35,-24.39,-25.35,6.00,5.88,6.83,-18.39,-18.39,0.96
28.90,-24.20,-25.17,-24.21,-25.18,6.00,5.88,6.93,-18.20,-18.21,0.97
29.19,-24.06,-25.03,-24.06,-25.03,6.00,5.88,7.03,-18.06,-18.06,0.97
29.48,-23.93,-24.90,-23.92,-24.90,6.00,5.89,7.11,-17.93,-17.92,0.97
29.78,-23.80,-24.77,-23.79,-24.77,6.00,5.89,7.19,-17.80,-17.79,0.97
30.08,-23.65,-24.63,-23.64,-24.62,6.00,5.89,7.26,-17.65,-17.64,0.98
30.38,-23.47,-24.44,-23.48,-24.45,6.00,5.90,7.32,-17.47,-17.48,0.97
30.68,-23.29,-24.25,-23.29,-24.26,6.00,5.90,7.37,-17.29,-17.29,0.96
30.99,-23.11,-24.07,-23.10,-24.06,6.00,5.90,7.41,-17.11,-17.10,0.96
31.30,-22.89,-23.84,-22.88,-23.83,6.00,5.91,7.43,-16.89,-16.88,0.95
31.61,-22.66,-23.61,-22.66,-23.61,6.00,5.91,7.45,-16.66,-16.66,0.95
31.93,-22.44,-23.38,-22.46,-23.41,6.00,5.91,7.46,-16.44,-16.46,0.94
32.24,-22.31,-23.26,-22.32,-23.26,6.00,5.92,7.46,-16.31,-16.32,0.94
32.57,-22.22,-23.15,-22.21,-23.15,6.00,5.92,7.44,-16.22,-16.21,0.93
32.89,-22.13,-23.06,-22.11,-23.04,6.00,5.92,7.42,-16.13,-16.11,0.93
33.22,-21.99,-22.92,-21.99,-22.92,6.00,5.93,7.39,-15.99,-15.99,0.93
33.55,-21.83,-22.77,-21.84,-22.78,6.00,5.93,7.36,-15.83,-15.84,0.93
33.89,-21.68,-22.62,-21.67,-22.61,6.00,5.93,7.31,-15.68,-15.67,0.94
34.23,-21.50,-22.43,-21.48,-22.42,6.00,5.94,7.26,-15.50,-15.48,0.93
34.57,-21.30,-22.23,-21.29,-22.23,6.00,5.94,7.20,-15.30,-15.29,0.93
34.92,-21.11,-22.04,-21.14,-22.07,6.00,5.95,7.14,-15.11,-15.14,0.93
35.27,-21.02,-21.96,-21.04,-21.98,6.00,5.95,7.07,-15.02,-15.04,0.94
35.62,-20.97,-21.90,-20.96,-21.90,6.00,5.95,7.00,-14.97,-14.96,0.93
35.97,-20.91,-21.85,-20.86,-21.79,6.00,5.96,6.92,-14.91,-14.86,0.93
36.33,-20.68,-21.61,-20.68,-21.61,6.00,5.96,6.85,-14.68,-14.68,0.92
36.70,-20.45,-21.36,-20.46,-21.38,6.00,5.96,6.77,-14.45,-14.46,0.91
37.06,-20.22,-21.13,-20.25,-21.15,6.00,5.97,6.70,-14.22,-14.25,0.90
37.43,-20.10,-20.99,-20.09,-20.98,6.00,5.97,6.62,-14.10,-14.09,0.88
37.81,-19.98,-20.85,-19.97,-20.84,6.00,5.97,6.54,-13.98,-13.97,0.87
38.19,-19.87,-20.72,-19.89,-20.74,6.00,5.98,6.47,-13.87,-13.89,0.85
38.57,-19.78,-20.61,-19.78,-20.62,6.00,5.98,6.40,-13.78,-13.78,0.83
38.95,-19.68,-20.50,-19.64,-20.45,6.00,5.98,6.32,-13.68,-13.64,0.81
39.34,-19.45,-20.24,-19.45,-20.24,6.00,5.99,6.26,-13.45,-13.45,0.78
39.74,-19.21,-19.98,-19.23,-20.00,6.00,5.99,6.19,-13.21,-13.23,0.77
40.14,-19.01,-19.76,-19.03,-19.79,6.00,5.99,6.13,-13.01,-13.03,0.75
40.54,-18.90,-19.63,-18.89,-19.63,6.00,6.00,6.07,-12.90,-12.89,0.73
40.94,-18.79,-19.50,-18.78,-19.50,6.00,6.00,6.01,-12.79,-12.78,0.71
41.35,-18.67,-19.37,-18.67,-19.37,6.00,6.00,5.96,-12.67,-12.67,0.70
41.76,-18.54,-19.22,-18.54,-19.22,6.00,6.01,5.91,-12.54,-12.54,0.67
42.18,-18.38,-19.05,-18.37,-19.04,6.00,6.01,5.87,-12.38,-12.37,0.66
42.60,-18.18,-18.84,-18.19,-18.84,6.00,6.01,5.82,-12.18,-12.19,0.65
43.03,-18.00,-18.63,-18.00,-18.64,6.00,6.01,5.79,-12.00,-12.00,0.63
43.46,-17.82,-18.43,-17.81,-18.43,6.00,6.02,5.76,-11.82,-11.81,0.61
43.90,-17.64,-18.24,-17.64,-18.24,6.00,6.02,5.73,-11.64,-11.64,0.60
44.33,-17.47,-18.06,-17.47,-18.06,6.00,6.02,5.70,-11.47,-11.47,0.58
44.78,-17.32,-17.88,-17.32,-17.89,6.00,6.02,5.69,-11.32,-11.32,0.56
45.23,-17.16,-17.72,-17.16,-17.71,6.00,6.03,5.67,-11.16,-11.16,0.56
45.68,-17.02,-17.55,-17.01,-17.55,6.00,6.03,5.66,-11.02,-11.01,0.53
46.13,-16.87,-17.37,-16.88,-17.39,6.00,6.03,5.65,-10.87,-10.88,0.50
46.60,-16.75,-17.23,-16.74,-17.23,6.00,6.03,5.65,-10.75,-10.74,0.48
47.06,-16.62,-17.08,-16.60,-17.07,6.00,6.03,5.65,-10.62,-10.60,0.46
47.53,-16.48,-16.92,-16.48,-16.91,6.00,6.03,5.66,-10.48,-10.48,0.44
48.01,-16.34,-16.74,-16.37,-16.78,6.00,6.04,5.67,-10.34,-10.37,0.40
48.49,-16.26,-16.63,-16.26,-16.64,6.00,6.04,5.68,-10.26,-10.26,0.37
48.97,-16.16,-16.51,-16.10,-16.45,6.00,6.04,5.69,-10.16,-10.10,0.34
49.46,-15.90,-16.23,-15.90,-16.22,6.00,6.04,5.71,-9.90,-9.90,0.32
49.96,-15.63,-15.90,-15.67,-15.95,6.00,6.04,5.74,-9.63,-9.67,0.28
50.46,-15.46,-15.71,-15.45,-15.71,6.00,6.04,5.76,-9.46,-9.45,0.25
50.96,-15.29,-15.52,-15.31,-15.54,6.00,6.04,5.79,-9.29,-9.31,0.23
51.47,-15.21,-15.42,-15.21,-15.42,6.00,6.04,5.82,-9.21,-9.21,0.21
51.99,-15.14,-15.32,-15.10,-15.29,6.00,6.04,5.85,-9.14,-9.10,0.18
52.51,-14.99,-15.15,-14.99,-15.16,6.00,6.04,5.89,-8.99,-8.99,0.16
53.03,-14.83,-14.98,-14.84,-14.99,6.00,6.04,5.92,-8.83,-8.84,0.15
53.56,-14.69,-14.81,-14.68,-14.81,6.00,6.04,5.96,-8.69,-8.68,0.12
54.10,-14.54,-14.63,-14.52,-14.62,6.00,6.04,6.00,-8.54,-8.52,0.09
54.64,-14.35,-14.42,-14.35,-14.42,6.00,6.04,6.04,-8.35,-8.35,0.07
55.18,-14.18,-14.22,-14.20,-14.25,6.00,6.04,6.07,-8.18,-8.20,0.04
55.74,-14.07,-14.09,-14.06,-14.09,6.00,6.04,6.11,-8.07,-8.06,0.02
56.29,-13.95,-13.96,-13.93,-13.95,6.00,6.04,6.14,-7.95,-7.93,0.01
56.86,-13.81,-13.81,-13.81,-13.81,6.00,6.05,6.18,-7.81,-7.81,0.00
57.42,-13.68,-13.65,-13.68,-13.67,6.00,6.05,6.21,-7.68,-7.68,-0.03
58.00,-13.55,-13.52,-13.54,-13.52,6.00,6.05,6.24,-7.55,-7.54,-0.03
58.58,-13.38,-13.35,-13.36,-13.33,6.00,6.05,6.26,-7.38,-7.36,-0.03
59.16,-13.18,-13.15,-13.16,-13.12,6.00,6.05,6.29,-7.18,-7.16,-0.04
59.76,-12.93,-12.88,-12.97,-12.92,6.00,6.05,6.30,-6.93,-6.97,-0.05
60.35,-12.79,-12.71,-12.82,-12.75,6.00,6.05,6.32,-6.79,-6.82,-0.08
60.96,-12.73,-12.63,-12.68,-12.59,6.00,6.05,6.33,-6.73,-6.68,-0.10
61.57,-12.58,-12.45,-12.56,-12.44,6.00,6.05,6.34,-6.58,-6.56,-0.13
62.18,-12.41,-12.25,-12.42,-12.26,6.00,6.05,6.34,-6.41,-6.42,-0.16
62.80,-12.26,-12.07,-12.27,-12.09,6.00,6.06,6.33,-6.26,-6.27,-0.19
63.43,-12.14,-11.93,-12.13,-11.93,6.00,6.06,6.32,-6.14,-6.13,-0.21
64.07,-12.02,-11.80,-12.00,-11.78,6.00,6.06,6.31,-6.02,-6.00,-0.22
64.71,-11.87,-11.63,-11.88,-11.64,6.00,6.06,6.30,-5.87,-5.88,-0.24
65.35,-11.74,-11.49,-11.75,-11.50,6.00,6.06,6.27,-5.74,-5.75,-0.25
66.01,-11.64,-11.37,-11.62,-11.36,6.00,6.06,6.25,-5.64,-5.62,-0.27
66.67,-11.49,-11.22,-11.49,-11.22,6.00,6.06,6.22,-5.49,-5.49,-0.27
67.33,-11.36,-11.06,-11.37,-11.08,6.00,6.06,6.19,-5.36,-5.37,-0.30
68.01,-11.25,-10.94,-11.24,-10.93,6.00,6.07,6.15,-5.25,-5.24,-0.31
68.69,-11.12,-10.79,-11.12,-10.80,6.00,6.07,6.11,-5.12,-5.12,-0.33
69.37,-10.99,-10.66,-10.99,-10.66,6.00,6.07,6.07,-4.99,-4.99,-0.33
70.07,-10.87,-10.52,-10.86,-10.52,6.00,6.07,6.03,-4.87,-4.86,-0.35
70.77,-10.73,-10.37,-10.74,-10.38,6.00,6.07,5.99,-4.73,-4.74,-0.36
71.48,-10.61,-10.24,-10.61,-10.24,6.00,6.07,5.94,-4.61,-4.61,-0.37
72.19,-10.50,-10.11,-10.48,-10.09,6.00,6.06,5.90,-4.50,-4.48,-0.39
72.91,-10.34,-9.94,-10.35,-9.95,6.00,6.06,5.85,-4.34,-4.35,-0.40
73.64,-10.22,-9.81,-10.21,-9.81,6.00,6.06,5.81,-4.22,-4.21,-0.41
74.38,-10.10,-9.69,-10.11,-9.70,6.00,6.06,5.77,-4.10,-4.11,-0.41
75.12,-10.00,-9.58,-10.02,-9.61,6.00,6.06,5.72,-4.00,-4.02,-0.42
75.87,-9.97,-9.56,-9.91,-9.50,6.00,6.05,5.68,-3.97,-3.91,-0.41
76.63,-9.77,-9.36,-9.78,-9.37,6.00,6.05,5.64,-3.77,-3.78,-0.41
77.40,-9.61,-9.21,-9.63,-9.24,6.00,6.05,5.61,-3.61,-3.63,-0.40
78.17,-9.50,-9.10,-9.48,-9.09,6.00,6.04,5.57,-3.50,-3.48,-0.40
78.95,-9.36,-8.98,-9.36,-8.99,6.00,6.04,5.54,-3.36,-3.36,-0.38
79.74,-9.25,-8.88,-9.24,-8.87,6.00,6.03,5.51,-3.25,-3.24,-0.37
80.54,-9.11,-8.75,-9.10,-8.74,6.00,6.03,5.49,-3.11,-3.10,-0.36
81.35,-8.96,-8.61,-8.96,-8.62,6.00,6.02,5.47,-2.96,-2.96,-0.35
82.16,-8.83,-8.50,-8.83,-8.50,6.00,6.02,5.45,-2.83,-2.83,-0.33
82.98,-8.73,-8.41,-8.75,-8.43,6.00,6.01,5.43,-2.73,-2.75,-0.32
83.81,-8.67,-8.36,-8.69,-8.38,6.00,6.01,5.42,-2.67,-2.69,-0.31
84.65,-8.66,-8.36,-8.59,-8.29,6.00,6.00,5.42,-2.66,-2.59,-0.30
85.50,-8.49,-8.19,-8.47,-8.19,6.00,5.99,5.41,-2.49,-2.47,-0.30
86.35,-8.29,-8.01,-8.34,-8.07,6.00,5.98,5.41,-2.29,-2.34,-0.28
87.22,-8.23,-7.97,-8.23,-7.97,6.00,5.98,5.42,-2.23,-2.23,-0.26
88.09,-8.17,-7.92,-8.16,-7.92,6.00,5.97,5.43,-2.17,-2.16,-0.25
88.97,-8.09,-7.86,-8.07,-7.84,6.00,5.96,5.44,-2.09,-2.07,-0.23
89.86,-7.97,-7.74,-7.91,-7.69,6.00,5.95,5.46,-1.97,-1.91,-0.23
90.76,-7.70,-7.49,-7.76,-7.55,6.00,5.94,5.48,-1.70,-1.76,-0.21
91.66,-7.62,-7.41,-7.66,-7.46,6.00,5.93,5.50,-1.62,-1.66,-0.21
92.58,-7.65,-7.46,-7.63,-7.45,6.00,5.92,5.53,-1.65,-1.63,-0.19
93.51,-7.66,-7.48,-7.63,-7.45,6.00,5.91,5.56,-1.66,-1.63,-0.18
94.44,-7.58,-7.41,-7.54,-7.37,6.00,5.91,5.60,-1.58,-1.54,-0.17
95.39,-7.38,-7.21,-7.37,-7.20,6.00,5.90,5.64,-1.38,-1.37,-0.17
96.34,-7.17,-7.00,-7.23,-7.07,6.00,5.89,5.68,-1.17,-1.23,-0.17
97.30,-7.10,-6.93,-7.14,-6.97,6.00,5.88,5.73,-1.10,-1.14,-0.17
98.28,-7.17,-7.00,-7.06,-6.89,6.00,5.87,5.78,-1.17,-1.06,-0.17
99.26,-7.03,-6.85,-7.03,-6.86,6.00,5.86,5.83,-1.03,-1.03,-0.18
100.25,-6.91,-6.73,-7.02,-6.85,6.00,5.85,5.89,-0.91,-1.02,-0.18
101.25,-7.07,-6.90,-7.00,-6.83,6.00,5.84,5.94,-1.07,-1.00,-0.17
102.27,-7.03,-6.86,-6.99,-6.83,6.00,5.83,6.01,-1.03,-0.99,-0.17
103.29,-6.93,-6.76,-6.95,-6.79,6.00,5.82,6.07,-0.93,-0.95,-0.17
104.32,-6.84,-6.68,-6.84,-6.68,6.00,5.81,6.13,-0.84,-0.84,-0.16
105.37,-6.75,-6.59,-6.75,-6.59,6.00,5.80,6.19,-0.75,-0.75,-0.16
106.42,-6.67,-6.51,-6.66,-6.51,6.00,5.79,6.26,-0.67,-0.66,-0.16
107.48,-6.60,-6.43,-6.60,-6.45,6.00,5.78,6.32,-0.60,-0.60,-0.17
108.56,-6.55,-6.40,-6.56,-6.41,6.00,5.77,6.38,-0.55,-0.56,-0.15
109.64,-6.54,-6.39,-6.51,-6.37,6.00,5.76,6.45,-0.54,-0.51,-0.15
110.74,-6.49,-6.34,-6.48,-6.34,6.00,5.75,6.51,-0.49,-0.48,-0.15
111.85,-6.41,-6.27,-6.45,-6.31,6.00,5.74,6.57,-0.41,-0.45,-0.14
112.97,-6.41,-6.28,-6.35,-6.23,6.00,5.73,6.62,-0.40,-0.35,-0.13
114.10,-6.29,-6.17,-6.25,-6.13,6.01,5.72,6.67,-0.28,-0.24,-0.12
115.24,-6.11,-5.99,-6.20,-6.09,6.01,5.71,6.72,-0.10,-0.19,-0.12
116.39,-6.17,-6.05,-6.18,-6.07,6.00,5.70,6.76,-0.16,-0.18,-0.12
117.55,-6.27,-6.17,-6.20,-6.09,6.00,5.69,6.80,-0.27,-0.20,-0.10
118.73,-6.21,-6.11,-6.19,-6.10,5.98,5.68,6.83,-0.22,-0.21,-0.10
119.92,-6.10,-6.02,-6.11,-6.04,5.97,5.67,6.85,-0.13,-0.14,-0.08
121.12,-5.99,-5.94,-6.00,-5.95,5.94,5.66,6.87,-0.04,-0.06,-0.05
122.33,-5.93,-5.89,-5.93,-5.90,5.91,5.65,6.88,-0.01,-0.02,-0.04
123.55,-5.88,-5.86,-5.88,-5.87,5.88,5.64,6.88,0.00,-0.00,-0.02
124.79,-5.86,-5.86,-5.85,-5.85,5.84,5.63,6.87,-0.01,-0.01,0.00
126.03,-5.81,-5.82,-5.81,-5.82,5.82,5.62,6.86,0.01,0.01,0.01
127.29,-5.77,-5.79,-5.75,-5.78,5.79,5.61,6.84,0.03,0.04,0.02
128.57,-5.69,-5.72,-5.69,-5.72,5.77,5.60,6.81,0.08,0.08,0.03
129.85,-5.64,-5.68,-5.66,-5.70,5.73,5.59,6.77,0.10,0.07,0.04
131.15,-5.64,-5.69,-5.67,-5.72,5.69,5.58,6.73,0.06,0.03,0.05
132.46,-5.70,-5.76,-5.67,-5.73,5.65,5.57,6.67,-0.04,-0.02,0.06
133.79,-5.68,-5.75,-5.62,-5.70,5.62,5.55,6.62,-0.05,0.00,0.07
135.12,-5.51,-5.59,-5.51,-5.60,5.61,5.54,6.55,0.10,0.10,0.08
136.48,-5.36,-5.46,-5.39,-5.49,5.59,5.53,6.49,0.24,0.20,0.10
137.84,-5.31,-5.42,-5.35,-5.46,5.57,5.52,6.41,0.26,0.22,0.11
139.22,-5.41,-5.51,-5.40,-5.52,5.54,5.50,6.34,0.13,0.14,0.10
140.61,-5.49,-5.61,-5.46,-5.57,5.51,5.49,6.25,0.02,0.05,0.12
142.02,-5.51,-5.63,-5.46,-5.58,5.48,5.48,6.17,-0.02,0.02,0.12
143.44,-5.37,-5.49,-5.41,-5.54,5.47,5.46,6.08,0.10,0.06,0.12
144.87,-5.31,-5.44,-5.30,-5.43,5.46,5.45,6.00,0.15,0.16,0.13
146.32,-5.24,-5.38,-5.21,-5.35,5.43,5.43,5.91,0.20,0.22,0.14
147.78,-5.13,-5.27,-5.21,-5.35,5.40,5.41,5.82,0.27,0.19,0.14
149.26,-5.23,-5.37,-5.22,-5.36,5.37,5.40,5.73,0.14,0.15,0.14
150.75,-5.31,-5.44,-5.22,-5.36,5.34,5.38,5.64,0.03,0.12,0.13
152.26,-5.18,-5.32,-5.20,-5.34,5.32,5.36,5.55,0.14,0.12,0.14
153.78,-5.11,-5.25,-5.13,-5.28,5.30,5.34,5.46,0.19,0.16,0.14
155.32,-5.10,-5.24,-5.10,-5.24,5.27,5.32,5.38,0.17,0.17,0.14
156.88,-5.10,-5.23,-5.13,-5.27,5.23,5.30,5.29,0.13,0.10,0.13
158.44,-5.16,-5.28,-5.11,-5.24,5.17,5.28,5.21,0.02,0.06,0.12
160.03,-5.13,-5.24,-5.05,-5.16,5.12,5.26,5.13,-0.01,0.07,0.11
161.63,-4.88,-4.98,-4.96,-5.06,5.06,5.23,5.05,0.19,0.10,0.10
163.24,-4.87,-4.95,-4.88,-4.96,5.02,5.21,4.98,0.15,0.14,0.08
164.88,-4.86,-4.93,-4.84,-4.91,4.99,5.18,4.91,0.13,0.15,0.07
166.53,-4.87,-4.92,-4.85,-4.90,4.95,5.16,4.84,0.09,0.11,0.05
168.19,-4.86,-4.90,-4.86,-4.90,4.92,5.13,4.77,0.06,0.06,0.04
169.87,-4.85,-4.87,-4.91,-4.93,4.89,5.11,4.71,0.05,-0.01,0.02
171.57,-4.98,-4.98,-4.92,-4.93,4.88,5.08,4.65,-0.10,-0.05,0.00
173.29,-4.98,-4.96,-4.92,-4.91,4.87,5.05,4.59,-0.11,-0.06,-0.02
175.02,-4.84,-4.81,-4.90,-4.87,4.85,5.02,4.54,0.02,-0.04,-0.03
176.77,-4.85,-4.80,-4.85,-4.80,4.84,4.99,4.49,-0.01,-0.01,-0.05
178.54,-4.85,-4.78,-4.83,-4.77,4.81,4.96,4.45,-0.03,-0.02,-0.07
180.32,-4.85,-4.76,-4.84,-4.76,4.78,4.93,4.40,-0.06,-0.06,-0.09
182.13,-4.84,-4.74,-4.84,-4.75,4.74,4.90,4.37,-0.09,-0.10,-0.10
183.95,-4.83,-4.72,-4.85,-4.74,4.70,4.86,4.33,-0.12,-0.14,-0.11
185.79,-4.87,-4.74,-4.83,-4.70,4.67,4.83,4.30,-0.20,-0.16,-0.13
187.65,-4.80,-4.66,-4.79,-4.65,4.63,4.80,4.27,-0.17,-0.16,-0.14
189.52,-4.71,-4.55,-4.73,-4.59,4.59,4.76,4.24,-0.11,-0.14,-0.16
191.42,-4.68,-4.52,-4.68,-4.52,4.55,4.73,4.22,-0.13,-0.13,-0.16
193.33,-4.66,-4.48,-4.65,-4.47,4.51,4.69,4.20,-0.15,-0.14,-0.18
195.27,-4.64,-4.44,-4.64,-4.45,4.46,4.66,4.18,-0.18,-0.18,-0.20
197.22,-4.63,-4.41,-4.64,-4.43,4.41,4.62,4.16,-0.22,-0.23,-0.22
199.19,-4.65,-4.42,-4.63,-4.40,4.37,4.59,4.15,-0.28,-0.26,-0.23
201.18,-4.62,-4.37,-4.60,-4.35,4.33,4.55,4.14,-0.28,-0.26,-0.25
203.19,-4.54,-4.28,-4.56,-4.30,4.30,4.51,4.13,-0.23,-0.25,-0.26
205.23,-4.51,-4.24,-4.52,-4.25,4.28,4.48,4.13,-0.23,-0.24,-0.27
207.28,-4.51,-4.23,-4.50,-4.22,4.25,4.44,4.12,-0.25,-0.25,-0.28
209.35,-4.51,-4.21,-4.50,-4.21,4.22,4.40,4.12,-0.28,-0.28,-0.30
211.44,-4.51,-4.19,-4.51,-4.20,4.20,4.36,4.12,-0.31,-0.31,-0.32
213.56,-4.51,-4.18,-4.52,-4.20,4.17,4.33,4.11,-0.34,-0.35,-0.33
215.69,-4.54,-4.19,-4.53,-4.18,4.15,4.29,4.11,-0.39,-0.38,-0.35
217.85,-4.54,-4.18,-4.51,-4.15,4.13,4.25,4.12,-0.41,-0.38,-0.36
220.03,-4.46,-4.07,-4.48,-4.10,4.10,4.21,4.12,-0.35,-0.37,-0.39
222.23,-4.43,-4.03,-4.44,-4.05,4.07,4.18,4.12,-0.36,-0.37,-0.40
224.45,-4.43,-4.02,-4.43,-4.02,4.04,4.14,4.12,-0.39,-0.39,-0.41
226.70,-4.43,-4.01,-4.42,-4.01,4.00,4.10,4.12,-0.42,-0.42,-0.42
228.96,-4.42,-4.00,-4.40,-3.98,3.97,4.07,4.12,-0.45,-0.43,-0.42
231.25,-4.36,-3.94,-4.36,-3.94,3.94,4.03,4.11,-0.42,-0.42,-0.42
233.57,-4.31,-3.88,-4.32,-3.90,3.91,4.00,4.11,-0.40,-0.41,-0.43
235.90,-4.29,-3.86,-4.29,-3.87,3.87,3.96,4.10,-0.41,-0.42,-0.43
238.26,-4.28,-3.85,-4.27,-3.85,3.84,3.92,4.10,-0.44,-0.43,-0.43
240.64,-4.26,-3.85,-4.23,-3.82,3.80,3.89,4.09,-0.45,-0.43,-0.41
243.05,-4.18,-3.77,-4.18,-3.78,3.77,3.86,4.07,-0.41,-0.41,-0.41
245.48,-4.12,-3.71,-4.13,-3.73,3.74,3.82,4.06,-0.37,-0.39,-0.41
247.93,-4.10,-3.69,-4.09,-3.69,3.72,3.79,4.04,-0.38,-0.37,-0.41
250.41,-4.08,-3.69,-4.07,-3.68,3.70,3.76,4.02,-0.37,-0.37,-0.39
252.92,-4.06,-3.68,-4.07,-3.68,3.68,3.72,4.00,-0.37,-0.38,-0.38
255.45,-4.06,-3.67,-4.06,-3.69,3.67,3.69,3.97,-0.38,-0.39,-0.39
258.00,-4.08,-3.70,-4.06,-3.68,3.67,3.66,3.95,-0.41,-0.39,-0.38
260.58,-4.05,-3.67,-4.05,-3.67,3.66,3.63,3.92,-0.38,-0.39,-0.38
263.19,-4.03,-3.65,-4.04,-3.66,3.66,3.60,3.89,-0.36,-0.38,-0.38
265.82,-4.04,-3.65,-4.03,-3.65,3.66,3.57,3.85,-0.38,-0.37,-0.39
268.48,-4.04,-3.65,-4.03,-3.65,3.65,3.54,3.81,-0.38,-0.38,-0.39
271.16,-4.04,-3.64,-4.04,-3.65,3.65,3.51,3.77,-0.39,-0.39,-0.40
273.87,-4.05,-3.65,-4.04,-3.64,3.64,3.48,3.73,-0.41,-0.41,-0.40
276.61,-4.05,-3.64,-4.05,-3.64,3.63,3.46,3.69,-0.42,-0.42,-0.41
279.38,-4.05,-3.62,-4.05,-3.64,3.62,3.43,3.65,-0.43,-0.43,-0.43
282.17,-4.04,-3.62,-4.03,-3.61,3.61,3.40,3.60,-0.43,-0.42,-0.42
284.99,-4.04,-3.62,-4.01,-3.60,3.61,3.38,3.56,-0.43,-0.41,-0.42
287.84,-3.96,-3.55,-4.00,-3.59,3.60,3.35,3.51,-0.36,-0.40,-0.41
290.72,-4.00,-3.58,-3.99,-3.58,3.59,3.33,3.47,-0.40,-0.40,-0.42
293.63,-4.01,-3.60,-3.98,-3.58,3.59,3.31,3.42,-0.42,-0.40,-0.41
296.57,-4.00,-3.60,-4.00,-3.60,3.58,3.29,3.38,-0.41,-0.42,-0.40
299.53,-3.98,-3.58,-4.01,-3.61,3.59,3.26,3.33,-0.39,-0.42,-0.40
302.53,-4.04,-3.65,-4.00,-3.61,3.60,3.24,3.29,-0.43,-0.39,-0.39
305.55,-4.00,-3.61,-3.99,-3.60,3.63,3.22,3.24,-0.37,-0.36,-0.39
308.61,-3.96,-3.58,-3.99,-3.61,3.65,3.20,3.20,-0.31,-0.34,-0.38
311.69,-4.01,-3.62,-4.01,-3.63,3.68,3.18,3.16,-0.33,-0.34,-0.39
314.81,-4.09,-3.71,-4.08,-3.70,3.71,3.17,3.12,-0.37,-0.37,-0.38
317.96,-4.16,-3.77,-4.16,-3.77,3.76,3.15,3.08,-0.40,-0.40,-0.39
321.14,-4.21,-3.83,-4.17,-3.79,3.80,3.13,3.04,-0.41,-0.37,-0.38
324.35,-4.16,-3.78,-4.15,-3.78,3.82,3.12,3.01,-0.34,-0.33,-0.38
327.59,-4.08,-3.71,-4.15,-3.78,3.80,3.10,2.97,-0.28,-0.35,-0.37
330.87,-4.16,-3.79,-4.17,-3.80,3.73,3.09,2.94,-0.43,-0.44,-0.37
334.18,-4.19,-3.81,-4.14,-3.77,3.62,3.07,2.91,-0.57,-0.52,-0.38
337.52,-4.07,-3.70,-4.00,-3.63,3.47,3.06,2.89,-0.60,-0.53,-0.37
340.90,-3.71,-3.34,-3.72,-3.36,3.31,3.05,2.86,-0.40,-0.42,-0.37
344.30,-3.39,-3.03,-3.42,-3.06,3.14,3.03,2.83,-0.25,-0.28,-0.36
347.75,-3.14,-2.79,-3.17,-2.82,2.97,3.02,2.81,-0.16,-0.20,-0.35
351.23,-3.05,-2.69,-3.04,-2.69,2.82,3.01,2.79,-0.23,-0.22,-0.36
354.74,-2.99,-2.65,-2.97,-2.63,2.69,3.00,2.77,-0.29,-0.28,-0.34
358.28,-2.94,-2.60,-2.94,-2.61,2.61,2.99,2.76,-0.33,-0.34,-0.34
361.87,-2.93,-2.60,-2.92,-2.60,2.57,2.98,2.75,-0.36,-0.36,-0.33
365.49,-2.92,-2.60,-2.91,-2.59,2.57,2.98,2.73,-0.35,-0.34,-0.32
369.14,-2.91,-2.60,-2.91,-2.60,2.59,2.97,2.72,-0.31,-0.32,-0.31
372.83,-2.91,-2.61,-2.92,-2.62,2.62,2.96,2.72,-0.28,-0.30,-0.30
376.56,-2.96,-2.66,-2.94,-2.65,2.65,2.96,2.71,-0.31,-0.30,-0.30
380.33,-2.99,-2.69,-2.97,-2.68,2.67,2.95,2.71,-0.31,-0.30,-0.30
384.13,-2.99,-2.70,-3.00,-2.72,2.70,2.94,2.70,-0.29,-0.31,-0.29
387.97,-3.03,-2.74,-3.02,-2.73,2.72,2.94,2.70,-0.30,-0.29,-0.29
391.85,-3.04,-2.75,-3.03,-2.74,2.74,2.94,2.70,-0.29,-0.29,-0.29
395.77,-3.04,-2.74,-3.05,-2.76,2.76,2.93,2.71,-0.28,-0.29,-0.30
399.73,-3.07,-2.77,-3.06,-2.77,2.77,2.93,2.71,-0.29,-0.29,-0.30
403.72,-3.08,-2.79,-3.07,-2.77,2.78,2.93,2.72,-0.30,-0.29,-0.29
407.76,-3.08,-2.77,-3.09,-2.79,2.78,2.92,2.72,-0.30,-0.31,-0.31
411.84,-3.09,-2.78,-3.10,-2.80,2.78,2.92,2.73,-0.31,-0.32,-0.31
