frequency,raw
20.00,-17.97
20.20,-17.78
20.40,-17.60
20.61,-17.41
20.81,-17.22
21.02,-17.04
21.23,-16.85
21.44,-16.66
21.66,-16.47
21.87,-16.28
22.09,-16.10
22.31,-15.91
22.54,-15.73
22.76,-15.54
22.99,-15.35
23.22,-15.16
23.45,-14.97
23.69,-14.77
23.92,-14.58
24.16,-14.40
24.40,-14.23
24.65,-14.05
24.89,-13.87
25.14,-13.68
25.39,-13.49
25.65,-13.30
25.91,-13.09
26.16,-12.89
26.43,-12.69
26.69,-12.47
26.96,-12.26
27.23,-12.04
27.50,-11.83
27.77,-11.62
28.05,-11.40
28.33,-11.19
28.62,-10.97
28.90,-10.76
29.19,-10.56
29.48,-10.37
29.78,-10.19
30.08,-10.01
30.38,-9.83
30.68,-9.66
30.99,-9.47
31.30,-9.29
31.61,-9.12
31.93,-8.94
32.24,-8.76
32.57,-8.58
32.89,-8.40
33.22,-8.22
33.55,-8.04
33.89,-7.88
34.23,-7.71
34.57,-7.56
34.92,-7.40
35.27,-7.24
35.62,-7.07
35.97,-6.92
36.33,-6.77
36.70,-6.62
37.06,-6.47
37.43,-6.32
37.81,-6.16
38.19,-6.00
38.57,-5.85
38.95,-5.71
39.34,-5.57
39.74,-5.43
40.14,-5.29
40.54,-5.15
40.94,-5.02
41.35,-4.88
41.76,-4.74
42.18,-4.61
42.60,-4.49
43.03,-4.38
43.46,-4.25
43.90,-4.13
44.33,-4.03
44.78,-3.92
45.23,-3.81
45.68,-3.70
46.13,-3.60
46.60,-3.49
47.06,-3.37
47.53,-3.27
48.01,-3.17
48.49,-3.07
48.97,-2.95
49.46,-2.83
49.96,-2.71
50.46,-2.57
50.96,-2.43
51.47,-2.29
51.99,-2.15
52.51,-2.00
53.03,-1.86
53.56,-1.72
54.10,-1.56
54.64,-1.41
55.18,-1.26
55.74,-1.10
56.29,-0.94
56.86,-0.78
57.42,-0.62
58.00,-0.44
58.58,-0.28
59.16,-0.12
59.76,0.04
60.35,0.20
60.96,0.36
61.57,0.50
62.18,0.64
62.80,0.78
63.43,0.93
64.07,1.04
64.71,1.14
65.35,1.24
66.01,1.34
66.67,1.43
67.33,1.53
68.01,1.61
68.69,1.68
69.37,1.75
70.07,1.82
70.77,1.87
71.48,1.92
72.19,1.96
72.91,1.99
73.64,2.02
74.38,2.05
75.12,2.06
75.87,2.07
76.63,2.08
77.40,2.09
78.17,2.09
78.95,2.08
79.74,2.08
80.54,2.08
81.35,2.09
82.16,2.08
82.98,2.08
83.81,2.06
84.65,2.04
85.50,2.02
86.35,2.00
87.22,1.99
88.09,1.96
88.97,1.93
89.86,1.89
90.76,1.84
91.66,1.80
92.58,1.76
93.51,1.71
94.44,1.67
95.39,1.62
96.34,1.56
97.30,1.52
98.28,1.48
99.26,1.44
100.25,1.39
101.25,1.34
102.27,1.27
103.29,1.21
104.32,1.15
105.37,1.10
106.42,1.06
107.48,1.02
108.56,0.97
109.64,0.91
110.74,0.85
111.85,0.79
112.97,0.75
114.10,0.71
115.24,0.68
116.39,0.63
117.55,0.58
118.73,0.53
119.92,0.48
121.12,0.43
122.33,0.39
123.55,0.35
124.79,0.31
126.03,0.27
127.29,0.24
128.57,0.21
129.85,0.18
131.15,0.14
132.46,0.11
133.79,0.06
135.12,0.02
136.48,-0.01
137.84,-0.04
139.22,-0.06
140.61,-0.08
142.02,-0.10
143.44,-0.12
144.87,-0.15
146.32,-0.18
147.78,-0.21
149.26,-0.24
150.75,-0.27
152.26,-0.30
153.78,-0.32
155.32,-0.34
156.88,-0.37
158.44,-0.40
160.03,-0.43
161.63,-0.46
163.24,-0.48
164.88,-0.51
166.53,-0.53
168.19,-0.54
169.87,-0.55
171.57,-0.54
173.29,-0.53
175.02,-0.52
176.77,-0.52
178.54,-0.53
180.32,-0.54
182.13,-0.56
183.95,-0.59
185.79,-0.62
187.65,-0.65
189.52,-0.68
191.42,-0.71
193.33,-0.74
195.27,-0.77
197.22,-0.80
199.19,-0.82
201.18,-0.84
203.19,-0.86
205.23,-0.87
207.28,-0.88
209.35,-0.88
211.44,-0.87
213.56,-0.86
215.69,-0.86
217.85,-0.86
220.03,-0.86
222.23,-0.86
224.45,-0.86
226.70,-0.86
228.96,-0.86
231.25,-0.86
233.57,-0.86
235.90,-0.86
238.26,-0.86
240.64,-0.86
243.05,-0.86
245.48,-0.86
247.93,-0.87
250.41,-0.87
252.92,-0.88
255.45,-0.88
258.00,-0.87
260.58,-0.86
263.19,-0.84
265.82,-0.82
268.48,-0.79
271.16,-0.76
273.87,-0.74
276.61,-0.72
279.38,-0.69
282.17,-0.66
284.99,-0.62
287.84,-0.58
290.72,-0.54
293.63,-0.50
296.57,-0.46
299.53,-0.42
302.53,-0.39
305.55,-0.36
308.61,-0.34
311.69,-0.31
314.81,-0.28
317.96,-0.25
321.14,-0.21
324.35,-0.19
327.59,-0.18
330.87,-0.18
334.18,-0.19
337.52,-0.22
340.90,-0.26
344.30,-0.31
347.75,-0.34
351.23,-0.37
354.74,-0.39
358.28,-0.41
361.87,-0.42
365.49,-0.42
369.14,-0.42
372.83,-0.41
376.56,-0.40
380.33,-0.38
384.13,-0.36
387.97,-0.33
391.85,-0.29
395.77,-0.26
399.73,-0.24
403.72,-0.22
407.76,-0.21
411.84,-0.21
415.96,-0.20
420.12,-0.19
424.32,-0.19
428.56,-0.17
432.85,-0.16
437.18,-0.14
441.55,-0.11
445.96,-0.08
450.42,-0.05
454.93,-0.00
459.48,0.04
464.07,0.09
468.71,0.13
473.40,0.17
478.13,0.21
482.91,0.26
487.74,0.31
492.62,0.35
497.55,0.40
502.52,0.45
507.55,0.49
512.62,0.54
517.75,0.59
522.93,0.62
528.16,0.65
533.44,0.67
538.77,0.70
544.16,0.72
549.60,0.75
555.10,0.78
560.65,0.82
566.25,0.86
571.92,0.90
577.64,0.93
583.41,0.97
589.25,1.01
595.14,1.07
601.09,1.13
607.10,1.20
613.17,1.27
619.30,1.34
625.50,1.41
631.75,1.47
638.07,1.53
644.45,1.57
650.89,1.61
657.40,1.65
663.98,1.69
670.62,1.73
677.32,1.75
684.10,1.76
690.94,1.77
697.85,1.78
704.83,1.77
711.87,1.73
718.99,1.69
726.18,1.63
733.44,1.58
740.78,1.52
748.19,1.46
755.67,1.40
763.23,1.34
770.86,1.29
778.57,1.24
786.35,1.20
794.22,1.16
802.16,1.11
810.18,1.08
818.28,1.05
826.46,1.03
834.73,1.01
843.08,0.99
851.51,0.97
860.02,0.94
868.62,0.91
877.31,0.87
886.08,0.83
894.94,0.78
903.89,0.73
912.93,0.67
922.06,0.62
931.28,0.57
940.59,0.51
950.00,0.44
959.50,0.38
969.09,0.31
978.78,0.23
988.57,0.12
998.46,0.02
1008.44,-0.10
1018.53,-0.22
1028.71,-0.33
1039.00,-0.46
1049.39,-0.60
1059.88,-0.73
1070.48,-0.86
1081.19,-0.99
1092.00,-1.13
1102.92,-1.26
1113.95,-1.39
1125.09,-1.52
1136.34,-1.64
1147.70,-1.76
1159.18,-1.90
1170.77,-2.05
1182.48,-2.19
1194.30,-2.34
1206.25,-2.49
1218.31,-2.65
1230.49,-2.82
1242.80,-2.99
1255.22,-3.18
1267.78,-3.36
1280.45,-3.55
1293.26,-3.74
1306.19,-3.93
1319.25,-4.10
1332.45,-4.27
1345.77,-4.43
1359.23,-4.58
1372.82,-4.70
1386.55,-4.81
1400.41,-4.90
1414.42,-4.98
1428.56,-5.04
1442.85,-5.09
1457.28,-5.11
1471.85,-5.10
1486.57,-5.08
1501.43,-5.05
1516.45,-5.01
1531.61,-4.98
1546.93,-4.94
1562.40,-4.89
1578.02,-4.86
1593.80,-4.83
1609.74,-4.80
1625.84,-4.78
1642.10,-4.76
1658.52,-4.74
1675.10,-4.73
1691.85,-4.73
1708.77,-4.73
1725.86,-4.74
1743.12,-4.74
1760.55,-4.73
1778.15,-4.73
1795.94,-4.73
1813.90,-4.73
1832.03,-4.74
1850.36,-4.76
1868.86,-4.77
1887.55,-4.79
1906.42,-4.81
1925.49,-4.83
1944.74,-4.86
1964.19,-4.89
1983.83,-4.93
2003.67,-4.98
2023.71,-5.05
2043.94,-5.13
2064.38,-5.22
2085.03,-5.33
2105.88,-5.43
2126.94,-5.55
2148.20,-5.68
2169.69,-5.80
2191.38,-5.93
2213.30,-6.07
2235.43,-6.22
2257.78,-6.37
2280.36,-6.52
2303.17,-6.67
2326.20,-6.80
2349.46,-6.94
2372.95,-7.09
2396.68,-7.23
2420.65,-7.38
2444.86,-7.53
2469.31,-7.69
2494.00,-7.86
2518.94,-8.03
2544.13,-8.19
2569.57,-8.36
2595.27,-8.52
2621.22,-8.67
2647.43,-8.82
2673.90,-8.95
2700.64,-9.05
2727.65,-9.14
2754.93,-9.21
2782.48,-9.25
2810.30,-9.27
2838.40,-9.27
2866.79,-9.25
2895.46,-9.21
2924.41,-9.16
2953.65,-9.10
2983.19,-9.02
3013.02,-8.93
3043.15,-8.84
3073.58,-8.75
3104.32,-8.67
3135.36,-8.59
3166.72,-8.51
3198.38,-8.44
3230.37,-8.38
3262.67,-8.33
3295.30,-8.32
3328.25,-8.30
3361.53,-8.29
3395.15,-8.31
3429.10,-8.34
3463.39,-8.39
3498.03,-8.45
3533.01,-8.55
3568.34,-8.66
3604.02,-8.79
3640.06,-8.93
3676.46,-9.10
3713.22,-9.29
3750.36,-9.50
3787.86,-9.72
3825.74,-9.94
3864.00,-10.15
3902.64,-10.36
3941.66,-10.55
3981.08,-10.73
4020.89,-10.88
4061.10,-11.02
4101.71,-11.12
4142.73,-11.18
4184.15,-11.22
4226.00,-11.22
4268.26,-11.19
4310.94,-11.13
4354.05,-11.06
4397.59,-10.96
4441.56,-10.83
4485.98,-10.69
4530.84,-10.55
4576.15,-10.41
4621.91,-10.26
4668.13,-10.11
4714.81,-9.95
4761.96,-9.80
4809.58,-9.66
4857.67,-9.54
4906.25,-9.42
4955.31,-9.33
5004.87,-9.24
5054.91,-9.16
5105.46,-9.11
5156.52,-9.06
5208.08,-9.01
5260.16,-8.95
5312.77,-8.90
5365.89,-8.85
5419.55,-8.78
5473.75,-8.70
5528.49,-8.60
5583.77,-8.50
5639.61,-8.37
5696.00,-8.22
5752.96,-8.04
5810.49,-7.83
5868.60,-7.60
5927.28,-7.36
5986.56,-7.10
6046.42,-6.84
6106.89,-6.58
6167.96,-6.29
6229.64,-6.00
6291.93,-5.71
6354.85,-5.41
6418.40,-5.12
6482.58,-4.84
6547.41,-4.59
6612.88,-4.39
6679.01,-4.22
6745.80,-4.10
6813.26,-4.01
6881.39,-3.97
6950.21,-3.96
7019.71,-3.98
7089.91,-4.03
7160.81,-4.12
7232.41,-4.24
7304.74,-4.41
7377.79,-4.61
7451.56,-4.84
7526.08,-5.11
7601.34,-5.41
7677.35,-5.74
7754.13,-6.11
7831.67,-6.51
7909.98,-6.93
7989.08,-7.38
8068.98,-7.85
8149.67,-8.32
8231.16,-8.78
8313.47,-9.21
8396.61,-9.59
8480.57,-9.92
8565.38,-10.20
8651.03,-10.43
8737.54,-10.62
8824.92,-10.77
8913.17,-10.86
9002.30,-10.91
9092.32,-10.91
9183.25,-10.87
9275.08,-10.79
9367.83,-10.68
9461.51,-10.54
9556.12,-10.37
9651.68,-10.17
9748.20,-9.94
9845.68,-9.68
9944.14,-9.38
10043.58,-9.05
10144.02,-8.68
10245.46,-8.26
10347.91,-7.81
10451.39,-7.34
10555.91,-6.86
10661.46,-6.39
10768.08,-5.93
10875.76,-5.49
10984.52,-5.07
11094.36,-4.66
11205.31,-4.27
11317.36,-3.91
11430.53,-3.58
11544.84,-3.27
11660.29,-2.98
11776.89,-2.71
11894.66,-2.46
12013.60,-2.24
12133.74,-2.03
12255.08,-1.85
12377.63,-1.68
12501.41,-1.54
12626.42,-1.43
12752.68,-1.34
12880.21,-1.28
13009.01,-1.26
13139.10,-1.27
13270.49,-1.32
13403.20,-1.40
13537.23,-1.52
13672.60,-1.66
13809.33,-1.82
13947.42,-2.00
14086.90,-2.20
14227.77,-2.42
14370.04,-2.65
14513.74,-2.91
14658.88,-3.19
14805.47,-3.50
14953.52,-3.83
15103.06,-4.21
15254.09,-4.64
15406.63,-5.12
15560.70,-5.63
15716.30,-6.19
15873.47,-6.79
16032.20,-7.44
16192.52,-8.13
16354.45,-8.87
16517.99,-9.65
16683.17,-10.46
16850.01,-11.30
17018.51,-12.15
17188.69,-13.00
17360.58,-13.86
17534.18,-14.71
17709.53,-15.57
17886.62,-16.42
18065.49,-17.25
18246.14,-18.09
18428.60,-18.92
18612.89,-19.76
18799.02,-20.59
18987.01,-21.43
19176.88,-22.27
19368.65,-23.11
19562.33,-23.95
19757.96,-24.79
19955.54,-25.63
