frequency,raw,error,smoothed,error_smoothed,equalization,parametric_eq,equalized_raw,equalized_smoothed,target
20,-5.39,-7.43,-5.35,-7.36,6.00,1.66,0.61,0.65,2.04
21,-4.94,-6.98,-4.92,-6.94,6.00,1.92,1.06,1.08,2.03
22,-4.56,-6.60,-4.51,-6.53,5.92,2.20,1.35,1.40,2.03
23,-4.05,-6.08,-4.11,-6.13,5.76,2.51,1.71,1.64,2.03
24,-3.74,-5.77,-3.73,-5.75,5.54,2.83,1.80,1.81,2.03
25,-3.23,-5.26,-3.36,-5.37,5.27,3.15,2.04,1.92,2.03
26,-2.90,-4.92,-3.00,-5.01,4.98,3.47,2.08,1.99,2.02
27,-2.69,-4.71,-2.65,-4.66,4.66,3.76,1.97,2.01,2.02
28,-2.34,-4.36,-2.32,-4.33,4.33,4.01,1.98,2.01,2.01
29,-2.03,-4.04,-1.99,-4.00,4.00,4.19,1.97,2.01,2.01
30,-1.69,-3.70,-1.69,-3.69,3.69,4.30,2.00,2.00,2.01
31,-1.39,-3.39,-1.40,-3.40,3.40,4.32,2.00,1.99,2.00
32,-1.13,-3.13,-1.12,-3.11,3.11,4.25,1.98,1.99,1.99
33,-0.87,-2.86,-0.86,-2.84,2.84,4.11,1.97,1.98,1.99
34,-0.65,-2.63,-0.61,-2.58,2.58,3.91,1.93,1.97,1.98
35,-0.31,-2.29,-0.37,-2.33,2.33,3.66,2.02,1.96,1.97
36,-0.16,-2.13,-0.13,-2.09,2.09,3.39,1.93,1.96,1.97
37,0.15,-1.81,0.10,-1.85,1.85,3.10,2.00,1.95,1.96
38,0.39,-1.56,0.31,-1.63,1.63,2.80,2.02,1.94,1.95
39,0.42,-1.52,0.52,-1.42,1.42,2.51,1.83,1.93,1.94
40,0.70,-1.23,0.71,-1.21,1.21,2.22,1.91,1.92,1.93
41,0.91,-1.01,0.89,-1.02,1.02,1.94,1.93,1.91,1.91
42,1.02,-0.88,1.07,-0.83,0.83,1.67,1.85,1.90,1.90
43,1.24,-0.65,1.23,-0.66,0.66,1.41,1.89,1.89,1.89
44,1.41,-0.47,1.38,-0.49,0.49,1.16,1.90,1.88,1.88
45,1.50,-0.36,1.52,-0.33,0.33,0.91,1.83,1.85,1.86
46,1.69,-0.16,1.66,-0.18,0.18,0.68,1.87,1.84,1.85
47,1.85,0.02,1.78,-0.04,0.04,0.46,1.89,1.82,1.83
48,1.89,0.08,1.89,0.09,-0.09,0.25,1.80,1.80,1.81
49,1.99,0.19,2.01,0.22,-0.22,0.04,1.77,1.79,1.79
50,2.09,0.31,2.10,0.33,-0.33,-0.16,1.75,1.77,1.78
51,2.18,0.42,2.20,0.45,-0.45,-0.35,1.73,1.75,1.76
52,2.28,0.54,2.29,0.55,-0.55,-0.53,1.72,1.73,1.74
53,2.37,0.65,2.36,0.66,-0.66,-0.70,1.71,1.71,1.71
54,2.37,0.68,2.44,0.75,-0.75,-0.86,1.62,1.68,1.69
55,2.56,0.89,2.50,0.84,-0.84,-1.01,1.71,1.66,1.67
56,2.56,0.91,2.56,0.93,-0.93,-1.15,1.63,1.63,1.64
57,2.57,0.95,2.62,1.01,-1.01,-1.28,1.55,1.60,1.62
58,2.76,1.17,2.67,1.10,-1.10,-1.40,1.66,1.58,1.59
59,2.76,1.19,2.73,1.17,-1.17,-1.50,1.58,1.55,1.56
60,2.76,1.22,2.78,1.25,-1.25,-1.59,1.51,1.53,1.54
61,2.76,1.25,2.82,1.31,-1.31,-1.67,1.45,1.51,1.51
62,2.85,1.37,2.85,1.37,-1.37,-1.74,1.48,1.48,1.48
63,2.85,1.40,2.87,1.43,-1.43,-1.79,1.42,1.44,1.45
64,2.85,1.43,2.88,1.47,-1.47,-1.84,1.38,1.41,1.42
65,2.91,1.52,2.88,1.51,-1.51,-1.87,1.39,1.37,1.38
66,2.95,1.60,2.89,1.55,-1.55,-1.89,1.40,1.34,1.35
67,2.95,1.63,2.88,1.58,-1.58,-1.91,1.37,1.30,1.32
68,2.95,1.67,2.86,1.60,-1.60,-1.92,1.35,1.26,1.28
69,2.89,1.64,2.85,1.62,-1.62,-1.92,1.26,1.23,1.25
70,2.76,1.55,2.84,1.65,-1.65,-1.91,1.11,1.20,1.21
71,2.76,1.58,2.82,1.67,-1.67,-1.91,1.09,1.16,1.17
72,2.76,1.62,2.80,1.69,-1.69,-1.90,1.07,1.12,1.14
73,2.76,1.66,2.79,1.71,-1.71,-1.89,1.05,1.08,1.10
74,2.76,1.70,2.78,1.73,-1.73,-1.87,1.03,1.04,1.06
75,2.76,1.74,2.76,1.76,-1.76,-1.86,1.00,1.01,1.02
76,2.76,1.78,2.75,1.79,-1.79,-1.84,0.97,0.97,0.98
77,2.76,1.81,2.75,1.82,-1.82,-1.83,0.94,0.93,0.94
78,2.76,1.85,2.75,1.86,-1.86,-1.81,0.90,0.89,0.90
79,2.76,1.90,2.75,1.89,-1.89,-1.80,0.87,0.86,0.86
80,2.76,1.94,2.75,1.93,-1.93,-1.79,0.83,0.82,0.82
81,2.76,1.98,2.74,1.96,-1.96,-1.78,0.79,0.78,0.78
82,2.76,2.02,2.74,2.00,-2.00,-1.77,0.76,0.74,0.74
83,2.76,2.06,2.73,2.03,-2.03,-1.76,0.73,0.69,0.70
84,2.70,2.04,2.72,2.06,-2.06,-1.76,0.64,0.65,0.66
85,2.66,2.04,2.70,2.09,-2.09,-1.75,0.57,0.61,0.62
86,2.66,2.08,2.68,2.11,-2.11,-1.75,0.54,0.57,0.57
87,2.66,2.13,2.66,2.14,-2.14,-1.75,0.52,0.53,0.53
88,2.66,2.17,2.64,2.15,-2.15,-1.76,0.50,0.48,0.49
89,2.62,2.17,2.61,2.17,-2.17,-1.76,0.45,0.45,0.45
90,2.57,2.16,2.58,2.18,-2.18,-1.77,0.39,0.41,0.41
91,2.57,2.20,2.55,2.18,-2.18,-1.77,0.38,0.36,0.37
92,2.53,2.20,2.50,2.19,-2.19,-1.78,0.34,0.31,0.33
93,2.48,2.19,2.46,2.19,-2.19,-1.79,0.29,0.28,0.28
94,2.39,2.14,2.42,2.18,-2.18,-1.80,0.21,0.25,0.24
95,2.38,2.17,2.37,2.16,-2.16,-1.82,0.22,0.21,0.20
96,2.28,2.11,2.31,2.14,-2.14,-1.83,0.14,0.17,0.16
97,2.27,2.14,2.23,2.11,-2.11,-1.85,0.16,0.13,0.12
98,2.17,2.08,2.15,2.07,-2.07,-1.87,0.10,0.08,0.08
99,2.04,1.99,2.06,2.02,-2.02,-1.88,0.01,0.03,0.04
100,1.99,1.98,1.97,1.98,-1.98,-1.90,0.01,-0.01,0.01
101,1.93,1.96,1.87,1.92,-1.92,-1.92,0.00,-0.06,-0.03
102,1.91,1.98,1.77,1.87,-1.87,-1.94,0.04,-0.10,-0.07
104,1.68,1.82,1.67,1.82,-1.82,-1.98,-0.14,-0.15,-0.14
105,1.52,1.70,1.58,1.76,-1.76,-2.01,-0.25,-0.18,-0.18
106,1.37,1.58,1.49,1.72,-1.72,-2.03,-0.35,-0.22,-0.22
107,1.33,1.58,1.41,1.67,-1.67,-2.05,-0.34,-0.26,-0.25
108,1.31,1.60,1.33,1.63,-1.63,-2.07,-0.33,-0.31,-0.29
109,1.29,1.61,1.26,1.60,-1.60,-2.09,-0.31,-0.34,-0.32
110,1.19,1.54,1.20,1.58,-1.58,-2.11,-0.39,-0.38,-0.36
111,1.16,1.55,1.15,1.57,-1.57,-2.13,-0.41,-0.41,-0.39
112,1.15,1.57,1.12,1.57,-1.57,-2.15,-0.42,-0.45,-0.42
113,1.14,1.59,1.10,1.57,-1.57,-2.16,-0.44,-0.48,-0.45
114,1.12,1.60,1.09,1.59,-1.59,-2.18,-0.47,-0.50,-0.48
115,1.04,1.55,1.09,1.61,-1.61,-2.20,-0.57,-0.52,-0.51
117,1.03,1.59,1.09,1.64,-1.64,-2.22,-0.61,-0.55,-0.57
118,1.04,1.63,1.09,1.67,-1.67,-2.23,-0.64,-0.58,-0.59
119,1.14,1.75,1.10,1.71,-1.71,-2.24,-0.58,-0.61,-0.61
120,1.15,1.78,1.12,1.76,-1.76,-2.25,-0.61,-0.64,-0.63
121,1.15,1.80,1.14,1.80,-1.80,-2.26,-0.65,-0.66,-0.65
123,1.16,1.85,1.16,1.85,-1.85,-2.27,-0.69,-0.69,-0.70
124,1.17,1.88,1.18,1.90,-1.90,-2.27,-0.73,-0.71,-0.71
125,1.19,1.91,1.21,1.94,-1.94,-2.27,-0.76,-0.73,-0.73
126,1.28,2.02,1.24,1.99,-1.99,-2.27,-0.71,-0.75,-0.74
128,1.29,2.07,1.27,2.03,-2.03,-2.27,-0.74,-0.76,-0.78
129,1.29,2.08,1.28,2.07,-2.07,-2.27,-0.78,-0.78,-0.79
130,1.30,2.11,1.29,2.10,-2.10,-2.26,-0.80,-0.81,-0.81
131,1.30,2.12,1.30,2.13,-2.13,-2.25,-0.83,-0.83,-0.82
133,1.31,2.17,1.30,2.15,-2.15,-2.24,-0.84,-0.85,-0.86
134,1.31,2.18,1.30,2.17,-2.17,-2.23,-0.86,-0.87,-0.87
135,1.32,2.21,1.29,2.19,-2.19,-2.22,-0.87,-0.90,-0.89
137,1.32,2.24,1.28,2.21,-2.21,-2.19,-0.89,-0.93,-0.92
138,1.31,2.24,1.27,2.23,-2.23,-2.18,-0.92,-0.96,-0.94
140,1.23,2.20,1.26,2.25,-2.25,-2.16,-1.02,-0.99,-0.97
141,1.23,2.21,1.26,2.27,-2.27,-2.14,-1.04,-1.01,-0.98
142,1.23,2.23,1.26,2.30,-2.30,-2.13,-1.07,-1.04,-1.00
144,1.23,2.26,1.27,2.33,-2.33,-2.10,-1.10,-1.05,-1.03
145,1.23,2.27,1.28,2.36,-2.36,-2.09,-1.13,-1.08,-1.04
147,1.23,2.30,1.29,2.39,-2.39,-2.06,-1.16,-1.10,-1.07
148,1.23,2.31,1.31,2.41,-2.41,-2.04,-1.18,-1.11,-1.09
150,1.33,2.44,1.31,2.43,-2.43,-2.01,-1.10,-1.12,-1.11
151,1.33,2.45,1.30,2.43,-2.43,-2.00,-1.11,-1.13,-1.13
153,1.33,2.48,1.28,2.43,-2.43,-1.97,-1.10,-1.15,-1.15
154,1.33,2.49,1.24,2.41,-2.41,-1.96,-1.08,-1.16,-1.16
156,1.33,2.51,1.18,2.38,-2.38,-1.94,-1.05,-1.19,-1.18
157,1.28,2.47,1.11,2.33,-2.33,-1.93,-1.06,-1.22,-1.19
159,1.08,2.29,1.03,2.28,-2.28,-1.90,-1.20,-1.24,-1.21
160,1.02,2.24,0.95,2.22,-2.22,-1.89,-1.20,-1.27,-1.22
162,0.88,2.12,0.86,2.16,-2.16,-1.88,-1.28,-1.29,-1.24
164,0.66,1.92,0.78,2.10,-2.10,-1.86,-1.44,-1.32,-1.27
165,0.60,1.88,0.71,2.05,-2.05,-1.85,-1.45,-1.34,-1.28
167,0.49,1.79,0.65,2.01,-2.01,-1.84,-1.52,-1.36,-1.30
169,0.44,1.76,0.60,1.98,-1.98,-1.83,-1.54,-1.38,-1.32
170,0.48,1.81,0.57,1.96,-1.96,-1.82,-1.48,-1.39,-1.33
172,0.56,1.91,0.55,1.96,-1.96,-1.81,-1.40,-1.41,-1.35
174,0.62,1.99,0.55,1.97,-1.97,-1.81,-1.35,-1.41,-1.37
175,0.61,1.99,0.57,1.99,-1.99,-1.80,-1.38,-1.41,-1.38
177,0.70,2.09,0.60,2.01,-2.01,-1.80,-1.32,-1.42,-1.39
179,0.70,2.10,0.63,2.04,-2.04,-1.80,-1.35,-1.41,-1.40
181,0.71,2.12,0.67,2.07,-2.07,-1.80,-1.36,-1.40,-1.41
183,0.71,2.12,0.70,2.10,-2.10,-1.80,-1.39,-1.40,-1.41
184,0.72,2.13,0.73,2.12,-2.12,-1.80,-1.41,-1.39,-1.41
186,0.73,2.13,0.75,2.15,-2.15,-1.81,-1.42,-1.40,-1.41
188,0.75,2.15,0.76,2.16,-2.16,-1.81,-1.42,-1.40,-1.40
190,0.76,2.15,0.77,2.18,-2.18,-1.82,-1.42,-1.40,-1.40
192,0.78,2.17,0.78,2.18,-2.18,-1.83,-1.40,-1.40,-1.39
194,0.80,2.18,0.79,2.19,-2.19,-1.84,-1.39,-1.39,-1.38
196,0.81,2.18,0.80,2.19,-2.19,-1.85,-1.38,-1.39,-1.38
198,0.82,2.19,0.81,2.20,-2.20,-1.86,-1.38,-1.38,-1.37
200,0.83,2.20,0.83,2.20,-2.20,-1.87,-1.38,-1.38,-1.37
202,0.84,2.20,0.84,2.21,-2.21,-1.88,-1.37,-1.37,-1.37
204,0.84,2.20,0.84,2.22,-2.22,-1.90,-1.38,-1.37,-1.37
206,0.85,2.22,0.84,2.22,-2.22,-1.91,-1.37,-1.38,-1.37
208,0.85,2.22,0.84,2.22,-2.22,-1.92,-1.37,-1.38,-1.37
210,0.84,2.22,0.84,2.22,-2.22,-1.94,-1.38,-1.38,-1.38
212,0.84,2.23,0.83,2.22,-2.22,-1.95,-1.38,-1.39,-1.39
214,0.84,2.23,0.82,2.22,-2.22,-1.96,-1.38,-1.40,-1.40
216,0.83,2.23,0.80,2.21,-2.21,-1.98,-1.38,-1.41,-1.41
218,0.82,2.23,0.79,2.20,-2.20,-1.99,-1.38,-1.42,-1.41
221,0.73,2.15,0.77,2.19,-2.19,-2.00,-1.46,-1.42,-1.42
223,0.73,2.16,0.75,2.18,-2.18,-2.01,-1.45,-1.43,-1.43
225,0.73,2.16,0.73,2.16,-2.16,-2.02,-1.44,-1.43,-1.43
227,0.73,2.16,0.72,2.15,-2.15,-2.03,-1.42,-1.43,-1.43
229,0.73,2.16,0.70,2.13,-2.13,-2.03,-1.41,-1.43,-1.43
232,0.64,2.06,0.69,2.12,-2.12,-2.04,-1.48,-1.43,-1.43
234,0.65,2.07,0.68,2.10,-2.10,-2.04,-1.45,-1.42,-1.42
236,0.67,2.08,0.67,2.08,-2.08,-2.04,-1.42,-1.41,-1.41
239,0.68,2.08,0.67,2.07,-2.07,-2.03,-1.39,-1.40,-1.40
241,0.68,2.06,0.66,2.05,-2.05,-2.03,-1.37,-1.39,-1.38
244,0.62,1.99,0.66,2.03,-2.03,-2.02,-1.41,-1.37,-1.37
246,0.64,1.99,0.65,2.01,-2.01,-2.01,-1.37,-1.36,-1.35
248,0.66,2.00,0.64,1.99,-1.99,-2.00,-1.33,-1.35,-1.34
251,0.64,1.96,0.63,1.96,-1.96,-1.98,-1.32,-1.33,-1.32
253,0.60,1.91,0.61,1.92,-1.92,-1.96,-1.32,-1.31,-1.31
256,0.61,1.91,0.58,1.88,-1.88,-1.93,-1.27,-1.30,-1.30
259,0.59,1.88,0.54,1.84,-1.84,-1.90,-1.25,-1.29,-1.29
261,0.48,1.77,0.49,1.78,-1.78,-1.88,-1.30,-1.29,-1.29
264,0.44,1.72,0.43,1.72,-1.72,-1.84,-1.28,-1.29,-1.28
266,0.43,1.71,0.37,1.66,-1.66,-1.81,-1.23,-1.29,-1.28
269,0.34,1.62,0.30,1.59,-1.59,-1.77,-1.25,-1.29,-1.28
272,0.23,1.51,0.22,1.51,-1.51,-1.72,-1.29,-1.30,-1.28
274,0.18,1.46,0.14,1.44,-1.44,-1.69,-1.26,-1.30,-1.28
277,0.04,1.32,0.07,1.36,-1.36,-1.64,-1.32,-1.30,-1.28
280,-0.06,1.22,-0.00,1.29,-1.29,-1.59,-1.35,-1.29,-1.28
283,-0.15,1.13,-0.08,1.22,-1.22,-1.54,-1.37,-1.30,-1.28
286,-0.15,1.12,-0.14,1.15,-1.15,-1.48,-1.30,-1.29,-1.28
288,-0.20,1.07,-0.19,1.09,-1.09,-1.45,-1.29,-1.28,-1.27
291,-0.32,0.94,-0.24,1.03,-1.03,-1.39,-1.35,-1.27,-1.26
294,-0.31,0.94,-0.29,0.97,-0.97,-1.33,-1.28,-1.26,-1.25
297,-0.30,0.94,-0.33,0.92,-0.92,-1.28,-1.22,-1.25,-1.24
300,-0.28,0.94,-0.36,0.88,-0.88,-1.22,-1.16,-1.24,-1.23
303,-0.34,0.87,-0.40,0.83,-0.83,-1.16,-1.17,-1.23,-1.22
306,-0.45,0.75,-0.43,0.79,-0.79,-1.10,-1.24,-1.21,-1.20
309,-0.45,0.74,-0.46,0.75,-0.75,-1.05,-1.20,-1.21,-1.20
312,-0.44,0.75,-0.49,0.71,-0.71,-0.99,-1.15,-1.20,-1.19
316,-0.50,0.68,-0.53,0.67,-0.67,-0.91,-1.17,-1.20,-1.18
319,-0.62,0.55,-0.56,0.64,-0.64,-0.86,-1.26,-1.19,-1.18
322,-0.62,0.55,-0.58,0.60,-0.60,-0.80,-1.23,-1.18,-1.17
325,-0.63,0.54,-0.61,0.57,-0.57,-0.75,-1.20,-1.18,-1.17
328,-0.63,0.54,-0.65,0.54,-0.54,-0.69,-1.17,-1.18,-1.17
332,-0.73,0.44,-0.68,0.50,-0.50,-0.62,-1.23,-1.18,-1.17
335,-0.73,0.44,-0.72,0.46,-0.46,-0.56,-1.20,-1.18,-1.17
338,-0.73,0.44,-0.75,0.43,-0.43,-0.51,-1.16,-1.18,-1.17
342,-0.73,0.44,-0.79,0.39,-0.39,-0.44,-1.12,-1.18,-1.17
345,-0.78,0.39,-0.83,0.35,-0.35,-0.39,-1.13,-1.18,-1.17
349,-0.83,0.33,-0.87,0.30,-0.30,-0.32,-1.14,-1.17,-1.17
352,-0.87,0.29,-0.91,0.25,-0.25,-0.27,-1.13,-1.16,-1.16
356,-1.02,0.14,-0.95,0.20,-0.20,-0.20,-1.22,-1.15,-1.16
359,-1.05,0.10,-1.01,0.14,-0.14,-0.15,-1.19,-1.15,-1.15
363,-1.10,0.04,-1.07,0.08,-0.08,-0.09,-1.18,-1.15,-1.15
366,-1.12,0.02,-1.12,0.02,-0.02,-0.04,-1.14,-1.14,-1.14
370,-1.19,-0.06,-1.19,-0.05,0.05,0.02,-1.14,-1.13,-1.13
374,-1.23,-0.11,-1.25,-0.13,0.13,0.09,-1.11,-1.13,-1.12
377,-1.27,-0.16,-1.33,-0.20,0.20,0.13,-1.08,-1.13,-1.11
381,-1.36,-0.26,-1.39,-0.27,0.27,0.19,-1.09,-1.13,-1.10
385,-1.43,-0.33,-1.46,-0.34,0.34,0.25,-1.09,-1.12,-1.10
389,-1.52,-0.43,-1.52,-0.41,0.41,0.31,-1.11,-1.11,-1.09
393,-1.69,-0.60,-1.58,-0.48,0.48,0.37,-1.21,-1.10,-1.09
397,-1.63,-0.54,-1.65,-0.55,0.55,0.43,-1.08,-1.10,-1.09
401,-1.64,-0.55,-1.72,-0.62,0.62,0.48,-1.02,-1.10,-1.09
405,-1.83,-0.74,-1.79,-0.69,0.69,0.54,-1.14,-1.10,-1.09
409,-1.91,-0.82,-1.86,-0.76,0.76,0.59,-1.15,-1.11,-1.09
413,-1.94,-0.85,-1.93,-0.82,0.82,0.64,-1.12,-1.10,-1.09
417,-1.90,-0.82,-1.98,-0.89,0.89,0.70,-1.02,-1.10,-1.08
421,-1.95,-0.87,-2.03,-0.95,0.95,0.74,-1.01,-1.08,-1.08
425,-2.08,-1.02,-2.07,-1.00,1.00,0.79,-1.08,-1.07,-1.07
430,-2.13,-1.08,-2.10,-1.06,1.06,0.85,-1.08,-1.04,-1.05
434,-2.15,-1.13,-2.12,-1.11,1.11,0.89,-1.04,-1.01,-1.02
438,-2.25,-1.26,-2.14,-1.16,1.16,0.93,-1.09,-0.99,-0.99
443,-2.21,-1.26,-2.15,-1.20,1.20,0.98,-1.01,-0.95,-0.95
447,-2.13,-1.22,-2.15,-1.25,1.25,1.02,-0.88,-0.90,-0.91
451,-2.08,-1.22,-2.15,-1.29,1.29,1.06,-0.79,-0.86,-0.86
456,-2.15,-1.35,-2.14,-1.33,1.33,1.10,-0.82,-0.81,-0.80
460,-2.07,-1.33,-2.13,-1.37,1.37,1.13,-0.71,-0.76,-0.75
465,-2.07,-1.39,-2.10,-1.40,1.40,1.16,-0.67,-0.70,-0.69
470,-2.07,-1.45,-2.06,-1.43,1.43,1.19,-0.64,-0.64,-0.63
474,-2.01,-1.44,-2.03,-1.45,1.45,1.21,-0.56,-0.58,-0.57
479,-1.98,-1.47,-1.99,-1.47,1.47,1.24,-0.51,-0.52,-0.51
484,-2.01,-1.55,-1.95,-1.48,1.48,1.26,-0.53,-0.47,-0.46
489,-1.95,-1.54,-1.92,-1.49,1.49,1.27,-0.46,-0.43,-0.42
494,-1.92,-1.55,-1.89,-1.49,1.49,1.28,-0.43,-0.40,-0.37
499,-1.80,-1.46,-1.85,-1.49,1.49,1.29,-0.32,-0.36,-0.34
504,-1.78,-1.47,-1.80,-1.47,1.47,1.29,-0.31,-0.33,-0.31
509,-1.76,-1.47,-1.76,-1.45,1.45,1.29,-0.32,-0.32,-0.29
514,-1.73,-1.45,-1.72,-1.42,1.42,1.29,-0.32,-0.30,-0.28
519,-1.65,-1.37,-1.67,-1.38,1.38,1.28,-0.27,-0.29,-0.28
524,-1.65,-1.36,-1.64,-1.34,1.34,1.28,-0.31,-0.30,-0.29
529,-1.59,-1.29,-1.61,-1.30,1.30,1.26,-0.30,-0.31,-0.30
535,-1.56,-1.24,-1.58,-1.25,1.25,1.24,-0.32,-0.33,-0.32
540,-1.52,-1.17,-1.55,-1.19,1.19,1.23,-0.33,-0.36,-0.35
545,-1.51,-1.13,-1.53,-1.14,1.14,1.20,-0.37,-0.39,-0.38
551,-1.46,-1.05,-1.50,-1.09,1.09,1.18,-0.38,-0.42,-0.42
556,-1.48,-1.03,-1.48,-1.03,1.03,1.15,-0.45,-0.45,-0.45
562,-1.43,-0.95,-1.45,-0.97,0.97,1.12,-0.46,-0.48,-0.48
568,-1.44,-0.93,-1.42,-0.91,0.91,1.09,-0.53,-0.51,-0.51
573,-1.45,-0.92,-1.38,-0.85,0.85,1.06,-0.60,-0.53,-0.53
579,-1.38,-0.83,-1.33,-0.79,0.79,1.02,-0.59,-0.54,-0.55
585,-1.28,-0.72,-1.28,-0.72,0.72,0.98,-0.56,-0.56,-0.56
591,-1.20,-0.64,-1.23,-0.66,0.66,0.94,-0.55,-0.57,-0.57
596,-1.15,-0.59,-1.16,-0.59,0.59,0.91,-0.56,-0.57,-0.56
602,-1.11,-0.56,-1.08,-0.53,0.53,0.87,-0.59,-0.56,-0.55
608,-1.05,-0.51,-0.99,-0.46,0.46,0.83,-0.59,-0.53,-0.54
615,-0.90,-0.39,-0.90,-0.40,0.40,0.78,-0.51,-0.51,-0.51
621,-0.73,-0.25,-0.81,-0.34,0.34,0.74,-0.40,-0.48,-0.49
627,-0.72,-0.27,-0.72,-0.28,0.28,0.70,-0.44,-0.44,-0.45
633,-0.61,-0.20,-0.62,-0.22,0.22,0.65,-0.39,-0.39,-0.41
639,-0.59,-0.23,-0.54,-0.17,0.17,0.61,-0.42,-0.37,-0.37
646,-0.45,-0.13,-0.46,-0.13,0.13,0.56,-0.33,-0.33,-0.32
652,-0.26,0.01,-0.36,-0.08,0.08,0.52,-0.18,-0.28,-0.27
659,-0.21,0.01,-0.26,-0.04,0.04,0.48,-0.17,-0.22,-0.22
665,-0.19,-0.03,-0.17,0.00,-0.00,0.44,-0.19,-0.17,-0.17
672,-0.16,-0.05,-0.09,0.04,-0.04,0.39,-0.20,-0.13,-0.11
679,-0.05,0.01,-0.01,0.08,-0.08,0.34,-0.13,-0.09,-0.06
686,0.04,0.06,0.07,0.12,-0.12,0.30,-0.08,-0.04,-0.02
692,0.12,0.10,0.15,0.15,-0.15,0.26,-0.03,-0.01,0.02
699,0.13,0.08,0.21,0.19,-0.19,0.22,-0.06,0.02,0.05
706,0.42,0.35,0.26,0.22,-0.22,0.17,0.20,0.05,0.07
713,0.46,0.37,0.31,0.25,-0.25,0.13,0.21,0.06,0.09
721,0.40,0.30,0.35,0.28,-0.28,0.08,0.12,0.07,0.09
728,0.37,0.27,0.40,0.31,-0.31,0.04,0.06,0.09,0.10
735,0.44,0.34,0.44,0.34,-0.34,-0.00,0.10,0.10,0.10
742,0.47,0.37,0.47,0.37,-0.37,-0.04,0.10,0.10,0.10
750,0.46,0.36,0.49,0.39,-0.39,-0.09,0.06,0.10,0.10
757,0.43,0.33,0.52,0.42,-0.42,-0.13,0.01,0.10,0.10
765,0.54,0.44,0.55,0.45,-0.45,-0.17,0.09,0.10,0.10
773,0.58,0.47,0.59,0.48,-0.48,-0.21,0.10,0.11,0.11
780,0.60,0.48,0.61,0.51,-0.51,-0.25,0.09,0.10,0.12
788,0.68,0.55,0.66,0.54,-0.54,-0.29,0.14,0.12,0.13
796,0.66,0.51,0.71,0.57,-0.57,-0.34,0.09,0.15,0.14
804,0.66,0.50,0.76,0.59,-0.59,-0.38,0.06,0.17,0.16
812,0.80,0.62,0.80,0.62,-0.62,-0.42,0.18,0.18,0.18
820,0.94,0.74,0.83,0.65,-0.65,-0.45,0.29,0.18,0.19
828,0.94,0.73,0.86,0.66,-0.66,-0.49,0.27,0.19,0.21
837,0.91,0.68,0.88,0.68,-0.68,-0.53,0.23,0.21,0.22
845,0.90,0.66,0.90,0.68,-0.68,-0.57,0.21,0.21,0.24
853,0.90,0.65,0.91,0.68,-0.68,-0.60,0.21,0.23,0.25
862,0.92,0.66,0.92,0.67,-0.67,-0.64,0.25,0.25,0.26
871,0.92,0.65,0.91,0.64,-0.64,-0.68,0.27,0.27,0.27
879,0.80,0.53,0.89,0.60,-0.60,-0.71,0.20,0.30,0.27
888,0.78,0.50,0.86,0.54,-0.54,-0.74,0.24,0.32,0.27
897,0.77,0.49,0.79,0.46,-0.46,-0.77,0.31,0.33,0.28
906,0.78,0.49,0.68,0.37,-0.37,-0.80,0.41,0.31,0.29
915,0.77,0.48,0.57,0.27,-0.27,-0.83,0.49,0.30,0.29
924,0.62,0.32,0.45,0.17,-0.17,-0.86,0.45,0.28,0.30
933,0.52,0.21,0.33,0.07,-0.07,-0.88,0.45,0.26,0.31
943,0.35,0.03,0.22,-0.03,0.03,-0.90,0.37,0.25,0.31
952,0.19,-0.14,0.13,-0.11,0.11,-0.92,0.30,0.24,0.32
962,0.01,-0.33,0.07,-0.17,0.17,-0.94,0.18,0.24,0.33
971,-0.15,-0.50,0.05,-0.21,0.21,-0.96,0.05,0.25,0.35
981,-0.38,-0.74,0.05,-0.21,0.21,-0.97,-0.17,0.26,0.36
991,-0.34,-0.72,0.08,-0.19,0.19,-0.99,-0.16,0.27,0.38
1001,0.04,-0.36,0.16,-0.13,0.13,-1.00,0.17,0.29,0.39
1011,0.23,-0.19,0.27,-0.05,0.05,-1.00,0.27,0.32,0.41
1021,0.44,0.00,0.42,0.06,-0.06,-1.01,0.38,0.36,0.44
1031,0.72,0.26,0.59,0.19,-0.19,-1.01,0.53,0.40,0.46
1041,0.93,0.44,0.78,0.32,-0.32,-1.01,0.61,0.46,0.49
1052,1.15,0.63,0.97,0.46,-0.46,-1.01,0.69,0.51,0.52
1062,1.30,0.75,1.16,0.59,-0.59,-1.01,0.71,0.57,0.54
1073,1.40,0.83,1.33,0.70,-0.70,-1.01,0.70,0.63,0.57
1084,1.55,0.95,1.48,0.80,-0.80,-1.00,0.74,0.67,0.60
1094,1.61,0.98,1.58,0.89,-0.89,-0.99,0.72,0.69,0.63
1105,1.66,0.99,1.65,0.96,-0.96,-0.98,0.70,0.69,0.66
1116,1.73,1.03,1.71,1.00,-1.00,-0.97,0.72,0.71,0.70
1128,1.69,0.96,1.77,1.03,-1.03,-0.96,0.66,0.74,0.73
1139,1.78,1.01,1.81,1.04,-1.04,-0.95,0.73,0.76,0.77
1150,1.82,1.01,1.84,1.05,-1.05,-0.94,0.77,0.79,0.80
1162,1.85,1.01,1.87,1.05,-1.05,-0.92,0.80,0.83,0.84
1173,1.86,0.98,1.91,1.04,-1.04,-0.91,0.82,0.87,0.88
1185,1.92,1.01,1.94,1.03,-1.03,-0.89,0.88,0.90,0.91
1197,1.95,1.00,1.97,1.03,-1.03,-0.88,0.92,0.94,0.95
1209,2.05,1.06,2.01,1.03,-1.03,-0.86,1.02,0.98,0.99
1221,2.09,1.07,2.05,1.03,-1.03,-0.84,1.06,1.02,1.02
1233,2.09,1.03,2.08,1.03,-1.03,-0.83,1.06,1.05,1.06
1246,2.08,0.99,2.12,1.03,-1.03,-0.81,1.04,1.08,1.09
1258,2.15,1.04,2.14,1.04,-1.04,-0.80,1.11,1.10,1.11
1271,2.16,1.03,2.17,1.05,-1.05,-0.78,1.11,1.12,1.13
1283,2.18,1.04,2.19,1.06,-1.06,-0.76,1.11,1.13,1.14
1296,2.24,1.09,2.21,1.08,-1.08,-0.75,1.16,1.13,1.15
1309,2.26,1.11,2.22,1.09,-1.09,-0.73,1.16,1.13,1.14
1322,2.25,1.11,2.23,1.11,-1.11,-0.72,1.13,1.12,1.14
1335,2.24,1.11,2.24,1.14,-1.14,-0.71,1.10,1.10,1.13
1349,2.25,1.14,2.25,1.16,-1.16,-0.69,1.09,1.09,1.11
1362,2.27,1.18,2.26,1.19,-1.19,-0.68,1.08,1.07,1.09
1376,2.24,1.17,2.27,1.21,-1.21,-0.67,1.02,1.06,1.07
1390,2.25,1.20,2.28,1.24,-1.24,-0.65,1.01,1.04,1.05
1404,2.31,1.28,2.29,1.27,-1.27,-0.64,1.04,1.02,1.03
1418,2.32,1.30,2.31,1.30,-1.30,-0.63,1.02,1.01,1.01
1432,2.29,1.29,2.33,1.33,-1.33,-0.62,0.96,1.00,1.00
1446,2.33,1.34,2.35,1.36,-1.36,-0.61,0.97,1.00,0.99
1461,2.40,1.41,2.37,1.38,-1.38,-0.60,1.02,0.99,0.99
1475,2.38,1.39,2.39,1.40,-1.40,-0.59,0.98,0.99,0.99
1490,2.41,1.41,2.41,1.42,-1.42,-0.59,0.99,0.99,0.99
1505,2.50,1.50,2.43,1.43,-1.43,-0.58,1.06,1.00,1.00
1520,2.49,1.48,2.45,1.45,-1.45,-0.57,1.04,1.01,1.01
1535,2.48,1.46,2.47,1.46,-1.46,-0.57,1.02,1.02,1.02
1550,2.55,1.51,2.50,1.47,-1.47,-0.56,1.08,1.03,1.04
1566,2.51,1.45,2.52,1.47,-1.47,-0.55,1.03,1.05,1.06
1582,2.48,1.40,2.55,1.48,-1.48,-0.55,1.00,1.07,1.08
1597,2.55,1.45,2.58,1.49,-1.49,-0.54,1.06,1.09,1.10
1613,2.61,1.47,2.61,1.49,-1.49,-0.54,1.11,1.12,1.13
1629,2.67,1.50,2.66,1.50,-1.50,-0.53,1.17,1.15,1.17
1646,2.70,1.49,2.71,1.51,-1.51,-0.53,1.19,1.20,1.21
1662,2.71,1.46,2.76,1.52,-1.52,-0.52,1.19,1.24,1.25
1679,2.84,1.54,2.82,1.52,-1.52,-0.52,1.32,1.30,1.30
1696,2.89,1.53,2.89,1.52,-1.52,-0.51,1.36,1.37,1.36
1713,2.93,1.50,2.96,1.52,-1.52,-0.51,1.41,1.44,1.42
1730,3.01,1.51,3.03,1.51,-1.51,-0.50,1.50,1.52,1.50
1747,3.10,1.52,3.10,1.50,-1.50,-0.50,1.60,1.60,1.58
1764,3.19,1.52,3.16,1.47,-1.47,-0.49,1.71,1.69,1.67
1782,3.28,1.51,3.22,1.44,-1.44,-0.49,1.83,1.78,1.77
1800,3.30,1.43,3.28,1.40,-1.40,-0.48,1.90,1.88,1.87
1818,3.32,1.34,3.34,1.35,-1.35,-0.47,1.97,1.99,1.97
1836,3.43,1.35,3.38,1.29,-1.29,-0.46,2.14,2.09,2.08
1854,3.43,1.24,3.41,1.22,-1.22,-0.45,2.21,2.19,2.19
