frequency,raw,error,smoothed,error_smoothed,equalization,parametric_eq,equalized_raw,equalized_smoothed,target
20,7.23,3.86,7.28,3.91,-3.91,-2.35,3.32,3.37,3.37
21,7.54,4.18,7.53,4.16,-4.16,-2.70,3.38,3.36,3.36
22,7.83,4.47,7.75,4.39,-4.39,-3.08,3.44,3.36,3.36
23,7.93,4.57,7.95,4.59,-4.59,-3.49,3.34,3.36,3.36
24,8.13,4.77,8.13,4.77,-4.77,-3.93,3.36,3.36,3.36
25,8.29,4.94,8.29,4.93,-4.93,-4.37,3.36,3.35,3.35
26,8.44,5.09,8.42,5.07,-5.07,-4.81,3.38,3.35,3.35
27,8.44,5.09,8.52,5.18,-5.18,-5.22,3.26,3.35,3.35
28,8.64,5.30,8.61,5.26,-5.26,-5.59,3.38,3.34,3.34
29,8.64,5.30,8.66,5.33,-5.33,-5.87,3.32,3.34,3.34
30,8.71,5.38,8.69,5.36,-5.36,-6.04,3.35,3.33,3.33
31,8.74,5.41,8.70,5.37,-5.37,-6.11,3.37,3.33,3.33
32,8.64,5.32,8.67,5.34,-5.34,-6.06,3.30,3.32,3.32
33,8.64,5.32,8.60,5.29,-5.29,-5.91,3.35,3.32,3.32
34,8.46,5.15,8.51,5.20,-5.20,-5.68,3.26,3.31,3.31
35,8.44,5.14,8.39,5.08,-5.08,-5.40,3.36,3.30,3.30
36,8.24,4.95,8.23,4.93,-4.93,-5.08,3.31,3.29,3.29
37,8.05,4.77,8.04,4.76,-4.76,-4.75,3.29,3.29,3.29
38,7.83,4.55,7.83,4.56,-4.56,-4.42,3.27,3.28,3.28
39,7.61,4.34,7.60,4.33,-4.33,-4.09,3.28,3.27,3.27
40,7.35,4.10,7.35,4.09,-4.09,-3.78,3.26,3.26,3.26
41,7.09,3.85,7.09,3.84,-3.84,-3.48,3.25,3.24,3.24
42,6.83,3.60,6.82,3.58,-3.58,-3.20,3.25,3.23,3.23
43,6.53,3.31,6.54,3.32,-3.32,-2.94,3.21,3.22,3.22
44,6.22,3.02,6.27,3.07,-3.07,-2.69,3.15,3.21,3.21
45,5.96,2.77,6.01,2.82,-2.82,-2.46,3.14,3.19,3.19
46,5.75,2.58,5.75,2.57,-2.57,-2.24,3.18,3.18,3.18
47,5.57,2.41,5.50,2.34,-2.34,-2.04,3.23,3.16,3.16
48,5.26,2.12,5.26,2.12,-2.12,-1.85,3.14,3.14,3.14
49,5.02,1.90,5.04,1.91,-1.91,-1.67,3.11,3.12,3.12
50,4.80,1.70,4.82,1.72,-1.72,-1.51,3.08,3.10,3.10
51,4.60,1.52,4.62,1.54,-1.54,-1.35,3.06,3.09,3.09
52,4.42,1.36,4.44,1.37,-1.37,-1.21,3.05,3.06,3.06
53,4.29,1.25,4.27,1.22,-1.22,-1.08,3.07,3.04,3.04
54,4.06,1.04,4.10,1.08,-1.08,-0.95,2.98,3.02,3.02
55,3.98,0.98,3.95,0.95,-0.95,-0.84,3.03,3.00,3.00
56,3.86,0.89,3.81,0.84,-0.84,-0.74,3.03,2.97,2.97
57,3.64,0.69,3.67,0.73,-0.73,-0.65,2.92,2.95,2.95
58,3.57,0.65,3.54,0.62,-0.62,-0.57,2.95,2.92,2.92
59,3.41,0.52,3.42,0.53,-0.53,-0.50,2.88,2.89,2.89
60,3.31,0.44,3.31,0.45,-0.45,-0.44,2.86,2.87,2.87
61,3.21,0.37,3.21,0.37,-0.37,-0.38,2.84,2.84,2.84
62,3.13,0.32,3.12,0.31,-0.31,-0.34,2.82,2.81,2.81
63,3.02,0.24,3.04,0.27,-0.27,-0.31,2.75,2.78,2.78
64,2.92,0.18,2.98,0.23,-0.23,-0.29,2.69,2.75,2.75
65,2.90,0.19,2.92,0.21,-0.21,-0.27,2.70,2.71,2.71
66,2.90,0.22,2.87,0.19,-0.19,-0.26,2.71,2.68,2.68
67,2.88,0.23,2.82,0.18,-0.18,-0.26,2.70,2.65,2.65
68,2.80,0.19,2.78,0.17,-0.17,-0.27,2.63,2.61,2.61
69,2.75,0.17,2.75,0.17,-0.17,-0.28,2.58,2.58,2.58
70,2.70,0.16,2.72,0.18,-0.18,-0.29,2.52,2.54,2.54
71,2.70,0.20,2.70,0.19,-0.19,-0.31,2.51,2.50,2.50
72,2.69,0.22,2.68,0.21,-0.21,-0.33,2.48,2.47,2.47
73,2.60,0.17,2.67,0.24,-0.24,-0.36,2.36,2.43,2.43
74,2.60,0.21,2.67,0.28,-0.28,-0.39,2.32,2.39,2.39
75,2.72,0.37,2.67,0.32,-0.32,-0.42,2.40,2.35,2.35
76,2.71,0.40,2.68,0.36,-0.36,-0.45,2.35,2.31,2.31
77,2.70,0.43,2.68,0.41,-0.41,-0.49,2.29,2.27,2.27
78,2.70,0.47,2.69,0.46,-0.46,-0.53,2.24,2.23,2.23
79,2.70,0.51,2.69,0.50,-0.50,-0.57,2.20,2.19,2.19
80,2.70,0.55,2.70,0.55,-0.55,-0.60,2.15,2.15,2.15
81,2.70,0.59,2.70,0.59,-0.59,-0.65,2.11,2.11,2.11
82,2.70,0.63,2.71,0.64,-0.64,-0.69,2.06,2.07,2.07
83,2.70,0.67,2.71,0.68,-0.68,-0.73,2.02,2.03,2.03
84,2.68,0.69,2.72,0.74,-0.74,-0.77,1.94,1.99,1.99
85,2.74,0.80,2.74,0.80,-0.80,-0.82,1.95,1.95,1.94
86,2.80,0.90,2.76,0.86,-0.86,-0.86,1.94,1.90,1.90
87,2.80,0.94,2.79,0.93,-0.93,-0.91,1.87,1.86,1.86
88,2.81,0.99,2.82,1.00,-1.00,-0.95,1.81,1.82,1.82
89,2.81,1.03,2.85,1.08,-1.08,-1.00,1.74,1.78,1.78
90,2.86,1.12,2.89,1.15,-1.15,-1.04,1.71,1.74,1.74
91,2.91,1.22,2.92,1.23,-1.23,-1.09,1.68,1.70,1.70
92,3.01,1.36,2.95,1.30,-1.30,-1.14,1.71,1.65,1.65
93,3.01,1.40,2.98,1.37,-1.37,-1.18,1.65,1.61,1.61
94,3.01,1.44,3.00,1.43,-1.43,-1.23,1.58,1.57,1.57
95,3.01,1.48,3.01,1.48,-1.48,-1.28,1.53,1.53,1.53
96,3.01,1.52,3.02,1.53,-1.53,-1.33,1.48,1.49,1.49
97,3.00,1.55,3.03,1.57,-1.57,-1.37,1.43,1.45,1.45
98,2.99,1.58,3.02,1.61,-1.61,-1.42,1.38,1.41,1.41
99,3.01,1.64,3.01,1.64,-1.64,-1.47,1.37,1.37,1.37
100,3.07,1.74,3.00,1.67,-1.67,-1.51,1.40,1.33,1.33
101,3.05,1.76,2.98,1.70,-1.70,-1.56,1.35,1.28,1.29
102,2.93,1.68,2.96,1.72,-1.72,-1.60,1.21,1.24,1.26
104,2.91,1.73,2.94,1.75,-1.75,-1.69,1.16,1.20,1.18
105,2.88,1.74,2.93,1.77,-1.77,-1.73,1.11,1.15,1.14
106,2.86,1.75,2.91,1.79,-1.79,-1.77,1.07,1.11,1.11
107,2.89,1.82,2.89,1.81,-1.81,-1.81,1.08,1.08,1.07
108,2.91,1.87,2.87,1.83,-1.83,-1.85,1.08,1.04,1.04
109,2.89,1.88,2.85,1.84,-1.84,-1.89,1.05,1.01,1.01
110,2.87,1.90,2.83,1.86,-1.86,-1.92,1.02,0.97,0.98
111,2.80,1.86,2.81,1.86,-1.86,-1.95,0.94,0.94,0.94
112,2.74,1.83,2.78,1.87,-1.87,-1.98,0.87,0.91,0.91
113,2.73,1.85,2.76,1.88,-1.88,-2.01,0.85,0.88,0.89
114,2.73,1.87,2.74,1.89,-1.89,-2.03,0.84,0.85,0.86
115,2.73,1.90,2.72,1.90,-1.90,-2.06,0.83,0.82,0.83
117,2.73,1.96,2.70,1.91,-1.91,-2.09,0.82,0.79,0.78
118,2.69,1.94,2.68,1.93,-1.93,-2.11,0.77,0.76,0.75
119,2.64,1.91,2.67,1.94,-1.94,-2.12,0.70,0.73,0.73
120,2.64,1.93,2.65,1.95,-1.95,-2.13,0.69,0.70,0.71
121,2.65,1.97,2.63,1.96,-1.96,-2.13,0.69,0.67,0.69
123,2.62,1.98,2.61,1.97,-1.97,-2.13,0.66,0.65,0.64
124,2.57,1.95,2.59,1.97,-1.97,-2.13,0.60,0.62,0.62
125,2.57,1.97,2.56,1.96,-1.96,-2.12,0.61,0.60,0.60
126,2.58,2.00,2.53,1.96,-1.96,-2.11,0.62,0.58,0.58
128,2.49,1.95,2.50,1.94,-1.94,-2.08,0.55,0.55,0.54
129,2.44,1.91,2.46,1.93,-1.93,-2.06,0.51,0.53,0.53
130,2.40,1.89,2.42,1.91,-1.91,-2.04,0.49,0.51,0.51
131,2.40,1.90,2.38,1.89,-1.89,-2.02,0.51,0.49,0.50
133,2.29,1.83,2.34,1.87,-1.87,-1.97,0.42,0.47,0.46
134,2.30,1.85,2.29,1.84,-1.84,-1.94,0.46,0.45,0.45
135,2.28,1.85,2.24,1.81,-1.81,-1.91,0.47,0.43,0.43
137,2.19,1.79,2.18,1.78,-1.78,-1.84,0.41,0.41,0.40
138,2.13,1.74,2.12,1.74,-1.74,-1.80,0.39,0.38,0.39
140,2.01,1.66,2.06,1.70,-1.70,-1.73,0.31,0.36,0.36
141,2.01,1.67,1.99,1.65,-1.65,-1.69,0.36,0.34,0.34
142,2.02,1.69,1.92,1.60,-1.60,-1.65,0.42,0.32,0.33
144,1.78,1.48,1.85,1.55,-1.55,-1.56,0.23,0.30,0.30
145,1.77,1.48,1.78,1.50,-1.50,-1.52,0.27,0.28,0.29
147,1.72,1.46,1.72,1.46,-1.46,-1.43,0.26,0.26,0.26
148,1.66,1.42,1.66,1.42,-1.42,-1.39,0.24,0.24,0.24
150,1.55,1.33,1.60,1.38,-1.38,-1.30,0.17,0.22,0.22
151,1.46,1.26,1.55,1.35,-1.35,-1.25,0.12,0.20,0.20
153,1.53,1.35,1.49,1.31,-1.31,-1.16,0.22,0.18,0.18
154,1.58,1.42,1.43,1.27,-1.27,-1.11,0.32,0.16,0.16
156,1.33,1.19,1.36,1.22,-1.22,-1.02,0.11,0.14,0.14
157,1.31,1.18,1.29,1.17,-1.17,-0.98,0.15,0.12,0.13
159,1.22,1.12,1.21,1.11,-1.11,-0.89,0.11,0.11,0.10
160,1.06,0.97,1.13,1.04,-1.04,-0.84,0.02,0.09,0.09
162,1.02,0.95,1.05,0.98,-0.98,-0.75,0.04,0.07,0.07
164,0.97,0.92,0.97,0.91,-0.91,-0.67,0.06,0.06,0.05
165,0.91,0.87,0.88,0.84,-0.84,-0.62,0.07,0.04,0.04
167,0.84,0.81,0.80,0.77,-0.77,-0.54,0.07,0.03,0.03
169,0.71,0.70,0.71,0.70,-0.70,-0.45,0.01,0.01,0.01
170,0.61,0.61,0.63,0.63,-0.63,-0.41,-0.02,0.00,0.00
172,0.54,0.55,0.54,0.55,-0.55,-0.33,-0.01,-0.01,-0.01
174,0.43,0.45,0.46,0.48,-0.48,-0.24,-0.05,-0.02,-0.02
175,0.40,0.43,0.37,0.40,-0.40,-0.20,0.00,-0.03,-0.03
177,0.31,0.35,0.29,0.32,-0.32,-0.12,-0.01,-0.04,-0.04
179,0.18,0.22,0.20,0.25,-0.25,-0.04,-0.06,-0.04,-0.04
181,0.08,0.13,0.12,0.17,-0.17,0.04,-0.09,-0.05,-0.05
183,0.03,0.09,0.04,0.09,-0.09,0.11,-0.06,-0.05,-0.06
184,-0.01,0.05,-0.04,0.01,-0.01,0.15,-0.02,-0.06,-0.06
186,-0.11,-0.05,-0.12,-0.06,0.06,0.23,-0.05,-0.06,-0.06
188,-0.19,-0.13,-0.20,-0.14,0.14,0.30,-0.05,-0.06,-0.06
190,-0.24,-0.17,-0.28,-0.21,0.21,0.38,-0.03,-0.07,-0.06
192,-0.37,-0.30,-0.35,-0.28,0.28,0.45,-0.09,-0.07,-0.07
194,-0.50,-0.43,-0.42,-0.35,0.35,0.52,-0.15,-0.07,-0.07
196,-0.60,-0.53,-0.49,-0.42,0.42,0.59,-0.18,-0.07,-0.07
198,-0.48,-0.41,-0.55,-0.48,0.48,0.66,0.00,-0.07,-0.07
200,-0.49,-0.42,-0.62,-0.55,0.55,0.73,0.06,-0.07,-0.07
202,-0.69,-0.62,-0.69,-0.62,0.62,0.80,-0.07,-0.07,-0.07
204,-0.75,-0.68,-0.76,-0.69,0.69,0.87,-0.06,-0.07,-0.07
206,-0.89,-0.82,-0.83,-0.76,0.76,0.93,-0.13,-0.07,-0.07
208,-0.91,-0.84,-0.90,-0.83,0.83,1.00,-0.08,-0.07,-0.07
210,-1.00,-0.93,-0.98,-0.90,0.90,1.06,-0.10,-0.07,-0.07
212,-1.13,-1.05,-1.05,-0.97,0.97,1.12,-0.15,-0.07,-0.07
214,-1.03,-0.95,-1.12,-1.05,1.05,1.18,0.02,-0.07,-0.07
216,-1.14,-1.07,-1.20,-1.12,1.12,1.25,-0.02,-0.07,-0.07
218,-1.28,-1.21,-1.27,-1.20,1.20,1.30,-0.08,-0.07,-0.07
221,-1.42,-1.34,-1.35,-1.28,1.28,1.39,-0.14,-0.07,-0.08
223,-1.39,-1.31,-1.43,-1.36,1.36,1.45,-0.03,-0.07,-0.07
225,-1.51,-1.44,-1.51,-1.44,1.44,1.50,-0.07,-0.07,-0.07
227,-1.57,-1.50,-1.59,-1.52,1.52,1.55,-0.05,-0.07,-0.07
229,-1.63,-1.56,-1.67,-1.60,1.60,1.60,-0.03,-0.07,-0.07
232,-1.86,-1.79,-1.74,-1.68,1.68,1.68,-0.18,-0.06,-0.06
234,-1.78,-1.72,-1.81,-1.75,1.75,1.73,-0.03,-0.06,-0.06
236,-1.78,-1.72,-1.86,-1.81,1.81,1.77,0.03,-0.06,-0.05
239,-2.03,-1.98,-1.91,-1.86,1.86,1.84,-0.17,-0.05,-0.05
241,-2.00,-1.96,-1.95,-1.90,1.90,1.88,-0.10,-0.04,-0.04
244,-1.94,-1.90,-1.98,-1.94,1.94,1.94,0.00,-0.04,-0.04
246,-2.00,-1.97,-2.01,-1.98,1.98,1.98,-0.02,-0.03,-0.03
248,-2.01,-1.99,-2.04,-2.01,2.01,2.01,0.01,-0.02,-0.02
251,-2.08,-2.06,-2.07,-2.05,2.05,2.07,-0.03,-0.02,-0.02
253,-2.02,-2.01,-2.10,-2.09,2.09,2.10,0.07,-0.01,-0.01
256,-2.12,-2.12,-2.14,-2.14,2.14,2.15,0.02,-0.00,-0.00
259,-2.29,-2.29,-2.18,-2.19,2.19,2.19,-0.10,0.01,0.01
261,-2.24,-2.25,-2.22,-2.24,2.24,2.22,-0.00,0.01,0.01
264,-2.25,-2.27,-2.27,-2.29,2.29,2.26,0.04,0.02,0.02
266,-2.34,-2.37,-2.32,-2.35,2.35,2.29,0.01,0.03,0.03
269,-2.34,-2.38,-2.38,-2.42,2.42,2.32,0.08,0.04,0.04
272,-2.41,-2.45,-2.44,-2.48,2.48,2.36,0.07,0.04,0.04
274,-2.41,-2.46,-2.50,-2.55,2.55,2.38,0.15,0.05,0.05
277,-2.66,-2.72,-2.57,-2.63,2.63,2.42,-0.03,0.06,0.06
280,-2.66,-2.72,-2.63,-2.70,2.70,2.45,0.04,0.06,0.06
283,-2.63,-2.70,-2.69,-2.76,2.76,2.48,0.13,0.07,0.07
286,-2.86,-2.93,-2.75,-2.82,2.82,2.52,-0.04,0.08,0.08
288,-2.88,-2.96,-2.80,-2.88,2.88,2.54,-0.00,0.08,0.08
291,-2.77,-2.86,-2.84,-2.93,2.93,2.57,0.16,0.09,0.09
294,-2.81,-2.90,-2.88,-2.97,2.97,2.60,0.16,0.09,0.09
297,-2.90,-3.00,-2.91,-3.01,3.01,2.64,0.11,0.10,0.10
300,-3.02,-3.12,-2.95,-3.06,3.06,2.67,0.04,0.11,0.10
303,-2.97,-3.08,-2.99,-3.10,3.10,2.71,0.13,0.11,0.11
306,-2.94,-3.06,-3.04,-3.15,3.15,2.74,0.21,0.12,0.12
309,-3.17,-3.29,-3.08,-3.21,3.21,2.78,0.04,0.12,0.12
312,-3.17,-3.30,-3.14,-3.26,3.26,2.82,0.09,0.13,0.13
316,-3.14,-3.27,-3.19,-3.32,3.32,2.87,0.18,0.13,0.13
319,-3.25,-3.39,-3.24,-3.38,3.38,2.91,0.13,0.14,0.14
322,-3.28,-3.42,-3.30,-3.44,3.44,2.96,0.16,0.14,0.14
325,-3.37,-3.52,-3.36,-3.50,3.50,3.00,0.13,0.15,0.15
328,-3.35,-3.50,-3.41,-3.56,3.56,3.05,0.21,0.15,0.15
332,-3.54,-3.70,-3.47,-3.62,3.62,3.11,0.08,0.16,0.16
335,-3.61,-3.77,-3.52,-3.68,3.68,3.16,0.07,0.16,0.16
338,-3.58,-3.74,-3.57,-3.74,3.74,3.21,0.16,0.16,0.16
342,-3.53,-3.70,-3.63,-3.79,3.79,3.28,0.27,0.17,0.17
345,-3.53,-3.70,-3.68,-3.85,3.85,3.34,0.32,0.17,0.17
349,-3.79,-3.96,-3.73,-3.90,3.90,3.42,0.11,0.17,0.17
352,-3.79,-3.97,-3.77,-3.94,3.94,3.47,0.15,0.18,0.18
356,-3.80,-3.98,-3.80,-3.98,3.98,3.56,0.18,0.18,0.18
359,-3.93,-4.11,-3.81,-3.99,3.99,3.62,0.06,0.18,0.18
363,-3.89,-4.07,-3.81,-3.99,3.99,3.70,0.10,0.18,0.18
366,-3.69,-3.87,-3.78,-3.97,3.97,3.77,0.28,0.18,0.18
370,-3.73,-3.91,-3.75,-3.93,3.93,3.86,0.20,0.18,0.18
374,-3.76,-3.95,-3.70,-3.89,3.89,3.95,0.13,0.19,0.19
377,-3.70,-3.89,-3.65,-3.84,3.84,4.02,0.14,0.19,0.19
381,-3.60,-3.79,-3.60,-3.79,3.79,4.11,0.19,0.19,0.19
385,-3.50,-3.69,-3.56,-3.75,3.75,4.21,0.26,0.19,0.19
389,-3.45,-3.65,-3.54,-3.74,3.74,4.31,0.29,0.20,0.20
393,-3.46,-3.66,-3.53,-3.74,3.74,4.41,0.28,0.21,0.21
397,-3.56,-3.77,-3.55,-3.76,3.76,4.51,0.20,0.21,0.21
401,-3.57,-3.79,-3.58,-3.80,3.80,4.61,0.23,0.22,0.22
405,-3.70,-3.93,-3.63,-3.86,3.86,4.71,0.16,0.23,0.23
409,-3.68,-3.93,-3.68,-3.93,3.93,4.81,0.25,0.25,0.25
413,-3.68,-3.94,-3.74,-4.00,4.00,4.91,0.32,0.26,0.26
417,-3.79,-4.07,-3.79,-4.07,4.07,5.01,0.28,0.28,0.28
421,-3.84,-4.14,-3.83,-4.13,4.13,5.10,0.29,0.31,0.31
425,-3.92,-4.25,-3.86,-4.19,4.19,5.20,0.27,0.33,0.33
430,-3.88,-4.24,-3.87,-4.23,4.23,5.32,0.35,0.36,0.36
434,-3.87,-4.26,-3.86,-4.25,4.25,5.41,0.39,0.39,0.39
438,-3.90,-4.32,-3.84,-4.27,4.27,5.50,0.37,0.43,0.42
443,-3.80,-4.26,-3.81,-4.27,4.27,5.60,0.47,0.46,0.46
447,-3.76,-4.26,-3.77,-4.27,4.27,5.68,0.51,0.50,0.50
451,-3.70,-4.24,-3.72,-4.26,4.26,5.76,0.56,0.54,0.54
456,-3.65,-4.23,-3.67,-4.25,4.25,5.84,0.60,0.58,0.58
460,-3.59,-4.21,-3.62,-4.24,4.24,5.91,0.65,0.62,0.62
465,-3.55,-4.21,-3.57,-4.23,4.23,5.98,0.68,0.66,0.66
470,-3.56,-4.26,-3.52,-4.23,4.23,6.04,0.67,0.70,0.70
474,-3.51,-4.25,-3.49,-4.23,4.23,6.08,0.72,0.74,0.74
479,-3.45,-4.23,-3.46,-4.23,4.23,6.13,0.78,0.78,0.78
484,-3.41,-4.22,-3.43,-4.24,4.24,6.16,0.83,0.81,0.81
489,-3.38,-4.22,-3.41,-4.25,4.25,6.19,0.87,0.84,0.84
494,-3.43,-4.30,-3.40,-4.27,4.27,6.20,0.84,0.87,0.87
499,-3.40,-4.29,-3.39,-4.29,4.29,6.20,0.89,0.89,0.89
504,-3.38,-4.29,-3.39,-4.30,4.30,6.19,0.93,0.91,0.91
509,-3.41,-4.34,-3.40,-4.33,4.33,6.17,0.92,0.93,0.93
514,-3.45,-4.39,-3.41,-4.35,4.35,6.14,0.90,0.94,0.94
519,-3.44,-4.38,-3.43,-4.38,4.38,6.11,0.94,0.94,0.94
524,-3.45,-4.39,-3.47,-4.41,4.41,6.06,0.96,0.94,0.95
529,-3.48,-4.42,-3.51,-4.45,4.45,6.00,0.97,0.94,0.94
535,-3.58,-4.52,-3.56,-4.50,4.50,5.93,0.92,0.94,0.94
540,-3.61,-4.54,-3.63,-4.56,4.56,5.86,0.95,0.93,0.93
545,-3.65,-4.57,-3.71,-4.63,4.63,5.79,0.98,0.92,0.92
551,-3.80,-4.71,-3.80,-4.71,4.71,5.69,0.91,0.91,0.91
556,-3.89,-4.79,-3.89,-4.79,4.79,5.61,0.90,0.90,0.90
562,-4.00,-4.89,-3.99,-4.88,4.88,5.50,0.88,0.89,0.89
568,-4.15,-5.03,-4.10,-4.98,4.98,5.39,0.83,0.88,0.88
573,-4.19,-5.06,-4.19,-5.07,5.07,5.30,0.88,0.87,0.87
579,-4.29,-5.15,-4.29,-5.15,5.15,5.18,0.86,0.87,0.86
585,-4.36,-5.22,-4.37,-5.23,5.23,5.07,0.87,0.86,0.86
591,-4.48,-5.34,-4.45,-5.31,5.31,4.95,0.83,0.86,0.86
596,-4.59,-5.45,-4.52,-5.38,5.38,4.85,0.80,0.87,0.86
602,-4.55,-5.42,-4.58,-5.46,5.46,4.74,0.91,0.87,0.87
608,-4.60,-5.48,-4.65,-5.53,5.53,4.62,0.93,0.88,0.88
615,-4.75,-5.65,-4.71,-5.61,5.61,4.49,0.86,0.90,0.90
621,-4.70,-5.62,-4.77,-5.68,5.68,4.38,0.99,0.92,0.92
627,-4.78,-5.72,-4.82,-5.76,5.76,4.26,0.99,0.94,0.94
633,-4.89,-5.85,-4.88,-5.85,5.83,4.16,0.94,0.95,0.96
639,-4.99,-5.98,-4.93,-5.93,5.89,4.05,0.90,0.96,0.99
646,-5.03,-6.05,-4.98,-6.00,5.94,3.93,0.91,0.96,1.02
652,-5.03,-6.09,-5.02,-6.07,5.97,3.83,0.94,0.95,1.06
659,-5.03,-6.12,-5.05,-6.14,5.99,3.72,0.96,0.94,1.09
665,-5.07,-6.19,-5.08,-6.20,6.00,3.62,0.93,0.92,1.12
672,-5.07,-6.23,-5.10,-6.26,6.00,3.51,0.93,0.90,1.16
679,-5.13,-6.32,-5.13,-6.32,6.00,3.41,0.87,0.87,1.19
686,-5.22,-6.45,-5.15,-6.38,6.00,3.31,0.78,0.85,1.23
692,-5.18,-6.44,-5.19,-6.44,6.00,3.23,0.82,0.81,1.26
699,-5.15,-6.44,-5.22,-6.51,6.00,3.13,0.85,0.78,1.29
706,-5.20,-6.52,-5.26,-6.58,6.00,3.04,0.80,0.74,1.32
713,-5.31,-6.65,-5.31,-6.65,6.00,2.96,0.69,0.69,1.34
721,-5.37,-6.74,-5.35,-6.72,6.00,2.86,0.63,0.65,1.37
728,-5.46,-6.85,-5.39,-6.78,6.00,2.78,0.54,0.61,1.39
735,-5.46,-6.87,-5.43,-6.84,6.00,2.70,0.54,0.57,1.41
742,-5.41,-6.84,-5.45,-6.88,6.00,2.63,0.59,0.55,1.43
750,-5.44,-6.88,-5.46,-6.91,6.00,2.55,0.56,0.54,1.44
757,-5.47,-6.93,-5.46,-6.92,6.00,2.48,0.53,0.54,1.46
765,-5.49,-6.96,-5.44,-6.91,6.00,2.40,0.51,0.56,1.47
773,-5.45,-6.93,-5.41,-6.89,6.00,2.33,0.55,0.59,1.48
780,-5.33,-6.82,-5.36,-6.85,6.00,2.27,0.67,0.64,1.49
788,-5.29,-6.79,-5.30,-6.80,6.00,2.20,0.71,0.70,1.50
796,-5.22,-6.73,-5.22,-6.73,6.00,2.14,0.78,0.78,1.51
804,-5.12,-6.64,-5.13,-6.65,6.00,2.07,0.88,0.87,1.52
812,-5.09,-6.61,-5.03,-6.55,6.00,2.01,0.91,0.97,1.52
820,-4.89,-6.42,-4.91,-6.44,6.00,1.95,1.11,1.09,1.53
828,-4.74,-6.28,-4.79,-6.33,6.00,1.90,1.26,1.21,1.54
837,-4.64,-6.18,-4.66,-6.20,5.97,1.83,1.33,1.31,1.54
845,-4.54,-6.09,-4.51,-6.06,5.91,1.78,1.37,1.40,1.55
853,-4.36,-5.92,-4.36,-5.92,5.83,1.73,1.47,1.47,1.56
862,-4.21,-5.77,-4.19,-5.76,5.71,1.67,1.50,1.52,1.57
871,-4.03,-5.60,-4.02,-5.59,5.56,1.61,1.53,1.54,1.57
879,-3.81,-5.39,-3.83,-5.41,5.41,1.56,1.60,1.58,1.58
888,-3.62,-5.21,-3.63,-5.21,5.21,1.51,1.59,1.59,1.59
897,-3.41,-5.01,-3.41,-5.01,5.01,1.45,1.60,1.60,1.60
906,-3.15,-4.76,-3.18,-4.79,4.79,1.40,1.64,1.61,1.61
915,-2.96,-4.57,-2.94,-4.56,4.56,1.35,1.60,1.61,1.62
924,-2.71,-4.33,-2.68,-4.31,4.31,1.29,1.60,1.62,1.63
933,-2.39,-4.02,-2.41,-4.04,4.04,1.24,1.66,1.64,1.64
943,-2.17,-3.82,-2.12,-3.76,3.76,1.18,1.59,1.65,1.65
952,-1.80,-3.46,-1.81,-3.47,3.47,1.13,1.67,1.66,1.66
962,-1.50,-3.17,-1.48,-3.15,3.15,1.07,1.65,1.67,1.67
971,-1.12,-2.81,-1.14,-2.83,2.83,1.02,1.71,1.69,1.69
981,-0.86,-2.56,-0.79,-2.50,2.50,0.96,1.64,1.70,1.70
991,-0.46,-2.18,-0.44,-2.16,2.16,0.89,1.70,1.72,1.72
1001,0.05,-1.69,-0.08,-1.82,1.82,0.83,1.87,1.74,1.74
1011,0.34,-1.42,0.28,-1.48,1.48,0.77,1.82,1.76,1.76
1021,0.56,-1.22,0.64,-1.14,1.14,0.71,1.70,1.78,1.78
1031,1.06,-0.74,1.00,-0.80,0.80,0.64,1.86,1.81,1.81
1041,1.33,-0.50,1.37,-0.46,0.46,0.58,1.79,1.83,1.83
1052,1.62,-0.24,1.75,-0.11,0.11,0.51,1.73,1.86,1.86
1062,2.12,0.23,2.12,0.24,-0.24,0.44,1.88,1.89,1.89
1073,2.53,0.61,2.50,0.58,-0.58,0.37,1.95,1.92,1.92
1084,2.98,1.03,2.88,0.93,-0.93,0.29,2.05,1.95,1.95
1094,3.29,1.31,3.26,1.28,-1.28,0.22,2.01,1.98,1.98
1105,3.64,1.63,3.64,1.62,-1.62,0.15,2.02,2.01,2.01
1116,3.97,1.92,4.01,1.96,-1.96,0.07,2.01,2.05,2.05
1128,4.34,2.26,4.39,2.31,-2.31,-0.01,2.03,2.08,2.08
1139,4.79,2.67,4.77,2.65,-2.65,-0.09,2.14,2.12,2.12
1150,5.18,3.03,5.15,3.00,-3.00,-0.17,2.18,2.15,2.15
1162,5.47,3.29,5.54,3.35,-3.35,-0.26,2.12,2.18,2.18
1173,5.83,3.62,5.92,3.71,-3.71,-0.34,2.13,2.22,2.22
1185,6.34,4.09,6.30,4.05,-4.05,-0.42,2.29,2.25,2.25
1197,6.69,4.42,6.67,4.40,-4.40,-0.51,2.29,2.27,2.27
1209,7.07,4.77,7.03,4.73,-4.73,-0.60,2.34,2.30,2.30
1221,7.46,5.14,7.37,5.05,-5.05,-0.69,2.41,2.32,2.33
1233,7.72,5.37,7.70,5.36,-5.36,-0.78,2.36,2.35,2.35
1246,8.01,5.65,8.01,5.65,-5.65,-0.88,2.36,2.36,2.37
1258,8.17,5.79,8.30,5.92,-5.92,-0.97,2.25,2.38,2.38
1271,8.47,6.08,8.57,6.18,-6.18,-1.06,2.29,2.39,2.39
1283,8.80,6.40,8.81,6.41,-6.41,-1.15,2.39,2.40,2.40
1296,9.11,6.70,9.03,6.62,-6.62,-1.25,2.49,2.41,2.41
1309,9.42,7.01,9.21,6.80,-6.80,-1.35,2.63,2.41,2.41
1322,9.48,7.07,9.35,6.94,-6.94,-1.45,2.54,2.41,2.41
1335,9.28,6.87,9.47,7.06,-7.06,-1.55,2.22,2.41,2.41
1349,9.61,7.20,9.56,7.16,-7.16,-1.66,2.45,2.41,2.41
1362,9.69,7.29,9.64,7.24,-7.24,-1.76,2.45,2.40,2.40
1376,9.63,7.24,9.72,7.32,-7.32,-1.87,2.31,2.39,2.39
1390,9.82,7.44,9.80,7.41,-7.41,-1.99,2.41,2.39,2.39
1404,9.78,7.40,9.89,7.51,-7.51,-2.10,2.27,2.38,2.38
1418,9.76,7.39,9.98,7.61,-7.61,-2.21,2.15,2.37,2.37
1432,9.97,7.61,10.08,7.72,-7.72,-2.32,2.25,2.36,2.36
1446,10.24,7.89,10.17,7.82,-7.82,-2.44,2.42,2.35,2.35
1461,10.48,8.13,10.23,7.89,-7.89,-2.56,2.59,2.35,2.35
1475,10.35,8.01,10.27,7.92,-7.92,-2.67,2.43,2.34,2.34
1490,10.25,7.91,10.26,7.92,-7.92,-2.80,2.33,2.34,2.34
1505,10.30,7.96,10.21,7.86,-7.86,-2.92,2.44,2.34,2.34
1520,10.13,7.78,10.12,7.76,-7.76,-3.04,2.37,2.35,2.35
1535,9.94,7.58,9.99,7.63,-7.63,-3.17,2.31,2.36,2.36
1550,9.79,7.42,9.84,7.46,-7.46,-3.29,2.33,2.37,2.37
1566,9.72,7.33,9.67,7.28,-7.28,-3.42,2.44,2.39,2.39
1582,9.42,7.00,9.50,7.08,-7.08,-3.56,2.34,2.42,2.42
1597,9.23,6.78,9.32,6.88,-6.88,-3.68,2.35,2.45,2.45
1613,9.18,6.70,9.15,6.67,-6.67,-3.81,2.51,2.48,2.48
1629,9.04,6.52,8.98,6.45,-6.45,-3.94,2.59,2.52,2.52
1646,8.88,6.31,8.81,6.25,-6.25,-4.08,2.64,2.57,2.57
1662,8.70,6.08,8.66,6.04,-6.04,-4.21,2.66,2.62,2.62
1679,8.50,5.83,8.53,5.85,-5.85,-4.35,2.65,2.68,2.67
1696,8.35,5.61,8.42,5.68,-5.68,-4.48,2.67,2.74,2.74
1713,8.26,5.46,8.33,5.53,-5.53,-4.61,2.73,2.80,2.80
1730,8.15,5.28,8.27,5.39,-5.39,-4.73,2.76,2.88,2.88
1747,8.09,5.14,8.22,5.27,-5.27,-4.86,2.82,2.95,2.95
1764,8.21,5.18,8.19,5.16,-5.16,-4.97,3.05,3.03,3.03
1782,8.37,5.25,8.17,5.05,-5.05,-5.09,3.32,3.12,3.12
1800,8.28,5.08,8.14,4.93,-4.93,-5.21,3.35,3.20,3.20
1818,8.11,4.81,8.10,4.80,-4.80,-5.32,3.31,3.30,3.30
1836,8.03,4.64,8.05,4.66,-4.66,-5.42,3.37,3.39,3.39
1854,7.98,4.49,7.99,4.50,-4.50,-5.51,3.48,3.49,3.49
1873,7.86,4.27,7.92,4.34,-4.34,-5.60,3.52,3.59,3.59
1892,7.83,4.14,7.86,4.17,-4.17,-5.69,3.66,3.69,3.69
1911,7.79,4.00,7.80,4.00,-4.00,-5.76,3.79,3.79,3.79
1930,7.76,3.86,7.74,3.84,-3.84,-5.82,3.92,3.90,3.90
1949,7.75,3.74,7.70,3.69,-3.69,-5.88,4.06,4.01,4.01
1969,7.68,3.56,7.67,3.55,-3.55,-5.93,4.13,4.12,4.12
1988,7.67,3.44,7.66,3.42,-3.42,-5.96,4.25,4.23,4.23
