frequency,raw
20.00,5.35
20.20,5.33
20.40,5.32
20.61,5.31
20.81,5.30
21.02,5.30
21.23,5.30
21.44,5.30
21.66,5.31
21.87,5.32
22.09,5.33
22.31,5.35
22.54,5.37
22.76,5.40
22.99,5.43
23.22,5.46
23.45,5.49
23.69,5.52
23.92,5.55
24.16,5.58
24.40,5.61
24.65,5.63
24.89,5.65
25.14,5.66
25.39,5.67
25.65,5.67
25.91,5.67
26.16,5.66
26.43,5.65
26.69,5.65
26.96,5.65
27.23,5.65
27.50,5.64
27.77,5.63
28.05,5.63
28.33,5.63
28.62,5.63
28.90,5.65
29.19,5.66
29.48,5.69
29.78,5.71
30.08,5.74
30.38,5.77
30.68,5.80
30.99,5.83
31.30,5.86
31.61,5.89
31.93,5.92
32.24,5.94
32.57,5.97
32.89,5.98
33.22,5.99
33.55,6.00
33.89,5.99
34.23,5.99
34.57,5.98
34.92,5.97
35.27,5.97
35.62,5.97
35.97,5.97
36.33,5.97
36.70,5.97
37.06,5.97
37.43,5.97
37.81,5.97
38.19,5.97
38.57,5.97
38.95,5.97
39.34,5.97
39.74,5.97
40.14,5.97
40.54,5.97
40.94,5.97
41.35,5.97
41.76,5.97
42.18,5.97
42.60,5.97
43.03,5.97
43.46,5.97
43.90,5.97
44.33,5.97
44.78,5.97
45.23,5.97
45.68,5.97
46.13,5.97
46.60,5.97
47.06,5.97
47.53,5.97
48.01,5.97
48.49,5.97
48.97,5.97
49.46,5.97
49.96,5.97
50.46,5.97
50.96,5.97
51.47,5.97
51.99,5.97
52.51,5.97
53.03,5.97
53.56,5.97
54.10,5.97
54.64,5.97
55.18,5.97
55.74,5.97
56.29,5.97
56.86,5.97
57.42,5.97
58.00,5.97
58.58,5.97
59.16,5.97
59.76,5.97
60.35,5.97
60.96,5.97
61.57,5.97
62.18,5.97
62.80,5.97
63.43,5.97
64.07,5.97
64.71,5.97
65.35,5.97
66.01,5.97
66.67,5.97
67.33,5.97
68.01,5.97
68.69,5.97
69.37,5.97
70.07,5.97
70.77,5.97
71.48,5.98
72.19,5.98
72.91,5.99
73.64,6.00
74.38,5.99
75.12,5.99
75.87,5.97
76.63,5.95
77.40,5.93
78.17,5.90
78.95,5.87
79.74,5.84
80.54,5.81
81.35,5.78
82.16,5.75
82.98,5.72
83.81,5.69
84.65,5.67
85.50,5.65
86.35,5.64
87.22,5.63
88.09,5.62
88.97,5.63
89.86,5.64
90.76,5.65
91.66,5.66
92.58,5.67
93.51,5.67
94.44,5.67
95.39,5.66
96.34,5.64
97.30,5.62
98.28,5.60
99.26,5.57
100.25,5.54
101.25,5.51
102.27,5.48
103.29,5.45
104.32,5.42
105.37,5.39
106.42,5.38
107.48,5.36
108.56,5.35
109.64,5.33
110.74,5.32
111.85,5.30
112.97,5.29
114.10,5.27
115.24,5.25
116.39,5.22
117.55,5.19
118.73,5.16
119.92,5.13
121.12,5.10
122.33,5.07
123.55,5.04
124.79,5.02
126.03,5.00
127.29,4.99
128.57,4.98
129.85,4.98
131.15,4.98
132.46,4.99
133.79,5.00
135.12,5.00
136.48,5.00
137.84,5.00
139.22,5.00
140.61,5.00
142.02,5.00
143.44,5.00
144.87,5.00
146.32,5.00
147.78,5.00
149.26,5.00
150.75,5.00
152.26,5.01
153.78,5.02
155.32,5.02
156.88,5.02
158.44,5.01
160.03,5.00
161.63,4.98
163.24,4.96
164.88,4.93
166.53,4.90
168.19,4.87
169.87,4.84
171.57,4.81
173.29,4.78
175.02,4.75
176.77,4.72
178.54,4.70
180.32,4.68
182.13,4.67
183.95,4.67
185.79,4.67
187.65,4.68
189.52,4.68
191.42,4.67
193.33,4.65
195.27,4.63
197.22,4.61
199.19,4.58
201.18,4.55
203.19,4.52
205.23,4.49
207.28,4.47
209.35,4.45
211.44,4.42
213.56,4.39
215.69,4.36
217.85,4.33
220.03,4.30
222.23,4.27
224.45,4.25
226.70,4.22
228.96,4.21
231.25,4.18
233.57,4.16
235.90,4.13
238.26,4.09
240.64,4.06
243.05,4.02
245.48,3.98
247.93,3.94
250.41,3.91
252.92,3.88
255.45,3.87
258.00,3.85
260.58,3.83
263.19,3.80
265.82,3.77
268.48,3.73
271.16,3.69
273.87,3.65
276.61,3.61
279.38,3.58
282.17,3.56
284.99,3.55
287.84,3.53
290.72,3.50
293.63,3.46
296.57,3.42
299.53,3.38
302.53,3.34
305.55,3.30
308.61,3.26
311.69,3.24
314.81,3.22
317.96,3.20
321.14,3.18
324.35,3.14
327.59,3.10
330.87,3.06
334.18,3.02
337.52,2.98
340.90,2.94
344.30,2.91
347.75,2.89
351.23,2.88
354.74,2.86
358.28,2.82
361.87,2.78
365.49,2.74
369.14,2.70
372.83,2.66
376.56,2.62
380.33,2.59
384.13,2.56
387.97,2.55
391.85,2.53
395.77,2.51
399.73,2.48
403.72,2.44
407.76,2.41
411.84,2.37
415.96,2.34
420.12,2.31
424.32,2.28
428.56,2.27
432.85,2.25
437.18,2.23
441.55,2.20
445.96,2.16
450.42,2.12
454.93,2.08
459.48,2.04
464.07,1.99
468.71,1.96
473.40,1.93
478.13,1.91
482.91,1.89
487.74,1.88
492.62,1.85
497.55,1.82
502.52,1.78
507.55,1.75
512.62,1.71
517.75,1.68
522.93,1.65
528.16,1.63
533.44,1.61
538.77,1.60
544.16,1.57
549.60,1.54
555.10,1.50
560.65,1.46
566.25,1.41
571.92,1.37
577.64,1.33
583.41,1.30
589.25,1.27
595.14,1.25
601.09,1.24
607.10,1.22
613.17,1.19
619.30,1.16
625.50,1.12
631.75,1.09
638.07,1.05
644.45,1.02
650.89,0.99
657.40,0.97
663.98,0.94
670.62,0.92
677.32,0.90
684.10,0.88
690.94,0.86
697.85,0.83
704.83,0.80
711.87,0.77
718.99,0.75
726.18,0.72
733.44,0.70
740.78,0.68
748.19,0.65
755.67,0.63
763.23,0.60
770.86,0.57
778.57,0.55
786.35,0.53
794.22,0.51
802.16,0.48
810.18,0.45
818.28,0.42
826.46,0.39
834.73,0.37
843.08,0.35
851.51,0.33
860.02,0.30
868.62,0.27
877.31,0.24
886.08,0.21
894.94,0.19
903.89,0.17
912.93,0.16
922.06,0.15
931.28,0.14
940.59,0.12
950.00,0.11
959.50,0.10
969.09,0.09
978.78,0.06
988.57,0.04
998.46,0.00
1008.44,-0.03
1018.53,-0.06
1028.71,-0.09
1039.00,-0.12
1049.39,-0.14
1059.88,-0.17
1070.48,-0.19
1081.19,-0.20
1092.00,-0.21
1102.92,-0.21
1113.95,-0.21
1125.09,-0.20
1136.34,-0.19
1147.70,-0.19
1159.18,-0.20
1170.77,-0.21
1182.48,-0.21
1194.30,-0.21
1206.25,-0.20
1218.31,-0.18
1230.49,-0.16
1242.80,-0.13
1255.22,-0.11
1267.78,-0.09
1280.45,-0.07
1293.26,-0.04
1306.19,0.00
1319.25,0.04
1332.45,0.07
1345.77,0.12
1359.23,0.16
1372.82,0.22
1386.55,0.27
1400.41,0.32
1414.42,0.36
1428.56,0.41
1442.85,0.46
1457.28,0.52
1471.85,0.57
1486.57,0.64
1501.43,0.71
1516.45,0.78
1531.61,0.84
1546.93,0.90
1562.40,0.96
1578.02,1.03
1593.80,1.11
1609.74,1.18
1625.84,1.25
1642.10,1.31
1658.52,1.37
1675.10,1.45
1691.85,1.53
1708.77,1.61
1725.86,1.68
1743.12,1.74
1760.55,1.80
1778.15,1.85
1795.94,1.89
1813.90,1.93
1832.03,1.96
1850.36,2.01
1868.86,2.06
1887.55,2.09
1906.42,2.13
1925.49,2.16
1944.74,2.21
1964.19,2.24
1983.83,2.27
2003.67,2.29
2023.71,2.31
2043.94,2.34
2064.38,2.36
2085.03,2.39
2105.88,2.41
2126.94,2.42
2148.20,2.43
2169.69,2.43
2191.38,2.42
2213.30,2.41
2235.43,2.41
2257.78,2.41
2280.36,2.41
2303.17,2.41
2326.20,2.41
2349.46,2.40
2372.95,2.39
2396.68,2.38
2420.65,2.38
2444.86,2.39
2469.31,2.40
2494.00,2.41
2518.94,2.43
2544.13,2.46
2569.57,2.48
2595.27,2.51
2621.22,2.55
2647.43,2.58
2673.90,2.61
2700.64,2.65
2727.65,2.69
2754.93,2.72
2782.48,2.73
2810.30,2.74
2838.40,2.74
2866.79,2.72
2895.46,2.70
2924.41,2.67
2953.65,2.63
2983.19,2.59
3013.02,2.57
3043.15,2.55
3073.58,2.52
3104.32,2.49
3135.36,2.45
3166.72,2.41
3198.38,2.37
3230.37,2.34
3262.67,2.31
3295.30,2.29
3328.25,2.27
3361.53,2.24
3395.15,2.20
3429.10,2.16
3463.39,2.11
3498.03,2.06
3533.01,2.01
3568.34,1.96
3604.02,1.92
3640.06,1.88
3676.46,1.85
3713.22,1.83
3750.36,1.81
3787.86,1.79
3825.74,1.77
3864.00,1.75
3902.64,1.74
3941.66,1.73
3981.08,1.73
4020.89,1.74
4061.10,1.75
4101.71,1.76
4142.73,1.76
4184.15,1.76
4226.00,1.77
4268.26,1.78
4310.94,1.78
4354.05,1.78
4397.59,1.78
4441.56,1.77
4485.98,1.76
4530.84,1.74
4576.15,1.71
4621.91,1.66
4668.13,1.61
4714.81,1.55
4761.96,1.48
4809.58,1.40
4857.67,1.30
4906.25,1.19
4955.31,1.07
5004.87,0.93
5054.91,0.77
5105.46,0.59
5156.52,0.41
5208.08,0.22
5260.16,0.03
5312.77,-0.16
5365.89,-0.34
5419.55,-0.50
5473.75,-0.65
5528.49,-0.78
5583.77,-0.90
5639.61,-1.00
5696.00,-1.10
5752.96,-1.18
5810.49,-1.24
5868.60,-1.28
5927.28,-1.31
5986.56,-1.34
6046.42,-1.35
6106.89,-1.35
6167.96,-1.36
6229.64,-1.37
6291.93,-1.39
6354.85,-1.39
6418.40,-1.39
6482.58,-1.41
6547.41,-1.44
6612.88,-1.50
6679.01,-1.59
6745.80,-1.70
6813.26,-1.86
6881.39,-2.05
6950.21,-2.29
7019.71,-2.57
7089.91,-2.88
7160.81,-3.21
7232.41,-3.54
7304.74,-3.89
7377.79,-4.23
7451.56,-4.56
7526.08,-4.87
7601.34,-5.15
7677.35,-5.40
7754.13,-5.60
7831.67,-5.74
7909.98,-5.83
7989.08,-5.90
8068.98,-5.95
8149.67,-5.97
8231.16,-5.94
8313.47,-5.89
8396.61,-5.83
8480.57,-5.75
8565.38,-5.66
8651.03,-5.56
8737.54,-5.45
8824.92,-5.33
8913.17,-5.19
9002.30,-5.04
9092.32,-4.88
9183.25,-4.71
9275.08,-4.51
9367.83,-4.29
9461.51,-4.05
9556.12,-3.77
9651.68,-3.47
9748.20,-3.14
9845.68,-2.77
9944.14,-2.38
10043.58,-1.94
10144.02,-1.47
10245.46,-0.97
10347.91,-0.46
10451.39,0.05
10555.91,0.57
10661.46,1.07
10768.08,1.55
10875.76,2.01
10984.52,2.42
11094.36,2.80
11205.31,3.14
11317.36,3.42
11430.53,3.65
11544.84,3.84
11660.29,3.99
11776.89,4.09
11894.66,4.14
12013.60,4.16
12133.74,4.14
12255.08,4.07
12377.63,3.97
12501.41,3.84
12626.42,3.66
12752.68,3.43
12880.21,3.14
13009.01,2.80
13139.10,2.39
13270.49,1.89
13403.20,1.31
13537.23,0.63
13672.60,-0.13
13809.33,-0.97
13947.42,-1.90
14086.90,-2.89
14227.77,-3.95
14370.04,-5.06
14513.74,-6.20
14658.88,-7.38
14805.47,-8.57
14953.52,-9.77
15103.06,-10.96
15254.09,-12.15
15406.63,-13.31
15560.70,-14.42
15716.30,-15.48
15873.47,-16.46
16032.20,-17.37
16192.52,-18.21
16354.45,-18.97
16517.99,-19.66
16683.17,-20.29
16850.01,-20.83
17018.51,-21.30
17188.69,-21.70
17360.58,-22.04
17534.18,-22.31
17709.53,-22.54
17886.62,-22.73
18065.49,-22.99
18246.14,-23.21
18428.60,-23.41
18612.89,-23.57
18799.02,-23.71
18987.01,-23.82
19176.88,-23.89
19368.65,-23.94
19562.33,-23.96
19757.96,-23.95
19955.54,-23.91
