frequency,raw,error,smoothed,error_smoothed,equalization,parametric_eq,equalized_raw,equalized_smoothed,target
20,-25.42,-24.65,-25.74,-24.96,6.00,2.66,-19.42,-19.74,-0.77
21,-25.16,-24.39,-25.24,-24.47,6.00,3.05,-19.16,-19.24,-0.77
22,-24.92,-24.15,-24.75,-23.98,6.00,3.47,-18.92,-18.75,-0.77
23,-24.59,-23.82,-24.26,-23.49,6.00,3.93,-18.59,-18.26,-0.77
24,-23.99,-23.22,-23.76,-22.99,6.00,4.42,-17.99,-17.76,-0.77
25,-23.39,-22.62,-23.27,-22.49,6.00,4.92,-17.39,-17.27,-0.77
26,-22.83,-22.06,-22.77,-22.00,6.00,5.42,-16.83,-16.77,-0.77
27,-22.29,-21.52,-22.27,-21.50,6.00,5.90,-16.29,-16.27,-0.77
28,-21.74,-20.97,-21.77,-20.99,6.00,6.34,-15.74,-15.77,-0.77
29,-21.22,-20.45,-21.26,-20.49,6.00,6.70,-15.22,-15.26,-0.77
30,-20.72,-19.95,-20.76,-19.99,6.00,6.96,-14.72,-14.76,-0.77
31,-20.22,-19.45,-20.27,-19.50,6.00,7.12,-14.22,-14.27,-0.77
32,-19.74,-18.97,-19.78,-19.01,6.00,7.18,-13.74,-13.78,-0.77
33,-19.26,-18.49,-19.30,-18.53,6.00,7.14,-13.26,-13.30,-0.77
34,-18.82,-18.05,-18.84,-18.06,6.00,7.03,-12.82,-12.84,-0.77
35,-18.36,-17.59,-18.38,-17.61,6.00,6.88,-12.36,-12.38,-0.77
36,-17.92,-17.15,-17.94,-17.16,6.00,6.71,-11.92,-11.94,-0.77
37,-17.51,-16.74,-17.51,-16.73,6.00,6.53,-11.51,-11.51,-0.77
38,-17.09,-16.32,-17.09,-16.32,6.00,6.35,-11.09,-11.09,-0.77
39,-16.69,-15.92,-16.68,-15.91,6.00,6.20,-10.69,-10.68,-0.77
40,-16.30,-15.53,-16.29,-15.51,6.00,6.06,-10.30,-10.29,-0.77
41,-15.91,-15.14,-15.90,-15.13,6.00,5.95,-9.91,-9.90,-0.77
42,-15.53,-14.76,-15.52,-14.75,6.00,5.86,-9.53,-9.52,-0.77
43,-15.17,-14.40,-15.15,-14.38,6.00,5.80,-9.17,-9.15,-0.77
44,-14.81,-14.04,-14.79,-14.02,6.00,5.76,-8.81,-8.79,-0.77
45,-14.44,-13.67,-14.44,-13.67,6.00,5.75,-8.44,-8.44,-0.77
46,-14.08,-13.31,-14.09,-13.32,6.00,5.76,-8.08,-8.09,-0.77
47,-13.75,-12.98,-13.75,-12.98,6.00,5.79,-7.75,-7.75,-0.77
48,-13.41,-12.64,-13.42,-12.65,6.00,5.84,-7.41,-7.42,-0.77
49,-13.10,-12.33,-13.10,-12.33,6.00,5.90,-7.10,-7.10,-0.77
50,-12.78,-12.01,-12.79,-12.02,6.00,5.97,-6.78,-6.79,-0.77
51,-12.49,-11.72,-12.48,-11.71,6.00,6.06,-6.49,-6.48,-0.77
52,-12.19,-11.42,-12.18,-11.41,6.00,6.15,-6.19,-6.18,-0.77
53,-11.88,-11.11,-11.89,-11.12,6.00,6.24,-5.88,-5.89,-0.77
54,-11.61,-10.84,-11.61,-10.84,6.00,6.33,-5.61,-5.61,-0.77
55,-11.33,-10.56,-11.33,-10.56,6.00,6.42,-5.33,-5.33,-0.77
56,-11.07,-10.30,-11.07,-10.29,6.00,6.50,-5.07,-5.07,-0.77
57,-10.81,-10.04,-10.80,-10.03,6.00,6.57,-4.81,-4.80,-0.77
58,-10.56,-9.79,-10.55,-9.77,6.00,6.63,-4.56,-4.55,-0.77
59,-10.31,-9.54,-10.29,-9.52,6.00,6.67,-4.31,-4.29,-0.77
60,-10.05,-9.28,-10.05,-9.28,6.00,6.70,-4.05,-4.05,-0.77
61,-9.81,-9.04,-9.81,-9.04,6.00,6.70,-3.81,-3.81,-0.77
62,-9.57,-8.80,-9.58,-8.80,6.00,6.69,-3.57,-3.58,-0.77
63,-9.34,-8.57,-9.35,-8.58,6.00,6.66,-3.34,-3.35,-0.77
64,-9.12,-8.35,-9.13,-8.36,6.00,6.61,-3.12,-3.13,-0.77
65,-8.92,-8.15,-8.91,-8.14,6.00,6.54,-2.92,-2.91,-0.77
66,-8.71,-7.94,-8.70,-7.93,6.00,6.46,-2.71,-2.70,-0.77
67,-8.49,-7.72,-8.50,-7.73,6.00,6.37,-2.49,-2.50,-0.77
68,-8.30,-7.53,-8.30,-7.53,6.00,6.26,-2.30,-2.30,-0.77
69,-8.12,-7.35,-8.11,-7.33,6.00,6.15,-2.12,-2.11,-0.77
70,-7.93,-7.16,-7.92,-7.15,6.00,6.03,-1.93,-1.92,-0.77
71,-7.74,-6.97,-7.74,-6.97,6.00,5.91,-1.74,-1.74,-0.77
72,-7.55,-6.78,-7.56,-6.79,6.00,5.78,-1.55,-1.56,-0.77
73,-7.39,-6.62,-7.39,-6.62,6.00,5.65,-1.39,-1.39,-0.77
74,-7.23,-6.46,-7.23,-6.45,6.00,5.52,-1.23,-1.23,-0.77
75,-7.06,-6.29,-7.07,-6.29,5.98,5.40,-1.08,-1.09,-0.77
76,-6.93,-6.16,-6.91,-6.14,5.94,5.27,-0.99,-0.97,-0.77
77,-6.75,-5.98,-6.76,-5.99,5.87,5.15,-0.88,-0.89,-0.77
78,-6.61,-5.84,-6.62,-5.85,5.79,5.04,-0.82,-0.83,-0.77
79,-6.48,-5.71,-6.48,-5.71,5.69,4.92,-0.79,-0.79,-0.77
80,-6.35,-5.58,-6.35,-5.57,5.57,4.82,-0.78,-0.77,-0.77
81,-6.22,-5.45,-6.22,-5.45,5.45,4.71,-0.77,-0.77,-0.77
82,-6.10,-5.33,-6.10,-5.32,5.32,4.62,-0.78,-0.77,-0.77
83,-5.97,-5.20,-5.98,-5.20,5.20,4.53,-0.77,-0.77,-0.77
84,-5.87,-5.10,-5.86,-5.09,5.09,4.44,-0.78,-0.77,-0.77
85,-5.75,-4.98,-5.75,-4.98,4.98,4.36,-0.77,-0.77,-0.77
86,-5.66,-4.89,-5.65,-4.87,4.87,4.28,-0.79,-0.77,-0.77
87,-5.55,-4.78,-5.55,-4.77,4.77,4.21,-0.78,-0.77,-0.77
88,-5.44,-4.67,-5.45,-4.68,4.68,4.14,-0.76,-0.77,-0.77
89,-5.36,-4.59,-5.36,-4.58,4.58,4.08,-0.78,-0.77,-0.77
90,-5.27,-4.50,-5.27,-4.49,4.49,4.02,-0.78,-0.77,-0.77
91,-5.17,-4.40,-5.18,-4.41,4.41,3.97,-0.76,-0.77,-0.77
92,-5.10,-4.33,-5.10,-4.33,4.33,3.92,-0.77,-0.77,-0.77
93,-5.03,-4.26,-5.02,-4.25,4.25,3.88,-0.78,-0.77,-0.77
94,-4.94,-4.17,-4.95,-4.17,4.17,3.83,-0.77,-0.77,-0.77
95,-4.87,-4.10,-4.88,-4.10,4.10,3.80,-0.77,-0.77,-0.77
96,-4.81,-4.04,-4.81,-4.03,4.03,3.76,-0.78,-0.77,-0.77
97,-4.75,-3.98,-4.74,-3.97,3.97,3.73,-0.78,-0.77,-0.77
98,-4.68,-3.91,-4.68,-3.91,3.91,3.71,-0.77,-0.77,-0.77
99,-4.63,-3.86,-4.62,-3.84,3.84,3.68,-0.79,-0.77,-0.77
100,-4.56,-3.79,-4.56,-3.79,3.79,3.66,-0.77,-0.77,-0.77
101,-4.52,-3.75,-4.50,-3.73,3.73,3.64,-0.79,-0.77,-0.77
102,-4.47,-3.70,-4.45,-3.68,3.68,3.62,-0.79,-0.77,-0.77
104,-4.37,-3.60,-4.40,-3.63,3.63,3.59,-0.74,-0.77,-0.77
105,-4.34,-3.57,-4.35,-3.58,3.58,3.58,-0.76,-0.77,-0.77
106,-4.30,-3.53,-4.31,-3.54,3.54,3.57,-0.76,-0.77,-0.77
107,-4.27,-3.50,-4.27,-3.49,3.49,3.56,-0.78,-0.77,-0.77
108,-4.22,-3.45,-4.23,-3.46,3.46,3.55,-0.76,-0.77,-0.77
109,-4.19,-3.42,-4.19,-3.42,3.42,3.55,-0.77,-0.77,-0.77
110,-4.16,-3.39,-4.16,-3.38,3.38,3.54,-0.78,-0.77,-0.77
111,-4.14,-3.37,-4.13,-3.35,3.35,3.53,-0.79,-0.77,-0.77
112,-4.10,-3.33,-4.10,-3.32,3.32,3.53,-0.78,-0.77,-0.77
113,-4.07,-3.30,-4.07,-3.29,3.29,3.52,-0.78,-0.77,-0.77
114,-4.05,-3.28,-4.04,-3.27,3.27,3.52,-0.78,-0.77,-0.77
115,-4.02,-3.25,-4.02,-3.24,3.24,3.51,-0.78,-0.77,-0.77
117,-3.98,-3.21,-3.99,-3.22,3.22,3.50,-0.76,-0.77,-0.77
118,-3.96,-3.19,-3.97,-3.20,3.20,3.49,-0.76,-0.77,-0.77
119,-3.96,-3.19,-3.95,-3.17,3.17,3.48,-0.79,-0.77,-0.77
120,-3.92,-3.15,-3.93,-3.15,3.15,3.48,-0.77,-0.77,-0.77
121,-3.92,-3.15,-3.91,-3.13,3.13,3.47,-0.79,-0.77,-0.77
123,-3.88,-3.11,-3.89,-3.12,3.12,3.45,-0.76,-0.77,-0.77
124,-3.88,-3.11,-3.87,-3.10,3.10,3.44,-0.78,-0.77,-0.77
125,-3.87,-3.10,-3.86,-3.09,3.09,3.43,-0.78,-0.77,-0.77
126,-3.83,-3.06,-3.85,-3.07,3.07,3.41,-0.76,-0.77,-0.77
128,-3.83,-3.06,-3.83,-3.06,3.06,3.39,-0.77,-0.77,-0.77
129,-3.83,-3.06,-3.82,-3.05,3.05,3.37,-0.78,-0.77,-0.77
130,-3.82,-3.05,-3.81,-3.04,3.04,3.36,-0.78,-0.77,-0.77
131,-3.80,-3.03,-3.81,-3.03,3.03,3.34,-0.77,-0.77,-0.77
133,-3.79,-3.02,-3.80,-3.03,3.03,3.31,-0.76,-0.77,-0.77
134,-3.79,-3.02,-3.80,-3.02,3.02,3.30,-0.77,-0.77,-0.77
135,-3.79,-3.02,-3.79,-3.02,3.02,3.28,-0.77,-0.77,-0.77
137,-3.79,-3.02,-3.79,-3.02,3.02,3.24,-0.77,-0.77,-0.77
138,-3.79,-3.02,-3.79,-3.01,3.01,3.23,-0.78,-0.77,-0.77
140,-3.79,-3.02,-3.79,-3.01,3.01,3.19,-0.78,-0.77,-0.77
141,-3.79,-3.02,-3.79,-3.01,3.01,3.18,-0.78,-0.77,-0.77
142,-3.79,-3.02,-3.79,-3.01,3.01,3.16,-0.78,-0.77,-0.77
144,-3.79,-3.02,-3.79,-3.01,3.01,3.12,-0.78,-0.77,-0.77
145,-3.79,-3.02,-3.79,-3.01,3.01,3.11,-0.78,-0.77,-0.77
147,-3.79,-3.02,-3.79,-3.01,3.01,3.08,-0.78,-0.77,-0.77
148,-3.79,-3.02,-3.79,-3.01,3.01,3.06,-0.78,-0.77,-0.77
150,-3.79,-3.02,-3.79,-3.02,3.02,3.03,-0.77,-0.77,-0.77
151,-3.79,-3.02,-3.79,-3.02,3.02,3.02,-0.77,-0.77,-0.77
153,-3.79,-3.02,-3.80,-3.02,3.02,2.99,-0.77,-0.77,-0.77
154,-3.79,-3.02,-3.80,-3.03,3.03,2.98,-0.76,-0.77,-0.77
156,-3.81,-3.04,-3.81,-3.03,3.03,2.96,-0.78,-0.77,-0.77
157,-3.81,-3.04,-3.81,-3.04,3.04,2.95,-0.77,-0.77,-0.77
159,-3.83,-3.06,-3.82,-3.05,3.05,2.93,-0.78,-0.77,-0.77
160,-3.83,-3.06,-3.83,-3.06,3.06,2.93,-0.77,-0.77,-0.77
162,-3.83,-3.06,-3.84,-3.07,3.07,2.91,-0.76,-0.77,-0.77
164,-3.84,-3.07,-3.85,-3.08,3.08,2.90,-0.76,-0.77,-0.77
165,-3.88,-3.11,-3.86,-3.09,3.09,2.90,-0.79,-0.77,-0.77
167,-3.88,-3.11,-3.88,-3.10,3.10,2.89,-0.78,-0.77,-0.77
169,-3.88,-3.11,-3.89,-3.12,3.12,2.89,-0.76,-0.77,-0.77
170,-3.91,-3.14,-3.90,-3.13,3.13,2.89,-0.78,-0.77,-0.77
172,-3.92,-3.15,-3.92,-3.14,3.14,2.89,-0.78,-0.77,-0.77
174,-3.92,-3.15,-3.93,-3.16,3.16,2.90,-0.76,-0.77,-0.77
175,-3.95,-3.18,-3.95,-3.17,3.17,2.90,-0.78,-0.77,-0.77
177,-3.96,-3.19,-3.96,-3.19,3.19,2.91,-0.77,-0.77,-0.77
179,-3.96,-3.19,-3.97,-3.20,3.20,2.93,-0.76,-0.77,-0.77
181,-4.01,-3.24,-3.99,-3.21,3.21,2.94,-0.80,-0.77,-0.77
183,-4.01,-3.24,-4.00,-3.23,3.23,2.96,-0.78,-0.77,-0.77
184,-4.01,-3.24,-4.01,-3.24,3.24,2.97,-0.77,-0.77,-0.77
186,-4.01,-3.24,-4.02,-3.25,3.25,2.99,-0.76,-0.77,-0.77
188,-4.05,-3.28,-4.03,-3.26,3.26,3.01,-0.79,-0.77,-0.77
190,-4.05,-3.28,-4.04,-3.27,3.27,3.03,-0.78,-0.77,-0.77
192,-4.05,-3.28,-4.05,-3.28,3.28,3.06,-0.77,-0.77,-0.77
194,-4.05,-3.28,-4.06,-3.29,3.29,3.09,-0.76,-0.77,-0.77
196,-4.07,-3.30,-4.07,-3.30,3.30,3.12,-0.77,-0.77,-0.77
198,-4.09,-3.32,-4.08,-3.31,3.31,3.15,-0.78,-0.77,-0.77
200,-4.09,-3.32,-4.09,-3.32,3.32,3.18,-0.77,-0.77,-0.77
202,-4.09,-3.32,-4.10,-3.33,3.33,3.21,-0.76,-0.77,-0.77
204,-4.09,-3.32,-4.11,-3.34,3.34,3.25,-0.75,-0.77,-0.77
206,-4.14,-3.37,-4.13,-3.35,3.35,3.28,-0.79,-0.77,-0.77
208,-4.14,-3.37,-4.14,-3.36,3.36,3.31,-0.78,-0.77,-0.77
210,-4.14,-3.37,-4.15,-3.38,3.38,3.35,-0.76,-0.77,-0.77
212,-4.16,-3.39,-4.16,-3.39,3.39,3.38,-0.77,-0.77,-0.77
214,-4.18,-3.41,-4.17,-3.40,3.40,3.42,-0.78,-0.77,-0.77
216,-4.18,-3.41,-4.18,-3.41,3.41,3.45,-0.77,-0.77,-0.77
218,-4.18,-3.41,-4.19,-3.42,3.42,3.48,-0.76,-0.77,-0.77
221,-4.20,-3.43,-4.20,-3.43,3.43,3.53,-0.77,-0.77,-0.77
223,-4.22,-3.45,-4.20,-3.43,3.43,3.56,-0.79,-0.77,-0.77
225,-4.22,-3.45,-4.21,-3.44,3.44,3.59,-0.78,-0.77,-0.77
227,-4.22,-3.45,-4.22,-3.44,3.44,3.62,-0.78,-0.77,-0.77
229,-4.22,-3.45,-4.22,-3.45,3.45,3.64,-0.77,-0.77,-0.77
232,-4.22,-3.45,-4.22,-3.45,3.45,3.68,-0.77,-0.77,-0.77
234,-4.22,-3.45,-4.22,-3.45,3.45,3.70,-0.77,-0.77,-0.77
236,-4.22,-3.45,-4.22,-3.45,3.45,3.72,-0.77,-0.77,-0.77
239,-4.22,-3.45,-4.22,-3.45,3.45,3.74,-0.77,-0.77,-0.77
241,-4.22,-3.45,-4.22,-3.45,3.45,3.75,-0.77,-0.77,-0.77
244,-4.22,-3.44,-4.22,-3.45,3.45,3.77,-0.77,-0.78,-0.78
246,-4.22,-3.44,-4.22,-3.45,3.45,3.77,-0.77,-0.78,-0.78
248,-4.22,-3.44,-4.22,-3.44,3.44,3.78,-0.78,-0.78,-0.78
251,-4.22,-3.44,-4.22,-3.44,3.44,3.78,-0.78,-0.78,-0.78
253,-4.22,-3.44,-4.22,-3.44,3.44,3.78,-0.78,-0.78,-0.78
256,-4.22,-3.44,-4.22,-3.44,3.44,3.77,-0.78,-0.78,-0.78
259,-4.22,-3.44,-4.22,-3.43,3.43,3.76,-0.79,-0.78,-0.78
261,-4.22,-3.44,-4.21,-3.43,3.43,3.75,-0.79,-0.78,-0.78
264,-4.22,-3.44,-4.21,-3.43,3.43,3.73,-0.79,-0.78,-0.78
266,-4.22,-3.44,-4.21,-3.42,3.42,3.72,-0.80,-0.78,-0.78
269,-4.20,-3.42,-4.20,-3.42,3.42,3.70,-0.78,-0.78,-0.78
272,-4.18,-3.40,-4.20,-3.41,3.41,3.67,-0.77,-0.78,-0.78
274,-4.18,-3.40,-4.19,-3.41,3.41,3.65,-0.77,-0.78,-0.78
277,-4.18,-3.40,-4.19,-3.41,3.41,3.62,-0.77,-0.78,-0.78
280,-4.18,-3.40,-4.18,-3.40,3.40,3.59,-0.78,-0.78,-0.78
283,-4.18,-3.41,-4.18,-3.40,3.40,3.55,-0.78,-0.77,-0.77
286,-4.18,-3.41,-4.17,-3.40,3.40,3.52,-0.78,-0.77,-0.77
288,-4.18,-3.42,-4.17,-3.40,3.40,3.50,-0.78,-0.76,-0.76
291,-4.16,-3.40,-4.16,-3.41,3.41,3.46,-0.75,-0.75,-0.76
294,-4.14,-3.39,-4.15,-3.41,3.41,3.43,-0.73,-0.75,-0.75
297,-4.14,-3.40,-4.15,-3.41,3.41,3.39,-0.73,-0.74,-0.74
300,-4.14,-3.41,-4.14,-3.42,3.42,3.36,-0.72,-0.73,-0.73
303,-4.14,-3.43,-4.13,-3.42,3.42,3.33,-0.72,-0.71,-0.71
306,-4.14,-3.44,-4.13,-3.43,3.43,3.30,-0.71,-0.70,-0.70
309,-4.14,-3.45,-4.12,-3.43,3.43,3.27,-0.71,-0.69,-0.69
312,-4.10,-3.43,-4.11,-3.44,3.44,3.24,-0.66,-0.67,-0.67
316,-4.09,-3.43,-4.10,-3.45,3.45,3.20,-0.64,-0.66,-0.66
319,-4.09,-3.45,-4.10,-3.46,3.46,3.18,-0.63,-0.64,-0.64
322,-4.09,-3.46,-4.09,-3.46,3.46,3.16,-0.63,-0.63,-0.63
325,-4.09,-3.48,-4.08,-3.47,3.47,3.14,-0.62,-0.61,-0.61
328,-4.09,-3.50,-4.07,-3.48,3.48,3.12,-0.61,-0.59,-0.59
332,-4.05,-3.47,-4.07,-3.49,3.49,3.09,-0.56,-0.58,-0.58
335,-4.05,-3.49,-4.06,-3.50,3.50,3.08,-0.55,-0.57,-0.56
338,-4.05,-3.50,-4.06,-3.50,3.50,3.07,-0.55,-0.55,-0.55
342,-4.05,-3.51,-4.05,-3.51,3.51,3.05,-0.54,-0.54,-0.54
345,-4.05,-3.52,-4.05,-3.52,3.52,3.04,-0.53,-0.53,-0.53
349,-4.04,-3.53,-4.04,-3.52,3.52,3.03,-0.52,-0.52,-0.51
352,-4.03,-3.53,-4.04,-3.53,3.53,3.03,-0.50,-0.51,-0.51
356,-4.01,-3.51,-4.03,-3.53,3.53,3.03,-0.48,-0.50,-0.50
359,-4.01,-3.52,-4.02,-3.53,3.53,3.03,-0.48,-0.49,-0.49
363,-4.01,-3.53,-4.01,-3.53,3.53,3.03,-0.48,-0.48,-0.48
366,-4.01,-3.53,-4.00,-3.52,3.52,3.03,-0.49,-0.48,-0.48
370,-4.01,-3.54,-3.99,-3.51,3.51,3.04,-0.50,-0.48,-0.47
374,-4.01,-3.54,-3.97,-3.50,3.50,3.05,-0.51,-0.47,-0.47
377,-3.96,-3.49,-3.95,-3.48,3.48,3.06,-0.48,-0.47,-0.47
381,-3.96,-3.49,-3.93,-3.46,3.46,3.07,-0.50,-0.47,-0.47
385,-3.92,-3.45,-3.91,-3.44,3.44,3.08,-0.48,-0.47,-0.47
389,-3.88,-3.41,-3.88,-3.42,3.42,3.10,-0.46,-0.47,-0.47
393,-3.85,-3.38,-3.86,-3.39,3.39,3.12,-0.46,-0.46,-0.47
397,-3.82,-3.36,-3.83,-3.36,3.36,3.14,-0.46,-0.46,-0.46
401,-3.79,-3.33,-3.80,-3.34,3.34,3.16,-0.45,-0.46,-0.46
405,-3.75,-3.29,-3.78,-3.31,3.31,3.19,-0.44,-0.46,-0.46
409,-3.75,-3.29,-3.75,-3.29,3.29,3.21,-0.46,-0.46,-0.46
413,-3.70,-3.24,-3.73,-3.27,3.27,3.23,-0.43,-0.46,-0.46
417,-3.70,-3.24,-3.71,-3.25,3.25,3.26,-0.45,-0.46,-0.46
421,-3.70,-3.24,-3.69,-3.24,3.24,3.28,-0.46,-0.46,-0.46
425,-3.67,-3.22,-3.67,-3.22,3.22,3.31,-0.45,-0.45,-0.45
430,-3.66,-3.21,-3.66,-3.21,3.21,3.34,-0.45,-0.45,-0.45
434,-3.66,-3.21,-3.64,-3.20,3.20,3.36,-0.46,-0.45,-0.45
438,-3.62,-3.18,-3.63,-3.19,3.19,3.38,-0.43,-0.44,-0.44
443,-3.62,-3.18,-3.61,-3.18,3.18,3.41,-0.44,-0.44,-0.44
447,-3.62,-3.19,-3.60,-3.17,3.17,3.43,-0.45,-0.43,-0.43
451,-3.57,-3.15,-3.59,-3.16,3.16,3.45,-0.41,-0.42,-0.42
456,-3.57,-3.15,-3.57,-3.15,3.15,3.47,-0.42,-0.42,-0.42
460,-3.57,-3.16,-3.55,-3.14,3.14,3.49,-0.43,-0.41,-0.41
465,-3.53,-3.13,-3.54,-3.13,3.13,3.50,-0.40,-0.40,-0.40
470,-3.53,-3.13,-3.52,-3.12,3.12,3.52,-0.41,-0.40,-0.40
474,-3.49,-3.10,-3.50,-3.11,3.11,3.52,-0.38,-0.39,-0.39
479,-3.49,-3.11,-3.48,-3.10,3.10,3.53,-0.39,-0.38,-0.38
484,-3.45,-3.08,-3.46,-3.09,3.09,3.53,-0.36,-0.37,-0.37
489,-3.44,-3.08,-3.44,-3.08,3.08,3.53,-0.36,-0.36,-0.36
494,-3.43,-3.08,-3.42,-3.07,3.07,3.52,-0.36,-0.35,-0.35
499,-3.40,-3.06,-3.40,-3.06,3.06,3.51,-0.34,-0.34,-0.34
504,-3.39,-3.06,-3.38,-3.05,3.05,3.50,-0.34,-0.33,-0.33
509,-3.36,-3.04,-3.36,-3.04,3.04,3.48,-0.32,-0.32,-0.32
514,-3.35,-3.04,-3.34,-3.03,3.03,3.46,-0.32,-0.31,-0.31
519,-3.31,-3.01,-3.32,-3.03,3.03,3.43,-0.28,-0.30,-0.30
524,-3.31,-3.02,-3.30,-3.02,3.02,3.41,-0.29,-0.29,-0.29
529,-3.27,-2.99,-3.28,-3.01,3.01,3.37,-0.26,-0.28,-0.28
535,-3.27,-3.01,-3.26,-3.00,3.00,3.33,-0.27,-0.26,-0.26
540,-3.23,-2.98,-3.24,-2.99,2.99,3.30,-0.24,-0.25,-0.25
545,-3.23,-2.99,-3.22,-2.98,2.98,3.26,-0.25,-0.24,-0.24
551,-3.19,-2.96,-3.19,-2.96,2.96,3.21,-0.23,-0.23,-0.23
556,-3.18,-2.96,-3.17,-2.95,2.95,3.17,-0.23,-0.22,-0.22
562,-3.14,-2.93,-3.14,-2.94,2.94,3.11,-0.20,-0.21,-0.21
568,-3.11,-2.92,-3.11,-2.92,2.92,3.06,-0.19,-0.19,-0.19
573,-3.09,-2.91,-3.09,-2.90,2.90,3.01,-0.19,-0.18,-0.18
579,-3.05,-2.88,-3.06,-2.88,2.88,2.96,-0.17,-0.17,-0.17
585,-3.03,-2.87,-3.03,-2.86,2.86,2.90,-0.17,-0.16,-0.16
591,-3.00,-2.85,-2.99,-2.84,2.84,2.85,-0.16,-0.15,-0.15
596,-2.97,-2.83,-2.96,-2.82,2.82,2.80,-0.15,-0.14,-0.14
602,-2.92,-2.79,-2.93,-2.80,2.80,2.75,-0.12,-0.13,-0.13
608,-2.89,-2.77,-2.90,-2.78,2.78,2.69,-0.11,-0.12,-0.12
615,-2.86,-2.76,-2.86,-2.76,2.76,2.63,-0.10,-0.10,-0.10
621,-2.83,-2.74,-2.83,-2.74,2.74,2.58,-0.09,-0.09,-0.09
627,-2.80,-2.72,-2.80,-2.72,2.72,2.52,-0.08,-0.08,-0.08
633,-2.75,-2.68,-2.76,-2.70,2.70,2.47,-0.05,-0.07,-0.07
639,-2.72,-2.67,-2.73,-2.67,2.67,2.43,-0.05,-0.05,-0.05
646,-2.69,-2.65,-2.69,-2.65,2.65,2.37,-0.04,-0.04,-0.04
652,-2.66,-2.64,-2.65,-2.63,2.63,2.33,-0.03,-0.02,-0.02
659,-2.62,-2.61,-2.62,-2.61,2.61,2.28,-0.01,-0.01,-0.01
665,-2.58,-2.59,-2.58,-2.59,2.59,2.23,0.01,0.01,0.01
672,-2.55,-2.58,-2.54,-2.57,2.57,2.19,0.02,0.03,0.03
679,-2.49,-2.54,-2.49,-2.54,2.54,2.14,0.05,0.05,0.05
686,-2.45,-2.52,-2.45,-2.52,2.52,2.10,0.07,0.07,0.07
692,-2.41,-2.50,-2.40,-2.50,2.50,2.07,0.09,0.09,0.09
699,-2.35,-2.47,-2.35,-2.47,2.47,2.03,0.12,0.12,0.12
706,-2.30,-2.44,-2.30,-2.44,2.44,1.99,0.14,0.14,0.14
713,-2.25,-2.42,-2.25,-2.42,2.42,1.96,0.17,0.17,0.17
721,-2.20,-2.39,-2.20,-2.39,2.39,1.92,0.19,0.19,0.19
728,-2.14,-2.36,-2.15,-2.36,2.36,1.89,0.22,0.22,0.22
735,-2.09,-2.33,-2.09,-2.34,2.34,1.86,0.25,0.24,0.24
742,-2.04,-2.31,-2.04,-2.31,2.31,1.83,0.27,0.27,0.27
750,-1.98,-2.28,-1.98,-2.28,2.28,1.80,0.30,0.30,0.30
757,-1.91,-2.24,-1.92,-2.25,2.25,1.78,0.34,0.33,0.33
765,-1.86,-2.21,-1.87,-2.22,2.22,1.75,0.36,0.35,0.35
773,-1.82,-2.20,-1.81,-2.19,2.19,1.73,0.37,0.38,0.38
780,-1.75,-2.16,-1.75,-2.15,2.15,1.71,0.40,0.41,0.41
788,-1.69,-2.12,-1.69,-2.12,2.12,1.69,0.43,0.43,0.43
796,-1.63,-2.09,-1.63,-2.08,2.08,1.67,0.45,0.46,0.46
804,-1.57,-2.05,-1.57,-2.05,2.05,1.65,0.48,0.48,0.48
812,-1.50,-2.01,-1.50,-2.01,2.01,1.63,0.51,0.51,0.51
820,-1.43,-1.96,-1.44,-1.97,1.97,1.61,0.54,0.53,0.53
828,-1.38,-1.94,-1.38,-1.93,1.93,1.59,0.55,0.55,0.56
837,-1.30,-1.88,-1.31,-1.89,1.89,1.57,0.59,0.58,0.58
845,-1.25,-1.85,-1.25,-1.85,1.85,1.56,0.60,0.60,0.60
853,-1.19,-1.81,-1.18,-1.81,1.81,1.54,0.62,0.62,0.62
862,-1.13,-1.77,-1.12,-1.76,1.76,1.52,0.63,0.64,0.64
871,-1.05,-1.71,-1.05,-1.72,1.72,1.50,0.67,0.66,0.66
879,-0.98,-1.66,-0.99,-1.67,1.67,1.49,0.69,0.68,0.68
888,-0.91,-1.61,-0.92,-1.62,1.62,1.47,0.71,0.70,0.70
897,-0.86,-1.58,-0.85,-1.57,1.57,1.44,0.71,0.72,0.72
906,-0.78,-1.52,-0.78,-1.52,1.52,1.42,0.74,0.74,0.74
915,-0.70,-1.46,-0.71,-1.47,1.47,1.40,0.77,0.76,0.76
924,-0.64,-1.42,-0.63,-1.42,1.42,1.37,0.78,0.78,0.78
933,-0.56,-1.36,-0.56,-1.36,1.36,1.34,0.80,0.80,0.80
943,-0.48,-1.30,-0.49,-1.31,1.31,1.31,0.83,0.82,0.82
952,-0.42,-1.26,-0.41,-1.25,1.25,1.28,0.83,0.84,0.84
962,-0.32,-1.18,-0.33,-1.19,1.19,1.24,0.87,0.86,0.86
971,-0.26,-1.14,-0.25,-1.13,1.13,1.21,0.87,0.88,0.88
981,-0.16,-1.06,-0.17,-1.07,1.07,1.16,0.91,0.90,0.90
991,-0.09,-1.01,-0.09,-1.01,1.01,1.12,0.92,0.92,0.92
1001,0.01,-0.94,-0.00,-0.95,0.95,1.07,0.96,0.95,0.95
1011,0.07,-0.90,0.08,-0.88,0.88,1.02,0.95,0.97,0.97
1021,0.17,-0.82,0.17,-0.82,0.82,0.97,0.99,0.99,0.99
1031,0.27,-0.75,0.27,-0.75,0.75,0.91,1.02,1.02,1.02
1041,0.35,-0.69,0.36,-0.69,0.69,0.86,1.04,1.04,1.04
1052,0.46,-0.61,0.46,-0.62,0.62,0.79,1.08,1.07,1.07
1062,0.56,-0.54,0.55,-0.55,0.55,0.73,1.11,1.10,1.10
1073,0.67,-0.46,0.66,-0.48,0.48,0.66,1.15,1.14,1.13
1084,0.77,-0.40,0.76,-0.41,0.41,0.58,1.18,1.17,1.17
1094,0.87,-0.33,0.87,-0.34,0.34,0.51,1.21,1.20,1.20
1105,0.97,-0.27,0.98,-0.26,0.26,0.44,1.23,1.24,1.24
1116,1.09,-0.19,1.10,-0.19,0.19,0.36,1.28,1.28,1.28
1128,1.21,-0.11,1.22,-0.11,0.11,0.27,1.32,1.32,1.32
1139,1.35,-0.02,1.34,-0.03,0.03,0.18,1.38,1.37,1.37
1150,1.45,0.04,1.47,0.05,-0.05,0.10,1.40,1.41,1.41
1162,1.61,0.15,1.60,0.14,-0.14,0.01,1.47,1.46,1.46
1173,1.73,0.22,1.74,0.22,-0.22,-0.08,1.51,1.51,1.51
1185,1.87,0.30,1.88,0.31,-0.31,-0.17,1.56,1.57,1.57
1197,2.04,0.42,2.03,0.40,-0.40,-0.27,1.64,1.62,1.62
1209,2.18,0.50,2.18,0.50,-0.50,-0.37,1.68,1.68,1.68
1221,2.33,0.59,2.34,0.60,-0.60,-0.47,1.73,1.74,1.74
1233,2.50,0.70,2.50,0.70,-0.70,-0.56,1.80,1.80,1.80
1246,2.67,0.80,2.67,0.80,-0.80,-0.67,1.87,1.87,1.87
1258,2.84,0.90,2.84,0.91,-0.91,-0.77,1.93,1.94,1.94
1271,3.02,1.02,3.02,1.02,-1.02,-0.88,2.00,2.00,2.00
1283,3.21,1.14,3.20,1.13,-1.13,-0.98,2.08,2.07,2.07
1296,3.38,1.23,3.39,1.24,-1.24,-1.09,2.14,2.15,2.15
1309,3.59,1.37,3.58,1.36,-1.36,-1.20,2.23,2.22,2.22
1322,3.79,1.49,3.78,1.48,-1.48,-1.31,2.31,2.30,2.30
1335,3.97,1.59,3.98,1.61,-1.61,-1.42,2.36,2.38,2.38
1349,4.19,1.73,4.19,1.73,-1.73,-1.54,2.46,2.46,2.46
1362,4.39,1.85,4.40,1.86,-1.86,-1.65,2.53,2.54,2.54
1376,4.62,2.00,4.62,2.00,-2.00,-1.77,2.62,2.63,2.62
1390,4.85,2.14,4.84,2.13,-2.13,-1.89,2.72,2.71,2.71
1404,5.07,2.27,5.06,2.27,-2.27,-2.01,2.80,2.80,2.80
1418,5.29,2.40,5.29,2.41,-2.41,-2.14,2.88,2.89,2.89
1432,5.53,2.55,5.52,2.55,-2.55,-2.26,2.98,2.98,2.98
1446,5.75,2.68,5.76,2.69,-2.69,-2.38,3.06,3.07,3.07
1461,6.00,2.84,6.00,2.83,-2.83,-2.51,3.17,3.16,3.16
1475,6.22,2.96,6.23,2.98,-2.98,-2.64,3.24,3.26,3.26
1490,6.47,3.12,6.48,3.13,-3.13,-2.77,3.34,3.35,3.35
1505,6.72,3.27,6.72,3.27,-3.27,-2.90,3.45,3.45,3.45
1520,6.97,3.42,6.96,3.42,-3.42,-3.04,3.55,3.54,3.55
1535,7.21,3.57,7.21,3.57,-3.57,-3.17,3.64,3.64,3.64
1550,7.46,3.72,7.46,3.72,-3.72,-3.30,3.74,3.74,3.74
1566,7.70,3.86,7.70,3.86,-3.86,-3.44,3.84,3.84,3.84
1582,7.97,4.03,7.95,4.01,-4.01,-3.59,3.96,3.94,3.94
