frequency,raw
20,-13.64
21,-13.05
22,-12.49
23,-11.94
24,-11.42
25,-10.92
26,-10.45
27,-9.99
28,-9.56
29,-9.16
30,-8.77
31,-8.45
32,-8.14
33,-7.83
34,-7.54
35,-7.27
36,-7.02
37,-6.75
38,-6.52
39,-6.28
40,-6.04
41,-5.82
42,-5.59
43,-5.36
44,-5.14
45,-4.91
46,-4.68
47,-4.46
48,-4.25
49,-4.03
50,-3.83
51,-3.63
52,-3.43
53,-3.25
54,-3.07
55,-2.91
56,-2.74
57,-2.56
58,-2.42
59,-2.26
60,-2.12
61,-1.98
62,-1.83
63,-1.69
64,-1.55
65,-1.42
66,-1.29
67,-1.14
68,-1.01
69,-0.88
70,-0.74
71,-0.61
72,-0.49
73,-0.37
74,-0.25
75,-0.14
76,-0.02
77,0.09
78,0.18
79,0.29
80,0.40
81,0.51
82,0.61
83,0.70
84,0.81
85,0.90
86,1.00
87,1.10
88,1.19
89,1.29
90,1.38
91,1.46
92,1.55
93,1.63
94,1.71
95,1.78
96,1.87
97,1.95
98,2.02
99,2.10
100,2.18
101,2.25
102,2.34
104,2.42
105,2.49
106,2.55
107,2.61
108,2.69
109,2.76
110,2.83
111,2.88
112,2.94
113,2.99
114,3.05
115,3.11
117,3.17
118,3.23
119,3.28
120,3.32
121,3.36
123,3.42
124,3.47
125,3.52
126,3.57
128,3.61
129,3.66
130,3.71
131,3.74
133,3.77
134,3.79
135,3.82
137,3.85
138,3.90
140,3.94
141,3.98
142,4.02
144,4.04
145,4.07
147,4.09
148,4.13
150,4.16
151,4.18
153,4.21
154,4.23
156,4.24
157,4.24
159,4.23
160,4.23
162,4.22
164,4.22
165,4.22
167,4.22
169,4.22
170,4.22
172,4.22
174,4.22
175,4.22
177,4.22
179,4.22
181,4.22
183,4.22
184,4.22
186,4.22
188,4.22
190,4.22
192,4.22
194,4.22
196,4.22
198,4.22
200,4.22
202,4.22
204,4.22
206,4.23
208,4.24
210,4.24
212,4.23
214,4.22
216,4.20
218,4.17
221,4.15
223,4.12
225,4.10
227,4.07
229,4.03
232,3.99
234,3.94
236,3.90
239,3.85
241,3.80
244,3.78
246,3.75
248,3.72
251,3.68
253,3.64
256,3.60
259,3.56
261,3.51
264,3.46
266,3.40
269,3.35
272,3.30
274,3.26
277,3.21
280,3.16
283,3.09
286,3.03
288,2.98
291,2.93
294,2.89
297,2.84
300,2.78
303,2.72
306,2.66
309,2.62
312,2.57
316,2.52
319,2.45
322,2.38
325,2.32
328,2.27
332,2.23
335,2.18
338,2.13
342,2.06
345,2.00
349,1.96
352,1.92
356,1.87
359,1.82
363,1.76
366,1.71
370,1.66
374,1.62
377,1.57
381,1.52
385,1.45
389,1.39
393,1.33
397,1.29
401,1.26
405,1.20
409,1.14
413,1.07
417,1.01
421,0.96
425,0.92
430,0.88
434,0.83
438,0.79
443,0.74
447,0.70
451,0.66
456,0.61
460,0.56
465,0.52
470,0.48
474,0.46
479,0.44
484,0.42
489,0.38
494,0.34
499,0.30
504,0.26
509,0.22
514,0.19
519,0.16
524,0.14
529,0.11
535,0.08
540,0.05
545,0.02
551,-0.00
556,-0.01
562,-0.02
568,-0.02
573,-0.01
579,-0.01
585,0.00
591,0.00
596,0.00
602,0.00
608,0.00
615,0.00
621,0.00
627,0.00
633,-0.00
639,0.00
646,0.00
652,0.00
659,0.00
665,0.00
672,0.00
679,0.00
686,0.00
692,0.00
699,0.00
706,-0.00
713,0.00
721,0.00
728,0.00
735,0.00
742,0.00
750,0.00
757,0.00
765,0.00
773,-0.00
780,0.00
788,-0.00
796,0.00
804,0.00
812,0.00
820,0.00
828,0.00
837,0.00
845,0.00
853,0.00
862,0.00
871,0.00
879,0.00
888,0.00
897,0.00
906,0.00
915,0.00
924,0.00
933,0.00
943,0.00
952,0.00
962,0.00
971,0.00
981,0.00
991,0.00
1001,0.00
1011,0.00
1021,0.00
1031,0.00
1041,0.00
1052,0.00
1062,0.00
1073,0.00
1084,0.00
1094,0.00
1105,0.00
1116,0.00
1128,0.00
1139,0.00
1150,0.00
1162,0.00
1173,0.00
1185,0.00
1197,0.00
1209,0.00
1221,0.00
1233,0.01
1246,0.02
1258,0.02
1271,0.02
1283,0.01
1296,-0.01
1309,-0.03
1322,-0.06
1335,-0.09
1349,-0.12
1362,-0.16
1376,-0.19
1390,-0.23
1404,-0.27
1418,-0.30
1432,-0.34
1446,-0.37
1461,-0.38
1475,-0.37
1490,-0.35
1505,-0.31
1520,-0.27
1535,-0.21
1550,-0.14
1566,-0.05
1582,0.06
1597,0.20
1613,0.36
1629,0.55
1646,0.75
1662,0.97
1679,1.21
1696,1.46
1713,1.73
1730,2.01
1747,2.30
1764,2.61
1782,2.93
1800,3.26
1818,3.58
1836,3.91
1854,4.24
1873,4.57
1892,4.90
1911,5.24
1930,5.58
1949,5.93
1969,6.27
1988,6.61
2008,6.96
2028,7.32
2048,7.68
2069,8.05
2090,8.42
2111,8.78
2132,9.15
2153,9.51
2175,9.88
2196,10.23
2218,10.57
2240,10.90
2263,11.20
2285,11.48
2308,11.74
2331,11.98
2355,12.21
2378,12.41
2402,12.59
2426,12.77
2450,12.91
2475,13.02
2500,13.11
2525,13.18
2550,13.23
2575,13.25
2601,13.26
2627,13.25
2653,13.21
2680,13.14
2707,13.05
2734,12.93
2761,12.79
2789,12.61
2817,12.43
2845,12.23
2873,12.03
2902,11.83
2931,11.63
2960,11.41
2990,11.19
3020,10.98
3050,10.77
3080,10.58
3111,10.39
3142,10.21
3174,10.04
3206,9.90
3238,9.78
3270,9.67
3303,9.58
3336,9.52
3369,9.48
3403,9.46
3437,9.48
3471,9.52
3506,9.61
3541,9.72
3576,9.87
3612,10.04
3648,10.26
3685,10.50
3721,10.75
3759,11.01
3796,11.27
3834,11.52
3873,11.77
3911,11.99
3950,12.19
3990,12.36
4030,12.51
4070,12.63
4111,12.72
4152,12.77
4193,12.78
4235,12.76
4278,12.72
4321,12.65
4364,12.56
4407,12.43
4451,12.27
4496,12.06
4541,11.78
4586,11.42
4632,10.98
4679,10.45
4725,9.84
4773,9.13
4820,8.34
4868,7.50
4917,6.60
4966,5.64
5016,4.64
5066,3.63
5117,2.63
5168,1.64
5220,0.68
5272,-0.25
5325,-1.13
5378,-1.97
5432,-2.76
5486,-3.50
5541,-4.20
5596,-4.86
5652,-5.49
5709,-6.09
5766,-6.67
5823,-7.22
5882,-7.75
5940,-8.24
6000,-8.72
6060,-9.18
6120,-9.62
6182,-10.04
6244,-10.45
6306,-10.83
6369,-11.20
6433,-11.55
6497,-11.88
6562,-12.21
6628,-12.53
6694,-12.83
6761,-13.11
6828,-13.38
6897,-13.64
6966,-13.89
7035,-14.13
7106,-14.37
7177,-14.60
7249,-14.81
7321,-15.01
7394,-15.21
7468,-15.40
7543,-15.58
7618,-15.76
7694,-15.94
7771,-16.12
7849,-16.30
7928,-16.50
8007,-16.69
8087,-16.90
8168,-17.10
8250,-17.32
8332,-17.55
8415,-17.77
8499,-17.98
8584,-18.20
8670,-18.42
8757,-18.62
8845,-18.80
8933,-18.96
9022,-19.10
9113,-19.23
9204,-19.33
9296,-19.39
9389,-19.43
9483,-19.42
9577,-19.38
9673,-19.30
9770,-19.18
9868,-19.02
9966,-18.81
10066,-18.54
10167,-18.21
10268,-17.81
10371,-17.38
10475,-16.91
10579,-16.42
10685,-15.92
10792,-15.41
10900,-14.90
11009,-14.40
11119,-13.92
11230,-13.46
11343,-13.03
11456,-12.60
11571,-12.19
11686,-11.77
11803,-11.36
11921,-10.94
12040,-10.51
12161,-10.08
12282,-9.65
12405,-9.22
12529,-8.81
12655,-8.43
12781,-8.08
12909,-7.77
13038,-7.51
13168,-7.31
13300,-7.17
13433,-7.09
13567,-7.05
13703,-7.07
13840,-7.11
13978,-7.20
14118,-7.28
14259,-7.38
14402,-7.51
14546,-7.68
14692,-7.89
14838,-8.17
14987,-8.54
15137,-9.02
15288,-9.62
15441,-10.36
15595,-11.23
15751,-12.22
15909,-13.33
16068,-14.51
16229,-15.75
16391,-17.02
16555,-18.30
16720,-19.55
16888,-20.74
17056,-21.85
17227,-22.84
17399,-23.71
17573,-24.46
17749,-25.08
17926,-25.57
18106,-25.96
18287,-26.36
18470,-26.68
18654,-26.93
18841,-27.09
19029,-27.18
19220,-27.18
19412,-27.11
19606,-26.96
19802,-26.73
20000,-26.43
