frequency,raw
20.00,1.13
20.20,1.17
20.40,1.20
20.61,1.24
20.81,1.28
21.02,1.31
21.23,1.35
21.44,1.39
21.66,1.42
21.87,1.46
22.09,1.50
22.31,1.54
22.54,1.58
22.76,1.63
22.99,1.67
23.22,1.71
23.45,1.75
23.69,1.79
23.92,1.84
24.16,1.88
24.40,1.92
24.65,1.97
24.89,2.01
25.14,2.06
25.39,2.10
25.65,2.15
25.91,2.19
26.16,2.24
26.43,2.27
26.69,2.31
26.96,2.35
27.23,2.39
27.50,2.44
27.77,2.48
28.05,2.52
28.33,2.56
28.62,2.60
28.90,2.65
29.19,2.69
29.48,2.72
29.78,2.76
30.08,2.80
30.38,2.83
30.68,2.86
30.99,2.89
31.30,2.91
31.61,2.94
31.93,2.96
32.24,2.98
32.57,3.00
32.89,3.02
33.22,3.04
33.55,3.05
33.89,3.07
34.23,3.08
34.57,3.09
34.92,3.11
35.27,3.12
35.62,3.13
35.97,3.14
36.33,3.15
36.70,3.15
37.06,3.16
37.43,3.17
37.81,3.18
38.19,3.18
38.57,3.19
38.95,3.19
39.34,3.19
39.74,3.20
40.14,3.20
40.54,3.21
40.94,3.21
41.35,3.21
41.76,3.21
42.18,3.21
42.60,3.21
43.03,3.21
43.46,3.21
43.90,3.20
44.33,3.20
44.78,3.20
45.23,3.20
45.68,3.20
46.13,3.20
46.60,3.20
47.06,3.20
47.53,3.19
48.01,3.19
48.49,3.19
48.97,3.19
49.46,3.19
49.96,3.20
50.46,3.20
50.96,3.20
51.47,3.20
51.99,3.20
52.51,3.20
53.03,3.20
53.56,3.21
54.10,3.21
54.64,3.21
55.18,3.21
55.74,3.22
56.29,3.22
56.86,3.22
57.42,3.22
58.00,3.23
58.58,3.24
59.16,3.24
59.76,3.25
60.35,3.26
60.96,3.27
61.57,3.29
62.18,3.30
62.80,3.32
63.43,3.33
64.07,3.35
64.71,3.36
65.35,3.36
66.01,3.35
66.67,3.34
67.33,3.33
68.01,3.32
68.69,3.31
69.37,3.29
70.07,3.28
70.77,3.26
71.48,3.26
72.19,3.25
72.91,3.24
73.64,3.24
74.38,3.24
75.12,3.24
75.87,3.22
76.63,3.20
77.40,3.18
78.17,3.17
78.95,3.15
79.74,3.14
80.54,3.13
81.35,3.13
82.16,3.12
82.98,3.10
83.81,3.08
84.65,3.07
85.50,3.05
86.35,3.02
87.22,3.01
88.09,2.99
88.97,2.99
89.86,2.97
90.76,2.95
91.66,2.94
92.58,2.93
93.51,2.91
94.44,2.90
95.39,2.88
96.34,2.87
97.30,2.86
98.28,2.83
99.26,2.81
100.25,2.78
101.25,2.75
102.27,2.71
103.29,2.69
104.32,2.66
105.37,2.64
106.42,2.63
107.48,2.62
108.56,2.60
109.64,2.59
110.74,2.57
111.85,2.53
112.97,2.50
114.10,2.47
115.24,2.44
116.39,2.40
117.55,2.36
118.73,2.34
119.92,2.32
121.12,2.31
122.33,2.30
123.55,2.29
124.79,2.27
126.03,2.24
127.29,2.20
128.57,2.15
129.85,2.10
131.15,2.06
132.46,2.03
133.79,2.01
135.12,2.01
136.48,1.99
137.84,1.96
139.22,1.93
140.61,1.89
142.02,1.85
143.44,1.81
144.87,1.78
146.32,1.77
147.78,1.76
149.26,1.75
150.75,1.74
152.26,1.72
153.78,1.69
155.32,1.65
156.88,1.61
158.44,1.58
160.03,1.56
161.63,1.55
163.24,1.55
164.88,1.53
166.53,1.52
168.19,1.50
169.87,1.48
171.57,1.45
173.29,1.42
175.02,1.40
176.77,1.37
178.54,1.35
180.32,1.32
182.13,1.30
183.95,1.30
185.79,1.31
187.65,1.31
189.52,1.31
191.42,1.30
193.33,1.28
195.27,1.26
197.22,1.23
199.19,1.21
201.18,1.19
203.19,1.17
205.23,1.17
207.28,1.16
209.35,1.16
211.44,1.16
213.56,1.16
215.69,1.17
217.85,1.17
220.03,1.16
222.23,1.15
224.45,1.13
226.70,1.10
228.96,1.08
231.25,1.06
233.57,1.04
235.90,1.03
238.26,1.02
240.64,1.01
243.05,1.00
245.48,0.98
247.93,0.97
250.41,0.95
252.92,0.94
255.45,0.92
258.00,0.91
260.58,0.90
263.19,0.89
265.82,0.88
268.48,0.87
271.16,0.86
273.87,0.84
276.61,0.82
279.38,0.80
282.17,0.77
284.99,0.73
287.84,0.70
290.72,0.65
293.63,0.61
296.57,0.56
299.53,0.51
302.53,0.45
305.55,0.39
308.61,0.33
311.69,0.27
314.81,0.20
317.96,0.14
321.14,0.07
324.35,-0.00
327.59,-0.07
330.87,-0.15
334.18,-0.23
337.52,-0.31
340.90,-0.39
344.30,-0.47
347.75,-0.56
351.23,-0.65
354.74,-0.73
358.28,-0.81
361.87,-0.89
365.49,-0.97
369.14,-1.04
372.83,-1.12
376.56,-1.20
380.33,-1.28
384.13,-1.35
387.97,-1.44
391.85,-1.52
395.77,-1.61
399.73,-1.69
403.72,-1.78
407.76,-1.87
411.84,-1.95
415.96,-2.04
420.12,-2.13
424.32,-2.22
428.56,-2.30
432.85,-2.39
437.18,-2.48
441.55,-2.58
445.96,-2.67
450.42,-2.77
454.93,-2.84
459.48,-2.91
464.07,-2.98
468.71,-3.04
473.40,-3.12
478.13,-3.20
482.91,-3.30
487.74,-3.41
492.62,-3.51
497.55,-3.60
502.52,-3.69
507.55,-3.77
512.62,-3.84
517.75,-3.90
522.93,-3.97
528.16,-4.03
533.44,-4.08
538.77,-4.14
544.16,-4.18
549.60,-4.23
555.10,-4.26
560.65,-4.28
566.25,-4.30
571.92,-4.32
577.64,-4.33
583.41,-4.32
589.25,-4.32
595.14,-4.30
601.09,-4.28
607.10,-4.25
613.17,-4.20
619.30,-4.15
625.50,-4.09
631.75,-4.01
638.07,-3.93
644.45,-3.83
650.89,-3.73
657.40,-3.62
663.98,-3.52
670.62,-3.40
677.32,-3.27
684.10,-3.15
690.94,-3.02
697.85,-2.89
704.83,-2.75
711.87,-2.63
718.99,-2.50
726.18,-2.36
733.44,-2.21
740.78,-2.06
748.19,-1.91
755.67,-1.77
763.23,-1.65
770.86,-1.53
778.57,-1.44
786.35,-1.34
794.22,-1.26
802.16,-1.19
810.18,-1.12
818.28,-1.06
826.46,-1.01
834.73,-0.95
843.08,-0.88
851.51,-0.81
860.02,-0.73
868.62,-0.64
877.31,-0.56
886.08,-0.49
894.94,-0.44
903.89,-0.38
912.93,-0.33
922.06,-0.28
931.28,-0.25
940.59,-0.21
950.00,-0.18
959.50,-0.15
969.09,-0.11
978.78,-0.07
988.57,-0.04
998.46,-0.01
1008.44,0.02
1018.53,0.04
1028.71,0.05
1039.00,0.05
1049.39,0.06
1059.88,0.07
1070.48,0.09
1081.19,0.12
1092.00,0.15
1102.92,0.18
1113.95,0.22
1125.09,0.26
1136.34,0.31
1147.70,0.36
1159.18,0.42
1170.77,0.49
1182.48,0.57
1194.30,0.67
1206.25,0.77
1218.31,0.87
1230.49,0.96
1242.80,1.06
1255.22,1.15
1267.78,1.25
1280.45,1.36
1293.26,1.46
1306.19,1.57
1319.25,1.68
1332.45,1.80
1345.77,1.91
1359.23,2.03
1372.82,2.14
1386.55,2.27
1400.41,2.40
1414.42,2.53
1428.56,2.67
1442.85,2.80
1457.28,2.91
1471.85,3.03
1486.57,3.12
1501.43,3.19
1516.45,3.27
1531.61,3.34
1546.93,3.40
1562.40,3.46
1578.02,3.53
1593.80,3.58
1609.74,3.63
1625.84,3.67
1642.10,3.72
1658.52,3.76
1675.10,3.80
1691.85,3.84
1708.77,3.87
1725.86,3.90
1743.12,3.93
1760.55,3.96
1778.15,3.97
1795.94,3.97
1813.90,3.97
1832.03,3.95
1850.36,3.93
1868.86,3.93
1887.55,3.93
1906.42,3.93
1925.49,3.95
1944.74,3.95
1964.19,3.95
1983.83,3.94
2003.67,3.94
2023.71,3.93
2043.94,3.92
2064.38,3.92
2085.03,3.91
2105.88,3.93
2126.94,3.96
2148.20,4.01
2169.69,4.06
2191.38,4.12
2213.30,4.18
2235.43,4.22
2257.78,4.26
2280.36,4.28
2303.17,4.28
2326.20,4.27
2349.46,4.25
2372.95,4.24
2396.68,4.26
2420.65,4.27
2444.86,4.29
2469.31,4.33
2494.00,4.37
2518.94,4.40
2544.13,4.44
2569.57,4.47
2595.27,4.48
2621.22,4.49
2647.43,4.49
2673.90,4.48
2700.64,4.47
2727.65,4.45
2754.93,4.45
2782.48,4.44
2810.30,4.44
2838.40,4.44
2866.79,4.42
2895.46,4.41
2924.41,4.39
2953.65,4.36
2983.19,4.33
3013.02,4.29
3043.15,4.25
3073.58,4.18
3104.32,4.09
3135.36,3.98
3166.72,3.81
3198.38,3.62
3230.37,3.40
3262.67,3.18
3295.30,2.95
3328.25,2.70
3361.53,2.46
3395.15,2.25
3429.10,2.05
3463.39,1.86
3498.03,1.69
3533.01,1.50
3568.34,1.32
3604.02,1.12
3640.06,0.92
3676.46,0.69
3713.22,0.44
3750.36,0.20
3787.86,-0.01
3825.74,-0.22
3864.00,-0.39
3902.64,-0.56
3941.66,-0.74
3981.08,-0.94
4020.89,-1.15
4061.10,-1.38
4101.71,-1.63
4142.73,-1.89
4184.15,-2.15
4226.00,-2.41
4268.26,-2.68
4310.94,-2.94
4354.05,-3.18
4397.59,-3.47
4441.56,-3.77
4485.98,-4.10
4530.84,-4.46
4576.15,-4.81
4621.91,-5.13
4668.13,-5.39
4714.81,-5.61
4761.96,-5.78
4809.58,-5.91
4857.67,-6.01
4906.25,-6.09
4955.31,-6.16
5004.87,-6.20
5054.91,-6.22
5105.46,-6.22
5156.52,-6.19
5208.08,-6.13
5260.16,-6.06
5312.77,-5.95
5365.89,-5.81
5419.55,-5.65
5473.75,-5.47
5528.49,-5.28
5583.77,-5.10
5639.61,-4.93
5696.00,-4.77
5752.96,-4.58
5810.49,-4.38
5868.60,-4.10
5927.28,-3.76
5986.56,-3.39
6046.42,-2.90
6106.89,-2.38
6167.96,-1.80
6229.64,-1.18
6291.93,-0.54
6354.85,0.12
6418.40,0.80
6482.58,1.46
6547.41,2.08
6612.88,2.59
6679.01,2.94
6745.80,3.16
6813.26,3.24
6881.39,3.11
6950.21,2.88
7019.71,2.60
7089.91,2.24
7160.81,1.88
7232.41,1.52
7304.74,1.18
7377.79,0.87
7451.56,0.61
7526.08,0.43
7601.34,0.33
7677.35,0.30
7754.13,0.35
7831.67,0.51
7909.98,0.75
7989.08,1.07
8068.98,1.52
8149.67,2.06
8231.16,2.64
8313.47,3.28
8396.61,3.88
8480.57,4.46
8565.38,4.99
8651.03,5.41
8737.54,5.69
8824.92,5.77
8913.17,5.68
9002.30,5.32
9092.32,4.52
9183.25,3.60
9275.08,2.71
9367.83,1.40
9461.51,0.05
9556.12,-1.08
9651.68,-2.03
9748.20,-2.80
9845.68,-3.47
9944.14,-4.05
10043.58,-4.51
10144.02,-4.87
10245.46,-5.17
10347.91,-5.42
10451.39,-5.67
10555.91,-5.87
10661.46,-6.01
10768.08,-6.18
10875.76,-6.37
10984.52,-6.57
11094.36,-6.67
11205.31,-6.58
11317.36,-6.19
11430.53,-5.45
11544.84,-5.04
11660.29,-4.83
11776.89,-4.09
11894.66,-3.69
12013.60,-3.70
12133.74,-3.65
12255.08,-4.00
12377.63,-4.56
12501.41,-5.15
12626.42,-5.69
12752.68,-6.14
12880.21,-6.47
13009.01,-6.56
13139.10,-6.46
13270.49,-6.15
13403.20,-5.60
13537.23,-4.99
13672.60,-4.39
13809.33,-3.89
13947.42,-3.35
14086.90,-2.76
14227.77,-2.10
14370.04,-1.37
14513.74,-0.64
14658.88,0.05
14805.47,0.46
14953.52,0.54
15103.06,0.26
15254.09,-0.64
15406.63,-2.01
15560.70,-3.67
15716.30,-5.53
15873.47,-7.28
16032.20,-8.82
16192.52,-9.99
16354.45,-10.63
16517.99,-10.89
16683.17,-10.83
16850.01,-10.60
17018.51,-10.45
17188.69,-10.48
17360.58,-10.99
17534.18,-11.86
17709.53,-12.96
17886.62,-14.15
18065.49,-15.13
18246.14,-15.83
18428.60,-16.09
18612.89,-15.93
18799.02,-15.51
18987.01,-14.87
19176.88,-14.19
19368.65,-13.58
19562.33,-13.12
19757.96,-13.05
19955.54,-13.34
