frequency,raw,smoothed,error,error_smoothed,equalization,parametric_eq,fixed_band_eq,equalized_raw,equalized_smoothed,target
20.00,-3.32,-3.32,-8.24,-8.23,6.00,6.62,2.71,2.68,2.68,4.91
20.20,-3.27,-3.27,-8.22,-8.22,6.00,6.61,2.79,2.73,2.73,4.94
20.40,-3.22,-3.23,-8.20,-8.20,6.00,6.59,2.87,2.78,2.77,4.97
20.61,-3.18,-3.18,-8.18,-8.18,6.00,6.57,2.95,2.82,2.82,4.99
20.81,-3.14,-3.14,-8.16,-8.16,6.00,6.55,3.03,2.86,2.86,5.02
21.02,-3.09,-3.09,-8.14,-8.14,6.00,6.53,3.12,2.91,2.91,5.05
21.23,-3.05,-3.05,-8.11,-8.11,6.00,6.52,3.21,2.95,2.95,5.06
21.44,-3.00,-3.01,-8.07,-8.08,6.00,6.50,3.30,3.00,2.99,5.07
21.66,-2.96,-2.96,-8.04,-8.04,6.00,6.48,3.40,3.04,3.04,5.08
21.87,-2.91,-2.91,-7.99,-7.99,6.00,6.46,3.50,3.09,3.09,5.08
22.09,-2.86,-2.86,-7.95,-7.95,6.00,6.44,3.60,3.14,3.14,5.09
22.31,-2.81,-2.81,-7.90,-7.90,6.00,6.41,3.70,3.19,3.19,5.09
22.54,-2.77,-2.77,-7.86,-7.86,6.00,6.39,3.81,3.23,3.23,5.09
22.76,-2.72,-2.73,-7.81,-7.81,6.00,6.37,3.92,3.28,3.27,5.09
22.99,-2.68,-2.68,-7.76,-7.76,6.00,6.35,4.03,3.32,3.32,5.08
23.22,-2.63,-2.63,-7.71,-7.71,6.00,6.33,4.14,3.37,3.37,5.08
23.45,-2.58,-2.59,-7.66,-7.66,6.00,6.30,4.26,3.42,3.41,5.08
23.69,-2.54,-2.54,-7.62,-7.61,6.00,6.28,4.38,3.46,3.46,5.07
23.92,-2.49,-2.49,-7.57,-7.57,6.00,6.26,4.50,3.51,3.51,5.07
24.16,-2.45,-2.45,-7.53,-7.53,6.00,6.23,4.62,3.55,3.55,5.08
24.40,-2.40,-2.40,-7.48,-7.48,6.00,6.21,4.75,3.60,3.60,5.08
24.65,-2.36,-2.36,-7.43,-7.43,6.00,6.18,4.88,3.64,3.64,5.07
24.89,-2.31,-2.32,-7.38,-7.39,6.00,6.16,5.01,3.69,3.68,5.07
25.14,-2.27,-2.27,-7.34,-7.34,6.00,6.13,5.14,3.73,3.73,5.07
25.39,-2.23,-2.23,-7.30,-7.30,6.00,6.11,5.27,3.77,3.77,5.07
25.65,-2.18,-2.19,-7.25,-7.25,6.00,6.08,5.40,3.82,3.81,5.07
25.91,-2.14,-2.14,-7.20,-7.20,6.00,6.05,5.53,3.86,3.86,5.06
26.16,-2.10,-2.10,-7.16,-7.15,6.00,6.02,5.67,3.90,3.90,5.06
26.43,-2.05,-2.06,-7.11,-7.11,6.00,6.00,5.80,3.95,3.94,5.05
26.69,-2.01,-2.01,-7.06,-7.07,6.00,5.97,5.93,3.99,3.99,5.05
26.96,-1.97,-1.97,-7.02,-7.03,6.00,5.94,6.06,4.03,4.03,5.05
27.23,-1.93,-1.93,-6.98,-6.98,6.00,5.91,6.18,4.07,4.07,5.05
27.50,-1.89,-1.89,-6.94,-6.94,6.00,5.88,6.31,4.11,4.11,5.05
27.77,-1.84,-1.85,-6.88,-6.89,6.00,5.85,6.42,4.16,4.15,5.04
28.05,-1.80,-1.80,-6.84,-6.84,6.00,5.81,6.54,4.20,4.20,5.04
28.33,-1.76,-1.76,-6.79,-6.79,6.00,5.78,6.64,4.24,4.24,5.02
28.62,-1.71,-1.72,-6.74,-6.74,6.00,5.75,6.74,4.29,4.28,5.02
28.90,-1.67,-1.67,-6.69,-6.69,6.00,5.71,6.83,4.33,4.33,5.02
29.19,-1.62,-1.62,-6.63,-6.64,6.00,5.68,6.92,4.38,4.38,5.01
29.48,-1.57,-1.57,-6.59,-6.59,6.00,5.65,6.99,4.43,4.43,5.02
29.78,-1.52,-1.52,-6.53,-6.53,6.00,5.61,7.05,4.48,4.48,5.01
30.08,-1.47,-1.47,-6.48,-6.48,6.00,5.57,7.10,4.53,4.53,5.00
30.38,-1.42,-1.42,-6.42,-6.42,6.00,5.54,7.14,4.58,4.58,4.99
30.68,-1.37,-1.37,-6.36,-6.36,6.00,5.50,7.16,4.63,4.63,4.99
30.99,-1.32,-1.32,-6.30,-6.30,6.01,5.46,7.18,4.68,4.68,4.98
31.30,-1.27,-1.28,-6.25,-6.25,6.01,5.42,7.17,4.74,4.73,4.98
31.61,-1.23,-1.23,-6.21,-6.20,6.01,5.39,7.16,4.78,4.78,4.97
31.93,-1.18,-1.18,-6.14,-6.14,6.01,5.35,7.13,4.82,4.82,4.96
32.24,-1.13,-1.14,-6.08,-6.09,6.00,5.30,7.09,4.87,4.86,4.95
32.57,-1.09,-1.09,-6.04,-6.03,5.98,5.26,7.04,4.89,4.89,4.95
32.89,-1.04,-1.04,-5.99,-5.98,5.95,5.22,6.97,4.91,4.91,4.94
33.22,-0.99,-0.99,-5.92,-5.93,5.92,5.18,6.89,4.92,4.92,4.93
33.55,-0.94,-0.94,-5.87,-5.87,5.87,5.13,6.81,4.93,4.93,4.93
33.89,-0.89,-0.89,-5.81,-5.81,5.82,5.09,6.71,4.93,4.93,4.92
34.23,-0.84,-0.84,-5.76,-5.75,5.76,5.05,6.61,4.92,4.92,4.91
34.57,-0.79,-0.79,-5.69,-5.69,5.69,5.00,6.49,4.90,4.90,4.90
34.92,-0.73,-0.74,-5.62,-5.63,5.63,4.95,6.37,4.89,4.89,4.89
35.27,-0.68,-0.68,-5.57,-5.56,5.56,4.91,6.25,4.88,4.88,4.88
35.62,-0.62,-0.62,-5.49,-5.49,5.50,4.86,6.12,4.87,4.87,4.87
35.97,-0.57,-0.57,-5.43,-5.43,5.43,4.81,5.98,4.86,4.86,4.86
36.33,-0.51,-0.51,-5.36,-5.36,5.36,4.76,5.84,4.85,4.85,4.85
36.70,-0.46,-0.46,-5.30,-5.30,5.30,4.71,5.70,4.83,4.84,4.84
37.06,-0.40,-0.40,-5.23,-5.23,5.23,4.66,5.56,4.83,4.83,4.82
37.43,-0.34,-0.34,-5.16,-5.16,5.16,4.60,5.41,4.82,4.82,4.82
37.81,-0.28,-0.28,-5.09,-5.09,5.09,4.55,5.26,4.81,4.81,4.81
38.19,-0.22,-0.22,-5.01,-5.02,5.02,4.49,5.12,4.79,4.79,4.79
38.57,-0.16,-0.16,-4.95,-4.94,4.94,4.44,4.97,4.78,4.78,4.79
38.95,-0.09,-0.10,-4.86,-4.87,4.87,4.38,4.83,4.77,4.77,4.77
39.34,-0.03,-0.03,-4.79,-4.79,4.79,4.33,4.68,4.76,4.76,4.76
39.74,0.04,0.04,-4.70,-4.71,4.71,4.27,4.54,4.74,4.75,4.74
40.14,0.11,0.11,-4.63,-4.62,4.62,4.21,4.40,4.73,4.73,4.74
40.54,0.19,0.18,-4.53,-4.54,4.54,4.15,4.26,4.73,4.72,4.72
40.94,0.26,0.26,-4.46,-4.45,4.45,4.09,4.12,4.71,4.71,4.71
41.35,0.34,0.34,-4.36,-4.36,4.36,4.03,3.98,4.70,4.70,4.70
41.76,0.43,0.42,-4.26,-4.27,4.27,3.96,3.85,4.70,4.69,4.69
42.18,0.51,0.51,-4.18,-4.17,4.17,3.90,3.72,4.68,4.68,4.69
42.60,0.60,0.60,-4.07,-4.07,4.07,3.83,3.59,4.67,4.67,4.67
43.03,0.69,0.69,-3.97,-3.97,3.97,3.77,3.46,4.66,4.65,4.66
43.46,0.78,0.78,-3.87,-3.86,3.86,3.70,3.34,4.64,4.64,4.64
43.90,0.87,0.87,-3.75,-3.75,3.75,3.63,3.22,4.62,4.62,4.62
44.33,0.96,0.96,-3.64,-3.64,3.64,3.56,3.10,4.60,4.60,4.60
44.78,1.06,1.05,-3.52,-3.53,3.53,3.49,2.98,4.59,4.58,4.58
45.23,1.15,1.15,-3.42,-3.41,3.42,3.42,2.86,4.56,4.57,4.56
45.68,1.25,1.25,-3.30,-3.30,3.30,3.35,2.75,4.55,4.55,4.54
46.13,1.34,1.34,-3.19,-3.19,3.19,3.28,2.64,4.53,4.53,4.53
46.60,1.44,1.44,-3.08,-3.08,3.08,3.20,2.53,4.52,4.52,4.52
47.06,1.53,1.53,-2.97,-2.97,2.96,3.13,2.42,4.49,4.49,4.50
47.53,1.63,1.62,-2.85,-2.86,2.85,3.05,2.32,4.48,4.47,4.48
48.01,1.72,1.72,-2.75,-2.74,2.73,2.97,2.22,4.45,4.45,4.47
48.49,1.82,1.82,-2.62,-2.62,2.61,2.89,2.12,4.43,4.43,4.44
48.97,1.92,1.91,-2.49,-2.49,2.49,2.81,2.02,4.41,4.41,4.40
49.46,2.01,2.01,-2.36,-2.36,2.37,2.73,1.93,4.38,4.38,4.37
49.96,2.10,2.10,-2.24,-2.25,2.25,2.65,1.83,4.35,4.35,4.34
50.46,2.20,2.19,-2.13,-2.13,2.13,2.56,1.74,4.33,4.33,4.33
50.96,2.29,2.29,-2.02,-2.01,2.02,2.48,1.65,4.30,4.30,4.31
51.47,2.38,2.38,-1.90,-1.90,1.90,2.39,1.56,4.28,4.28,4.27
51.99,2.47,2.47,-1.78,-1.79,1.79,2.31,1.47,4.25,4.25,4.25
52.51,2.56,2.55,-1.68,-1.68,1.68,2.22,1.39,4.23,4.23,4.24
53.03,2.64,2.64,-1.57,-1.57,1.56,2.13,1.31,4.20,4.21,4.21
53.56,2.73,2.73,-1.46,-1.46,1.46,2.04,1.22,4.18,4.18,4.19
54.10,2.82,2.81,-1.34,-1.35,1.35,1.95,1.14,4.16,4.16,4.16
54.64,2.90,2.90,-1.24,-1.24,1.24,1.86,1.06,4.14,4.14,4.14
55.18,2.98,2.98,-1.13,-1.13,1.13,1.76,0.99,4.11,4.11,4.11
55.74,3.06,3.06,-1.02,-1.03,1.03,1.67,0.91,4.09,4.09,4.08
56.29,3.13,3.13,-0.94,-0.93,0.93,1.57,0.84,4.06,4.06,4.06
56.86,3.21,3.21,-0.83,-0.83,0.83,1.48,0.77,4.04,4.04,4.04
57.42,3.28,3.28,-0.73,-0.73,0.74,1.38,0.69,4.01,4.01,4.01
58.00,3.35,3.35,-0.64,-0.64,0.64,1.28,0.62,3.99,3.99,3.99
58.58,3.42,3.42,-0.55,-0.55,0.55,1.18,0.56,3.97,3.97,3.97
59.16,3.49,3.48,-0.46,-0.46,0.46,1.08,0.49,3.95,3.94,3.95
59.76,3.55,3.55,-0.38,-0.38,0.37,0.98,0.42,3.92,3.92,3.93
60.35,3.61,3.61,-0.29,-0.29,0.28,0.88,0.36,3.89,3.89,3.89
60.96,3.68,3.67,-0.20,-0.19,0.19,0.78,0.30,3.87,3.86,3.87
61.57,3.73,3.73,-0.10,-0.10,0.10,0.68,0.23,3.83,3.83,3.83
62.18,3.79,3.79,-0.01,-0.01,0.01,0.57,0.17,3.80,3.80,3.80
62.80,3.85,3.84,0.08,0.08,-0.07,0.47,0.11,3.78,3.77,3.77
63.43,3.90,3.90,0.16,0.16,-0.16,0.37,0.06,3.74,3.74,3.74
64.07,3.95,3.95,0.24,0.24,-0.24,0.26,-0.00,3.71,3.71,3.71
64.71,4.01,4.00,0.32,0.32,-0.32,0.16,-0.06,3.69,3.68,3.68
65.35,4.06,4.05,0.40,0.40,-0.40,0.05,-0.11,3.66,3.65,3.66
66.01,4.10,4.10,0.47,0.48,-0.48,-0.06,-0.17,3.62,3.63,3.63
66.67,4.15,4.15,0.55,0.55,-0.55,-0.16,-0.22,3.60,3.60,3.60
67.33,4.20,4.19,0.63,0.62,-0.62,-0.27,-0.28,3.57,3.57,3.57
68.01,4.24,4.24,0.70,0.70,-0.70,-0.37,-0.33,3.54,3.54,3.54
68.69,4.28,4.28,0.77,0.77,-0.77,-0.48,-0.38,3.51,3.51,3.51
69.37,4.32,4.32,0.84,0.84,-0.84,-0.58,-0.43,3.47,3.47,3.48
70.07,4.36,4.36,0.92,0.91,-0.91,-0.69,-0.49,3.44,3.44,3.44
70.77,4.40,4.40,0.98,0.98,-0.99,-0.79,-0.54,3.41,3.41,3.42
71.48,4.44,4.44,1.05,1.05,-1.06,-0.90,-0.59,3.38,3.38,3.38
72.19,4.48,4.47,1.13,1.13,-1.12,-1.00,-0.64,3.35,3.35,3.35
72.91,4.51,4.51,1.19,1.19,-1.19,-1.10,-0.69,3.32,3.32,3.31
73.64,4.54,4.54,1.26,1.26,-1.26,-1.20,-0.75,3.28,3.28,3.28
74.38,4.57,4.57,1.32,1.32,-1.32,-1.30,-0.80,3.24,3.24,3.25
75.12,4.60,4.60,1.39,1.39,-1.39,-1.40,-0.85,3.21,3.21,3.21
75.87,4.63,4.63,1.45,1.45,-1.45,-1.50,-0.91,3.18,3.18,3.18
76.63,4.66,4.66,1.51,1.51,-1.51,-1.60,-0.96,3.15,3.15,3.15
77.40,4.69,4.68,1.57,1.57,-1.57,-1.70,-1.02,3.12,3.12,3.12
78.17,4.71,4.71,1.63,1.62,-1.62,-1.79,-1.08,3.08,3.08,3.08
78.95,4.73,4.73,1.67,1.68,-1.68,-1.88,-1.13,3.05,3.05,3.06
79.74,4.76,4.75,1.74,1.73,-1.74,-1.97,-1.19,3.02,3.02,3.02
80.54,4.78,4.78,1.79,1.79,-1.79,-2.06,-1.25,2.99,2.99,2.99
81.35,4.80,4.80,1.84,1.84,-1.84,-2.15,-1.31,2.95,2.96,2.95
82.16,4.82,4.82,1.90,1.90,-1.90,-2.23,-1.37,2.92,2.92,2.92
82.98,4.83,4.83,1.94,1.95,-1.95,-2.32,-1.44,2.88,2.88,2.89
83.81,4.85,4.85,2.00,2.00,-2.00,-2.40,-1.50,2.85,2.85,2.84
84.65,4.86,4.86,2.05,2.05,-2.05,-2.47,-1.57,2.81,2.81,2.81
85.50,4.88,4.88,2.10,2.10,-2.10,-2.55,-1.64,2.78,2.78,2.78
86.35,4.89,4.89,2.15,2.15,-2.15,-2.62,-1.71,2.74,2.74,2.74
87.22,4.90,4.90,2.20,2.20,-2.20,-2.69,-1.78,2.70,2.70,2.70
88.09,4.91,4.91,2.25,2.25,-2.25,-2.76,-1.85,2.66,2.66,2.66
88.97,4.92,4.92,2.29,2.29,-2.30,-2.83,-1.92,2.62,2.62,2.63
89.86,4.93,4.93,2.34,2.34,-2.34,-2.89,-2.00,2.58,2.58,2.59
90.76,4.93,4.93,2.39,2.39,-2.39,-2.95,-2.07,2.54,2.54,2.53
91.66,4.94,4.94,2.44,2.44,-2.44,-3.01,-2.15,2.50,2.50,2.50
92.58,4.94,4.94,2.49,2.49,-2.49,-3.06,-2.23,2.45,2.45,2.45
93.51,4.95,4.95,2.53,2.53,-2.53,-3.12,-2.31,2.41,2.41,2.41
94.44,4.95,4.95,2.58,2.58,-2.58,-3.16,-2.40,2.37,2.37,2.37
95.39,4.95,4.95,2.62,2.63,-2.63,-3.21,-2.48,2.32,2.32,2.33
96.34,4.95,4.95,2.68,2.67,-2.67,-3.26,-2.57,2.27,2.27,2.27
97.30,4.95,4.95,2.72,2.72,-2.72,-3.30,-2.65,2.23,2.23,2.23
98.28,4.95,4.95,2.77,2.77,-2.77,-3.34,-2.74,2.18,2.18,2.18
99.26,4.95,4.95,2.81,2.81,-2.81,-3.37,-2.83,2.13,2.13,2.13
100.25,4.95,4.95,2.86,2.86,-2.86,-3.41,-2.92,2.09,2.09,2.09
101.25,4.95,4.95,2.90,2.91,-2.91,-3.44,-3.01,2.04,2.04,2.04
102.27,4.95,4.95,2.95,2.95,-2.95,-3.47,-3.10,2.00,2.00,2.00
103.29,4.95,4.95,3.01,3.00,-2.99,-3.50,-3.18,1.95,1.95,1.94
104.32,4.94,4.94,3.03,3.04,-3.04,-3.52,-3.27,1.90,1.90,1.90
105.37,4.94,4.94,3.08,3.08,-3.08,-3.55,-3.36,1.86,1.86,1.86
106.42,4.93,4.93,3.12,3.12,-3.12,-3.57,-3.45,1.81,1.81,1.81
107.48,4.93,4.93,3.16,3.16,-3.16,-3.59,-3.54,1.76,1.76,1.77
108.56,4.92,4.92,3.21,3.20,-3.20,-3.60,-3.62,1.71,1.71,1.71
109.64,4.91,4.91,3.24,3.24,-3.24,-3.62,-3.70,1.67,1.67,1.66
110.74,4.90,4.90,3.28,3.28,-3.28,-3.63,-3.78,1.62,1.62,1.62
111.85,4.89,4.89,3.32,3.32,-3.32,-3.64,-3.86,1.57,1.56,1.57
112.97,4.87,4.87,3.36,3.36,-3.36,-3.65,-3.93,1.51,1.51,1.51
114.10,4.86,4.86,3.40,3.40,-3.40,-3.66,-4.00,1.46,1.46,1.46
115.24,4.84,4.84,3.43,3.44,-3.44,-3.67,-4.06,1.40,1.40,1.41
116.39,4.83,4.83,3.48,3.47,-3.47,-3.68,-4.12,1.36,1.35,1.35
117.55,4.81,4.81,3.51,3.51,-3.51,-3.68,-4.17,1.30,1.30,1.30
118.73,4.79,4.79,3.54,3.54,-3.54,-3.69,-4.22,1.25,1.25,1.24
119.92,4.77,4.77,3.57,3.57,-3.57,-3.69,-4.26,1.20,1.20,1.20
121.12,4.75,4.74,3.60,3.60,-3.60,-3.69,-4.30,1.15,1.15,1.15
122.33,4.72,4.72,3.62,3.62,-3.62,-3.69,-4.33,1.09,1.10,1.10
123.55,4.70,4.70,3.64,3.65,-3.65,-3.69,-4.35,1.05,1.05,1.05
124.79,4.68,4.67,3.68,3.67,-3.67,-3.69,-4.36,1.00,1.00,1.00
126.03,4.65,4.65,3.70,3.70,-3.70,-3.69,-4.37,0.95,0.95,0.95
127.29,4.62,4.62,3.72,3.72,-3.72,-3.68,-4.37,0.90,0.90,0.90
128.57,4.59,4.59,3.75,3.74,-3.74,-3.68,-4.36,0.85,0.85,0.84
129.85,4.56,4.56,3.76,3.76,-3.76,-3.68,-4.35,0.80,0.80,0.79
131.15,4.53,4.53,3.78,3.78,-3.78,-3.68,-4.33,0.75,0.75,0.75
132.46,4.50,4.50,3.80,3.80,-3.80,-3.67,-4.30,0.70,0.70,0.70
133.79,4.47,4.47,3.81,3.81,-3.81,-3.67,-4.27,0.65,0.66,0.66
135.12,4.44,4.44,3.83,3.82,-3.83,-3.66,-4.23,0.61,0.61,0.61
136.48,4.41,4.41,3.84,3.84,-3.84,-3.66,-4.19,0.57,0.57,0.57
137.84,4.37,4.37,3.84,3.85,-3.85,-3.65,-4.14,0.52,0.52,0.53
139.22,4.34,4.34,3.87,3.86,-3.86,-3.65,-4.09,0.48,0.48,0.47
140.61,4.30,4.30,3.87,3.86,-3.86,-3.64,-4.03,0.44,0.44,0.43
142.02,4.27,4.27,3.86,3.87,-3.86,-3.64,-3.98,0.40,0.40,0.41
143.44,4.23,4.23,3.86,3.87,-3.87,-3.64,-3.91,0.36,0.36,0.37
144.87,4.20,4.20,3.87,3.87,-3.87,-3.63,-3.85,0.33,0.33,0.33
146.32,4.16,4.16,3.87,3.87,-3.87,-3.63,-3.79,0.29,0.29,0.29
147.78,4.12,4.12,3.86,3.86,-3.87,-3.63,-3.72,0.25,0.25,0.26
149.26,4.08,4.08,3.86,3.86,-3.86,-3.62,-3.65,0.21,0.21,0.22
150.75,4.04,4.04,3.86,3.86,-3.86,-3.62,-3.59,0.18,0.18,0.17
152.26,4.00,4.00,3.86,3.86,-3.86,-3.62,-3.52,0.14,0.14,0.14
153.78,3.96,3.96,3.86,3.86,-3.86,-3.62,-3.45,0.10,0.10,0.10
155.32,3.92,3.92,3.86,3.86,-3.86,-3.62,-3.38,0.06,0.06,0.06
156.88,3.87,3.87,3.85,3.85,-3.85,-3.62,-3.32,0.02,0.02,0.02
158.44,3.83,3.83,3.85,3.85,-3.85,-3.62,-3.25,-0.02,-0.02,-0.02
160.03,3.78,3.78,3.84,3.84,-3.84,-3.62,-3.19,-0.06,-0.06,-0.06
161.63,3.73,3.73,3.83,3.83,-3.83,-3.62,-3.12,-0.10,-0.10,-0.10
163.24,3.68,3.68,3.82,3.82,-3.82,-3.63,-3.06,-0.14,-0.14,-0.15
164.88,3.63,3.63,3.80,3.81,-3.81,-3.63,-3.00,-0.18,-0.18,-0.17
166.53,3.58,3.58,3.79,3.79,-3.79,-3.63,-2.94,-0.22,-0.22,-0.21
168.19,3.53,3.53,3.78,3.78,-3.78,-3.64,-2.89,-0.25,-0.25,-0.25
169.87,3.48,3.47,3.77,3.76,-3.76,-3.64,-2.83,-0.28,-0.29,-0.29
171.57,3.42,3.42,3.74,3.74,-3.74,-3.64,-2.78,-0.33,-0.33,-0.33
173.29,3.36,3.36,3.72,3.72,-3.72,-3.65,-2.73,-0.37,-0.37,-0.36
175.02,3.30,3.30,3.70,3.70,-3.70,-3.65,-2.68,-0.41,-0.41,-0.40
176.77,3.24,3.24,3.68,3.68,-3.68,-3.65,-2.64,-0.45,-0.45,-0.44
178.54,3.18,3.18,3.66,3.66,-3.66,-3.65,-2.60,-0.48,-0.48,-0.49
180.32,3.12,3.12,3.64,3.64,-3.64,-3.65,-2.55,-0.52,-0.52,-0.52
182.13,3.06,3.06,3.61,3.61,-3.61,-3.65,-2.51,-0.55,-0.56,-0.55
183.95,2.99,2.99,3.58,3.58,-3.58,-3.64,-2.48,-0.60,-0.59,-0.60
185.79,2.93,2.92,3.55,3.55,-3.55,-3.63,-2.44,-0.63,-0.63,-0.63
187.65,2.86,2.86,3.53,3.52,-3.52,-3.62,-2.41,-0.66,-0.66,-0.67
189.52,2.79,2.79,3.48,3.49,-3.49,-3.60,-2.38,-0.70,-0.70,-0.70
191.42,2.73,2.72,3.45,3.45,-3.45,-3.59,-2.35,-0.72,-0.73,-0.73
193.33,2.66,2.66,3.41,3.41,-3.41,-3.56,-2.32,-0.76,-0.76,-0.76
195.27,2.59,2.59,3.37,3.37,-3.37,-3.53,-2.29,-0.79,-0.79,-0.78
197.22,2.52,2.52,3.33,3.33,-3.33,-3.50,-2.27,-0.81,-0.82,-0.81
199.19,2.45,2.45,3.30,3.29,-3.29,-3.46,-2.24,-0.84,-0.84,-0.85
201.18,2.38,2.38,3.24,3.24,-3.24,-3.42,-2.22,-0.87,-0.87,-0.87
203.19,2.31,2.31,3.19,3.20,-3.20,-3.37,-2.20,-0.89,-0.89,-0.88
205.23,2.25,2.25,3.15,3.15,-3.15,-3.31,-2.18,-0.90,-0.90,-0.91
207.28,2.18,2.18,3.09,3.10,-3.09,-3.26,-2.17,-0.92,-0.92,-0.91
209.35,2.11,2.11,3.04,3.04,-3.04,-3.19,-2.15,-0.93,-0.93,-0.94
211.44,2.03,2.03,2.99,2.98,-2.98,-3.12,-2.13,-0.96,-0.95,-0.96
213.56,1.96,1.96,2.92,2.92,-2.93,-3.05,-2.12,-0.97,-0.97,-0.96
215.69,1.89,1.89,2.86,2.86,-2.86,-2.98,-2.10,-0.98,-0.98,-0.97
217.85,1.82,1.82,2.80,2.80,-2.80,-2.90,-2.09,-0.98,-0.98,-0.98
220.03,1.75,1.75,2.74,2.74,-2.74,-2.82,-2.07,-0.99,-0.99,-0.99
222.23,1.68,1.68,2.68,2.68,-2.67,-2.73,-2.06,-0.99,-0.99,-1.00
224.45,1.61,1.61,2.60,2.61,-2.60,-2.65,-2.05,-1.00,-1.00,-1.00
226.70,1.54,1.54,2.54,2.54,-2.54,-2.56,-2.03,-1.00,-1.00,-1.00
228.96,1.47,1.47,2.47,2.46,-2.47,-2.47,-2.01,-1.00,-1.00,-1.00
231.25,1.40,1.40,2.39,2.39,-2.40,-2.39,-2.00,-1.00,-1.00,-0.99
233.57,1.33,1.33,2.32,2.32,-2.32,-2.30,-1.98,-1.00,-0.99,-0.99
235.90,1.27,1.26,2.26,2.25,-2.25,-2.21,-1.96,-0.98,-0.99,-0.99
238.26,1.20,1.20,2.19,2.18,-2.18,-2.12,-1.95,-0.98,-0.98,-0.99
240.64,1.14,1.13,2.11,2.11,-2.11,-2.04,-1.92,-0.97,-0.97,-0.98
243.05,1.07,1.07,2.03,2.04,-2.04,-1.95,-1.90,-0.97,-0.97,-0.97
245.48,1.01,1.01,1.96,1.96,-1.97,-1.86,-1.88,-0.96,-0.96,-0.95
247.93,0.95,0.95,1.89,1.89,-1.89,-1.78,-1.86,-0.94,-0.95,-0.94
250.41,0.89,0.89,1.83,1.82,-1.82,-1.70,-1.83,-0.93,-0.93,-0.94
252.92,0.83,0.83,1.75,1.74,-1.74,-1.61,-1.80,-0.91,-0.91,-0.92
255.45,0.77,0.77,1.66,1.67,-1.67,-1.53,-1.77,-0.90,-0.90,-0.89
258.00,0.71,0.71,1.59,1.59,-1.59,-1.45,-1.74,-0.88,-0.88,-0.88
260.58,0.65,0.65,1.52,1.51,-1.51,-1.38,-1.71,-0.87,-0.87,-0.87
263.19,0.59,0.59,1.43,1.44,-1.44,-1.30,-1.68,-0.85,-0.85,-0.85
265.82,0.53,0.53,1.36,1.36,-1.36,-1.22,-1.64,-0.83,-0.83,-0.83
268.48,0.48,0.47,1.29,1.28,-1.28,-1.15,-1.60,-0.80,-0.81,-0.81
271.16,0.42,0.42,1.20,1.21,-1.21,-1.08,-1.56,-0.79,-0.79,-0.78
273.87,0.37,0.36,1.14,1.13,-1.13,-1.01,-1.53,-0.77,-0.77,-0.77
276.61,0.31,0.31,1.05,1.06,-1.06,-0.94,-1.48,-0.75,-0.75,-0.74
279.38,0.26,0.26,0.99,0.99,-0.99,-0.87,-1.44,-0.73,-0.73,-0.73
282.17,0.21,0.21,0.92,0.92,-0.92,-0.80,-1.40,-0.71,-0.71,-0.71
284.99,0.16,0.16,0.85,0.85,-0.85,-0.74,-1.36,-0.69,-0.69,-0.69
287.84,0.11,0.11,0.78,0.78,-0.78,-0.67,-1.31,-0.67,-0.67,-0.67
290.72,0.06,0.06,0.71,0.71,-0.71,-0.61,-1.27,-0.66,-0.65,-0.65
293.63,0.02,0.01,0.65,0.64,-0.65,-0.55,-1.22,-0.63,-0.63,-0.63
296.57,-0.03,-0.03,0.58,0.58,-0.58,-0.49,-1.18,-0.62,-0.61,-0.61
299.53,-0.07,-0.07,0.52,0.52,-0.52,-0.43,-1.13,-0.59,-0.59,-0.59
302.53,-0.11,-0.11,0.46,0.46,-0.45,-0.37,-1.08,-0.56,-0.57,-0.58
305.55,-0.15,-0.15,0.39,0.40,-0.39,-0.31,-1.04,-0.54,-0.54,-0.54
308.61,-0.19,-0.19,0.33,0.33,-0.32,-0.26,-0.99,-0.52,-0.52,-0.52
311.69,-0.23,-0.23,0.26,0.26,-0.26,-0.21,-0.94,-0.49,-0.49,-0.50
314.81,-0.27,-0.27,0.19,0.19,-0.20,-0.15,-0.90,-0.47,-0.47,-0.46
317.96,-0.31,-0.31,0.13,0.13,-0.14,-0.10,-0.85,-0.45,-0.45,-0.44
321.14,-0.35,-0.35,0.07,0.07,-0.08,-0.06,-0.80,-0.43,-0.43,-0.43
324.35,-0.38,-0.39,0.03,0.02,-0.02,-0.01,-0.76,-0.40,-0.41,-0.41
327.59,-0.42,-0.42,-0.04,-0.03,0.04,0.04,-0.71,-0.39,-0.38,-0.38
330.87,-0.45,-0.45,-0.09,-0.09,0.09,0.08,-0.67,-0.36,-0.36,-0.37
334.18,-0.49,-0.49,-0.14,-0.14,0.15,0.13,-0.62,-0.35,-0.34,-0.35
337.52,-0.52,-0.53,-0.19,-0.20,0.20,0.17,-0.58,-0.32,-0.33,-0.33
340.90,-0.56,-0.56,-0.26,-0.25,0.25,0.21,-0.53,-0.31,-0.31,-0.30
344.30,-0.59,-0.59,-0.31,-0.31,0.31,0.25,-0.49,-0.29,-0.29,-0.29
347.75,-0.62,-0.62,-0.35,-0.36,0.36,0.29,-0.44,-0.27,-0.27,-0.27
351.23,-0.65,-0.65,-0.40,-0.40,0.40,0.32,-0.40,-0.25,-0.25,-0.25
354.74,-0.68,-0.68,-0.45,-0.45,0.45,0.36,-0.35,-0.24,-0.23,-0.23
358.28,-0.70,-0.71,-0.49,-0.49,0.49,0.39,-0.31,-0.21,-0.22,-0.21
361.87,-0.73,-0.73,-0.54,-0.53,0.53,0.43,-0.27,-0.21,-0.20,-0.20
365.49,-0.75,-0.75,-0.56,-0.56,0.56,0.46,-0.22,-0.19,-0.19,-0.19
369.14,-0.76,-0.77,-0.58,-0.59,0.59,0.49,-0.18,-0.17,-0.17,-0.18
372.83,-0.78,-0.78,-0.62,-0.62,0.62,0.51,-0.14,-0.16,-0.16,-0.16
376.56,-0.79,-0.79,-0.64,-0.64,0.65,0.54,-0.10,-0.15,-0.14,-0.15
380.33,-0.80,-0.80,-0.68,-0.67,0.67,0.56,-0.05,-0.13,-0.13,-0.13
384.13,-0.81,-0.81,-0.69,-0.69,0.69,0.59,-0.01,-0.12,-0.12,-0.12
387.97,-0.82,-0.82,-0.71,-0.71,0.71,0.61,0.03,-0.11,-0.11,-0.11
391.85,-0.82,-0.82,-0.72,-0.73,0.73,0.63,0.07,-0.10,-0.10,-0.10
395.77,-0.82,-0.82,-0.74,-0.74,0.74,0.65,0.11,-0.08,-0.08,-0.08
399.73,-0.82,-0.82,-0.75,-0.75,0.75,0.67,0.15,-0.07,-0.07,-0.07
403.72,-0.82,-0.82,-0.76,-0.76,0.76,0.68,0.19,-0.06,-0.06,-0.06
407.76,-0.82,-0.82,-0.77,-0.77,0.77,0.70,0.23,-0.06,-0.05,-0.06
411.84,-0.81,-0.81,-0.78,-0.77,0.77,0.71,0.27,-0.04,-0.04,-0.04
415.96,-0.80,-0.80,-0.77,-0.77,0.77,0.73,0.31,-0.03,-0.03,-0.03
420.12,-0.79,-0.79,-0.77,-0.77,0.77,0.74,0.35,-0.02,-0.02,-0.02
424.32,-0.77,-0.78,-0.76,-0.77,0.76,0.75,0.39,-0.01,-0.01,-0.01
428.56,-0.76,-0.76,-0.76,-0.76,0.76,0.76,0.42,-0.01,-0.00,-0.00
432.85,-0.74,-0.74,-0.75,-0.75,0.75,0.77,0.46,0.01,0.01,0.01
437.18,-0.72,-0.72,-0.74,-0.74,0.74,0.78,0.50,0.02,0.02,0.02
441.55,-0.69,-0.70,-0.73,-0.73,0.73,0.78,0.53,0.04,0.03,0.04
445.96,-0.67,-0.67,-0.72,-0.72,0.72,0.79,0.57,0.05,0.05,0.04
450.42,-0.65,-0.65,-0.71,-0.71,0.71,0.79,0.60,0.06,0.06,0.05
454.93,-0.63,-0.63,-0.70,-0.70,0.71,0.79,0.63,0.07,0.07,0.07
459.48,-0.61,-0.62,-0.69,-0.70,0.70,0.80,0.66,0.09,0.09,0.08
464.07,-0.60,-0.60,-0.70,-0.70,0.70,0.80,0.69,0.10,0.10,0.10
468.71,-0.58,-0.58,-0.70,-0.70,0.70,0.80,0.72,0.11,0.11,0.12
473.40,-0.56,-0.56,-0.69,-0.70,0.69,0.80,0.75,0.13,0.13,0.13
478.13,-0.54,-0.55,-0.69,-0.69,0.69,0.80,0.78,0.15,0.15,0.15
482.91,-0.53,-0.53,-0.69,-0.69,0.69,0.80,0.80,0.16,0.16,0.16
487.74,-0.51,-0.51,-0.69,-0.69,0.69,0.80,0.82,0.18,0.18,0.18
492.62,-0.49,-0.50,-0.69,-0.69,0.69,0.80,0.85,0.19,0.19,0.20
497.55,-0.48,-0.48,-0.69,-0.69,0.68,0.80,0.87,0.20,0.20,0.21
502.52,-0.45,-0.46,-0.68,-0.68,0.67,0.79,0.89,0.22,0.22,0.23
507.55,-0.43,-0.43,-0.67,-0.67,0.66,0.79,0.91,0.23,0.23,0.23
512.62,-0.40,-0.40,-0.66,-0.66,0.65,0.79,0.92,0.24,0.24,0.25
