frequency,raw,error,smoothed,error_smoothed,equalization,parametric_eq,equalized_raw,equalized_smoothed,target
20,-18.62,-20.36,-18.62,-20.37,6.00,5.34,-12.62,-12.62,1.74
21,-17.10,-18.84,-17.06,-18.81,6.00,5.73,-11.10,-11.06,1.74
22,-15.53,-17.27,-15.55,-17.29,6.00,6.09,-9.53,-9.55,1.74
23,-14.08,-15.82,-14.08,-15.82,6.00,6.36,-8.08,-8.08,1.74
24,-12.61,-14.34,-12.66,-14.39,6.00,6.54,-6.61,-6.66,1.74
25,-11.29,-13.02,-11.28,-13.02,6.00,6.58,-5.29,-5.28,1.73
26,-9.95,-11.68,-9.96,-11.69,6.00,6.47,-3.95,-3.96,1.73
27,-8.66,-10.38,-8.67,-10.40,6.00,6.21,-2.66,-2.67,1.73
28,-7.42,-9.14,-7.43,-9.15,6.00,5.79,-1.42,-1.43,1.72
29,-6.22,-7.94,-6.22,-7.94,5.81,5.23,-0.41,-0.41,1.72
30,-5.07,-6.78,-5.05,-6.76,5.42,4.56,0.35,0.37,1.71
31,-3.95,-5.66,-3.90,-5.61,4.84,3.81,0.89,0.94,1.71
32,-2.79,-4.49,-2.78,-4.48,4.12,3.00,1.33,1.34,1.70
33,-1.70,-3.39,-1.68,-3.38,3.27,2.15,1.57,1.58,1.70
34,-0.63,-2.32,-0.61,-2.30,2.30,1.28,1.67,1.69,1.69
35,0.42,-1.26,0.44,-1.24,1.24,0.40,1.67,1.68,1.68
36,1.40,-0.27,1.45,-0.22,0.22,-0.48,1.62,1.67,1.67
37,2.40,0.74,2.43,0.76,-0.76,-1.35,1.64,1.66,1.66
38,3.33,1.68,3.36,1.70,-1.70,-2.19,1.63,1.65,1.65
39,4.24,2.60,4.23,2.59,-2.59,-3.01,1.66,1.64,1.64
40,5.07,3.44,5.03,3.40,-3.40,-3.78,1.67,1.63,1.63
41,5.77,4.15,5.76,4.14,-4.14,-4.50,1.64,1.62,1.62
42,6.46,4.85,6.40,4.78,-4.78,-5.16,1.68,1.61,1.61
43,6.98,5.38,6.94,5.34,-5.34,-5.73,1.64,1.60,1.60
44,7.42,5.84,7.38,5.79,-5.79,-6.21,1.63,1.58,1.58
45,7.78,6.21,7.72,6.15,-6.15,-6.59,1.63,1.57,1.57
46,7.98,6.43,7.97,6.42,-6.42,-6.87,1.56,1.55,1.55
47,8.16,6.62,8.14,6.60,-6.60,-7.05,1.56,1.54,1.54
48,8.22,6.70,8.22,6.70,-6.70,-7.13,1.52,1.52,1.52
49,8.22,6.72,8.24,6.74,-6.74,-7.13,1.48,1.50,1.50
50,8.21,6.73,8.20,6.72,-6.72,-7.07,1.49,1.48,1.48
51,8.07,6.61,8.12,6.66,-6.66,-6.95,1.41,1.46,1.46
52,8.01,6.57,8.01,6.56,-6.56,-6.80,1.45,1.44,1.44
53,7.89,6.47,7.87,6.45,-6.45,-6.61,1.44,1.42,1.42
54,7.66,6.26,7.71,6.31,-6.31,-6.41,1.35,1.40,1.40
55,7.50,6.13,7.55,6.17,-6.17,-6.20,1.33,1.38,1.38
56,7.33,5.98,7.37,6.02,-6.02,-5.99,1.32,1.35,1.35
57,7.11,5.79,7.18,5.86,-5.86,-5.77,1.26,1.33,1.33
58,6.97,5.67,6.99,5.69,-5.69,-5.55,1.29,1.30,1.30
59,6.93,5.66,6.78,5.51,-5.51,-5.34,1.42,1.27,1.27
60,6.67,5.43,6.57,5.32,-5.32,-5.14,1.35,1.24,1.24
61,6.28,5.07,6.35,5.13,-5.13,-4.94,1.15,1.22,1.22
62,6.10,4.92,6.12,4.94,-4.94,-4.75,1.16,1.19,1.19
63,5.87,4.72,5.90,4.75,-4.75,-4.57,1.12,1.16,1.16
64,5.63,4.51,5.69,4.56,-4.56,-4.39,1.07,1.12,1.12
65,5.47,4.38,5.48,4.39,-4.39,-4.22,1.09,1.09,1.09
66,5.24,4.18,5.28,4.22,-4.22,-4.06,1.02,1.06,1.06
67,5.10,4.08,5.09,4.06,-4.06,-3.91,1.04,1.02,1.02
68,4.93,3.94,4.90,3.91,-3.91,-3.76,1.02,0.99,0.99
69,4.71,3.76,4.72,3.77,-3.77,-3.62,0.95,0.95,0.95
70,4.58,3.66,4.54,3.62,-3.62,-3.49,0.96,0.92,0.92
71,4.38,3.50,4.37,3.49,-3.49,-3.36,0.90,0.88,0.88
72,4.19,3.35,4.19,3.35,-3.35,-3.24,0.84,0.84,0.84
73,3.99,3.19,4.02,3.22,-3.22,-3.12,0.77,0.81,0.81
74,3.86,3.09,3.86,3.09,-3.09,-3.01,0.77,0.77,0.77
75,3.69,2.96,3.70,2.97,-2.97,-2.90,0.73,0.73,0.73
76,3.51,2.82,3.54,2.85,-2.85,-2.80,0.66,0.69,0.69
77,3.38,2.73,3.38,2.73,-2.73,-2.70,0.65,0.65,0.65
78,3.24,2.63,3.24,2.62,-2.62,-2.61,0.62,0.61,0.61
79,3.13,2.56,3.09,2.52,-2.52,-2.52,0.61,0.57,0.57
80,2.96,2.43,2.94,2.41,-2.41,-2.43,0.55,0.53,0.53
81,2.79,2.30,2.80,2.32,-2.32,-2.35,0.48,0.49,0.49
82,2.67,2.22,2.67,2.22,-2.22,-2.27,0.45,0.45,0.45
83,2.50,2.10,2.54,2.13,-2.13,-2.19,0.37,0.41,0.41
84,2.42,2.06,2.41,2.05,-2.05,-2.12,0.37,0.36,0.36
85,2.28,1.96,2.29,1.97,-1.97,-2.05,0.31,0.32,0.32
86,2.16,1.88,2.18,1.90,-1.90,-1.98,0.26,0.28,0.28
87,2.08,1.84,2.08,1.84,-1.84,-1.91,0.24,0.24,0.24
88,2.01,1.81,1.99,1.79,-1.79,-1.85,0.22,0.20,0.20
89,1.93,1.78,1.90,1.74,-1.74,-1.79,0.19,0.16,0.16
90,1.77,1.66,1.81,1.70,-1.70,-1.73,0.07,0.12,0.12
91,1.73,1.66,1.73,1.66,-1.66,-1.67,0.07,0.07,0.07
92,1.65,1.62,1.65,1.62,-1.62,-1.61,0.03,0.03,0.03
93,1.56,1.57,1.58,1.59,-1.59,-1.56,-0.03,-0.01,-0.01
94,1.51,1.56,1.51,1.55,-1.55,-1.51,-0.04,-0.05,-0.05
95,1.47,1.56,1.43,1.52,-1.52,-1.46,-0.05,-0.09,-0.09
96,1.39,1.52,1.36,1.49,-1.49,-1.41,-0.10,-0.13,-0.13
97,1.26,1.43,1.29,1.46,-1.46,-1.36,-0.20,-0.17,-0.17
98,1.19,1.40,1.22,1.43,-1.43,-1.31,-0.24,-0.21,-0.21
99,1.15,1.40,1.15,1.40,-1.40,-1.27,-0.25,-0.25,-0.25
100,1.09,1.38,1.08,1.37,-1.37,-1.22,-0.28,-0.29,-0.29
101,1.01,1.34,1.01,1.35,-1.35,-1.18,-0.33,-0.33,-0.32
102,0.96,1.32,0.94,1.32,-1.32,-1.14,-0.36,-0.38,-0.36
104,0.89,1.33,0.87,1.29,-1.29,-1.06,-0.40,-0.42,-0.44
105,0.81,1.28,0.81,1.27,-1.27,-1.02,-0.46,-0.46,-0.47
106,0.71,1.22,0.74,1.25,-1.25,-0.98,-0.53,-0.50,-0.51
107,0.64,1.19,0.68,1.22,-1.22,-0.95,-0.58,-0.54,-0.54
108,0.61,1.19,0.62,1.20,-1.20,-0.91,-0.58,-0.58,-0.58
109,0.57,1.19,0.56,1.17,-1.17,-0.88,-0.60,-0.61,-0.61
110,0.51,1.16,0.49,1.14,-1.14,-0.84,-0.63,-0.65,-0.65
111,0.44,1.12,0.43,1.11,-1.11,-0.81,-0.67,-0.68,-0.68
112,0.37,1.09,0.37,1.08,-1.08,-0.78,-0.71,-0.72,-0.71
113,0.30,1.05,0.30,1.05,-1.05,-0.74,-0.75,-0.75,-0.75
114,0.22,1.00,0.23,1.02,-1.02,-0.71,-0.79,-0.78,-0.78
115,0.15,0.96,0.16,0.98,-0.98,-0.68,-0.83,-0.82,-0.81
117,0.08,0.95,0.08,0.94,-0.94,-0.62,-0.85,-0.85,-0.87
118,0.04,0.94,0.00,0.89,-0.89,-0.59,-0.85,-0.89,-0.90
119,-0.08,0.85,-0.08,0.85,-0.85,-0.56,-0.93,-0.93,-0.93
120,-0.19,0.77,-0.16,0.80,-0.80,-0.53,-0.99,-0.96,-0.96
121,-0.24,0.74,-0.24,0.75,-0.75,-0.51,-0.99,-0.99,-0.98
123,-0.33,0.71,-0.32,0.70,-0.70,-0.45,-1.03,-1.03,-1.04
124,-0.41,0.65,-0.40,0.65,-0.65,-0.43,-1.06,-1.06,-1.06
125,-0.49,0.60,-0.48,0.61,-0.61,-0.40,-1.09,-1.09,-1.09
126,-0.56,0.56,-0.56,0.56,-0.56,-0.37,-1.12,-1.12,-1.11
128,-0.66,0.50,-0.64,0.51,-0.51,-0.32,-1.17,-1.15,-1.16
129,-0.72,0.47,-0.72,0.46,-0.46,-0.30,-1.18,-1.18,-1.19
130,-0.78,0.43,-0.80,0.41,-0.41,-0.27,-1.19,-1.21,-1.21
131,-0.85,0.38,-0.88,0.36,-0.36,-0.25,-1.21,-1.24,-1.23
133,-1.00,0.28,-0.96,0.31,-0.31,-0.20,-1.31,-1.27,-1.27
134,-1.05,0.25,-1.03,0.26,-0.26,-0.18,-1.31,-1.30,-1.30
135,-1.09,0.23,-1.11,0.21,-0.21,-0.16,-1.30,-1.32,-1.32
137,-1.18,0.18,-1.19,0.16,-0.16,-0.11,-1.34,-1.35,-1.36
138,-1.30,0.08,-1.27,0.10,-0.10,-0.09,-1.40,-1.38,-1.38
140,-1.38,0.03,-1.35,0.05,-0.05,-0.04,-1.43,-1.40,-1.41
141,-1.42,0.01,-1.43,-0.00,0.00,-0.02,-1.42,-1.43,-1.43
142,-1.46,-0.01,-1.51,-0.06,0.06,0.00,-1.40,-1.45,-1.45
144,-1.62,-0.14,-1.59,-0.11,0.11,0.04,-1.50,-1.48,-1.48
145,-1.71,-0.21,-1.67,-0.17,0.17,0.06,-1.54,-1.50,-1.50
147,-1.75,-0.22,-1.75,-0.23,0.23,0.11,-1.52,-1.53,-1.53
148,-1.79,-0.24,-1.83,-0.28,0.28,0.13,-1.50,-1.55,-1.55
150,-1.93,-0.35,-1.91,-0.34,0.34,0.17,-1.59,-1.57,-1.57
151,-2.01,-0.42,-1.99,-0.39,0.39,0.19,-1.61,-1.59,-1.59
153,-2.07,-0.45,-2.06,-0.45,0.45,0.23,-1.62,-1.61,-1.62
154,-2.13,-0.50,-2.14,-0.50,0.50,0.25,-1.62,-1.63,-1.63
156,-2.22,-0.56,-2.21,-0.56,0.56,0.29,-1.66,-1.65,-1.65
157,-2.26,-0.59,-2.28,-0.61,0.61,0.31,-1.65,-1.67,-1.67
159,-2.35,-0.66,-2.36,-0.67,0.67,0.35,-1.68,-1.69,-1.69
160,-2.42,-0.72,-2.43,-0.72,0.72,0.37,-1.69,-1.71,-1.70
162,-2.55,-0.82,-2.50,-0.78,0.78,0.41,-1.77,-1.72,-1.72
164,-2.59,-0.84,-2.58,-0.84,0.84,0.45,-1.75,-1.74,-1.75
165,-2.62,-0.86,-2.65,-0.90,0.90,0.47,-1.72,-1.76,-1.76
167,-2.69,-0.91,-2.73,-0.95,0.95,0.51,-1.74,-1.77,-1.78
169,-2.84,-1.04,-2.80,-1.01,1.01,0.55,-1.83,-1.79,-1.79
170,-2.90,-1.10,-2.87,-1.06,1.06,0.57,-1.83,-1.81,-1.80
172,-2.95,-1.13,-2.94,-1.12,1.12,0.60,-1.83,-1.82,-1.82
174,-3.01,-1.17,-3.01,-1.18,1.18,0.64,-1.83,-1.83,-1.84
175,-3.05,-1.20,-3.08,-1.23,1.23,0.66,-1.82,-1.85,-1.85
177,-3.13,-1.27,-3.15,-1.29,1.29,0.70,-1.84,-1.86,-1.86
179,-3.23,-1.35,-3.22,-1.34,1.34,0.74,-1.89,-1.87,-1.88
181,-3.29,-1.40,-3.28,-1.39,1.39,0.78,-1.89,-1.89,-1.89
183,-3.35,-1.44,-3.35,-1.45,1.45,0.82,-1.90,-1.90,-1.90
184,-3.41,-1.50,-3.41,-1.50,1.50,0.84,-1.91,-1.91,-1.91
186,-3.51,-1.59,-3.48,-1.55,1.55,0.87,-1.95,-1.92,-1.92
188,-3.55,-1.61,-3.54,-1.60,1.60,0.91,-1.94,-1.93,-1.93
190,-3.59,-1.64,-3.60,-1.65,1.65,0.95,-1.93,-1.95,-1.95
192,-3.65,-1.69,-3.66,-1.70,1.70,0.99,-1.94,-1.96,-1.96
194,-3.74,-1.77,-3.72,-1.76,1.76,1.03,-1.98,-1.97,-1.97
196,-3.77,-1.79,-3.79,-1.81,1.81,1.07,-1.96,-1.98,-1.98
198,-3.82,-1.83,-3.85,-1.87,1.87,1.11,-1.95,-1.99,-1.99
200,-3.93,-1.93,-3.92,-1.93,1.93,1.15,-2.00,-2.00,-2.00
202,-4.02,-2.01,-3.99,-1.99,1.99,1.19,-2.03,-2.01,-2.01
204,-4.08,-2.06,-4.06,-2.05,2.05,1.23,-2.03,-2.01,-2.01
206,-4.12,-2.10,-4.13,-2.10,2.10,1.27,-2.01,-2.02,-2.02
208,-4.18,-2.15,-4.19,-2.16,2.16,1.31,-2.02,-2.03,-2.03
210,-4.26,-2.22,-4.26,-2.22,2.22,1.35,-2.04,-2.04,-2.04
212,-4.34,-2.29,-4.32,-2.27,2.27,1.39,-2.06,-2.04,-2.04
214,-4.39,-2.34,-4.38,-2.33,2.33,1.43,-2.06,-2.05,-2.05
216,-4.42,-2.36,-4.44,-2.38,2.38,1.47,-2.04,-2.06,-2.06
218,-4.45,-2.38,-4.50,-2.43,2.43,1.51,-2.02,-2.06,-2.06
221,-4.60,-2.53,-4.56,-2.48,2.48,1.57,-2.11,-2.07,-2.07
223,-4.64,-2.56,-4.61,-2.54,2.54,1.61,-2.10,-2.08,-2.08
225,-4.66,-2.57,-4.67,-2.59,2.59,1.65,-2.07,-2.08,-2.08
227,-4.69,-2.60,-4.72,-2.63,2.63,1.70,-2.05,-2.09,-2.09
229,-4.78,-2.68,-4.78,-2.68,2.68,1.74,-2.10,-2.10,-2.09
232,-4.87,-2.77,-4.82,-2.72,2.72,1.80,-2.14,-2.10,-2.10
234,-4.88,-2.77,-4.87,-2.76,2.76,1.84,-2.11,-2.11,-2.11
236,-4.90,-2.79,-4.91,-2.80,2.80,1.89,-2.10,-2.11,-2.11
239,-4.94,-2.82,-4.95,-2.84,2.84,1.95,-2.10,-2.12,-2.12
241,-4.99,-2.87,-4.99,-2.87,2.87,1.99,-2.12,-2.12,-2.12
244,-5.04,-2.91,-5.03,-2.90,2.90,2.06,-2.13,-2.13,-2.13
246,-5.09,-2.96,-5.06,-2.93,2.93,2.10,-2.15,-2.13,-2.13
248,-5.10,-2.96,-5.10,-2.96,2.96,2.15,-2.13,-2.13,-2.13
251,-5.10,-2.96,-5.13,-2.99,2.99,2.21,-2.10,-2.14,-2.14
253,-5.13,-2.99,-5.16,-3.02,3.02,2.26,-2.11,-2.14,-2.14
256,-5.23,-3.08,-5.20,-3.05,3.05,2.33,-2.18,-2.15,-2.15
259,-5.27,-3.12,-5.23,-3.08,3.08,2.39,-2.19,-2.15,-2.15
261,-5.27,-3.11,-5.26,-3.10,3.10,2.44,-2.17,-2.15,-2.15
264,-5.27,-3.11,-5.28,-3.13,3.13,2.51,-2.14,-2.16,-2.16
266,-5.28,-3.12,-5.31,-3.15,3.15,2.55,-2.13,-2.16,-2.16
269,-5.33,-3.16,-5.34,-3.18,3.18,2.62,-2.15,-2.16,-2.16
272,-5.38,-3.21,-5.37,-3.20,3.20,2.69,-2.18,-2.17,-2.17
274,-5.40,-3.23,-5.39,-3.22,3.22,2.74,-2.17,-2.17,-2.17
277,-5.42,-3.25,-5.42,-3.25,3.25,2.81,-2.17,-2.17,-2.17
280,-5.44,-3.26,-5.44,-3.27,3.27,2.88,-2.17,-2.18,-2.18
283,-5.47,-3.29,-5.47,-3.29,3.29,2.95,-2.18,-2.18,-2.18
286,-5.52,-3.34,-5.49,-3.31,3.31,3.02,-2.21,-2.18,-2.18
288,-5.52,-3.34,-5.51,-3.33,3.33,3.06,-2.19,-2.18,-2.18
291,-5.52,-3.33,-5.53,-3.34,3.34,3.14,-2.18,-2.19,-2.18
294,-5.53,-3.34,-5.54,-3.36,3.36,3.21,-2.17,-2.19,-2.19
297,-5.54,-3.35,-5.56,-3.37,3.37,3.28,-2.16,-2.19,-2.19
300,-5.62,-3.43,-5.59,-3.39,3.39,3.35,-2.22,-2.19,-2.19
303,-5.62,-3.42,-5.61,-3.42,3.42,3.42,-2.20,-2.19,-2.19
306,-5.62,-3.42,-5.64,-3.44,3.44,3.49,-2.18,-2.20,-2.20
309,-5.63,-3.43,-5.66,-3.47,3.47,3.56,-2.16,-2.20,-2.20
312,-5.67,-3.47,-5.69,-3.49,3.49,3.63,-2.18,-2.20,-2.20
316,-5.76,-3.56,-5.72,-3.52,3.52,3.72,-2.24,-2.20,-2.20
319,-5.79,-3.59,-5.74,-3.54,3.54,3.79,-2.25,-2.20,-2.20
322,-5.79,-3.58,-5.77,-3.56,3.56,3.85,-2.23,-2.20,-2.20
325,-5.79,-3.58,-5.79,-3.58,3.58,3.92,-2.20,-2.21,-2.21
328,-5.82,-3.61,-5.82,-3.61,3.61,3.99,-2.21,-2.21,-2.21
332,-5.88,-3.67,-5.85,-3.64,3.64,4.08,-2.24,-2.21,-2.21
335,-5.87,-3.66,-5.89,-3.68,3.68,4.14,-2.19,-2.21,-2.21
338,-5.84,-3.63,-5.94,-3.73,3.73,4.21,-2.11,-2.21,-2.21
342,-5.98,-3.77,-6.01,-3.80,3.80,4.29,-2.18,-2.21,-2.21
345,-6.09,-3.87,-6.09,-3.87,3.87,4.35,-2.21,-2.21,-2.21
349,-6.20,-3.98,-6.18,-3.96,3.96,4.43,-2.23,-2.22,-2.22
352,-6.28,-4.06,-6.28,-4.06,4.06,4.49,-2.22,-2.22,-2.22
356,-6.41,-4.19,-6.38,-4.16,4.16,4.57,-2.25,-2.22,-2.22
359,-6.49,-4.27,-6.48,-4.26,4.26,4.63,-2.23,-2.22,-2.22
363,-6.57,-4.35,-6.57,-4.35,4.35,4.70,-2.22,-2.22,-2.22
366,-6.64,-4.42,-6.66,-4.44,4.44,4.75,-2.20,-2.22,-2.22
370,-6.74,-4.52,-6.73,-4.51,4.51,4.82,-2.23,-2.22,-2.22
374,-6.81,-4.58,-6.79,-4.57,4.57,4.89,-2.24,-2.22,-2.22
377,-6.87,-4.64,-6.84,-4.62,4.62,4.94,-2.25,-2.23,-2.23
381,-6.91,-4.68,-6.88,-4.65,4.65,5.00,-2.26,-2.23,-2.23
385,-6.91,-4.68,-6.90,-4.67,4.67,5.05,-2.24,-2.23,-2.23
389,-6.91,-4.68,-6.91,-4.68,4.68,5.11,-2.23,-2.23,-2.23
393,-6.91,-4.68,-6.91,-4.68,4.68,5.16,-2.23,-2.23,-2.23
397,-6.90,-4.67,-6.90,-4.67,4.67,5.20,-2.23,-2.23,-2.23
401,-6.87,-4.63,-6.90,-4.66,4.66,5.25,-2.20,-2.23,-2.23
405,-6.91,-4.67,-6.90,-4.66,4.66,5.29,-2.25,-2.24,-2.24
409,-6.91,-4.67,-6.90,-4.66,4.66,5.32,-2.25,-2.24,-2.24
413,-6.91,-4.67,-6.91,-4.67,4.67,5.36,-2.23,-2.24,-2.24
417,-6.92,-4.68,-6.94,-4.70,4.70,5.39,-2.22,-2.24,-2.24
421,-6.95,-4.71,-6.97,-4.74,4.74,5.41,-2.21,-2.24,-2.24
425,-7.00,-4.76,-7.02,-4.79,4.79,5.44,-2.21,-2.24,-2.24
430,-7.06,-4.82,-7.08,-4.85,4.85,5.46,-2.21,-2.24,-2.24
434,-7.14,-4.90,-7.16,-4.92,4.92,5.47,-2.22,-2.23,-2.23
438,-7.23,-5.00,-7.23,-5.00,5.00,5.49,-2.23,-2.23,-2.23
443,-7.34,-5.11,-7.31,-5.08,5.08,5.50,-2.26,-2.23,-2.23
447,-7.39,-5.16,-7.38,-5.16,5.16,5.50,-2.23,-2.23,-2.23
451,-7.49,-5.27,-7.45,-5.23,5.23,5.50,-2.26,-2.22,-2.22
456,-7.51,-5.29,-7.50,-5.28,5.28,5.50,-2.23,-2.22,-2.22
460,-7.55,-5.34,-7.54,-5.33,5.33,5.50,-2.22,-2.21,-2.21
465,-7.59,-5.38,-7.56,-5.35,5.35,5.49,-2.23,-2.20,-2.20
470,-7.58,-5.38,-7.57,-5.37,5.37,5.48,-2.21,-2.20,-2.20
474,-7.56,-5.37,-7.57,-5.38,5.38,5.47,-2.18,-2.19,-2.19
479,-7.55,-5.37,-7.56,-5.38,5.38,5.46,-2.17,-2.18,-2.18
484,-7.53,-5.36,-7.55,-5.38,5.38,5.44,-2.15,-2.17,-2.17
489,-7.52,-5.36,-7.53,-5.38,5.38,5.42,-2.14,-2.15,-2.15
494,-7.51,-5.37,-7.51,-5.37,5.37,5.40,-2.14,-2.14,-2.14
499,-7.49,-5.36,-7.49,-5.37,5.37,5.38,-2.12,-2.13,-2.13
504,-7.48,-5.37,-7.48,-5.37,5.37,5.35,-2.11,-2.11,-2.11
509,-7.47,-5.37,-7.46,-5.37,5.37,5.33,-2.10,-2.09,-2.09
514,-7.45,-5.37,-7.44,-5.37,5.37,5.31,-2.08,-2.08,-2.08
519,-7.43,-5.37,-7.43,-5.37,5.37,5.28,-2.06,-2.06,-2.06
524,-7.41,-5.37,-7.41,-5.37,5.37,5.26,-2.04,-2.04,-2.04
529,-7.39,-5.37,-7.39,-5.37,5.37,5.23,-2.02,-2.02,-2.02
535,-7.37,-5.37,-7.37,-5.38,5.38,5.21,-1.99,-2.00,-2.00
540,-7.34,-5.36,-7.35,-5.38,5.38,5.19,-1.96,-1.97,-1.97
545,-7.32,-5.37,-7.33,-5.38,5.38,5.17,-1.94,-1.95,-1.95
551,-7.33,-5.40,-7.31,-5.38,5.38,5.14,-1.95,-1.93,-1.93
556,-7.28,-5.38,-7.28,-5.38,5.38,5.13,-1.90,-1.90,-1.90
562,-7.25,-5.37,-7.25,-5.37,5.37,5.11,-1.88,-1.88,-1.88
568,-7.23,-5.38,-7.21,-5.36,5.36,5.10,-1.87,-1.85,-1.85
573,-7.18,-5.36,-7.16,-5.34,5.34,5.08,-1.84,-1.82,-1.82
579,-7.09,-5.29,-7.11,-5.32,5.32,5.07,-1.77,-1.79,-1.79
585,-7.04,-5.27,-7.06,-5.29,5.29,5.06,-1.75,-1.77,-1.77
591,-7.01,-5.27,-6.99,-5.26,5.26,5.06,-1.75,-1.74,-1.74
596,-6.95,-5.24,-6.93,-5.22,5.22,5.05,-1.72,-1.71,-1.71
602,-6.87,-5.19,-6.86,-5.19,5.19,5.05,-1.68,-1.68,-1.68
608,-6.76,-5.11,-6.79,-5.15,5.15,5.04,-1.61,-1.64,-1.64
615,-6.71,-5.10,-6.72,-5.11,5.11,5.04,-1.60,-1.61,-1.61
621,-6.68,-5.10,-6.64,-5.06,5.06,5.03,-1.62,-1.58,-1.58
627,-6.56,-5.01,-6.57,-5.02,5.02,5.02,-1.54,-1.55,-1.55
633,-6.46,-4.94,-6.49,-4.97,4.97,5.01,-1.48,-1.51,-1.51
639,-6.42,-4.94,-6.41,-4.93,4.93,4.99,-1.49,-1.48,-1.48
646,-6.35,-4.90,-6.32,-4.88,4.88,4.96,-1.47,-1.45,-1.45
652,-6.18,-4.77,-6.23,-4.82,4.82,4.93,-1.36,-1.41,-1.41
659,-6.15,-4.77,-6.14,-4.76,4.76,4.88,-1.38,-1.37,-1.37
665,-6.06,-4.72,-6.04,-4.70,4.70,4.83,-1.36,-1.34,-1.34
672,-5.94,-4.64,-5.93,-4.63,4.63,4.76,-1.31,-1.30,-1.30
679,-5.84,-4.57,-5.82,-4.55,4.55,4.68,-1.29,-1.27,-1.27
686,-5.69,-4.46,-5.69,-4.46,4.46,4.59,-1.23,-1.23,-1.23
692,-5.58,-4.39,-5.56,-4.37,4.37,4.50,-1.21,-1.19,-1.19
699,-5.41,-4.25,-5.42,-4.27,4.27,4.39,-1.14,-1.15,-1.15
706,-5.29,-4.17,-5.28,-4.16,4.16,4.27,-1.13,-1.12,-1.12
713,-5.11,-4.03,-5.13,-4.05,4.05,4.15,-1.05,-1.08,-1.08
721,-4.98,-3.94,-4.98,-3.94,3.94,4.00,-1.03,-1.04,-1.04
728,-4.79,-3.79,-4.83,-3.83,3.83,3.86,-0.96,-1.00,-1.00
735,-4.70,-3.73,-4.68,-3.72,3.72,3.72,-0.98,-0.96,-0.96
742,-4.56,-3.63,-4.53,-3.60,3.60,3.58,-0.95,-0.93,-0.93
750,-4.36,-3.47,-4.38,-3.49,3.49,3.42,-0.87,-0.89,-0.89
757,-4.26,-3.41,-4.22,-3.37,3.37,3.28,-0.89,-0.85,-0.85
765,-4.06,-3.24,-4.06,-3.24,3.24,3.13,-0.81,-0.81,-0.81
773,-3.87,-3.09,-3.89,-3.12,3.12,2.97,-0.75,-0.78,-0.78
780,-3.74,-3.00,-3.73,-2.99,2.99,2.84,-0.75,-0.74,-0.74
788,-3.56,-2.85,-3.56,-2.85,2.85,2.70,-0.71,-0.71,-0.71
796,-3.38,-2.71,-3.39,-2.72,2.72,2.56,-0.66,-0.67,-0.67
804,-3.21,-2.57,-3.22,-2.59,2.59,2.42,-0.62,-0.64,-0.64
812,-3.08,-2.48,-3.05,-2.45,2.45,2.29,-0.63,-0.60,-0.60
820,-2.89,-2.32,-2.89,-2.32,2.32,2.17,-0.57,-0.57,-0.57
828,-2.68,-2.14,-2.72,-2.19,2.19,2.05,-0.49,-0.54,-0.54
837,-2.58,-2.07,-2.55,-2.05,2.05,1.92,-0.53,-0.50,-0.50
845,-2.38,-1.91,-2.39,-1.92,1.92,1.80,-0.46,-0.47,-0.47
853,-2.26,-1.82,-2.22,-1.78,1.78,1.70,-0.48,-0.44,-0.44
862,-2.05,-1.64,-2.05,-1.64,1.64,1.58,-0.40,-0.41,-0.41
871,-1.90,-1.52,-1.89,-1.51,1.51,1.47,-0.39,-0.38,-0.38
879,-1.72,-1.37,-1.72,-1.37,1.37,1.38,-0.35,-0.35,-0.35
888,-1.57,-1.24,-1.56,-1.24,1.24,1.28,-0.33,-0.32,-0.32
897,-1.39,-1.09,-1.40,-1.11,1.11,1.18,-0.28,-0.30,-0.30
906,-1.24,-0.97,-1.25,-0.98,0.98,1.09,-0.26,-0.27,-0.27
915,-1.08,-0.84,-1.10,-0.86,0.86,1.00,-0.21,-0.24,-0.24
924,-0.96,-0.74,-0.96,-0.75,0.75,0.91,-0.21,-0.21,-0.21
933,-0.84,-0.65,-0.82,-0.64,0.64,0.83,-0.20,-0.19,-0.19
943,-0.72,-0.56,-0.69,-0.53,0.53,0.74,-0.19,-0.16,-0.16
952,-0.57,-0.43,-0.56,-0.42,0.42,0.67,-0.14,-0.13,-0.13
962,-0.44,-0.33,-0.43,-0.32,0.32,0.59,-0.12,-0.11,-0.11
971,-0.32,-0.24,-0.30,-0.22,0.22,0.52,-0.10,-0.08,-0.08
981,-0.19,-0.13,-0.18,-0.13,0.13,0.44,-0.06,-0.05,-0.05
991,-0.11,-0.08,-0.07,-0.05,0.05,0.37,-0.06,-0.03,-0.03
1001,0.01,0.01,0.02,0.02,-0.02,0.30,-0.00,0.00,0.00
1011,0.10,0.07,0.08,0.06,-0.06,0.24,0.05,0.03,0.03
1021,0.19,0.14,0.12,0.07,-0.07,0.17,0.13,0.05,0.05
1031,0.20,0.12,0.13,0.05,-0.05,0.11,0.16,0.08,0.08
1041,0.16,0.05,0.10,-0.01,0.01,0.06,0.17,0.11,0.11
1052,0.10,-0.04,0.06,-0.08,0.08,-0.00,0.18,0.14,0.14
1062,0.04,-0.12,-0.00,-0.17,0.17,-0.06,0.21,0.17,0.17
1073,-0.03,-0.22,-0.06,-0.26,0.26,-0.11,0.23,0.19,0.19
1084,-0.16,-0.38,-0.11,-0.33,0.33,-0.17,0.17,0.22,0.22
1094,-0.21,-0.46,-0.12,-0.37,0.37,-0.21,0.16,0.25,0.25
1105,-0.21,-0.49,-0.08,-0.37,0.37,-0.26,0.16,0.28,0.28
1116,-0.12,-0.43,0.00,-0.31,0.31,-0.31,0.19,0.31,0.31
1128,0.07,-0.27,0.14,-0.20,0.20,-0.35,0.28,0.34,0.34
1139,0.30,-0.07,0.32,-0.05,0.05,-0.39,0.35,0.37,0.37
1150,0.53,0.13,0.54,0.13,-0.13,-0.43,0.40,0.40,0.40
1162,0.81,0.38,0.78,0.34,-0.34,-0.47,0.47,0.44,0.44
1173,1.06,0.59,1.02,0.55,-0.55,-0.50,0.51,0.47,0.47
1185,1.28,0.78,1.24,0.74,-0.74,-0.54,0.54,0.50,0.50
1197,1.49,0.96,1.44,0.91,-0.91,-0.57,0.58,0.53,0.53
1209,1.67,1.11,1.61,1.05,-1.05,-0.60,0.62,0.56,0.56
1221,1.79,1.19,1.75,1.15,-1.15,-0.63,0.64,0.60,0.60
1233,1.85,1.22,1.84,1.21,-1.21,-0.65,0.65,0.63,0.63
1246,1.89,1.23,1.89,1.23,-1.23,-0.67,0.66,0.66,0.66
1258,1.94,1.24,1.92,1.22,-1.22,-0.69,0.72,0.70,0.70
1271,1.91,1.18,1.92,1.18,-1.18,-0.71,0.73,0.73,0.73
1283,1.86,1.09,1.90,1.13,-1.13,-0.72,0.73,0.77,0.77
1296,1.88,1.08,1.86,1.06,-1.06,-0.73,0.82,0.80,0.80
1309,1.79,0.95,1.82,0.98,-0.98,-0.74,0.81,0.84,0.84
1322,1.78,0.91,1.78,0.90,-0.90,-0.74,0.88,0.87,0.87
1335,1.72,0.81,1.73,0.82,-0.82,-0.75,0.90,0.91,0.91
1349,1.67,0.73,1.69,0.75,-0.75,-0.74,0.92,0.95,0.95
1362,1.65,0.67,1.66,0.68,-0.68,-0.74,0.97,0.98,0.98
1376,1.58,0.56,1.63,0.61,-0.61,-0.73,0.97,1.02,1.02
1390,1.62,0.56,1.60,0.55,-0.55,-0.72,1.07,1.06,1.06
1404,1.63,0.54,1.58,0.49,-0.49,-0.71,1.14,1.10,1.10
1418,1.57,0.44,1.56,0.43,-0.43,-0.69,1.14,1.13,1.13
1432,1.52,0.35,1.55,0.37,-0.37,-0.67,1.15,1.17,1.17
1446,1.52,0.31,1.53,0.32,-0.32,-0.64,1.20,1.21,1.21
1461,1.56,0.31,1.52,0.27,-0.27,-0.61,1.29,1.25,1.25
1475,1.54,0.25,1.51,0.22,-0.22,-0.57,1.32,1.29,1.29
1490,1.52,0.19,1.52,0.19,-0.19,-0.53,1.33,1.33,1.33
1505,1.48,0.11,1.53,0.16,-0.16,-0.49,1.32,1.37,1.37
1520,1.51,0.10,1.56,0.15,-0.15,-0.44,1.36,1.41,1.41
1535,1.50,0.05,1.60,0.15,-0.15,-0.39,1.36,1.46,1.46
1550,1.67,0.17,1.65,0.15,-0.15,-0.33,1.52,1.50,1.50
1566,1.75,0.21,1.70,0.16,-0.16,-0.27,1.59,1.54,1.54
1582,1.76,0.18,1.75,0.16,-0.16,-0.19,1.60,1.58,1.58
1597,1.80,0.18,1.79,0.16,-0.16,-0.12,1.64,1.63,1.63
1613,1.83,0.16,1.82,0.15,-0.15,-0.04,1.69,1.67,1.67
1629,1.82,0.11,1.83,0.12,-0.12,0.04,1.71,1.71,1.71
1646,1.85,0.09,1.83,0.07,-0.07,0.14,1.78,1.76,1.76
1662,1.81,0.01,1.80,0.00,-0.00,0.23,1.81,1.80,1.80
1679,1.76,-0.09,1.77,-0.08,0.08,0.34,1.85,1.85,1.85
1696,1.71,-0.18,1.71,-0.19,0.19,0.45,1.90,1.90,1.90
1713,1.64,-0.30,1.64,-0.30,0.30,0.57,1.94,1.94,1.94
