frequency,raw
20,-2.50
21,-2.09
22,-1.74
23,-1.34
24,-0.93
25,-0.52
26,-0.13
27,0.18
28,0.50
29,0.79
30,1.04
31,1.22
32,1.48
33,1.74
34,1.98
35,2.21
36,2.42
37,2.60
38,2.77
39,2.94
40,3.04
41,3.12
42,3.23
43,3.35
44,3.45
45,3.54
46,3.66
47,3.78
48,3.92
49,4.06
50,4.19
51,4.30
52,4.40
53,4.52
54,4.63
55,4.73
56,4.84
57,4.95
58,5.03
59,5.11
60,5.18
61,5.21
62,5.23
63,5.24
64,5.27
65,5.31
66,5.34
67,5.36
68,5.38
69,5.40
70,5.43
71,5.47
72,5.51
73,5.56
74,5.56
75,5.57
76,5.58
77,5.60
78,5.62
79,5.64
80,5.66
81,5.71
82,5.77
83,5.83
84,5.89
85,5.92
86,5.93
87,5.94
88,5.95
89,5.96
90,5.96
91,5.97
92,5.97
93,5.98
94,5.99
95,6.01
96,6.02
97,6.03
98,6.05
99,6.06
100,6.08
101,6.10
102,6.11
104,6.11
105,6.10
106,6.10
107,6.10
108,6.08
109,6.05
110,6.03
111,6.00
112,5.98
113,5.96
114,5.94
115,5.93
117,5.90
118,5.88
119,5.86
120,5.84
121,5.81
123,5.77
124,5.75
125,5.72
126,5.70
128,5.64
129,5.61
130,5.59
131,5.56
133,5.51
134,5.48
135,5.45
137,5.40
138,5.36
140,5.29
141,5.26
142,5.22
144,5.16
145,5.12
147,5.04
148,5.01
150,4.93
151,4.90
153,4.82
154,4.79
156,4.71
157,4.68
159,4.61
160,4.56
162,4.47
164,4.38
165,4.33
167,4.24
169,4.19
170,4.16
172,4.11
174,4.06
175,4.04
177,3.99
179,3.94
181,3.90
183,3.85
184,3.83
186,3.79
188,3.75
190,3.71
192,3.67
194,3.63
196,3.59
198,3.56
200,3.52
202,3.48
204,3.45
206,3.41
208,3.38
210,3.34
212,3.31
214,3.27
216,3.23
218,3.18
221,3.12
223,3.07
225,3.04
227,3.05
229,3.06
232,3.08
234,3.09
236,3.09
239,3.05
241,3.03
244,2.99
246,2.97
248,2.94
251,2.86
253,2.81
256,2.74
259,2.67
261,2.62
264,2.55
266,2.50
269,2.44
272,2.37
274,2.34
277,2.35
280,2.36
283,2.37
286,2.38
288,2.39
291,2.39
294,2.39
297,2.39
300,2.39
303,2.36
306,2.31
309,2.25
312,2.20
316,2.13
319,2.07
322,2.02
325,1.96
328,1.91
332,1.84
335,1.81
338,1.79
342,1.77
345,1.75
349,1.73
352,1.71
356,1.70
359,1.68
363,1.66
366,1.65
370,1.58
374,1.50
377,1.43
381,1.35
385,1.27
389,1.18
393,1.10
397,1.01
401,0.92
405,0.84
409,0.86
413,0.90
417,0.94
421,0.98
425,1.03
430,1.25
434,1.42
438,1.59
443,1.80
447,1.97
451,2.09
456,2.20
460,2.29
465,2.40
470,2.46
474,2.44
479,2.43
484,2.41
489,2.39
494,2.36
499,2.31
504,2.26
509,2.21
514,2.17
519,2.13
524,2.10
529,2.08
535,2.04
540,2.02
545,1.99
551,1.94
556,1.91
562,1.87
568,1.83
573,1.80
579,1.76
585,1.72
591,1.69
596,1.66
602,1.62
608,1.57
615,1.51
621,1.47
627,1.42
633,1.37
639,1.32
646,1.27
652,1.22
659,1.17
665,1.12
672,1.06
679,1.01
686,0.95
692,0.90
699,0.86
706,0.82
713,0.78
721,0.73
728,0.69
735,0.67
742,0.64
750,0.62
757,0.59
765,0.57
773,0.53
780,0.50
788,0.46
796,0.42
804,0.39
812,0.37
820,0.36
828,0.34
837,0.33
845,0.31
853,0.30
862,0.27
871,0.25
879,0.23
888,0.21
897,0.20
906,0.19
915,0.18
924,0.17
933,0.15
943,0.14
952,0.13
962,0.12
971,0.10
981,0.08
991,0.04
1001,-0.00
1011,-0.05
1021,-0.09
1031,-0.12
1041,-0.15
1052,-0.18
1062,-0.21
1073,-0.24
1084,-0.26
1094,-0.28
1105,-0.30
1116,-0.32
1128,-0.34
1139,-0.36
1150,-0.39
1162,-0.43
1173,-0.46
1185,-0.49
1197,-0.50
1209,-0.50
1221,-0.50
1233,-0.50
1246,-0.50
1258,-0.49
1271,-0.47
1283,-0.45
1296,-0.43
1309,-0.41
1322,-0.39
1335,-0.38
1349,-0.37
1362,-0.36
1376,-0.34
1390,-0.31
1404,-0.28
1418,-0.25
1432,-0.22
1446,-0.18
1461,-0.11
1475,-0.05
1490,0.01
1505,0.07
1520,0.15
1535,0.25
1550,0.34
1566,0.44
1582,0.54
1597,0.64
1613,0.74
1629,0.84
1646,0.95
1662,1.05
1679,1.14
1696,1.23
1713,1.32
1730,1.40
1747,1.46
1764,1.52
1782,1.59
1800,1.66
1818,1.74
1836,1.84
1854,1.93
1873,2.03
1892,2.17
1911,2.39
1930,2.61
1949,2.91
1969,3.24
1988,3.58
2008,3.92
2028,4.25
2048,4.59
2069,4.94
2090,5.27
2111,5.58
2132,5.85
2153,6.08
2175,6.32
2196,6.55
2218,6.78
2240,6.92
2263,7.06
2285,7.19
2308,7.33
2331,7.47
2355,7.62
2378,7.71
2402,7.63
2426,7.55
2450,7.47
2475,7.23
2500,6.84
2525,6.39
2550,6.07
2575,5.30
2601,4.85
2627,4.15
2653,3.24
2680,2.39
2707,1.58
2734,0.71
2761,-0.15
2789,-1.41
2817,-2.02
2845,-2.51
2873,-3.20
2902,-3.81
2931,-3.10
2960,-3.14
2990,-4.16
3020,-4.28
3050,-3.98
3080,-5.26
3111,-5.41
3142,-5.12
3174,-3.49
3206,-2.74
3238,-2.20
3270,-1.71
3303,-1.41
3336,-1.13
3369,-0.86
3403,-0.66
3437,-0.50
3471,-0.34
3506,-0.15
3541,0.05
3576,0.24
3612,0.45
3648,0.65
3685,0.86
3721,1.06
3759,1.25
3796,1.41
3834,1.58
3873,1.77
3911,1.98
3950,2.21
3990,2.45
4030,2.74
4070,3.10
4111,3.42
4152,3.70
4193,3.93
4235,4.15
4278,4.44
4321,4.67
4364,4.74
4407,4.81
4451,4.87
4496,4.89
4541,4.81
4586,4.74
4632,4.67
4679,4.59
4725,4.56
4773,4.61
4820,4.66
4868,4.71
4917,4.78
4966,5.02
5016,5.25
5066,5.39
5117,5.51
5168,5.64
5220,5.63
5272,5.54
5325,5.45
5378,5.37
5432,5.07
5486,4.76
5541,4.44
5596,4.07
5652,3.68
5709,3.26
5766,2.83
5823,2.39
5882,1.94
5940,1.50
6000,0.91
6060,0.42
6120,-0.05
6182,-0.50
6244,-0.88
6306,-1.20
6369,-1.65
6433,-2.00
6497,-2.31
6562,-2.59
6628,-3.06
6694,-3.73
6761,-4.30
6828,-4.63
6897,-4.86
6966,-5.09
7035,-7.17
7106,-5.37
7177,-3.23
7249,-1.20
7321,0.21
7394,1.08
7468,1.42
7543,2.03
7618,1.79
7694,1.54
7771,1.30
7849,0.85
7928,0.35
8007,-0.04
8087,-0.68
8168,-1.62
8250,-2.55
8332,-3.37
8415,-4.02
8499,-4.53
8584,-4.96
8670,-5.32
8757,-5.66
8845,-5.97
8933,-6.20
9022,-6.43
9113,-6.55
9204,-6.64
9296,-6.74
9389,-6.41
9483,-5.91
9577,-5.25
9673,-4.17
9770,-3.56
9868,-3.22
9966,-3.01
10066,-3.11
10167,-3.21
10268,-3.32
10371,-4.05
10475,-4.48
10579,-5.13
10685,-5.68
10792,-6.31
10900,-7.01
11009,-7.65
11119,-8.29
11230,-9.18
11343,-10.19
11456,-11.12
11571,-12.30
11686,-12.75
11803,-13.16
11921,-14.50
12040,-14.92
12161,-13.61
12282,-10.87
12405,-8.94
12529,-7.26
12655,-4.56
12781,-0.42
12909,1.99
13038,2.30
13168,2.68
13300,2.40
13433,2.12
13567,1.84
13703,1.59
13840,1.31
13978,0.98
14118,0.57
14259,0.08
14402,-0.43
14546,-0.73
14692,-1.04
14838,-1.48
14987,-1.32
15137,-1.12
15288,-1.01
15441,-1.73
15595,-2.51
15751,-4.00
15909,-5.67
16068,-6.96
16229,-8.04
16391,-8.68
16555,-9.28
16720,-8.91
16888,-8.80
17056,-8.68
17227,-8.56
17399,-8.82
17573,-8.87
17749,-8.68
17926,-8.52
18106,-9.57
18287,-10.04
18470,-10.77
18654,-11.88
18841,-13.07
19029,-13.90
19220,-14.98
19412,-16.26
19606,-17.50
19802,-18.65
20000,-20.06
