frequency,raw
20.00,-2.50
20.20,-2.42
20.40,-2.33
20.61,-2.25
20.81,-2.17
21.02,-2.08
21.23,-2.01
21.44,-1.93
21.66,-1.86
21.87,-1.78
22.09,-1.70
22.31,-1.61
22.54,-1.52
22.76,-1.43
22.99,-1.34
23.22,-1.25
23.45,-1.15
23.69,-1.06
23.92,-0.96
24.16,-0.86
24.40,-0.76
24.65,-0.66
24.89,-0.56
25.14,-0.46
25.39,-0.36
25.65,-0.27
25.91,-0.17
26.16,-0.08
26.43,0.00
26.69,0.09
26.96,0.17
27.23,0.25
27.50,0.34
27.77,0.43
28.05,0.52
28.33,0.60
28.62,0.68
28.90,0.76
29.19,0.84
29.48,0.91
29.78,0.99
30.08,1.05
30.38,1.11
30.68,1.16
30.99,1.22
31.30,1.30
31.61,1.38
31.93,1.46
32.24,1.54
32.57,1.63
32.89,1.71
33.22,1.79
33.55,1.87
33.89,1.95
34.23,2.03
34.57,2.11
34.92,2.19
35.27,2.27
35.62,2.34
35.97,2.41
36.33,2.48
36.70,2.55
37.06,2.61
37.43,2.67
37.81,2.74
38.19,2.80
38.57,2.87
38.95,2.93
39.34,2.97
39.74,3.01
40.14,3.05
40.54,3.08
40.94,3.12
41.35,3.16
41.76,3.20
42.18,3.25
42.60,3.30
43.03,3.35
43.46,3.40
43.90,3.44
44.33,3.48
44.78,3.52
45.23,3.57
45.68,3.62
46.13,3.68
46.60,3.73
47.06,3.79
47.53,3.85
48.01,3.92
48.49,3.99
48.97,4.06
49.46,4.12
49.96,4.18
50.46,4.24
50.96,4.30
51.47,4.35
51.99,4.40
52.51,4.46
53.03,4.52
53.56,4.58
54.10,4.64
54.64,4.69
55.18,4.75
55.74,4.81
56.29,4.87
56.86,4.93
57.42,4.98
58.00,5.03
58.58,5.08
59.16,5.12
59.76,5.16
60.35,5.19
60.96,5.21
61.57,5.22
62.18,5.23
62.80,5.24
63.43,5.25
64.07,5.27
64.71,5.30
65.35,5.32
66.01,5.34
66.67,5.35
67.33,5.37
68.01,5.38
68.69,5.39
69.37,5.41
70.07,5.43
70.77,5.46
71.48,5.49
72.19,5.52
72.91,5.56
73.64,5.56
74.38,5.56
75.12,5.57
75.87,5.58
76.63,5.59
77.40,5.61
78.17,5.62
78.95,5.64
79.74,5.65
80.54,5.69
81.35,5.73
82.16,5.78
82.98,5.83
83.81,5.88
84.65,5.91
85.50,5.92
86.35,5.93
87.22,5.94
88.09,5.95
88.97,5.96
89.86,5.96
90.76,5.97
91.66,5.97
92.58,5.98
93.51,5.99
94.44,6.00
95.39,6.01
96.34,6.02
97.30,6.04
98.28,6.05
99.26,6.07
100.25,6.09
101.25,6.10
102.27,6.11
103.29,6.11
104.32,6.11
105.37,6.10
106.42,6.10
107.48,6.09
108.56,6.06
109.64,6.04
110.74,6.01
111.85,5.98
112.97,5.96
114.10,5.94
115.24,5.93
116.39,5.91
117.55,5.89
118.73,5.87
119.92,5.84
121.12,5.81
122.33,5.78
123.55,5.76
124.79,5.73
126.03,5.70
127.29,5.66
128.57,5.62
129.85,5.59
131.15,5.56
132.46,5.52
133.79,5.49
135.12,5.45
136.48,5.41
137.84,5.37
139.22,5.32
140.61,5.27
142.02,5.22
143.44,5.18
144.87,5.13
146.32,5.07
147.78,5.02
149.26,4.96
150.75,4.91
152.26,4.85
153.78,4.80
155.32,4.74
156.88,4.68
158.44,4.63
160.03,4.56
161.63,4.49
163.24,4.41
164.88,4.34
166.53,4.26
168.19,4.21
169.87,4.16
171.57,4.12
173.29,4.08
175.02,4.04
176.77,4.00
178.54,3.95
180.32,3.91
182.13,3.87
183.95,3.83
185.79,3.79
187.65,3.76
189.52,3.72
191.42,3.68
193.33,3.64
195.27,3.60
197.22,3.57
199.19,3.54
201.18,3.50
203.19,3.46
205.23,3.43
207.28,3.39
209.35,3.35
211.44,3.32
213.56,3.28
215.69,3.24
217.85,3.18
220.03,3.14
222.23,3.09
224.45,3.05
226.70,3.05
228.96,3.06
231.25,3.08
233.57,3.09
235.90,3.09
238.26,3.06
240.64,3.03
243.05,3.00
245.48,2.98
247.93,2.94
250.41,2.88
252.92,2.81
255.45,2.75
258.00,2.69
260.58,2.63
263.19,2.57
265.82,2.50
268.48,2.45
271.16,2.39
273.87,2.34
276.61,2.35
279.38,2.36
282.17,2.37
284.99,2.38
287.84,2.39
290.72,2.39
293.63,2.39
296.57,2.39
299.53,2.39
302.53,2.36
305.55,2.32
308.61,2.26
311.69,2.21
314.81,2.15
317.96,2.09
321.14,2.03
324.35,1.97
327.59,1.92
330.87,1.86
334.18,1.82
337.52,1.79
340.90,1.78
344.30,1.75
347.75,1.74
351.23,1.72
354.74,1.70
358.28,1.68
361.87,1.67
365.49,1.65
369.14,1.59
372.83,1.52
376.56,1.44
380.33,1.36
384.13,1.29
387.97,1.20
391.85,1.12
395.77,1.04
399.73,0.95
403.72,0.87
407.76,0.85
411.84,0.89
415.96,0.93
420.12,0.97
424.32,1.02
428.56,1.19
432.85,1.37
437.18,1.56
441.55,1.74
445.96,1.93
450.42,2.07
454.93,2.18
459.48,2.28
464.07,2.38
468.71,2.44
473.40,2.44
478.13,2.43
482.91,2.41
487.74,2.40
492.62,2.37
497.55,2.32
502.52,2.27
507.55,2.22
512.62,2.18
517.75,2.14
522.93,2.11
528.16,2.08
533.44,2.05
538.77,2.02
544.16,2.00
549.60,1.95
555.10,1.92
560.65,1.88
566.25,1.84
571.92,1.81
577.64,1.77
583.41,1.73
589.25,1.70
595.14,1.67
601.09,1.63
607.10,1.58
613.17,1.53
619.30,1.48
625.50,1.43
631.75,1.38
638.07,1.33
644.45,1.28
650.89,1.23
657.40,1.18
663.98,1.13
670.62,1.07
677.32,1.02
684.10,0.97
690.94,0.91
697.85,0.87
704.83,0.83
711.87,0.79
718.99,0.74
726.18,0.70
733.44,0.67
740.78,0.65
748.19,0.62
755.67,0.60
763.23,0.57
770.86,0.54
778.57,0.51
786.35,0.47
794.22,0.43
802.16,0.40
810.18,0.37
818.28,0.36
826.46,0.34
834.73,0.33
843.08,0.31
851.51,0.30
860.02,0.28
868.62,0.26
877.31,0.23
886.08,0.21
894.94,0.20
903.89,0.19
912.93,0.18
922.06,0.17
931.28,0.15
940.59,0.14
950.00,0.13
959.50,0.12
969.09,0.10
978.78,0.08
988.57,0.05
998.46,0.01
1008.44,-0.04
1018.53,-0.08
1028.71,-0.11
1039.00,-0.14
1049.39,-0.17
1059.88,-0.20
1070.48,-0.23
1081.19,-0.25
1092.00,-0.28
1102.92,-0.30
1113.95,-0.32
1125.09,-0.34
1136.34,-0.36
1147.70,-0.38
1159.18,-0.42
1170.77,-0.45
1182.48,-0.48
1194.30,-0.50
1206.25,-0.50
1218.31,-0.50
1230.49,-0.50
1242.80,-0.50
1255.22,-0.49
1267.78,-0.47
1280.45,-0.45
1293.26,-0.43
1306.19,-0.41
1319.25,-0.39
1332.45,-0.38
1345.77,-0.37
1359.23,-0.36
1372.82,-0.34
1386.55,-0.32
1400.41,-0.29
1414.42,-0.26
1428.56,-0.23
1442.85,-0.19
1457.28,-0.13
1471.85,-0.06
1486.57,-0.00
1501.43,0.06
1516.45,0.13
1531.61,0.23
1546.93,0.32
1562.40,0.42
1578.02,0.52
1593.80,0.62
1609.74,0.72
1625.84,0.82
1642.10,0.92
1658.52,1.03
1675.10,1.12
1691.85,1.21
1708.77,1.30
1725.86,1.38
1743.12,1.45
1760.55,1.51
1778.15,1.58
1795.94,1.64
1813.90,1.72
1832.03,1.82
1850.36,1.91
1868.86,2.01
1887.55,2.14
1906.42,2.34
1925.49,2.56
1944.74,2.84
1964.19,3.16
1983.83,3.51
2003.67,3.85
2023.71,4.18
2043.94,4.52
2064.38,4.86
2085.03,5.19
2105.88,5.50
2126.94,5.79
2148.20,6.03
2169.69,6.26
2191.38,6.50
2213.30,6.73
2235.43,6.89
2257.78,7.03
2280.36,7.16
2303.17,7.30
2326.20,7.44
2349.46,7.59
2372.95,7.69
2396.68,7.65
2420.65,7.57
2444.86,7.49
2469.31,7.28
2494.00,6.93
2518.94,6.50
2544.13,6.14
2569.57,5.47
2595.27,4.95
2621.22,4.31
2647.43,3.43
2673.90,2.58
2700.64,1.77
2727.65,0.91
2754.93,0.04
2782.48,-1.12
2810.30,-1.87
2838.40,-2.39
2866.79,-3.05
2895.46,-3.67
2924.41,-3.26
2953.65,-3.13
2983.19,-3.93
3013.02,-4.25
3043.15,-4.05
3073.58,-4.99
3104.32,-5.38
3135.36,-5.18
3166.72,-3.86
3198.38,-2.92
3230.37,-2.33
3262.67,-1.82
3295.30,-1.48
3328.25,-1.20
3361.53,-0.92
3395.15,-0.71
3429.10,-0.54
3463.39,-0.38
3498.03,-0.19
3533.01,0.00
3568.34,0.20
3604.02,0.40
3640.06,0.61
3676.46,0.81
3713.22,1.02
3750.36,1.21
3787.86,1.37
3825.74,1.54
3864.00,1.73
3902.64,1.93
3941.66,2.16
3981.08,2.40
4020.89,2.67
4061.10,3.02
4101.71,3.35
4142.73,3.64
4184.15,3.88
4226.00,4.10
4268.26,4.37
4310.94,4.62
4354.05,4.72
4397.59,4.79
4441.56,4.86
4485.98,4.89
4530.84,4.83
4576.15,4.76
4621.91,4.69
4668.13,4.61
4714.81,4.57
4761.96,4.60
4809.58,4.65
4857.67,4.70
4906.25,4.76
4955.31,4.97
5004.87,5.20
5054.91,5.36
5105.46,5.48
5156.52,5.61
5208.08,5.63
5260.16,5.56
5312.77,5.47
5365.89,5.39
5419.55,5.14
5473.75,4.83
5528.49,4.51
5583.77,4.15
5639.61,3.77
5696.00,3.36
5752.96,2.93
5810.49,2.49
5868.60,2.04
5927.28,1.60
5986.56,1.04
6046.42,0.53
6106.89,0.05
6167.96,-0.40
6229.64,-0.79
6291.93,-1.13
6354.85,-1.55
6418.40,-1.92
6482.58,-2.24
6547.41,-2.53
6612.88,-2.95
6679.01,-3.58
6745.80,-4.17
6813.26,-4.56
6881.39,-4.81
6950.21,-5.04
7019.71,-6.71
7089.91,-5.78
7160.81,-3.72
7232.41,-1.67
7304.74,-0.11
7377.79,0.89
7451.56,1.34
7526.08,1.89
7601.34,1.84
7677.35,1.59
7754.13,1.35
7831.67,0.95
7909.98,0.46
7989.08,0.05
8068.98,-0.54
8149.67,-1.41
8231.16,-2.34
8313.47,-3.19
8396.61,-3.88
8480.57,-4.42
8565.38,-4.87
8651.03,-5.24
8737.54,-5.58
8824.92,-5.90
8913.17,-6.15
9002.30,-6.38
9092.32,-6.52
9183.25,-6.62
9275.08,-6.72
9367.83,-6.48
9461.51,-6.02
9556.12,-5.40
9651.68,-4.41
9748.20,-3.70
9845.68,-3.30
9944.14,-3.06
10043.58,-3.09
10144.02,-3.19
10245.46,-3.30
10347.91,-3.89
10451.39,-4.38
10555.91,-4.99
10661.46,-5.56
10768.08,-6.17
10875.76,-6.85
10984.52,-7.51
11094.36,-8.15
11205.31,-8.98
11317.36,-9.96
11430.53,-10.91
11544.84,-12.03
11660.29,-12.65
11776.89,-13.07
11894.66,-14.20
12013.60,-14.83
12133.74,-13.90
12255.08,-11.48
12377.63,-9.37
12501.41,-7.63
12626.42,-5.17
12752.68,-1.35
12880.21,1.45
13009.01,2.23
13139.10,2.60
13270.49,2.46
13403.20,2.18
13537.23,1.90
13672.60,1.65
13809.33,1.37
13947.42,1.05
14086.90,0.66
14227.77,0.19
14370.04,-0.32
14513.74,-0.66
14658.88,-0.97
14805.47,-1.38
14953.52,-1.36
15103.06,-1.17
15254.09,-1.03
15406.63,-1.57
15560.70,-2.34
15716.30,-3.67
15873.47,-5.30
16032.20,-6.67
16192.52,-7.80
16354.45,-8.54
16517.99,-9.15
16683.17,-8.99
16850.01,-8.82
17018.51,-8.71
17188.69,-8.59
17360.58,-8.76
17534.18,-8.86
17709.53,-8.72
17886.62,-8.56
18065.49,-9.33
18246.14,-9.93
18428.60,-10.61
18612.89,-11.63
18799.02,-12.80
18987.01,-13.72
19176.88,-14.74
19368.65,-15.97
19562.33,-17.22
19757.96,-18.39
19955.54,-19.74
