frequency,raw,error,smoothed,error_smoothed,equalization,parametric_eq,fixed_band_eq,equalized_raw,equalized_smoothed,target
20.00,-29.41,-23.94,-29.41,-23.96,6.00,5.26,2.68,-23.41,-23.41,-5.47
20.20,-29.24,-23.86,-29.24,-23.87,6.00,5.29,2.76,-23.24,-23.24,-5.38
20.40,-29.08,-23.78,-29.08,-23.78,6.00,5.32,2.84,-23.08,-23.08,-5.30
20.61,-28.91,-23.68,-28.91,-23.68,6.00,5.35,2.92,-22.91,-22.91,-5.23
20.81,-28.74,-23.60,-28.74,-23.58,6.00,5.38,3.00,-22.74,-22.74,-5.14
21.02,-28.57,-23.51,-28.57,-23.48,6.00,5.41,3.09,-22.57,-22.57,-5.06
21.23,-28.40,-23.40,-28.40,-23.38,6.00,5.44,3.18,-22.40,-22.40,-5.00
21.44,-28.24,-23.29,-28.23,-23.27,6.00,5.47,3.27,-22.24,-22.23,-4.94
21.66,-28.07,-23.18,-28.06,-23.15,6.00,5.50,3.36,-22.07,-22.06,-4.89
21.87,-27.90,-23.05,-27.89,-23.04,6.00,5.53,3.46,-21.90,-21.89,-4.84
22.09,-27.73,-22.93,-27.72,-22.92,6.00,5.56,3.56,-21.73,-21.72,-4.79
22.31,-27.55,-22.80,-27.55,-22.80,6.00,5.59,3.66,-21.55,-21.55,-4.74
22.54,-27.38,-22.68,-27.38,-22.67,6.00,5.62,3.77,-21.38,-21.38,-4.71
22.76,-27.20,-22.53,-27.20,-22.54,6.00,5.64,3.87,-21.20,-21.20,-4.66
22.99,-27.03,-22.39,-27.03,-22.41,6.00,5.67,3.98,-21.03,-21.03,-4.64
23.22,-26.85,-22.25,-26.86,-22.27,6.00,5.70,4.10,-20.85,-20.86,-4.60
23.45,-26.68,-22.12,-26.68,-22.13,6.00,5.72,4.21,-20.68,-20.68,-4.56
23.69,-26.51,-21.99,-26.51,-22.00,6.00,5.75,4.33,-20.51,-20.51,-4.52
23.92,-26.34,-21.86,-26.33,-21.86,6.00,5.78,4.45,-20.34,-20.33,-4.48
24.16,-26.16,-21.73,-26.16,-21.72,6.00,5.80,4.57,-20.16,-20.16,-4.43
24.40,-25.99,-21.59,-25.98,-21.58,6.00,5.83,4.69,-19.99,-19.98,-4.40
24.65,-25.81,-21.44,-25.81,-21.44,6.00,5.85,4.82,-19.81,-19.81,-4.37
24.89,-25.63,-21.29,-25.63,-21.30,6.00,5.87,4.95,-19.63,-19.63,-4.34
25.14,-25.46,-21.16,-25.46,-21.15,6.00,5.90,5.08,-19.46,-19.46,-4.30
25.39,-25.28,-21.01,-25.28,-21.01,6.00,5.92,5.21,-19.28,-19.28,-4.27
25.65,-25.11,-20.88,-25.11,-20.87,6.00,5.94,5.34,-19.11,-19.11,-4.23
25.91,-24.93,-20.72,-24.93,-20.73,6.00,5.97,5.47,-18.93,-18.93,-4.21
26.16,-24.76,-20.57,-24.75,-20.58,6.00,5.99,5.60,-18.76,-18.75,-4.18
26.43,-24.58,-20.44,-24.58,-20.44,6.00,6.01,5.73,-18.58,-18.58,-4.14
26.69,-24.40,-20.29,-24.40,-20.29,6.00,6.03,5.86,-18.40,-18.40,-4.11
26.96,-24.23,-20.15,-24.23,-20.14,6.00,6.05,5.99,-18.23,-18.23,-4.08
27.23,-24.05,-20.01,-24.05,-20.00,6.00,6.07,6.12,-18.05,-18.05,-4.04
27.50,-23.88,-19.86,-23.88,-19.85,6.00,6.09,6.24,-17.88,-17.88,-4.01
27.77,-23.70,-19.70,-23.70,-19.71,6.00,6.11,6.36,-17.70,-17.70,-3.99
28.05,-23.53,-19.57,-23.52,-19.56,6.00,6.13,6.48,-17.53,-17.52,-3.96
28.33,-23.35,-19.41,-23.35,-19.42,6.00,6.15,6.59,-17.35,-17.35,-3.94
28.62,-23.18,-19.27,-23.17,-19.27,6.00,6.17,6.69,-17.18,-17.17,-3.91
28.90,-23.00,-19.13,-23.00,-19.13,6.00,6.18,6.79,-17.00,-17.00,-3.87
29.19,-22.83,-18.98,-22.83,-18.99,6.00,6.20,6.89,-16.83,-16.83,-3.85
29.48,-22.65,-18.85,-22.66,-18.84,6.00,6.22,6.97,-16.65,-16.66,-3.80
29.78,-22.48,-18.70,-22.48,-18.70,6.00,6.23,7.05,-16.48,-16.48,-3.78
30.08,-22.31,-18.56,-22.31,-18.56,6.00,6.25,7.12,-16.31,-16.31,-3.75
30.38,-22.14,-18.42,-22.15,-18.42,6.00,6.26,7.18,-16.14,-16.15,-3.72
30.68,-21.97,-18.27,-21.98,-18.28,6.00,6.28,7.23,-15.97,-15.98,-3.69
30.99,-21.81,-18.13,-21.81,-18.14,6.00,6.29,7.27,-15.81,-15.81,-3.68
31.30,-21.65,-18.00,-21.65,-18.00,6.00,6.31,7.30,-15.65,-15.65,-3.65
31.61,-21.49,-17.87,-21.48,-17.86,6.00,6.32,7.32,-15.49,-15.48,-3.62
31.93,-21.33,-17.73,-21.32,-17.72,6.00,6.33,7.33,-15.33,-15.32,-3.60
32.24,-21.16,-17.58,-21.16,-17.58,6.00,6.34,7.33,-15.16,-15.16,-3.58
32.57,-21.00,-17.45,-20.99,-17.44,6.00,6.36,7.32,-15.00,-14.99,-3.55
32.89,-20.83,-17.30,-20.83,-17.30,6.00,6.37,7.30,-14.83,-14.83,-3.52
33.22,-20.67,-17.16,-20.67,-17.16,6.00,6.38,7.28,-14.67,-14.67,-3.51
33.55,-20.51,-17.02,-20.51,-17.02,6.00,6.39,7.25,-14.51,-14.51,-3.49
33.89,-20.35,-16.87,-20.35,-16.88,6.00,6.40,7.21,-14.35,-14.35,-3.48
34.23,-20.19,-16.74,-20.20,-16.74,6.00,6.41,7.17,-14.19,-14.20,-3.45
34.57,-20.04,-16.60,-20.04,-16.59,6.00,6.41,7.12,-14.04,-14.04,-3.44
34.92,-19.88,-16.45,-19.88,-16.45,6.00,6.42,7.06,-13.88,-13.88,-3.43
35.27,-19.72,-16.30,-19.72,-16.30,6.00,6.43,7.00,-13.72,-13.72,-3.42
35.62,-19.57,-16.15,-19.56,-16.15,6.00,6.44,6.94,-13.57,-13.56,-3.42
35.97,-19.41,-16.00,-19.40,-16.00,6.00,6.44,6.88,-13.41,-13.40,-3.41
36.33,-19.26,-15.86,-19.25,-15.85,6.00,6.45,6.81,-13.26,-13.25,-3.39
36.70,-19.10,-15.71,-19.09,-15.70,6.00,6.45,6.75,-13.10,-13.09,-3.39
37.06,-18.94,-15.54,-18.94,-15.54,6.00,6.46,6.68,-12.94,-12.94,-3.40
37.43,-18.78,-15.39,-18.78,-15.39,6.00,6.46,6.62,-12.78,-12.78,-3.39
37.81,-18.62,-15.23,-18.62,-15.23,6.00,6.47,6.55,-12.62,-12.62,-3.39
38.19,-18.46,-15.07,-18.47,-15.08,6.00,6.47,6.49,-12.46,-12.47,-3.39
38.57,-18.31,-14.92,-18.32,-14.92,6.00,6.47,6.43,-12.31,-12.32,-3.39
38.95,-18.16,-14.77,-18.16,-14.77,6.00,6.47,6.37,-12.16,-12.16,-3.39
39.34,-18.01,-14.60,-18.01,-14.61,6.00,6.48,6.31,-12.01,-12.01,-3.40
39.74,-17.86,-14.45,-17.86,-14.46,6.00,6.48,6.26,-11.86,-11.86,-3.41
40.14,-17.71,-14.30,-17.70,-14.30,6.00,6.48,6.21,-11.71,-11.70,-3.41
40.54,-17.56,-14.15,-17.55,-14.14,6.00,6.48,6.16,-11.56,-11.55,-3.41
40.94,-17.41,-13.99,-17.40,-13.99,6.00,6.48,6.12,-11.41,-11.40,-3.42
41.35,-17.26,-13.84,-17.25,-13.83,6.00,6.48,6.08,-11.26,-11.25,-3.42
41.76,-17.11,-13.68,-17.10,-13.67,6.00,6.47,6.04,-11.11,-11.10,-3.42
42.18,-16.95,-13.52,-16.95,-13.52,6.00,6.47,6.01,-10.95,-10.95,-3.43
42.60,-16.80,-13.36,-16.80,-13.36,6.00,6.47,5.99,-10.80,-10.80,-3.44
43.03,-16.65,-13.21,-16.65,-13.20,6.00,6.47,5.96,-10.65,-10.65,-3.44
43.46,-16.50,-13.05,-16.50,-13.05,6.00,6.46,5.94,-10.50,-10.50,-3.45
43.90,-16.36,-12.90,-16.36,-12.89,6.00,6.46,5.93,-10.36,-10.36,-3.46
44.33,-16.21,-12.73,-16.21,-12.74,6.00,6.45,5.92,-10.21,-10.21,-3.48
44.78,-16.07,-12.58,-16.07,-12.59,6.00,6.45,5.92,-10.07,-10.07,-3.48
45.23,-15.93,-12.43,-15.93,-12.44,6.00,6.44,5.92,-9.93,-9.93,-3.50
45.68,-15.79,-12.28,-15.79,-12.29,6.00,6.43,5.92,-9.79,-9.79,-3.50
46.13,-15.65,-12.14,-15.65,-12.15,6.00,6.43,5.93,-9.65,-9.65,-3.51
46.60,-15.52,-12.01,-15.51,-12.00,6.00,6.42,5.94,-9.52,-9.51,-3.51
47.06,-15.38,-11.87,-15.38,-11.86,6.00,6.41,5.96,-9.38,-9.38,-3.51
47.53,-15.25,-11.73,-15.25,-11.72,6.00,6.40,5.98,-9.25,-9.25,-3.52
48.01,-15.12,-11.60,-15.11,-11.59,6.00,6.39,6.00,-9.12,-9.11,-3.51
48.49,-14.99,-11.47,-14.99,-11.46,6.00,6.38,6.03,-8.99,-8.99,-3.52
48.97,-14.86,-11.33,-14.86,-11.33,6.00,6.37,6.06,-8.86,-8.86,-3.53
49.46,-14.73,-11.18,-14.74,-11.21,6.00,6.36,6.10,-8.73,-8.74,-3.54
49.96,-14.61,-11.06,-14.61,-11.08,6.00,6.35,6.14,-8.61,-8.61,-3.55
50.46,-14.49,-10.95,-14.50,-10.96,6.00,6.33,6.18,-8.49,-8.50,-3.54
50.96,-14.37,-10.84,-14.38,-10.85,6.00,6.32,6.22,-8.37,-8.38,-3.53
51.47,-14.27,-10.73,-14.27,-10.74,6.00,6.31,6.26,-8.27,-8.27,-3.54
51.99,-14.16,-10.63,-14.15,-10.62,6.00,6.29,6.31,-8.16,-8.15,-3.53
52.51,-14.05,-10.53,-14.04,-10.52,6.00,6.28,6.36,-8.05,-8.04,-3.52
53.03,-13.94,-10.42,-13.94,-10.41,6.00,6.27,6.41,-7.94,-7.94,-3.52
53.56,-13.84,-10.32,-13.83,-10.30,6.00,6.25,6.46,-7.84,-7.83,-3.52
54.10,-13.73,-10.21,-13.73,-10.20,6.00,6.23,6.51,-7.73,-7.73,-3.52
54.64,-13.63,-10.10,-13.63,-10.10,6.00,6.22,6.56,-7.63,-7.63,-3.53
55.18,-13.54,-10.01,-13.54,-10.00,6.00,6.20,6.60,-7.54,-7.54,-3.53
55.74,-13.44,-9.90,-13.44,-9.91,6.00,6.18,6.65,-7.44,-7.44,-3.54
56.29,-13.35,-9.80,-13.35,-9.81,6.00,6.17,6.69,-7.35,-7.35,-3.54
56.86,-13.25,-9.69,-13.26,-9.71,6.00,6.15,6.73,-7.25,-7.26,-3.56
57.42,-13.16,-9.59,-13.16,-9.60,6.00,6.13,6.76,-7.16,-7.16,-3.57
58.00,-13.07,-9.50,-13.07,-9.50,6.00,6.11,6.79,-7.07,-7.07,-3.57
58.58,-12.99,-9.41,-12.98,-9.40,6.00,6.09,6.82,-6.99,-6.98,-3.58
59.16,-12.91,-9.32,-12.89,-9.29,6.00,6.07,6.84,-6.91,-6.89,-3.59
59.76,-12.82,-9.22,-12.80,-9.19,6.00,6.05,6.85,-6.82,-6.80,-3.60
60.35,-12.72,-9.09,-12.71,-9.08,6.00,6.03,6.86,-6.72,-6.71,-3.62
60.96,-12.63,-9.00,-12.62,-8.98,6.00,6.01,6.85,-6.63,-6.62,-3.63
61.57,-12.53,-8.87,-12.53,-8.87,6.00,5.99,6.85,-6.53,-6.53,-3.66
62.18,-12.44,-8.75,-12.44,-8.77,6.00,5.97,6.83,-6.44,-6.44,-3.69
62.80,-12.35,-8.65,-12.35,-8.66,6.00,5.95,6.81,-6.35,-6.35,-3.69
63.43,-12.26,-8.54,-12.26,-8.56,6.00,5.93,6.77,-6.26,-6.26,-3.72
64.07,-12.17,-8.44,-12.17,-8.45,6.00,5.91,6.73,-6.17,-6.17,-3.73
64.71,-12.07,-8.33,-12.07,-8.35,6.00,5.89,6.69,-6.07,-6.07,-3.74
65.35,-11.98,-8.23,-11.98,-8.24,6.00,5.87,6.63,-5.98,-5.98,-3.74
66.01,-11.89,-8.15,-11.88,-8.15,6.00,5.85,6.57,-5.89,-5.88,-3.74
66.67,-11.80,-8.06,-11.79,-8.05,6.00,5.84,6.50,-5.80,-5.79,-3.74
67.33,-11.70,-7.96,-11.69,-7.95,6.00,5.82,6.43,-5.70,-5.69,-3.74
68.01,-11.60,-7.86,-11.60,-7.86,6.00,5.80,6.35,-5.60,-5.60,-3.74
68.69,-11.50,-7.76,-11.50,-7.76,6.00,5.78,6.26,-5.50,-5.50,-3.74
69.37,-11.40,-7.67,-11.40,-7.67,6.00,5.77,6.17,-5.40,-5.40,-3.73
70.07,-11.30,-7.56,-11.30,-7.57,6.00,5.76,6.08,-5.30,-5.30,-3.73
70.77,-11.21,-7.49,-11.21,-7.48,6.00,5.75,5.99,-5.21,-5.21,-3.72
71.48,-11.12,-7.40,-11.11,-7.38,6.00,5.74,5.89,-5.12,-5.11,-3.72
72.19,-11.02,-7.29,-11.01,-7.29,6.00,5.73,5.79,-5.02,-5.01,-3.72
72.91,-10.91,-7.19,-10.91,-7.19,6.00,5.73,5.69,-4.91,-4.91,-3.72
73.64,-10.81,-7.09,-10.82,-7.09,6.00,5.73,5.58,-4.81,-4.82,-3.72
74.38,-10.71,-6.99,-10.72,-7.00,6.00,5.74,5.48,-4.71,-4.72,-3.72
75.12,-10.62,-6.89,-10.63,-6.90,6.00,5.75,5.38,-4.62,-4.63,-3.72
75.87,-10.53,-6.81,-10.53,-6.81,6.00,5.76,5.27,-4.53,-4.53,-3.72
76.63,-10.44,-6.72,-10.44,-6.71,6.00,5.78,5.17,-4.44,-4.44,-3.72
77.40,-10.35,-6.62,-10.34,-6.62,6.00,5.81,5.07,-4.35,-4.34,-3.73
78.17,-10.26,-6.52,-10.25,-6.53,6.00,5.84,4.97,-4.26,-4.25,-3.73
78.95,-10.17,-6.46,-10.16,-6.44,6.00,5.87,4.87,-4.17,-4.16,-3.71
79.74,-10.06,-6.35,-10.07,-6.36,6.00,5.90,4.78,-4.06,-4.07,-3.71
80.54,-9.97,-6.26,-9.98,-6.27,6.00,5.92,4.69,-3.97,-3.98,-3.71
81.35,-9.89,-6.19,-9.89,-6.19,5.99,5.93,4.59,-3.90,-3.89,-3.70
82.16,-9.80,-6.10,-9.80,-6.11,5.97,5.93,4.51,-3.83,-3.82,-3.69
82.98,-9.70,-6.02,-9.71,-6.03,5.94,5.92,4.42,-3.76,-3.77,-3.68
83.81,-9.62,-5.95,-9.62,-5.95,5.90,5.88,4.34,-3.72,-3.72,-3.67
84.65,-9.53,-5.87,-9.53,-5.88,5.85,5.82,4.26,-3.68,-3.68,-3.66
85.50,-9.45,-5.81,-9.44,-5.80,5.79,5.74,4.18,-3.66,-3.65,-3.63
86.35,-9.36,-5.74,-9.35,-5.73,5.73,5.64,4.11,-3.63,-3.63,-3.62
87.22,-9.27,-5.66,-9.27,-5.66,5.66,5.53,4.04,-3.61,-3.61,-3.61
88.09,-9.17,-5.57,-9.18,-5.58,5.58,5.42,3.97,-3.59,-3.60,-3.60
88.97,-9.09,-5.51,-9.10,-5.51,5.51,5.30,3.90,-3.58,-3.59,-3.58
89.86,-9.02,-5.44,-9.02,-5.43,5.43,5.19,3.84,-3.59,-3.59,-3.58
90.76,-8.94,-5.35,-8.94,-5.35,5.35,5.07,3.78,-3.59,-3.59,-3.59
91.66,-8.86,-5.28,-8.86,-5.27,5.27,4.96,3.73,-3.59,-3.59,-3.58
92.58,-8.78,-5.18,-8.78,-5.18,5.18,4.86,3.67,-3.60,-3.60,-3.60
93.51,-8.70,-5.10,-8.70,-5.09,5.09,4.76,3.62,-3.61,-3.61,-3.60
94.44,-8.63,-5.01,-8.62,-4.99,4.99,4.66,3.57,-3.63,-3.62,-3.61
95.39,-8.56,-4.93,-8.54,-4.90,4.90,4.57,3.53,-3.66,-3.64,-3.63
96.34,-8.47,-4.81,-8.46,-4.79,4.79,4.48,3.49,-3.67,-3.67,-3.66
97.30,-8.40,-4.70,-8.39,-4.69,4.69,4.40,3.45,-3.71,-3.70,-3.70
98.28,-8.32,-4.59,-8.32,-4.59,4.59,4.32,3.41,-3.73,-3.73,-3.73
99.26,-8.24,-4.47,-8.24,-4.48,4.48,4.24,3.37,-3.76,-3.76,-3.77
100.25,-8.15,-4.34,-8.17,-4.37,4.37,4.16,3.34,-3.78,-3.80,-3.80
101.25,-8.08,-4.23,-8.10,-4.26,4.26,4.09,3.31,-3.82,-3.84,-3.84
102.27,-8.00,-4.12,-8.03,-4.15,4.15,4.02,3.28,-3.85,-3.88,-3.88
103.29,-7.96,-4.03,-7.96,-4.04,4.04,3.94,3.25,-3.92,-3.92,-3.93
104.32,-7.91,-3.95,-7.89,-3.93,3.93,3.87,3.22,-3.98,-3.97,-3.96
105.37,-7.84,-3.83,-7.82,-3.81,3.81,3.80,3.20,-4.02,-4.01,-4.01
106.42,-7.77,-3.72,-7.76,-3.71,3.71,3.74,3.17,-4.06,-4.05,-4.05
107.48,-7.70,-3.61,-7.69,-3.60,3.60,3.67,3.15,-4.09,-4.09,-4.09
108.56,-7.63,-3.50,-7.63,-3.50,3.50,3.60,3.12,-4.13,-4.13,-4.13
109.64,-7.57,-3.40,-7.57,-3.40,3.40,3.54,3.10,-4.17,-4.16,-4.17
110.74,-7.51,-3.31,-7.50,-3.30,3.30,3.47,3.07,-4.21,-4.20,-4.20
111.85,-7.44,-3.21,-7.44,-3.21,3.21,3.40,3.05,-4.23,-4.24,-4.23
112.97,-7.37,-3.09,-7.38,-3.11,3.11,3.34,3.03,-4.25,-4.27,-4.28
114.10,-7.30,-3.00,-7.32,-3.02,3.02,3.27,3.00,-4.28,-4.30,-4.29
115.24,-7.24,-2.91,-7.25,-2.93,2.93,3.21,2.97,-4.31,-4.32,-4.33
116.39,-7.21,-2.85,-7.19,-2.84,2.84,3.14,2.95,-4.37,-4.35,-4.36
117.55,-7.16,-2.78,-7.13,-2.76,2.76,3.08,2.92,-4.40,-4.37,-4.38
118.73,-7.08,-2.67,-7.07,-2.68,2.68,3.01,2.89,-4.40,-4.39,-4.41
119.92,-7.01,-2.60,-7.01,-2.60,2.60,2.95,2.86,-4.41,-4.41,-4.41
121.12,-6.94,-2.51,-6.95,-2.53,2.53,2.89,2.82,-4.41,-4.43,-4.43
122.33,-6.90,-2.45,-6.89,-2.45,2.45,2.82,2.79,-4.45,-4.44,-4.45
123.55,-6.84,-2.39,-6.83,-2.37,2.37,2.76,2.75,-4.46,-4.46,-4.45
124.79,-6.76,-2.29,-6.77,-2.30,2.30,2.69,2.71,-4.46,-4.47,-4.47
126.03,-6.69,-2.22,-6.70,-2.23,2.23,2.63,2.66,-4.46,-4.48,-4.47
127.29,-6.66,-2.17,-6.64,-2.15,2.15,2.56,2.62,-4.51,-4.49,-4.49
128.57,-6.61,-2.10,-6.58,-2.07,2.07,2.50,2.57,-4.54,-4.50,-4.51
129.85,-6.52,-2.00,-6.51,-2.00,2.00,2.44,2.52,-4.52,-4.52,-4.51
131.15,-6.44,-1.91,-6.45,-1.92,1.92,2.37,2.46,-4.52,-4.53,-4.53
132.46,-6.40,-1.85,-6.39,-1.84,1.84,2.31,2.41,-4.55,-4.54,-4.55
133.79,-6.32,-1.77,-6.32,-1.76,1.76,2.24,2.35,-4.55,-4.56,-4.55
135.12,-6.24,-1.67,-6.26,-1.69,1.69,2.18,2.29,-4.55,-4.57,-4.57
136.48,-6.20,-1.62,-6.20,-1.61,1.61,2.11,2.23,-4.59,-4.59,-4.58
137.84,-6.13,-1.52,-6.14,-1.53,1.53,2.05,2.17,-4.60,-4.61,-4.60
139.22,-6.09,-1.46,-6.08,-1.46,1.46,1.98,2.10,-4.63,-4.63,-4.63
140.61,-6.04,-1.39,-6.03,-1.38,1.38,1.92,2.04,-4.66,-4.64,-4.65
142.02,-5.96,-1.30,-5.97,-1.31,1.31,1.85,1.97,-4.65,-4.66,-4.66
143.44,-5.92,-1.24,-5.92,-1.23,1.23,1.79,1.90,-4.68,-4.68,-4.68
144.87,-5.85,-1.14,-5.87,-1.16,1.16,1.73,1.83,-4.69,-4.71,-4.71
146.32,-5.81,-1.08,-5.82,-1.09,1.09,1.66,1.76,-4.72,-4.73,-4.73
147.78,-5.77,-1.02,-5.77,-1.02,1.02,1.60,1.69,-4.75,-4.75,-4.75
149.26,-5.74,-0.96,-5.73,-0.95,0.95,1.53,1.61,-4.79,-4.78,-4.77
150.75,-5.69,-0.88,-5.68,-0.87,0.87,1.47,1.54,-4.82,-4.81,-4.81
152.26,-5.65,-0.81,-5.63,-0.80,0.80,1.40,1.47,-4.85,-4.84,-4.83
153.78,-5.60,-0.74,-5.59,-0.73,0.73,1.34,1.40,-4.87,-4.86,-4.86
155.32,-5.56,-0.67,-5.55,-0.65,0.65,1.28,1.32,-4.90,-4.89,-4.89
156.88,-5.50,-0.58,-5.51,-0.58,0.58,1.21,1.25,-4.92,-4.92,-4.91
158.44,-5.45,-0.49,-5.46,-0.51,0.51,1.15,1.17,-4.94,-4.96,-4.96
160.03,-5.41,-0.42,-5.42,-0.43,0.43,1.08,1.10,-4.98,-4.99,-4.99
161.63,-5.38,-0.35,-5.38,-0.36,0.36,1.02,1.03,-5.02,-5.02,-5.03
163.24,-5.35,-0.29,-5.33,-0.28,0.28,0.96,0.95,-5.07,-5.05,-5.06
164.88,-5.29,-0.20,-5.29,-0.21,0.21,0.89,0.88,-5.08,-5.09,-5.09
166.53,-5.26,-0.14,-5.25,-0.13,0.13,0.83,0.81,-5.13,-5.12,-5.12
168.19,-5.23,-0.08,-5.21,-0.06,0.06,0.77,0.74,-5.16,-5.15,-5.15
169.87,-5.17,0.01,-5.17,0.01,-0.01,0.70,0.66,-5.17,-5.18,-5.17
171.57,-5.12,0.08,-5.13,0.07,-0.07,0.64,0.59,-5.19,-5.20,-5.20
173.29,-5.08,0.15,-5.09,0.14,-0.14,0.58,0.52,-5.22,-5.23,-5.23
175.02,-5.03,0.23,-5.05,0.20,-0.20,0.51,0.45,-5.23,-5.26,-5.26
176.77,-5.01,0.27,-5.01,0.26,-0.26,0.45,0.38,-5.27,-5.28,-5.28
178.54,-4.99,0.32,-4.97,0.32,-0.32,0.39,0.31,-5.31,-5.30,-5.31
180.32,-4.96,0.36,-4.94,0.38,-0.38,0.33,0.24,-5.34,-5.32,-5.32
182.13,-4.93,0.41,-4.90,0.44,-0.44,0.27,0.17,-5.36,-5.33,-5.34
183.95,-4.87,0.48,-4.86,0.49,-0.49,0.20,0.09,-5.36,-5.35,-5.35
185.79,-4.83,0.54,-4.82,0.54,-0.54,0.14,0.02,-5.37,-5.36,-5.37
187.65,-4.78,0.60,-4.79,0.59,-0.59,0.08,-0.05,-5.37,-5.37,-5.38
189.52,-4.74,0.64,-4.75,0.63,-0.63,0.02,-0.11,-5.37,-5.38,-5.38
191.42,-4.70,0.70,-4.71,0.68,-0.68,-0.04,-0.18,-5.38,-5.39,-5.39
193.33,-4.68,0.72,-4.68,0.72,-0.72,-0.10,-0.25,-5.40,-5.40,-5.40
195.27,-4.66,0.74,-4.65,0.76,-0.76,-0.16,-0.32,-5.42,-5.41,-5.40
197.22,-4.63,0.78,-4.62,0.79,-0.79,-0.22,-0.39,-5.42,-5.41,-5.41
199.19,-4.60,0.83,-4.60,0.82,-0.82,-0.28,-0.46,-5.42,-5.42,-5.43
201.18,-4.57,0.86,-4.58,0.85,-0.85,-0.34,-0.53,-5.41,-5.43,-5.43
203.19,-4.55,0.88,-4.57,0.87,-0.87,-0.40,-0.59,-5.41,-5.43,-5.43
205.23,-4.53,0.91,-4.56,0.88,-0.88,-0.46,-0.66,-5.41,-5.44,-5.44
207.28,-4.52,0.92,-4.55,0.90,-0.90,-0.51,-0.73,-5.41,-5.45,-5.44
209.35,-4.52,0.93,-4.54,0.91,-0.91,-0.57,-0.79,-5.43,-5.45,-5.45
211.44,-4.53,0.94,-4.54,0.92,-0.92,-0.63,-0.86,-5.45,-5.46,-5.47
213.56,-4.55,0.92,-4.53,0.94,-0.94,-0.69,-0.92,-5.49,-5.47,-5.47
215.69,-4.55,0.92,-4.52,0.96,-0.96,-0.74,-0.98,-5.50,-5.47,-5.46
217.85,-4.54,0.94,-4.50,0.98,-0.98,-0.80,-1.04,-5.51,-5.48,-5.48
220.03,-4.53,0.96,-4.49,1.00,-1.00,-0.85,-1.10,-5.53,-5.49,-5.49
222.23,-4.51,1.00,-4.48,1.02,-1.02,-0.91,-1.16,-5.53,-5.50,-5.51
224.45,-4.48,1.03,-4.46,1.05,-1.05,-0.97,-1.22,-5.53,-5.51,-5.51
226.70,-4.44,1.07,-4.44,1.08,-1.08,-1.02,-1.28,-5.52,-5.52,-5.51
228.96,-4.40,1.12,-4.41,1.12,-1.12,-1.07,-1.33,-5.51,-5.53,-5.52
231.25,-4.38,1.15,-4.39,1.15,-1.15,-1.13,-1.38,-5.53,-5.54,-5.53
233.57,-4.35,1.19,-4.36,1.19,-1.19,-1.18,-1.43,-5.54,-5.55,-5.54
235.90,-4.30,1.26,-4.33,1.23,-1.23,-1.24,-1.48,-5.53,-5.56,-5.56
238.26,-4.28,1.29,-4.30,1.27,-1.27,-1.29,-1.53,-5.55,-5.57,-5.57
240.64,-4.26,1.33,-4.28,1.31,-1.31,-1.34,-1.57,-5.56,-5.58,-5.59
243.05,-4.25,1.35,-4.25,1.34,-1.34,-1.39,-1.61,-5.58,-5.59,-5.59
245.48,-4.24,1.36,-4.23,1.36,-1.36,-1.44,-1.65,-5.60,-5.59,-5.60
247.93,-4.21,1.40,-4.21,1.39,-1.39,-1.49,-1.69,-5.60,-5.60,-5.60
250.41,-4.19,1.43,-4.19,1.41,-1.41,-1.54,-1.72,-5.60,-5.60,-5.62
252.92,-4.17,1.43,-4.17,1.43,-1.43,-1.59,-1.75,-5.60,-5.60,-5.60
255.45,-4.15,1.45,-4.15,1.45,-1.45,-1.64,-1.78,-5.60,-5.60,-5.60
258.00,-4.14,1.45,-4.13,1.46,-1.46,-1.69,-1.81,-5.60,-5.59,-5.59
260.58,-4.11,1.48,-4.10,1.48,-1.48,-1.74,-1.84,-5.59,-5.58,-5.59
263.19,-4.09,1.48,-4.08,1.49,-1.49,-1.79,-1.86,-5.58,-5.57,-5.57
265.82,-4.06,1.51,-4.05,1.51,-1.51,-1.84,-1.88,-5.57,-5.56,-5.56
268.48,-4.03,1.51,-4.01,1.53,-1.53,-1.88,-1.90,-5.56,-5.54,-5.54
271.16,-3.99,1.53,-3.98,1.55,-1.55,-1.93,-1.92,-5.54,-5.53,-5.52
273.87,-3.93,1.58,-3.94,1.57,-1.57,-1.98,-1.93,-5.50,-5.51,-5.50
276.61,-3.90,1.58,-3.90,1.59,-1.59,-2.02,-1.95,-5.49,-5.49,-5.48
279.38,-3.86,1.61,-3.86,1.61,-1.61,-2.07,-1.96,-5.47,-5.47,-5.47
282.17,-3.82,1.64,-3.82,1.64,-1.64,-2.11,-1.97,-5.45,-5.46,-5.45
284.99,-3.78,1.66,-3.77,1.66,-1.66,-2.16,-1.99,-5.44,-5.44,-5.44
287.84,-3.72,1.70,-3.73,1.69,-1.69,-2.20,-2.00,-5.41,-5.42,-5.42
290.72,-3.67,1.72,-3.68,1.72,-1.72,-2.24,-2.01,-5.39,-5.40,-5.39
293.63,-3.63,1.76,-3.63,1.75,-1.75,-2.29,-2.02,-5.37,-5.38,-5.38
296.57,-3.60,1.76,-3.58,1.77,-1.77,-2.33,-2.03,-5.37,-5.36,-5.36
299.53,-3.55,1.79,-3.53,1.80,-1.80,-2.37,-2.05,-5.35,-5.34,-5.34
302.53,-3.49,1.84,-3.49,1.83,-1.83,-2.41,-2.06,-5.32,-5.32,-5.33
305.55,-3.43,1.87,-3.43,1.86,-1.86,-2.45,-2.07,-5.29,-5.29,-5.29
308.61,-3.37,1.91,-3.38,1.89,-1.89,-2.49,-2.08,-5.26,-5.27,-5.28
311.69,-3.32,1.93,-3.33,1.92,-1.92,-2.53,-2.10,-5.24,-5.25,-5.25
314.81,-3.27,1.94,-3.28,1.95,-1.95,-2.57,-2.12,-5.22,-5.22,-5.21
317.96,-3.23,1.96,-3.22,1.98,-1.98,-2.61,-2.13,-5.21,-5.20,-5.19
321.14,-3.17,2.01,-3.17,2.01,-2.01,-2.65,-2.15,-5.18,-5.18,-5.17
324.35,-3.11,2.05,-3.11,2.05,-2.05,-2.69,-2.17,-5.15,-5.15,-5.16
327.59,-3.05,2.08,-3.05,2.08,-2.08,-2.72,-2.19,-5.13,-5.13,-5.13
330.87,-3.00,2.11,-2.99,2.12,-2.12,-2.76,-2.21,-5.11,-5.10,-5.11
334.18,-2.93,2.15,-2.93,2.15,-2.15,-2.80,-2.24,-5.08,-5.08,-5.08
337.52,-2.86,2.20,-2.86,2.19,-2.19,-2.83,-2.26,-5.05,-5.05,-5.06
340.90,-2.81,2.23,-2.80,2.24,-2.24,-2.87,-2.29,-5.04,-5.03,-5.03
344.30,-2.74,2.27,-2.73,2.28,-2.28,-2.90,-2.32,-5.02,-5.01,-5.00
347.75,-2.66,2.33,-2.66,2.33,-2.33,-2.93,-2.35,-4.98,-4.98,-4.99
351.23,-2.58,2.38,-2.58,2.37,-2.37,-2.97,-2.39,-4.95,-4.96,-4.96
354.74,-2.51,2.42,-2.51,2.42,-2.42,-3.00,-2.42,-4.93,-4.93,-4.93
358.28,-2.44,2.47,-2.43,2.47,-2.47,-3.03,-2.46,-4.91,-4.91,-4.91
361.87,-2.37,2.51,-2.36,2.52,-2.52,-3.07,-2.50,-4.89,-4.88,-4.88
365.49,-2.28,2.57,-2.28,2.58,-2.58,-3.10,-2.54,-4.85,-4.86,-4.85
369.14,-2.20,2.64,-2.21,2.63,-2.63,-3.13,-2.58,-4.83,-4.83,-4.84
372.83,-2.13,2.69,-2.13,2.68,-2.68,-3.16,-2.62,-4.81,-4.81,-4.81
376.56,-2.05,2.75,-2.06,2.73,-2.73,-3.19,-2.67,-4.78,-4.79,-4.80
380.33,-1.98,2.78,-1.98,2.79,-2.79,-3.22,-2.72,-4.76,-4.77,-4.76
384.13,-1.91,2.84,-1.91,2.84,-2.84,-3.25,-2.77,-4.75,-4.75,-4.75
387.97,-1.83,2.90,-1.84,2.89,-2.89,-3.28,-2.82,-4.72,-4.73,-4.73
391.85,-1.76,2.96,-1.77,2.95,-2.95,-3.30,-2.87,-4.71,-4.71,-4.72
395.77,-1.70,2.99,-1.70,3.00,-3.00,-3.33,-2.93,-4.70,-4.70,-4.69
