frequency,raw,error,smoothed,error_smoothed,equalization,parametric_eq,fixed_band_eq,equalized_raw,equalized_smoothed,target
20.00,-4.34,-7.96,-4.34,-7.95,6.00,6.18,2.21,1.66,1.66,3.62
20.20,-4.28,-7.90,-4.28,-7.90,6.00,6.14,2.27,1.72,1.72,3.62
20.40,-4.23,-7.85,-4.23,-7.85,6.00,6.10,2.34,1.77,1.77,3.62
20.61,-4.17,-7.79,-4.17,-7.79,6.00,6.06,2.41,1.83,1.83,3.62
20.81,-4.11,-7.72,-4.11,-7.73,6.00,6.03,2.48,1.89,1.89,3.62
21.02,-4.06,-7.67,-4.05,-7.66,6.00,5.99,2.55,1.94,1.95,3.62
21.23,-4.00,-7.59,-4.00,-7.60,6.00,5.95,2.63,2.00,2.00,3.59
21.44,-3.94,-7.52,-3.94,-7.53,6.00,5.92,2.71,2.06,2.06,3.58
21.66,-3.89,-7.45,-3.89,-7.45,6.00,5.89,2.78,2.11,2.11,3.56
21.87,-3.84,-7.38,-3.83,-7.38,6.00,5.86,2.87,2.16,2.17,3.54
22.09,-3.77,-7.30,-3.78,-7.30,6.00,5.83,2.95,2.23,2.22,3.53
22.31,-3.72,-7.22,-3.72,-7.23,6.00,5.80,3.04,2.28,2.28,3.50
22.54,-3.67,-7.15,-3.66,-7.15,6.00,5.78,3.13,2.33,2.34,3.48
22.76,-3.61,-7.07,-3.61,-7.07,6.00,5.76,3.22,2.39,2.39,3.46
22.99,-3.55,-6.98,-3.55,-6.98,6.00,5.74,3.31,2.45,2.45,3.43
23.22,-3.50,-6.90,-3.50,-6.90,6.00,5.74,3.41,2.50,2.50,3.40
23.45,-3.44,-6.82,-3.44,-6.82,6.00,5.73,3.50,2.56,2.56,3.38
23.69,-3.38,-6.75,-3.38,-6.74,6.00,5.74,3.60,2.62,2.62,3.37
23.92,-3.32,-6.67,-3.32,-6.67,6.00,5.75,3.70,2.68,2.68,3.35
24.16,-3.26,-6.59,-3.26,-6.59,6.00,5.77,3.81,2.74,2.74,3.34
24.40,-3.21,-6.52,-3.21,-6.52,6.00,5.80,3.91,2.79,2.80,3.31
24.65,-3.15,-6.44,-3.15,-6.45,6.01,5.85,4.02,2.86,2.86,3.29
24.89,-3.10,-6.37,-3.09,-6.37,6.01,5.90,4.13,2.92,2.92,3.27
25.14,-3.03,-6.29,-3.03,-6.29,6.01,5.98,4.23,2.99,2.98,3.26
25.39,-2.97,-6.21,-2.97,-6.21,6.01,6.05,4.34,3.04,3.04,3.24
25.65,-2.91,-6.14,-2.91,-6.13,5.99,6.15,4.45,3.08,3.08,3.23
25.91,-2.85,-6.05,-2.85,-6.05,5.97,6.25,4.56,3.12,3.12,3.20
26.16,-2.78,-5.97,-2.78,-5.97,5.93,6.34,4.67,3.15,3.14,3.19
26.43,-2.72,-5.90,-2.72,-5.89,5.88,6.42,4.78,3.16,3.16,3.18
26.69,-2.65,-5.81,-2.65,-5.81,5.82,6.45,4.89,3.17,3.17,3.16
26.96,-2.58,-5.72,-2.58,-5.73,5.74,6.46,4.99,3.16,3.16,3.14
27.23,-2.52,-5.65,-2.52,-5.65,5.66,6.39,5.09,3.14,3.15,3.13
27.50,-2.46,-5.58,-2.45,-5.57,5.58,6.30,5.19,3.12,3.13,3.12
27.77,-2.39,-5.49,-2.39,-5.49,5.49,6.13,5.28,3.11,3.10,3.10
28.05,-2.32,-5.41,-2.32,-5.41,5.41,5.96,5.38,3.09,3.09,3.09
28.33,-2.26,-5.33,-2.26,-5.33,5.33,5.75,5.46,3.07,3.08,3.07
28.62,-2.19,-5.25,-2.19,-5.25,5.25,5.54,5.54,3.06,3.06,3.06
28.90,-2.13,-5.17,-2.13,-5.17,5.17,5.34,5.61,3.04,3.04,3.04
29.19,-2.07,-5.09,-2.06,-5.09,5.09,5.14,5.68,3.02,3.03,3.02
29.48,-1.99,-5.01,-1.99,-5.01,5.01,4.96,5.73,3.02,3.02,3.02
29.78,-1.92,-4.93,-1.92,-4.93,4.93,4.78,5.78,3.01,3.01,3.01
30.08,-1.85,-4.85,-1.85,-4.85,4.84,4.63,5.81,2.99,2.99,3.00
30.38,-1.78,-4.76,-1.78,-4.76,4.76,4.48,5.85,2.98,2.98,2.98
30.68,-1.71,-4.67,-1.71,-4.67,4.67,4.35,5.86,2.96,2.96,2.96
30.99,-1.63,-4.57,-1.63,-4.58,4.58,4.22,5.87,2.95,2.95,2.94
31.30,-1.56,-4.49,-1.56,-4.49,4.49,4.11,5.86,2.93,2.93,2.93
31.61,-1.48,-4.40,-1.48,-4.39,4.40,4.00,5.85,2.92,2.91,2.92
31.93,-1.41,-4.31,-1.41,-4.30,4.30,3.90,5.83,2.89,2.89,2.89
32.24,-1.34,-4.20,-1.34,-4.21,4.21,3.80,5.79,2.87,2.87,2.86
32.57,-1.27,-4.12,-1.27,-4.12,4.12,3.71,5.74,2.85,2.85,2.85
32.89,-1.20,-4.04,-1.20,-4.02,4.02,3.62,5.69,2.83,2.83,2.84
33.22,-1.12,-3.92,-1.12,-3.93,3.93,3.54,5.62,2.81,2.81,2.80
33.55,-1.05,-3.84,-1.05,-3.84,3.84,3.46,5.55,2.79,2.79,2.79
33.89,-0.98,-3.75,-0.97,-3.74,3.74,3.38,5.47,2.76,2.77,2.77
34.23,-0.90,-3.65,-0.90,-3.65,3.65,3.30,5.38,2.75,2.75,2.75
34.57,-0.83,-3.55,-0.83,-3.55,3.56,3.23,5.29,2.73,2.72,2.72
34.92,-0.76,-3.46,-0.76,-3.46,3.46,3.15,5.19,2.70,2.70,2.70
35.27,-0.69,-3.38,-0.69,-3.37,3.37,3.08,5.08,2.68,2.68,2.69
35.62,-0.61,-3.27,-0.61,-3.28,3.28,3.01,4.97,2.67,2.66,2.66
35.97,-0.55,-3.19,-0.54,-3.19,3.19,2.95,4.85,2.64,2.64,2.64
36.33,-0.47,-3.09,-0.47,-3.09,3.10,2.88,4.73,2.63,2.62,2.62
36.70,-0.41,-3.01,-0.41,-3.01,3.01,2.81,4.61,2.60,2.60,2.60
37.06,-0.34,-2.92,-0.34,-2.92,2.92,2.75,4.49,2.58,2.58,2.58
37.43,-0.27,-2.83,-0.27,-2.83,2.83,2.69,4.36,2.56,2.56,2.56
37.81,-0.21,-2.75,-0.21,-2.74,2.74,2.62,4.24,2.53,2.54,2.54
38.19,-0.14,-2.65,-0.14,-2.66,2.66,2.56,4.11,2.52,2.52,2.51
38.57,-0.08,-2.58,-0.08,-2.58,2.57,2.50,3.98,2.50,2.49,2.50
38.95,-0.02,-2.49,-0.02,-2.49,2.49,2.44,3.86,2.47,2.47,2.47
39.34,0.04,-2.41,0.04,-2.41,2.41,2.38,3.73,2.45,2.45,2.45
39.74,0.10,-2.32,0.10,-2.33,2.33,2.32,3.60,2.43,2.43,2.42
40.14,0.16,-2.26,0.16,-2.25,2.25,2.26,3.48,2.41,2.41,2.42
40.54,0.21,-2.18,0.21,-2.18,2.18,2.20,3.36,2.39,2.39,2.39
40.94,0.27,-2.11,0.27,-2.11,2.11,2.14,3.23,2.38,2.38,2.38
41.35,0.32,-2.03,0.32,-2.03,2.04,2.09,3.11,2.36,2.36,2.35
41.76,0.38,-1.96,0.38,-1.96,1.97,2.03,2.99,2.35,2.34,2.34
42.18,0.43,-1.90,0.43,-1.90,1.90,1.97,2.88,2.33,2.32,2.33
42.60,0.47,-1.83,0.48,-1.83,1.83,1.92,2.76,2.30,2.30,2.30
43.03,0.52,-1.77,0.52,-1.77,1.76,1.86,2.65,2.28,2.28,2.29
43.46,0.57,-1.70,0.57,-1.70,1.70,1.81,2.53,2.27,2.27,2.27
43.90,0.62,-1.62,0.62,-1.63,1.63,1.75,2.42,2.25,2.25,2.24
44.33,0.66,-1.56,0.66,-1.56,1.57,1.70,2.31,2.23,2.22,2.22
44.78,0.69,-1.51,0.70,-1.50,1.50,1.64,2.21,2.19,2.20,2.20
45.23,0.74,-1.44,0.74,-1.44,1.44,1.59,2.10,2.18,2.18,2.18
45.68,0.77,-1.39,0.78,-1.38,1.39,1.54,2.00,2.16,2.16,2.16
46.13,0.82,-1.32,0.81,-1.33,1.33,1.49,1.90,2.15,2.15,2.14
46.60,0.85,-1.28,0.85,-1.27,1.28,1.43,1.80,2.13,2.13,2.13
47.06,0.88,-1.23,0.89,-1.22,1.22,1.38,1.70,2.10,2.11,2.11
47.53,0.92,-1.17,0.92,-1.18,1.17,1.33,1.60,2.09,2.09,2.09
48.01,0.95,-1.13,0.95,-1.12,1.12,1.28,1.51,2.07,2.07,2.08
48.49,0.98,-1.07,0.98,-1.07,1.07,1.23,1.42,2.05,2.04,2.05
48.97,1.00,-1.02,1.00,-1.01,1.01,1.18,1.32,2.01,2.02,2.02
49.46,1.03,-0.96,1.03,-0.96,0.96,1.13,1.23,1.99,1.99,1.99
49.96,1.05,-0.90,1.06,-0.91,0.91,1.08,1.15,1.96,1.97,1.95
50.46,1.09,-0.86,1.08,-0.86,0.86,1.03,1.06,1.95,1.95,1.95
50.96,1.11,-0.82,1.11,-0.81,0.81,0.99,0.97,1.93,1.92,1.93
51.47,1.13,-0.77,1.13,-0.77,0.77,0.94,0.89,1.90,1.90,1.90
51.99,1.15,-0.72,1.15,-0.72,0.72,0.89,0.81,1.87,1.88,1.87
52.51,1.18,-0.68,1.18,-0.68,0.68,0.84,0.73,1.86,1.85,1.86
53.03,1.20,-0.63,1.20,-0.63,0.63,0.80,0.65,1.83,1.83,1.83
53.56,1.22,-0.59,1.22,-0.59,0.59,0.75,0.57,1.81,1.81,1.81
54.10,1.25,-0.53,1.24,-0.54,0.54,0.71,0.50,1.79,1.78,1.78
54.64,1.26,-0.50,1.26,-0.49,0.49,0.66,0.42,1.75,1.76,1.76
55.18,1.28,-0.45,1.28,-0.45,0.45,0.61,0.35,1.73,1.73,1.73
55.74,1.31,-0.39,1.30,-0.41,0.40,0.57,0.28,1.71,1.71,1.70
56.29,1.32,-0.37,1.32,-0.36,0.36,0.52,0.21,1.68,1.69,1.69
56.86,1.34,-0.32,1.34,-0.32,0.32,0.48,0.15,1.66,1.66,1.66
57.42,1.36,-0.27,1.36,-0.28,0.28,0.44,0.08,1.64,1.63,1.63
58.00,1.37,-0.24,1.37,-0.24,0.24,0.39,0.02,1.61,1.61,1.61
58.58,1.38,-0.20,1.38,-0.20,0.20,0.35,-0.04,1.58,1.58,1.58
59.16,1.40,-0.16,1.40,-0.16,0.16,0.31,-0.10,1.56,1.56,1.56
59.76,1.41,-0.13,1.41,-0.13,0.12,0.26,-0.15,1.53,1.53,1.54
60.35,1.43,-0.08,1.43,-0.09,0.08,0.22,-0.21,1.51,1.51,1.51
60.96,1.43,-0.06,1.44,-0.05,0.04,0.18,-0.26,1.47,1.48,1.50
61.57,1.45,-0.00,1.45,-0.01,0.00,0.13,-0.31,1.45,1.45,1.45
62.18,1.46,0.04,1.46,0.04,-0.03,0.09,-0.36,1.43,1.43,1.42
62.80,1.47,0.08,1.47,0.08,-0.07,0.05,-0.40,1.40,1.40,1.39
63.43,1.47,0.11,1.47,0.11,-0.11,0.01,-0.45,1.37,1.37,1.36
64.07,1.47,0.14,1.48,0.14,-0.14,-0.04,-0.49,1.33,1.34,1.33
64.71,1.48,0.16,1.48,0.17,-0.17,-0.08,-0.53,1.31,1.31,1.32
65.35,1.49,0.20,1.49,0.20,-0.20,-0.12,-0.57,1.29,1.29,1.29
66.01,1.49,0.22,1.49,0.22,-0.22,-0.16,-0.60,1.27,1.27,1.27
66.67,1.49,0.25,1.49,0.25,-0.25,-0.20,-0.64,1.24,1.25,1.24
67.33,1.50,0.28,1.49,0.27,-0.27,-0.24,-0.67,1.23,1.22,1.22
68.01,1.49,0.30,1.49,0.30,-0.30,-0.29,-0.71,1.19,1.19,1.19
68.69,1.49,0.32,1.49,0.32,-0.33,-0.33,-0.74,1.17,1.17,1.17
69.37,1.49,0.35,1.49,0.35,-0.35,-0.37,-0.77,1.14,1.14,1.14
70.07,1.49,0.38,1.49,0.38,-0.38,-0.41,-0.80,1.12,1.12,1.12
70.77,1.49,0.40,1.49,0.40,-0.40,-0.45,-0.83,1.09,1.09,1.09
71.48,1.49,0.43,1.49,0.43,-0.43,-0.49,-0.85,1.06,1.06,1.06
72.19,1.48,0.45,1.48,0.46,-0.45,-0.54,-0.88,1.03,1.03,1.03
72.91,1.48,0.48,1.48,0.48,-0.48,-0.58,-0.91,1.00,0.99,1.00
73.64,1.47,0.51,1.47,0.51,-0.51,-0.62,-0.94,0.96,0.96,0.96
74.38,1.46,0.53,1.47,0.54,-0.54,-0.66,-0.96,0.92,0.93,0.93
75.12,1.46,0.58,1.46,0.57,-0.57,-0.70,-0.99,0.89,0.89,0.88
75.87,1.46,0.61,1.46,0.60,-0.60,-0.74,-1.02,0.86,0.86,0.85
76.63,1.45,0.63,1.45,0.63,-0.63,-0.79,-1.05,0.82,0.82,0.82
77.40,1.44,0.66,1.44,0.66,-0.66,-0.83,-1.07,0.78,0.78,0.78
78.17,1.43,0.70,1.43,0.69,-0.69,-0.87,-1.10,0.74,0.74,0.73
78.95,1.43,0.72,1.43,0.72,-0.73,-0.91,-1.13,0.70,0.70,0.71
79.74,1.42,0.76,1.42,0.76,-0.76,-0.96,-1.16,0.66,0.66,0.66
80.54,1.41,0.79,1.41,0.79,-0.80,-1.00,-1.19,0.61,0.62,0.62
81.35,1.41,0.83,1.41,0.83,-0.83,-1.04,-1.22,0.58,0.58,0.58
82.16,1.40,0.87,1.40,0.87,-0.87,-1.08,-1.26,0.53,0.54,0.53
82.98,1.40,0.91,1.40,0.91,-0.91,-1.13,-1.29,0.49,0.49,0.49
83.81,1.39,0.95,1.39,0.95,-0.94,-1.17,-1.32,0.45,0.44,0.44
84.65,1.37,0.98,1.38,0.99,-0.98,-1.21,-1.36,0.39,0.40,0.39
85.50,1.37,1.02,1.37,1.02,-1.02,-1.26,-1.40,0.35,0.35,0.35
86.35,1.36,1.06,1.36,1.06,-1.06,-1.30,-1.43,0.30,0.30,0.30
87.22,1.34,1.09,1.35,1.10,-1.10,-1.34,-1.47,0.24,0.25,0.25
88.09,1.34,1.14,1.34,1.13,-1.14,-1.38,-1.51,0.20,0.20,0.20
88.97,1.33,1.17,1.33,1.17,-1.18,-1.43,-1.56,0.16,0.15,0.16
89.86,1.32,1.21,1.32,1.22,-1.22,-1.47,-1.60,0.11,0.11,0.11
90.76,1.31,1.26,1.31,1.26,-1.26,-1.51,-1.64,0.06,0.06,0.05
91.66,1.30,1.30,1.30,1.30,-1.30,-1.56,-1.69,0.00,0.00,0.00
92.58,1.29,1.35,1.29,1.34,-1.34,-1.60,-1.74,-0.05,-0.05,-0.06
93.51,1.28,1.37,1.28,1.38,-1.38,-1.64,-1.78,-0.10,-0.10,-0.09
94.44,1.27,1.42,1.27,1.42,-1.42,-1.68,-1.83,-0.15,-0.15,-0.15
95.39,1.26,1.46,1.26,1.46,-1.47,-1.73,-1.88,-0.21,-0.21,-0.20
96.34,1.25,1.52,1.25,1.51,-1.51,-1.77,-1.93,-0.26,-0.26,-0.27
97.30,1.23,1.55,1.24,1.56,-1.56,-1.81,-1.99,-0.33,-0.32,-0.32
98.28,1.23,1.61,1.23,1.61,-1.61,-1.85,-2.04,-0.38,-0.38,-0.38
99.26,1.22,1.66,1.22,1.66,-1.66,-1.89,-2.09,-0.44,-0.44,-0.44
100.25,1.21,1.71,1.21,1.71,-1.71,-1.94,-2.15,-0.50,-0.50,-0.50
101.25,1.20,1.75,1.20,1.76,-1.76,-1.98,-2.20,-0.56,-0.56,-0.55
102.27,1.19,1.81,1.19,1.81,-1.81,-2.02,-2.26,-0.62,-0.62,-0.62
103.29,1.18,1.87,1.18,1.86,-1.86,-2.06,-2.31,-0.68,-0.68,-0.69
104.32,1.17,1.91,1.17,1.91,-1.91,-2.10,-2.37,-0.74,-0.74,-0.74
105.37,1.16,1.96,1.16,1.96,-1.96,-2.14,-2.43,-0.80,-0.81,-0.80
106.42,1.14,2.01,1.14,2.01,-2.01,-2.18,-2.48,-0.87,-0.87,-0.87
107.48,1.13,2.06,1.13,2.07,-2.07,-2.22,-2.54,-0.94,-0.93,-0.93
108.56,1.13,2.13,1.13,2.12,-2.12,-2.25,-2.59,-0.99,-1.00,-1.00
109.64,1.12,2.18,1.12,2.18,-2.18,-2.29,-2.64,-1.06,-1.06,-1.06
110.74,1.11,2.23,1.11,2.24,-2.24,-2.33,-2.69,-1.13,-1.12,-1.12
111.85,1.11,2.30,1.11,2.30,-2.30,-2.36,-2.74,-1.19,-1.19,-1.19
112.97,1.10,2.37,1.10,2.36,-2.36,-2.40,-2.79,-1.26,-1.26,-1.27
114.10,1.09,2.42,1.10,2.42,-2.42,-2.44,-2.84,-1.33,-1.33,-1.33
115.24,1.09,2.48,1.09,2.49,-2.48,-2.47,-2.88,-1.39,-1.39,-1.39
116.39,1.09,2.56,1.09,2.55,-2.55,-2.50,-2.92,-1.46,-1.46,-1.47
117.55,1.08,2.61,1.08,2.61,-2.61,-2.54,-2.96,-1.53,-1.53,-1.53
118.73,1.07,2.66,1.07,2.67,-2.67,-2.57,-2.99,-1.59,-1.59,-1.59
119.92,1.07,2.72,1.07,2.72,-2.72,-2.60,-3.02,-1.65,-1.65,-1.65
121.12,1.07,2.78,1.07,2.78,-2.78,-2.63,-3.05,-1.71,-1.71,-1.71
122.33,1.07,2.84,1.07,2.84,-2.84,-2.66,-3.07,-1.77,-1.77,-1.77
123.55,1.06,2.88,1.06,2.89,-2.89,-2.69,-3.09,-1.83,-1.83,-1.82
124.79,1.06,2.95,1.06,2.94,-2.95,-2.72,-3.11,-1.89,-1.89,-1.88
126.03,1.05,2.99,1.05,2.99,-3.00,-2.74,-3.12,-1.95,-1.94,-1.94
127.29,1.05,3.05,1.05,3.05,-3.05,-2.77,-3.13,-2.00,-2.00,-2.00
128.57,1.04,3.11,1.04,3.10,-3.09,-2.79,-3.13,-2.05,-2.05,-2.06
129.85,1.03,3.14,1.03,3.14,-3.13,-2.82,-3.13,-2.10,-2.11,-2.11
131.15,1.01,3.17,1.01,3.18,-3.17,-2.84,-3.13,-2.16,-2.16,-2.16
132.46,0.99,3.21,0.99,3.21,-3.20,-2.86,-3.12,-2.21,-2.21,-2.22
133.79,0.97,3.23,0.97,3.23,-3.23,-2.88,-3.12,-2.26,-2.26,-2.26
135.12,0.95,3.26,0.95,3.25,-3.25,-2.90,-3.10,-2.30,-2.31,-2.31
136.48,0.92,3.27,0.92,3.27,-3.27,-2.92,-3.09,-2.35,-2.35,-2.35
137.84,0.89,3.27,0.89,3.29,-3.29,-2.94,-3.07,-2.39,-2.39,-2.38
139.22,0.87,3.30,0.87,3.30,-3.30,-2.96,-3.05,-2.43,-2.43,-2.43
140.61,0.84,3.32,0.84,3.31,-3.30,-2.97,-3.03,-2.46,-2.46,-2.48
142.02,0.81,3.30,0.81,3.31,-3.31,-2.99,-3.01,-2.50,-2.50,-2.49
143.44,0.78,3.30,0.78,3.31,-3.31,-3.00,-2.99,-2.53,-2.53,-2.52
144.87,0.75,3.31,0.75,3.31,-3.31,-3.01,-2.96,-2.56,-2.56,-2.56
146.32,0.72,3.31,0.72,3.30,-3.31,-3.02,-2.94,-2.59,-2.59,-2.59
147.78,0.68,3.29,0.68,3.30,-3.30,-3.03,-2.91,-2.62,-2.61,-2.61
149.26,0.65,3.29,0.65,3.29,-3.29,-3.04,-2.89,-2.63,-2.64,-2.64
150.75,0.60,3.27,0.60,3.27,-3.27,-3.05,-2.86,-2.67,-2.66,-2.67
152.26,0.56,3.26,0.56,3.26,-3.25,-3.05,-2.84,-2.69,-2.69,-2.70
153.78,0.51,3.24,0.51,3.23,-3.22,-3.06,-2.81,-2.71,-2.72,-2.73
155.32,0.45,3.20,0.45,3.20,-3.20,-3.06,-2.79,-2.75,-2.75,-2.75
156.88,0.39,3.17,0.39,3.17,-3.17,-3.07,-2.77,-2.78,-2.78,-2.77
158.44,0.33,3.14,0.33,3.14,-3.15,-3.07,-2.75,-2.82,-2.81,-2.81
160.03,0.28,3.12,0.28,3.12,-3.12,-3.07,-2.73,-2.84,-2.84,-2.84
161.63,0.23,3.10,0.23,3.10,-3.11,-3.07,-2.71,-2.88,-2.87,-2.87
163.24,0.20,3.09,0.20,3.09,-3.10,-3.07,-2.70,-2.90,-2.90,-2.89
164.88,0.17,3.08,0.17,3.09,-3.09,-3.06,-2.68,-2.92,-2.92,-2.91
166.53,0.15,3.09,0.15,3.09,-3.10,-3.06,-2.67,-2.95,-2.95,-2.94
168.19,0.13,3.11,0.13,3.11,-3.11,-3.06,-2.66,-2.98,-2.98,-2.98
169.87,0.12,3.13,0.12,3.12,-3.13,-3.05,-2.65,-3.01,-3.01,-3.01
171.57,0.11,3.14,0.11,3.14,-3.15,-3.05,-2.64,-3.04,-3.04,-3.03
173.29,0.10,3.16,0.10,3.17,-3.17,-3.04,-2.64,-3.07,-3.07,-3.06
175.02,0.10,3.20,0.09,3.19,-3.19,-3.03,-2.64,-3.09,-3.10,-3.10
176.77,0.08,3.22,0.08,3.22,-3.21,-3.02,-2.64,-3.13,-3.13,-3.14
178.54,0.07,3.24,0.07,3.24,-3.23,-3.01,-2.64,-3.16,-3.16,-3.17
180.32,0.05,3.26,0.05,3.26,-3.25,-3.00,-2.64,-3.20,-3.21,-3.21
182.13,0.02,3.26,0.02,3.26,-3.27,-2.99,-2.65,-3.25,-3.25,-3.24
183.95,-0.01,3.27,-0.00,3.28,-3.28,-2.98,-2.66,-3.29,-3.28,-3.28
185.79,-0.03,3.28,-0.03,3.29,-3.29,-2.96,-2.67,-3.32,-3.32,-3.31
187.65,-0.05,3.30,-0.06,3.30,-3.29,-2.95,-2.68,-3.34,-3.35,-3.35
189.52,-0.09,3.29,-0.08,3.30,-3.30,-2.93,-2.69,-3.39,-3.38,-3.38
191.42,-0.11,3.30,-0.11,3.30,-3.30,-2.92,-2.71,-3.41,-3.41,-3.41
193.33,-0.14,3.29,-0.14,3.29,-3.30,-2.90,-2.72,-3.44,-3.44,-3.43
195.27,-0.17,3.29,-0.17,3.29,-3.30,-2.88,-2.74,-3.47,-3.47,-3.46
197.22,-0.21,3.28,-0.20,3.29,-3.29,-2.87,-2.76,-3.50,-3.50,-3.49
199.19,-0.23,3.31,-0.23,3.29,-3.29,-2.85,-2.78,-3.52,-3.52,-3.54
201.18,-0.26,3.29,-0.26,3.29,-3.28,-2.83,-2.81,-3.54,-3.55,-3.55
203.19,-0.30,3.27,-0.30,3.28,-3.27,-2.81,-2.83,-3.57,-3.57,-3.57
205.23,-0.33,3.26,-0.33,3.26,-3.27,-2.79,-2.86,-3.59,-3.59,-3.59
207.28,-0.36,3.24,-0.36,3.25,-3.26,-2.77,-2.88,-3.61,-3.62,-3.60
209.35,-0.39,3.24,-0.39,3.24,-3.24,-2.74,-2.91,-3.63,-3.63,-3.63
211.44,-0.42,3.24,-0.42,3.23,-3.23,-2.72,-2.93,-3.65,-3.65,-3.66
213.56,-0.45,3.22,-0.45,3.22,-3.22,-2.70,-2.96,-3.67,-3.67,-3.67
215.69,-0.48,3.20,-0.48,3.20,-3.20,-2.68,-2.98,-3.68,-3.68,-3.67
217.85,-0.51,3.18,-0.51,3.18,-3.19,-2.65,-3.01,-3.70,-3.70,-3.69
220.03,-0.54,3.17,-0.54,3.17,-3.17,-2.63,-3.03,-3.71,-3.71,-3.71
222.23,-0.56,3.16,-0.56,3.15,-3.15,-2.60,-3.05,-3.71,-3.71,-3.72
224.45,-0.59,3.12,-0.59,3.13,-3.12,-2.58,-3.07,-3.71,-3.71,-3.71
226.70,-0.62,3.11,-0.62,3.10,-3.10,-2.55,-3.09,-3.72,-3.72,-3.72
228.96,-0.65,3.08,-0.65,3.07,-3.07,-2.53,-3.11,-3.72,-3.72,-3.73
231.25,-0.68,3.04,-0.68,3.04,-3.04,-2.50,-3.12,-3.72,-3.72,-3.72
233.57,-0.70,3.01,-0.70,3.01,-3.01,-2.48,-3.13,-3.71,-3.71,-3.71
235.90,-0.73,2.98,-0.73,2.98,-2.98,-2.45,-3.14,-3.71,-3.71,-3.71
238.26,-0.75,2.96,-0.75,2.95,-2.95,-2.42,-3.14,-3.69,-3.70,-3.70
240.64,-0.78,2.90,-0.77,2.91,-2.91,-2.40,-3.14,-3.69,-3.68,-3.68
243.05,-0.79,2.88,-0.80,2.87,-2.87,-2.37,-3.14,-3.66,-3.67,-3.67
245.48,-0.82,2.83,-0.82,2.84,-2.84,-2.34,-3.13,-3.66,-3.65,-3.65
247.93,-0.84,2.80,-0.84,2.80,-2.80,-2.31,-3.12,-3.64,-3.64,-3.64
250.41,-0.86,2.77,-0.86,2.76,-2.76,-2.29,-3.10,-3.62,-3.62,-3.63
252.92,-0.88,2.72,-0.88,2.72,-2.72,-2.26,-3.08,-3.60,-3.60,-3.59
255.45,-0.90,2.67,-0.90,2.67,-2.68,-2.23,-3.06,-3.58,-3.58,-3.57
258.00,-0.92,2.63,-0.92,2.63,-2.64,-2.20,-3.03,-3.56,-3.56,-3.55
260.58,-0.93,2.61,-0.93,2.60,-2.60,-2.17,-3.00,-3.53,-3.53,-3.54
263.19,-0.95,2.56,-0.95,2.57,-2.56,-2.14,-2.96,-3.51,-3.51,-3.51
265.82,-0.96,2.53,-0.96,2.53,-2.53,-2.11,-2.92,-3.49,-3.48,-3.49
268.48,-0.97,2.50,-0.97,2.49,-2.49,-2.08,-2.88,-3.46,-3.46,-3.46
271.16,-0.98,2.45,-0.98,2.45,-2.46,-2.05,-2.83,-3.44,-3.44,-3.43
273.87,-1.00,2.42,-0.99,2.42,-2.42,-2.03,-2.78,-3.42,-3.41,-3.42
276.61,-1.00,2.38,-1.00,2.38,-2.39,-2.00,-2.73,-3.39,-3.39,-3.38
279.38,-1.01,2.36,-1.01,2.36,-2.35,-1.97,-2.67,-3.36,-3.36,-3.37
282.17,-1.02,2.32,-1.02,2.32,-2.32,-1.94,-2.61,-3.34,-3.34,-3.34
284.99,-1.03,2.29,-1.03,2.28,-2.28,-1.91,-2.55,-3.31,-3.32,-3.32
287.84,-1.05,2.24,-1.04,2.25,-2.25,-1.88,-2.49,-3.30,-3.29,-3.29
290.72,-1.05,2.21,-1.05,2.21,-2.21,-1.85,-2.43,-3.26,-3.27,-3.26
293.63,-1.06,2.18,-1.06,2.17,-2.18,-1.82,-2.36,-3.23,-3.24,-3.24
296.57,-1.07,2.14,-1.07,2.14,-2.14,-1.79,-2.30,-3.20,-3.20,-3.20
299.53,-1.08,2.10,-1.08,2.10,-2.09,-1.76,-2.23,-3.17,-3.17,-3.18
302.53,-1.09,2.06,-1.09,2.05,-2.05,-1.73,-2.16,-3.14,-3.14,-3.15
305.55,-1.11,2.00,-1.11,2.01,-2.01,-1.70,-2.10,-3.12,-3.11,-3.11
308.61,-1.12,1.96,-1.12,1.96,-1.96,-1.67,-2.03,-3.08,-3.08,-3.08
311.69,-1.13,1.91,-1.13,1.91,-1.92,-1.64,-1.96,-3.05,-3.05,-3.04
314.81,-1.14,1.87,-1.14,1.87,-1.87,-1.61,-1.89,-3.01,-3.01,-3.01
317.96,-1.16,1.82,-1.16,1.82,-1.82,-1.58,-1.83,-2.98,-2.98,-2.98
321.14,-1.17,1.78,-1.17,1.78,-1.78,-1.55,-1.76,-2.95,-2.95,-2.95
324.35,-1.19,1.74,-1.19,1.73,-1.74,-1.52,-1.69,-2.92,-2.92,-2.93
327.59,-1.20,1.69,-1.20,1.69,-1.69,-1.49,-1.63,-2.89,-2.90,-2.89
330.87,-1.22,1.64,-1.22,1.65,-1.65,-1.46,-1.56,-2.87,-2.87,-2.86
334.18,-1.23,1.62,-1.23,1.61,-1.62,-1.43,-1.50,-2.85,-2.85,-2.85
337.52,-1.24,1.58,-1.24,1.58,-1.58,-1.40,-1.44,-2.82,-2.82,-2.82
340.90,-1.26,1.53,-1.26,1.54,-1.54,-1.37,-1.37,-2.80,-2.80,-2.79
344.30,-1.27,1.50,-1.27,1.50,-1.50,-1.34,-1.31,-2.77,-2.77,-2.77
347.75,-1.29,1.46,-1.28,1.47,-1.46,-1.31,-1.25,-2.75,-2.74,-2.75
351.23,-1.29,1.44,-1.30,1.43,-1.41,-1.28,-1.19,-2.70,-2.71,-2.73
354.74,-1.32,1.39,-1.33,1.38,-1.36,-1.25,-1.13,-2.68,-2.69,-2.71
358.28,-1.38,1.31,-1.38,1.31,-1.30,-1.22,-1.07,-2.68,-2.68,-2.69
361.87,-1.44,1.23,-1.43,1.24,-1.24,-1.19,-1.01,-2.68,-2.67,-2.67
365.49,-1.49,1.16,-1.49,1.16,-1.17,-1.16,-0.96,-2.66,-2.67,-2.65
369.14,-1.54,1.10,-1.54,1.10,-1.11,-1.13,-0.90,-2.64,-2.65,-2.64
372.83,-1.59,1.03,-1.59,1.03,-1.03,-1.10,-0.85,-2.62,-2.62,-2.62
376.56,-1.63,0.97,-1.63,0.97,-0.96,-1.07,-0.79,-2.59,-2.60,-2.60
380.33,-1.68,0.89,-1.68,0.90,-0.90,-1.05,-0.74,-2.58,-2.57,-2.57
384.13,-1.72,0.84,-1.72,0.83,-0.83,-1.02,-0.69,-2.55,-2.55,-2.55
387.97,-1.77,0.77,-1.77,0.77,-0.77,-0.99,-0.63,-2.54,-2.54,-2.54
391.85,-1.81,0.71,-1.81,0.71,-0.71,-0.96,-0.58,-2.52,-2.52,-2.52
395.77,-1.85,0.64,-1.85,0.65,-0.65,-0.93,-0.53,-2.50,-2.49,-2.49
399.73,-1.88,0.59,-1.88,0.59,-0.59,-0.90,-0.49,-2.47,-2.47,-2.47
403.72,-1.92,0.53,-1.92,0.53,-0.53,-0.87,-0.44,-2.45,-2.45,-2.45
407.76,-1.96,0.47,-1.96,0.47,-0.47,-0.84,-0.39,-2.43,-2.43,-2.43
411.84,-2.00,0.40,-1.99,0.41,-0.41,-0.81,-0.34,-2.41,-2.41,-2.40
415.96,-2.02,0.37,-2.03,0.36,-0.36,-0.78,-0.30,-2.38,-2.38,-2.39
420.12,-2.06,0.31,-2.06,0.30,-0.30,-0.74,-0.26,-2.36,-2.36,-2.37
424.32,-2.09,0.25,-2.09,0.25,-0.25,-0.71,-0.21,-2.34,-2.34,-2.34
428.56,-2.12,0.20,-2.12,0.20,-0.20,-0.68,-0.17,-2.32,-2.32,-2.32
432.85,-2.14,0.16,-2.14,0.16,-0.15,-0.65,-0.13,-2.29,-2.29,-2.30
437.18,-2.16,0.11,-2.16,0.11,-0.11,-0.62,-0.09,-2.27,-2.28,-2.27
441.55,-2.18,0.06,-2.18,0.07,-0.08,-0.59,-0.05,-2.26,-2.26,-2.24
445.96,-2.20,0.02,-2.19,0.03,-0.05,-0.56,-0.02,-2.25,-2.24,-2.22
450.42,-2.18,0.02,-2.18,0.02,-0.03,-0.53,0.02,-2.21,-2.21,-2.20
454.93,-2.16,0.01,-2.16,0.01,-0.01,-0.50,0.05,-2.17,-2.17,-2.16
459.48,-2.14,0.01,-2.14,0.00,0.00,-0.47,0.08,-2.13,-2.13,-2.15
464.07,-2.12,-0.00,-2.12,-0.01,0.01,-0.44,0.11,-2.11,-2.11,-2.12
468.71,-2.10,-0.02,-2.10,-0.01,0.02,-0.41,0.14,-2.08,-2.08,-2.08
473.40,-2.08,-0.02,-2.08,-0.02,0.03,-0.38,0.16,-2.05,-2.05,-2.06
478.13,-2.06,-0.03,-2.06,-0.04,0.04,-0.34,0.19,-2.02,-2.03,-2.03
482.91,-2.05,-0.05,-2.05,-0.05,0.04,-0.31,0.21,-2.01,-2.00,-2.00
