frequency,raw,error,smoothed,error_smoothed,equalization,parametric_eq,fixed_band_eq,equalized_raw,equalized_smoothed,target
20.00,7.48,1.76,7.47,1.74,-1.74,-1.55,-1.53,5.74,5.73,5.73
20.20,7.46,1.75,7.46,1.74,-1.74,-1.58,-1.57,5.72,5.72,5.72
20.40,7.45,1.75,7.45,1.74,-1.74,-1.61,-1.62,5.71,5.70,5.71
20.61,7.44,1.75,7.44,1.75,-1.75,-1.65,-1.66,5.69,5.69,5.70
20.81,7.43,1.76,7.44,1.76,-1.76,-1.68,-1.71,5.67,5.68,5.68
21.02,7.43,1.77,7.44,1.77,-1.77,-1.71,-1.76,5.66,5.67,5.67
21.23,7.44,1.79,7.45,1.79,-1.79,-1.75,-1.81,5.65,5.66,5.66
21.44,7.45,1.79,7.46,1.81,-1.81,-1.78,-1.86,5.64,5.65,5.66
21.66,7.46,1.82,7.47,1.83,-1.83,-1.82,-1.92,5.63,5.64,5.64
21.87,7.48,1.84,7.49,1.86,-1.86,-1.85,-1.97,5.62,5.63,5.64
22.09,7.50,1.88,7.52,1.89,-1.89,-1.89,-2.03,5.61,5.63,5.62
22.31,7.53,1.91,7.54,1.92,-1.92,-1.93,-2.09,5.61,5.62,5.62
22.54,7.57,1.96,7.58,1.96,-1.96,-1.97,-2.14,5.61,5.61,5.61
22.76,7.61,2.00,7.62,2.01,-2.01,-2.00,-2.21,5.60,5.61,5.61
22.99,7.66,2.06,7.66,2.06,-2.06,-2.04,-2.27,5.61,5.60,5.60
23.22,7.70,2.11,7.70,2.10,-2.10,-2.08,-2.33,5.60,5.60,5.59
23.45,7.75,2.15,7.75,2.16,-2.16,-2.12,-2.40,5.60,5.60,5.60
23.69,7.80,2.21,7.80,2.21,-2.21,-2.16,-2.46,5.59,5.59,5.59
23.92,7.85,2.27,7.85,2.27,-2.27,-2.21,-2.53,5.59,5.59,5.58
24.16,7.91,2.33,7.91,2.32,-2.32,-2.25,-2.60,5.59,5.58,5.59
24.40,7.97,2.39,7.96,2.38,-2.38,-2.29,-2.67,5.60,5.58,5.59
24.65,8.02,2.44,8.01,2.43,-2.43,-2.33,-2.74,5.59,5.58,5.59
24.89,8.07,2.49,8.06,2.48,-2.48,-2.38,-2.81,5.59,5.58,5.59
25.14,8.11,2.54,8.12,2.54,-2.54,-2.42,-2.89,5.58,5.58,5.58
25.39,8.16,2.59,8.17,2.59,-2.59,-2.47,-2.96,5.57,5.58,5.57
25.65,8.22,2.65,8.22,2.65,-2.65,-2.51,-3.03,5.58,5.58,5.57
25.91,8.28,2.71,8.28,2.70,-2.70,-2.56,-3.10,5.58,5.58,5.57
26.16,8.33,2.75,8.34,2.76,-2.76,-2.60,-3.18,5.57,5.58,5.58
26.43,8.38,2.80,8.39,2.82,-2.82,-2.65,-3.25,5.57,5.58,5.58
26.69,8.44,2.86,8.45,2.87,-2.87,-2.70,-3.32,5.57,5.58,5.58
26.96,8.49,2.91,8.51,2.93,-2.93,-2.74,-3.39,5.57,5.58,5.58
27.23,8.54,2.96,8.56,2.98,-2.98,-2.79,-3.46,5.56,5.58,5.58
27.50,8.61,3.04,8.62,3.03,-3.03,-2.84,-3.52,5.58,5.58,5.58
27.77,8.67,3.09,8.67,3.08,-3.08,-2.89,-3.59,5.59,5.59,5.59
28.05,8.74,3.16,8.72,3.14,-3.14,-2.94,-3.65,5.61,5.59,5.58
28.33,8.80,3.21,8.78,3.18,-3.18,-2.99,-3.71,5.62,5.59,5.59
28.62,8.84,3.25,8.82,3.23,-3.23,-3.03,-3.76,5.61,5.59,5.59
28.90,8.88,3.28,8.87,3.28,-3.28,-3.08,-3.82,5.60,5.59,5.60
29.19,8.91,3.31,8.92,3.32,-3.32,-3.13,-3.86,5.59,5.59,5.60
29.48,8.95,3.36,8.96,3.37,-3.37,-3.18,-3.91,5.58,5.59,5.60
29.78,9.00,3.41,9.00,3.41,-3.41,-3.23,-3.95,5.59,5.59,5.60
30.08,9.03,3.44,9.04,3.45,-3.45,-3.28,-3.98,5.58,5.59,5.59
30.38,9.07,3.49,9.08,3.49,-3.49,-3.33,-4.01,5.58,5.59,5.58
30.68,9.10,3.52,9.11,3.53,-3.53,-3.38,-4.04,5.58,5.58,5.58
30.99,9.14,3.56,9.15,3.56,-3.56,-3.43,-4.06,5.58,5.58,5.58
31.30,9.18,3.61,9.18,3.60,-3.60,-3.47,-4.07,5.58,5.58,5.58
31.61,9.21,3.64,9.21,3.64,-3.64,-3.52,-4.08,5.57,5.57,5.58
31.93,9.24,3.69,9.24,3.68,-3.68,-3.57,-4.09,5.56,5.56,5.55
32.24,9.27,3.71,9.27,3.71,-3.71,-3.62,-4.09,5.56,5.56,5.56
32.57,9.29,3.74,9.30,3.75,-3.75,-3.66,-4.08,5.54,5.55,5.55
32.89,9.31,3.77,9.33,3.78,-3.78,-3.71,-4.07,5.54,5.55,5.55
33.22,9.34,3.80,9.35,3.80,-3.80,-3.75,-4.05,5.54,5.54,5.54
33.55,9.37,3.83,9.37,3.83,-3.83,-3.79,-4.04,5.54,5.54,5.54
33.89,9.39,3.86,9.38,3.85,-3.85,-3.84,-4.01,5.54,5.53,5.53
34.23,9.41,3.90,9.40,3.87,-3.87,-3.88,-3.99,5.54,5.53,5.52
34.57,9.42,3.91,9.40,3.89,-3.89,-3.92,-3.96,5.54,5.52,5.51
34.92,9.42,3.92,9.41,3.90,-3.90,-3.96,-3.93,5.52,5.51,5.50
35.27,9.42,3.91,9.42,3.91,-3.91,-3.99,-3.90,5.51,5.50,5.52
35.62,9.42,3.93,9.42,3.92,-3.92,-4.03,-3.86,5.50,5.49,5.49
35.97,9.41,3.92,9.42,3.94,-3.94,-4.06,-3.82,5.48,5.48,5.49
36.33,9.40,3.93,9.42,3.95,-3.95,-4.10,-3.79,5.46,5.47,5.48
36.70,9.40,3.95,9.42,3.96,-3.96,-4.13,-3.75,5.44,5.46,5.45
37.06,9.40,3.96,9.41,3.97,-3.97,-4.16,-3.71,5.43,5.44,5.44
37.43,9.40,3.98,9.41,3.99,-3.99,-4.18,-3.67,5.42,5.43,5.43
37.81,9.40,3.99,9.41,4.00,-4.00,-4.21,-3.64,5.40,5.41,5.41
38.19,9.40,4.01,9.41,4.02,-4.02,-4.23,-3.60,5.38,5.39,5.39
38.57,9.40,4.03,9.41,4.04,-4.04,-4.25,-3.56,5.36,5.37,5.37
38.95,9.40,4.04,9.42,4.06,-4.06,-4.27,-3.53,5.34,5.36,5.36
39.34,9.41,4.08,9.42,4.08,-4.08,-4.29,-3.49,5.33,5.34,5.34
39.74,9.42,4.11,9.42,4.10,-4.10,-4.30,-3.46,5.32,5.32,5.31
40.14,9.42,4.13,9.42,4.12,-4.12,-4.32,-3.43,5.31,5.30,5.30
40.54,9.42,4.14,9.41,4.13,-4.13,-4.33,-3.40,5.29,5.28,5.28
40.94,9.42,4.17,9.41,4.15,-4.15,-4.33,-3.37,5.28,5.26,5.25
41.35,9.41,4.17,9.40,4.16,-4.16,-4.34,-3.35,5.26,5.24,5.24
41.76,9.39,4.18,9.39,4.17,-4.17,-4.34,-3.33,5.23,5.22,5.21
42.18,9.37,4.17,9.37,4.17,-4.17,-4.34,-3.31,5.20,5.20,5.21
42.60,9.34,4.16,9.35,4.17,-4.17,-4.34,-3.29,5.17,5.18,5.18
43.03,9.32,4.16,9.33,4.16,-4.16,-4.34,-3.28,5.16,5.16,5.16
43.46,9.30,4.17,9.30,4.16,-4.16,-4.33,-3.26,5.15,5.14,5.14
43.90,9.28,4.16,9.27,4.15,-4.15,-4.32,-3.25,5.14,5.12,5.12
44.33,9.24,4.15,9.23,4.14,-4.14,-4.31,-3.25,5.11,5.10,5.09
44.78,9.20,4.13,9.20,4.12,-4.12,-4.30,-3.24,5.08,5.07,5.08
45.23,9.16,4.11,9.16,4.11,-4.11,-4.29,-3.24,5.05,5.05,5.06
45.68,9.11,4.09,9.12,4.10,-4.10,-4.27,-3.24,5.01,5.02,5.02
46.13,9.07,4.08,9.08,4.09,-4.09,-4.25,-3.24,4.98,4.99,4.99
46.60,9.03,4.07,9.04,4.09,-4.09,-4.23,-3.25,4.95,4.96,4.96
47.06,8.99,4.06,9.00,4.08,-4.08,-4.21,-3.25,4.92,4.93,4.93
47.53,8.95,4.05,8.96,4.07,-4.07,-4.18,-3.26,4.88,4.89,4.90
48.01,8.91,4.06,8.92,4.06,-4.06,-4.16,-3.27,4.85,4.86,4.85
48.49,8.87,4.05,8.87,4.05,-4.05,-4.13,-3.29,4.82,4.82,4.82
48.97,8.83,4.05,8.83,4.04,-4.04,-4.10,-3.30,4.79,4.79,4.78
49.46,8.79,4.04,8.79,4.04,-4.04,-4.07,-3.32,4.76,4.75,4.75
49.96,8.76,4.06,8.75,4.03,-4.03,-4.04,-3.34,4.73,4.72,4.70
50.46,8.71,4.03,8.71,4.02,-4.02,-4.00,-3.36,4.69,4.68,4.68
50.96,8.66,4.02,8.66,4.01,-4.01,-3.97,-3.38,4.65,4.65,4.65
51.47,8.60,3.99,8.61,4.00,-4.00,-3.93,-3.41,4.60,4.61,4.61
51.99,8.55,3.98,8.57,3.99,-3.99,-3.89,-3.43,4.57,4.58,4.57
52.51,8.51,3.97,8.52,3.97,-3.97,-3.86,-3.46,4.54,4.54,4.55
53.03,8.46,3.94,8.47,3.96,-3.96,-3.82,-3.48,4.51,4.51,4.52
53.56,8.42,3.93,8.41,3.93,-3.93,-3.78,-3.51,4.49,4.48,4.49
54.10,8.37,3.93,8.36,3.91,-3.91,-3.74,-3.53,4.46,4.45,4.44
54.64,8.31,3.90,8.30,3.88,-3.88,-3.70,-3.56,4.43,4.42,4.42
55.18,8.25,3.87,8.24,3.85,-3.85,-3.66,-3.58,4.40,4.39,4.38
55.74,8.18,3.84,8.18,3.82,-3.82,-3.62,-3.60,4.36,4.36,4.35
56.29,8.11,3.78,8.12,3.79,-3.79,-3.58,-3.63,4.32,4.33,4.33
56.86,8.05,3.75,8.06,3.76,-3.76,-3.53,-3.65,4.29,4.30,4.30
57.42,8.00,3.74,8.00,3.73,-3.73,-3.49,-3.66,4.28,4.27,4.26
58.00,7.93,3.70,7.93,3.69,-3.69,-3.45,-3.68,4.24,4.24,4.23
58.58,7.86,3.65,7.86,3.66,-3.66,-3.41,-3.69,4.21,4.21,4.21
59.16,7.79,3.60,7.79,3.62,-3.62,-3.37,-3.70,4.17,4.17,4.19
59.76,7.72,3.56,7.72,3.59,-3.59,-3.32,-3.71,4.14,4.14,4.16
60.35,7.64,3.52,7.65,3.55,-3.55,-3.28,-3.71,4.09,4.10,4.12
60.96,7.57,3.49,7.58,3.52,-3.52,-3.24,-3.71,4.06,4.07,4.08
61.57,7.51,3.49,7.51,3.48,-3.48,-3.20,-3.70,4.03,4.03,4.03
62.18,7.44,3.46,7.44,3.45,-3.45,-3.16,-3.70,4.00,3.99,3.98
62.80,7.36,3.42,7.36,3.41,-3.41,-3.12,-3.68,3.95,3.95,3.94
63.43,7.28,3.39,7.28,3.37,-3.37,-3.08,-3.67,3.91,3.91,3.89
64.07,7.20,3.35,7.20,3.33,-3.33,-3.04,-3.65,3.87,3.87,3.86
64.71,7.12,3.30,7.12,3.29,-3.29,-3.00,-3.62,3.83,3.83,3.82
65.35,7.03,3.25,7.03,3.25,-3.25,-2.96,-3.59,3.78,3.79,3.78
66.01,6.95,3.21,6.95,3.20,-3.20,-2.92,-3.56,3.75,3.75,3.74
66.67,6.87,3.16,6.86,3.16,-3.16,-2.88,-3.53,3.72,3.71,3.72
67.33,6.78,3.12,6.78,3.11,-3.11,-2.85,-3.49,3.67,3.67,3.67
68.01,6.68,3.05,6.69,3.06,-3.06,-2.81,-3.45,3.62,3.63,3.64
68.69,6.59,3.00,6.60,3.01,-3.01,-2.77,-3.40,3.58,3.59,3.59
69.37,6.50,2.94,6.51,2.96,-2.96,-2.74,-3.36,3.54,3.55,3.56
70.07,6.41,2.89,6.42,2.91,-2.91,-2.70,-3.31,3.50,3.51,3.52
70.77,6.33,2.86,6.33,2.86,-2.86,-2.67,-3.26,3.47,3.47,3.48
71.48,6.25,2.81,6.24,2.81,-2.81,-2.63,-3.20,3.44,3.43,3.44
72.19,6.16,2.77,6.16,2.76,-2.76,-2.60,-3.15,3.40,3.40,3.40
72.91,6.06,2.71,6.07,2.71,-2.71,-2.57,-3.10,3.35,3.36,3.35
73.64,5.98,2.67,5.98,2.66,-2.66,-2.54,-3.04,3.32,3.32,3.31
74.38,5.89,2.62,5.89,2.61,-2.61,-2.51,-2.98,3.28,3.28,3.27
75.12,5.80,2.56,5.81,2.56,-2.56,-2.48,-2.93,3.24,3.25,3.24
75.87,5.71,2.50,5.72,2.51,-2.51,-2.45,-2.87,3.21,3.21,3.21
76.63,5.63,2.46,5.64,2.45,-2.45,-2.42,-2.82,3.18,3.18,3.17
77.40,5.54,2.39,5.55,2.40,-2.40,-2.39,-2.76,3.14,3.15,3.15
78.17,5.46,2.35,5.46,2.34,-2.34,-2.37,-2.70,3.12,3.12,3.11
78.95,5.37,2.28,5.37,2.28,-2.28,-2.34,-2.65,3.09,3.09,3.10
79.74,5.30,2.24,5.29,2.23,-2.23,-2.32,-2.60,3.08,3.06,3.06
80.54,5.21,2.18,5.20,2.17,-2.17,-2.29,-2.54,3.04,3.03,3.04
81.35,5.12,2.12,5.12,2.12,-2.12,-2.27,-2.49,3.01,3.00,3.00
82.16,5.04,2.06,5.03,2.06,-2.06,-2.25,-2.44,2.98,2.98,2.99
82.98,4.94,1.99,4.95,2.00,-2.00,-2.22,-2.39,2.94,2.95,2.95
83.81,4.85,1.93,4.87,1.95,-1.95,-2.20,-2.34,2.90,2.92,2.92
84.65,4.77,1.89,4.78,1.90,-1.90,-2.18,-2.30,2.88,2.89,2.88
85.50,4.69,1.84,4.70,1.84,-1.84,-2.16,-2.25,2.85,2.86,2.85
86.35,4.61,1.79,4.61,1.79,-1.79,-2.14,-2.21,2.82,2.82,2.82
87.22,4.53,1.74,4.53,1.74,-1.74,-2.13,-2.17,2.80,2.79,2.79
88.09,4.46,1.70,4.44,1.68,-1.68,-2.11,-2.12,2.78,2.76,2.76
88.97,4.38,1.66,4.36,1.63,-1.63,-2.09,-2.09,2.75,2.73,2.73
89.86,4.29,1.60,4.28,1.59,-1.59,-2.08,-2.05,2.71,2.69,2.69
90.76,4.20,1.54,4.20,1.54,-1.54,-2.06,-2.01,2.66,2.66,2.66
91.66,4.12,1.51,4.12,1.50,-1.50,-2.05,-1.98,2.62,2.62,2.62
92.58,4.05,1.46,4.05,1.46,-1.46,-2.03,-1.94,2.59,2.59,2.59
93.51,3.96,1.41,3.98,1.43,-1.43,-2.02,-1.91,2.53,2.55,2.56
94.44,3.89,1.37,3.91,1.40,-1.40,-2.01,-1.88,2.50,2.51,2.52
95.39,3.83,1.36,3.85,1.37,-1.37,-2.00,-1.85,2.46,2.48,2.48
96.34,3.78,1.34,3.79,1.35,-1.35,-1.99,-1.83,2.43,2.44,2.44
97.30,3.73,1.33,3.73,1.33,-1.33,-1.98,-1.80,2.40,2.40,2.40
98.28,3.68,1.33,3.69,1.32,-1.32,-1.97,-1.78,2.36,2.37,2.36
99.26,3.65,1.33,3.65,1.32,-1.32,-1.97,-1.75,2.33,2.33,2.32
100.25,3.61,1.33,3.62,1.33,-1.33,-1.96,-1.73,2.29,2.29,2.28
101.25,3.58,1.33,3.60,1.34,-1.34,-1.95,-1.71,2.25,2.26,2.25
102.27,3.56,1.34,3.58,1.35,-1.35,-1.95,-1.69,2.21,2.23,2.23
103.29,3.55,1.36,3.56,1.37,-1.37,-1.94,-1.68,2.18,2.19,2.19
104.32,3.54,1.38,3.55,1.39,-1.39,-1.94,-1.66,2.15,2.16,2.16
105.37,3.54,1.41,3.55,1.42,-1.42,-1.94,-1.65,2.13,2.13,2.13
106.42,3.54,1.44,3.54,1.44,-1.44,-1.93,-1.63,2.10,2.10,2.11
107.48,3.55,1.49,3.54,1.47,-1.47,-1.93,-1.62,2.08,2.07,2.07
108.56,3.56,1.52,3.54,1.51,-1.51,-1.93,-1.61,2.05,2.04,2.04
109.64,3.56,1.55,3.55,1.54,-1.54,-1.93,-1.60,2.02,2.00,2.01
110.74,3.56,1.59,3.55,1.58,-1.58,-1.93,-1.60,1.98,1.97,1.98
111.85,3.56,1.63,3.56,1.62,-1.62,-1.94,-1.59,1.94,1.94,1.94
112.97,3.56,1.65,3.56,1.66,-1.66,-1.94,-1.58,1.90,1.90,1.91
114.10,3.56,1.69,3.57,1.70,-1.70,-1.94,-1.58,1.86,1.87,1.87
115.24,3.56,1.73,3.57,1.74,-1.74,-1.95,-1.58,1.82,1.84,1.83
116.39,3.56,1.77,3.58,1.78,-1.78,-1.95,-1.58,1.79,1.80,1.79
117.55,3.56,1.81,3.58,1.81,-1.81,-1.96,-1.58,1.75,1.77,1.76
118.73,3.57,1.85,3.58,1.85,-1.85,-1.97,-1.58,1.73,1.74,1.72
119.92,3.58,1.89,3.58,1.88,-1.88,-1.97,-1.58,1.70,1.70,1.70
121.12,3.59,1.92,3.58,1.91,-1.91,-1.98,-1.59,1.68,1.67,1.67
122.33,3.59,1.95,3.58,1.94,-1.94,-1.99,-1.59,1.66,1.64,1.64
123.55,3.58,1.97,3.57,1.96,-1.96,-2.00,-1.60,1.62,1.61,1.62
124.79,3.57,1.99,3.56,1.98,-1.98,-2.01,-1.61,1.59,1.58,1.58
126.03,3.55,2.00,3.54,2.00,-2.00,-2.02,-1.62,1.55,1.54,1.55
127.29,3.53,2.01,3.52,2.01,-2.01,-2.04,-1.63,1.52,1.51,1.52
128.57,3.51,2.03,3.50,2.02,-2.02,-2.05,-1.64,1.49,1.48,1.48
129.85,3.48,2.03,3.48,2.03,-2.03,-2.06,-1.66,1.45,1.45,1.45
131.15,3.45,2.04,3.45,2.03,-2.03,-2.08,-1.67,1.42,1.42,1.41
132.46,3.42,2.04,3.42,2.04,-2.04,-2.09,-1.69,1.39,1.38,1.38
133.79,3.39,2.05,3.39,2.03,-2.03,-2.11,-1.71,1.36,1.35,1.35
135.12,3.35,2.03,3.35,2.03,-2.03,-2.13,-1.73,1.32,1.32,1.32
136.48,3.32,2.03,3.32,2.03,-2.03,-2.15,-1.75,1.29,1.29,1.29
137.84,3.30,2.04,3.30,2.04,-2.04,-2.17,-1.77,1.27,1.26,1.26
139.22,3.27,2.05,3.27,2.04,-2.04,-2.19,-1.79,1.23,1.23,1.22
140.61,3.25,2.05,3.25,2.05,-2.05,-2.21,-1.82,1.20,1.20,1.20
142.02,3.22,2.06,3.24,2.06,-2.06,-2.23,-1.85,1.16,1.17,1.17
143.44,3.20,2.06,3.23,2.08,-2.08,-2.25,-1.88,1.12,1.15,1.15
144.87,3.19,2.07,3.22,2.10,-2.10,-2.27,-1.91,1.09,1.12,1.13
146.32,3.20,2.11,3.23,2.13,-2.13,-2.30,-1.94,1.08,1.10,1.10
147.78,3.21,2.14,3.23,2.16,-2.16,-2.32,-1.97,1.05,1.07,1.08
149.26,3.24,2.20,3.25,2.20,-2.20,-2.35,-2.01,1.05,1.05,1.05
150.75,3.26,2.24,3.27,2.24,-2.24,-2.38,-2.05,1.02,1.02,1.02
152.26,3.29,2.29,3.29,2.29,-2.29,-2.41,-2.09,1.00,1.00,1.00
153.78,3.32,2.35,3.32,2.34,-2.34,-2.43,-2.13,0.98,0.98,0.98
155.32,3.34,2.39,3.35,2.40,-2.40,-2.46,-2.17,0.95,0.95,0.95
156.88,3.38,2.45,3.38,2.45,-2.45,-2.50,-2.21,0.93,0.92,0.93
158.44,3.41,2.52,3.41,2.51,-2.51,-2.53,-2.26,0.90,0.90,0.90
160.03,3.44,2.57,3.44,2.57,-2.57,-2.56,-2.31,0.87,0.87,0.87
161.63,3.47,2.63,3.46,2.62,-2.62,-2.59,-2.36,0.85,0.84,0.84
163.24,3.50,2.69,3.49,2.67,-2.67,-2.63,-2.41,0.83,0.81,0.81
164.88,3.52,2.74,3.51,2.73,-2.73,-2.66,-2.47,0.80,0.78,0.78
166.53,3.54,2.80,3.52,2.77,-2.77,-2.70,-2.52,0.77,0.75,0.74
168.19,3.55,2.83,3.54,2.82,-2.82,-2.74,-2.58,0.73,0.72,0.72
169.87,3.56,2.88,3.55,2.87,-2.87,-2.77,-2.64,0.69,0.68,0.69
171.57,3.57,2.92,3.57,2.92,-2.92,-2.81,-2.70,0.66,0.65,0.65
173.29,3.57,2.95,3.58,2.96,-2.96,-2.85,-2.77,0.61,0.62,0.62
175.02,3.58,3.00,3.60,3.01,-3.01,-2.89,-2.84,0.57,0.58,0.59
176.77,3.59,3.04,3.61,3.06,-3.06,-2.94,-2.91,0.53,0.55,0.55
178.54,3.60,3.08,3.63,3.11,-3.11,-2.98,-2.98,0.49,0.52,0.52
180.32,3.62,3.15,3.65,3.16,-3.16,-3.02,-3.05,0.46,0.48,0.48
182.13,3.65,3.20,3.67,3.22,-3.22,-3.07,-3.13,0.44,0.45,0.45
183.95,3.68,3.26,3.69,3.27,-3.27,-3.11,-3.21,0.41,0.42,0.42
185.79,3.71,3.33,3.71,3.33,-3.33,-3.16,-3.29,0.38,0.38,0.38
187.65,3.74,3.39,3.74,3.39,-3.39,-3.20,-3.37,0.36,0.35,0.35
189.52,3.77,3.45,3.76,3.44,-3.44,-3.25,-3.45,0.33,0.32,0.32
191.42,3.80,3.51,3.78,3.50,-3.50,-3.30,-3.54,0.31,0.29,0.29
193.33,3.83,3.57,3.81,3.55,-3.55,-3.35,-3.62,0.28,0.26,0.26
195.27,3.84,3.62,3.83,3.60,-3.60,-3.40,-3.71,0.24,0.23,0.22
197.22,3.85,3.67,3.85,3.65,-3.65,-3.45,-3.80,0.20,0.20,0.19
199.19,3.87,3.70,3.87,3.70,-3.70,-3.50,-3.90,0.18,0.17,0.17
201.18,3.88,3.75,3.89,3.74,-3.74,-3.55,-3.99,0.14,0.15,0.13
203.19,3.90,3.78,3.90,3.78,-3.78,-3.61,-4.08,0.12,0.12,0.12
205.23,3.92,3.82,3.92,3.82,-3.82,-3.66,-4.18,0.10,0.10,0.10
207.28,3.93,3.85,3.94,3.86,-3.86,-3.71,-4.27,0.07,0.07,0.08
209.35,3.95,3.90,3.95,3.90,-3.90,-3.77,-4.36,0.05,0.05,0.05
211.44,3.97,3.94,3.98,3.95,-3.95,-3.82,-4.46,0.03,0.03,0.03
213.56,3.98,3.97,4.00,3.99,-3.99,-3.88,-4.55,-0.01,0.01,0.02
215.69,4.01,4.02,4.02,4.04,-4.04,-3.93,-4.64,-0.02,-0.01,-0.01
217.85,4.04,4.07,4.06,4.08,-4.08,-3.99,-4.73,-0.04,-0.03,-0.03
220.03,4.08,4.13,4.09,4.14,-4.14,-4.04,-4.82,-0.05,-0.05,-0.05
222.23,4.12,4.19,4.12,4.19,-4.19,-4.10,-4.90,-0.07,-0.06,-0.07
224.45,4.16,4.25,4.16,4.24,-4.24,-4.15,-4.98,-0.08,-0.08,-0.08
226.70,4.20,4.31,4.20,4.30,-4.30,-4.21,-5.06,-0.10,-0.10,-0.10
228.96,4.24,4.35,4.25,4.36,-4.36,-4.27,-5.13,-0.12,-0.11,-0.10
231.25,4.29,4.42,4.30,4.42,-4.42,-4.32,-5.20,-0.12,-0.12,-0.12
233.57,4.34,4.48,4.34,4.48,-4.48,-4.38,-5.26,-0.13,-0.13,-0.13
235.90,4.39,4.54,4.39,4.53,-4.53,-4.43,-5.32,-0.14,-0.14,-0.14
238.26,4.44,4.60,4.44,4.59,-4.59,-4.49,-5.37,-0.15,-0.15,-0.16
240.64,4.49,4.64,4.49,4.64,-4.64,-4.54,-5.41,-0.15,-0.15,-0.15
243.05,4.54,4.70,4.54,4.69,-4.69,-4.60,-5.44,-0.15,-0.16,-0.16
245.48,4.58,4.75,4.58,4.74,-4.74,-4.65,-5.47,-0.16,-0.16,-0.17
247.93,4.63,4.81,4.63,4.79,-4.79,-4.70,-5.49,-0.16,-0.16,-0.17
250.41,4.67,4.83,4.67,4.84,-4.84,-4.75,-5.50,-0.16,-0.16,-0.16
252.92,4.72,4.88,4.72,4.88,-4.88,-4.80,-5.51,-0.16,-0.16,-0.16
255.45,4.76,4.93,4.76,4.92,-4.92,-4.85,-5.51,-0.16,-0.16,-0.17
258.00,4.80,4.96,4.80,4.96,-4.96,-4.90,-5.50,-0.16,-0.16,-0.16
260.58,4.84,5.00,4.84,5.00,-5.00,-4.94,-5.48,-0.16,-0.16,-0.16
263.19,4.87,5.03,4.88,5.04,-5.04,-4.98,-5.45,-0.16,-0.16,-0.15
265.82,4.90,5.06,4.91,5.07,-5.07,-5.03,-5.42,-0.17,-0.16,-0.16
268.48,4.94,5.10,4.95,5.11,-5.11,-5.07,-5.38,-0.17,-0.16,-0.16
271.16,4.98,5.13,4.99,5.14,-5.14,-5.10,-5.34,-0.16,-0.16,-0.15
273.87,5.01,5.17,5.02,5.18,-5.18,-5.14,-5.29,-0.16,-0.16,-0.16
276.61,5.04,5.19,5.05,5.21,-5.21,-5.17,-5.24,-0.17,-0.16,-0.15
279.38,5.06,5.23,5.09,5.24,-5.24,-5.20,-5.18,-0.18,-0.15,-0.17
282.17,5.09,5.25,5.11,5.26,-5.26,-5.23,-5.12,-0.17,-0.15,-0.16
284.99,5.13,5.28,5.13,5.28,-5.28,-5.26,-5.05,-0.15,-0.15,-0.15
287.84,5.16,5.30,5.15,5.29,-5.29,-5.28,-4.99,-0.13,-0.14,-0.14
290.72,5.18,5.33,5.16,5.30,-5.30,-5.30,-4.92,-0.12,-0.14,-0.14
293.63,5.19,5.32,5.17,5.30,-5.30,-5.31,-4.85,-0.11,-0.13,-0.13
296.57,5.20,5.33,5.17,5.29,-5.29,-5.33,-4.78,-0.09,-0.12,-0.12
299.53,5.19,5.31,5.16,5.28,-5.28,-5.34,-4.71,-0.08,-0.12,-0.12
302.53,5.17,5.27,5.15,5.25,-5.25,-5.35,-4.64,-0.08,-0.11,-0.10
305.55,5.14,5.25,5.13,5.23,-5.23,-5.35,-4.57,-0.08,-0.10,-0.10
308.61,5.10,5.19,5.10,5.19,-5.19,-5.35,-4.50,-0.09,-0.09,-0.09
311.69,5.06,5.14,5.08,5.16,-5.16,-5.35,-4.43,-0.09,-0.08,-0.08
314.81,5.03,5.11,5.04,5.11,-5.11,-5.34,-4.37,-0.08,-0.07,-0.07
317.96,5.00,5.07,5.01,5.07,-5.07,-5.33,-4.30,-0.07,-0.06,-0.07
321.14,4.96,5.01,4.98,5.03,-5.03,-5.32,-4.24,-0.07,-0.05,-0.05
324.35,4.94,4.99,4.95,4.99,-4.99,-5.30,-4.18,-0.05,-0.04,-0.05
327.59,4.91,4.94,4.93,4.96,-4.96,-5.29,-4.12,-0.05,-0.03,-0.02
330.87,4.88,4.91,4.91,4.93,-4.93,-5.26,-4.07,-0.05,-0.03,-0.03
334.18,4.87,4.89,4.89,4.91,-4.91,-5.24,-4.01,-0.03,-0.02,-0.02
337.52,4.85,4.86,4.88,4.89,-4.89,-5.21,-3.96,-0.03,-0.01,-0.01
340.90,4.84,4.84,4.87,4.87,-4.87,-5.18,-3.91,-0.03,0.00,0.01
344.30,4.84,4.83,4.87,4.86,-4.86,-5.14,-3.87,-0.01,0.01,0.01
347.75,4.86,4.84,4.86,4.84,-4.84,-5.10,-3.83,0.02,0.02,0.02
351.23,4.87,4.85,4.86,4.83,-4.83,-5.06,-3.79,0.04,0.03,0.02
354.74,4.88,4.83,4.86,4.82,-4.82,-5.02,-3.75,0.06,0.04,0.05
358.28,4.88,4.84,4.86,4.81,-4.81,-4.98,-3.72,0.08,0.05,0.05
361.87,4.86,4.81,4.85,4.79,-4.79,-4.93,-3.69,0.07,0.06,0.06
365.49,4.85,4.79,4.84,4.78,-4.78,-4.88,-3.66,0.08,0.07,0.06
369.14,4.83,4.75,4.83,4.75,-4.75,-4.83,-3.64,0.08,0.08,0.08
372.83,4.81,4.72,4.81,4.73,-4.73,-4.77,-3.62,0.09,0.08,0.09
376.56,4.79,4.70,4.79,4.69,-4.69,-4.72,-3.60,0.10,0.09,0.09
380.33,4.76,4.67,4.76,4.65,-4.65,-4.66,-3.58,0.11,0.10,0.10
384.13,4.73,4.62,4.72,4.61,-4.61,-4.60,-3.57,0.12,0.11,0.12
387.97,4.69,4.57,4.69,4.56,-4.56,-4.54,-3.56,0.13,0.13,0.12
391.85,4.64,4.51,4.64,4.51,-4.51,-4.48,-3.55,0.14,0.14,0.13
395.77,4.60,4.46,4.60,4.45,-4.45,-4.41,-3.54,0.15,0.15,0.14
399.73,4.56,4.41,4.55,4.40,-4.40,-4.35,-3.54,0.17,0.16,0.15
403.72,4.50,4.32,4.51,4.34,-4.34,-4.28,-3.53,0.17,0.17,0.18
407.76,4.45,4.27,4.45,4.28,-4.28,-4.21,-3.53,0.18,0.18,0.18
411.84,4.39,4.21,4.40,4.21,-4.21,-4.15,-3.53,0.18,0.19,0.19
415.96,4.33,4.13,4.35,4.15,-4.15,-4.08,-3.53,0.18,0.20,0.21
420.12,4.28,4.08,4.30,4.09,-4.09,-4.01,-3.54,0.19,0.21,0.21
424.32,4.24,4.03,4.24,4.03,-4.03,-3.94,-3.54,0.22,0.22,0.21
428.56,4.19,3.96,4.19,3.96,-3.96,-3.87,-3.54,0.23,0.23,0.23
432.85,4.14,3.90,4.14,3.90,-3.90,-3.80,-3.54,0.24,0.24,0.24
437.18,4.08,3.84,4.08,3.84,-3.84,-3.73,-3.55,0.25,0.25,0.24
441.55,4.02,3.77,4.03,3.77,-3.77,-3.66,-3.55,0.25,0.26,0.25
445.96,3.97,3.71,3.97,3.71,-3.71,-3.59,-3.55,0.27,0.26,0.26
450.42,3.92,3.65,3.92,3.65,-3.65,-3.52,-3.55,0.28,0.27,0.27
454.93,3.87,3.59,3.87,3.58,-3.58,-3.45,-3.55,0.29,0.28,0.28
459.48,3.82,3.53,3.81,3.52,-3.52,-3.38,-3.54,0.30,0.29,0.29
464.07,3.76,3.45,3.76,3.46,-3.46,-3.31,-3.54,0.30,0.30,0.31
468.71,3.70,3.39,3.71,3.39,-3.39,-3.24,-3.53,0.31,0.31,0.32
473.40,3.64,3.32,3.65,3.33,-3.33,-3.17,-3.52,0.31,0.32,0.33
478.13,3.59,3.26,3.60,3.27,-3.27,-3.10,-3.50,0.32,0.33,0.34
482.91,3.54,3.20,3.55,3.21,-3.21,-3.03,-3.49,0.33,0.35,0.35
487.74,3.50,3.15,3.50,3.15,-3.15,-2.96,-3.46,0.35,0.36,0.36
492.62,3.46,3.10,3.46,3.09,-3.09,-2.89,-3.44,0.38,0.37,0.36
497.55,3.41,3.04,3.41,3.03,-3.03,-2.83,-3.41,0.39,0.38,0.37
502.52,3.35,2.97,3.36,2.97,-2.97,-2.76,-3.38,0.39,0.39,0.38
507.55,3.30,2.90,3.31,2.91,-2.91,-2.69,-3.34,0.40,0.40,0.40
512.62,3.26,2.85,3.26,2.85,-2.85,-2.62,-3.30,0.41,0.42,0.41
517.75,3.22,2.79,3.22,2.79,-2.79,-2.56,-3.26,0.43,0.43,0.43
522.93,3.18,2.74,3.17,2.73,-2.73,-2.49,-3.21,0.45,0.44,0.44
528.16,3.13,2.68,3.13,2.67,-2.67,-2.43,-3.16,0.46,0.45,0.45
533.44,3.08,2.62,3.08,2.62,-2.62,-2.36,-3.10,0.47,0.46,0.46
