frequency,raw
20,-26.90
21,-26.07
22,-25.27
23,-24.48
24,-23.71
25,-22.96
26,-22.23
27,-21.52
28,-20.82
29,-20.15
30,-19.49
31,-18.84
32,-18.24
33,-17.64
34,-17.04
35,-16.47
36,-15.91
37,-15.37
38,-14.84
39,-14.33
40,-13.83
41,-13.34
42,-12.85
43,-12.38
44,-11.92
45,-11.47
46,-11.04
47,-10.62
48,-10.21
49,-9.81
50,-9.44
51,-9.08
52,-8.73
53,-8.39
54,-8.06
55,-7.77
56,-7.49
57,-7.22
58,-6.97
59,-6.73
60,-6.52
61,-6.31
62,-6.12
63,-5.94
64,-5.79
65,-5.64
66,-5.49
67,-5.35
68,-5.23
69,-5.11
70,-5.01
71,-4.91
72,-4.81
73,-4.73
74,-4.65
75,-4.59
76,-4.52
77,-4.48
78,-4.43
79,-4.38
80,-4.34
81,-4.29
82,-4.24
83,-4.20
84,-4.15
85,-4.11
86,-4.07
87,-4.04
88,-4.03
89,-4.01
90,-3.98
91,-3.95
92,-3.91
93,-3.88
94,-3.85
95,-3.82
96,-3.79
97,-3.77
98,-3.74
99,-3.70
100,-3.67
101,-3.64
102,-3.61
104,-3.59
105,-3.57
106,-3.56
107,-3.57
108,-3.59
109,-3.62
110,-3.65
111,-3.68
112,-3.71
113,-3.74
114,-3.78
115,-3.80
117,-3.83
118,-3.86
119,-3.88
120,-3.91
121,-3.94
123,-3.97
124,-4.00
125,-4.02
126,-4.04
128,-4.07
129,-4.10
130,-4.14
131,-4.17
133,-4.20
134,-4.22
135,-4.23
137,-4.24
138,-4.25
140,-4.26
141,-4.26
142,-4.28
144,-4.30
145,-4.32
147,-4.35
148,-4.39
150,-4.42
151,-4.46
153,-4.49
154,-4.52
156,-4.55
157,-4.56
159,-4.58
160,-4.58
162,-4.58
164,-4.58
165,-4.58
167,-4.60
169,-4.62
170,-4.65
172,-4.68
174,-4.71
175,-4.74
177,-4.77
179,-4.80
181,-4.83
183,-4.86
184,-4.90
186,-4.94
188,-4.97
190,-5.01
192,-5.03
194,-5.06
196,-5.09
198,-5.11
200,-5.14
202,-5.16
204,-5.18
206,-5.21
208,-5.23
210,-5.26
212,-5.29
214,-5.31
216,-5.34
218,-5.37
221,-5.40
223,-5.42
225,-5.45
227,-5.47
229,-5.50
232,-5.53
234,-5.57
236,-5.60
239,-5.63
241,-5.65
244,-5.67
246,-5.70
248,-5.73
251,-5.76
253,-5.78
256,-5.81
259,-5.84
261,-5.87
264,-5.90
266,-5.93
269,-5.96
272,-5.98
274,-6.01
277,-6.04
280,-6.07
283,-6.10
286,-6.12
288,-6.14
291,-6.16
294,-6.19
297,-6.21
300,-6.24
303,-6.26
306,-6.28
309,-6.30
312,-6.33
316,-6.37
319,-6.40
322,-6.43
325,-6.46
328,-6.49
332,-6.52
335,-6.53
338,-6.54
342,-6.55
345,-6.54
349,-6.53
352,-6.52
356,-6.52
359,-6.52
363,-6.52
366,-6.53
370,-6.54
374,-6.54
377,-6.55
381,-6.54
385,-6.53
389,-6.52
393,-6.51
397,-6.48
401,-6.44
405,-6.40
409,-6.36
413,-6.31
417,-6.25
421,-6.19
425,-6.12
430,-6.04
434,-5.96
438,-5.88
443,-5.79
447,-5.71
451,-5.61
456,-5.52
460,-5.41
465,-5.30
470,-5.19
474,-5.09
479,-4.97
484,-4.85
489,-4.73
494,-4.62
499,-4.51
504,-4.39
509,-4.28
514,-4.18
519,-4.05
524,-3.94
529,-3.83
535,-3.71
540,-3.60
545,-3.48
551,-3.37
556,-3.28
562,-3.17
568,-3.06
573,-2.97
579,-2.87
585,-2.77
591,-2.69
596,-2.60
602,-2.51
608,-2.42
615,-2.33
621,-2.26
627,-2.17
633,-2.08
639,-2.00
646,-1.91
652,-1.83
659,-1.73
665,-1.65
672,-1.56
679,-1.46
686,-1.36
692,-1.27
699,-1.19
706,-1.10
713,-1.00
721,-0.92
728,-0.84
735,-0.76
742,-0.69
750,-0.62
757,-0.55
765,-0.48
773,-0.43
780,-0.37
788,-0.31
796,-0.25
804,-0.18
812,-0.12
820,-0.05
828,0.01
837,0.07
845,0.11
853,0.16
862,0.21
871,0.25
879,0.28
888,0.29
897,0.29
906,0.29
915,0.27
924,0.25
933,0.21
943,0.17
952,0.13
962,0.09
971,0.06
981,0.04
991,0.02
1001,-0.00
1011,-0.02
1021,-0.05
1031,-0.07
1041,-0.09
1052,-0.11
1062,-0.13
1073,-0.16
1084,-0.18
1094,-0.21
1105,-0.24
1116,-0.28
1128,-0.32
1139,-0.35
1150,-0.38
1162,-0.42
1173,-0.46
1185,-0.50
1197,-0.55
1209,-0.62
1221,-0.71
1233,-0.82
1246,-0.93
1258,-1.06
1271,-1.20
1283,-1.34
1296,-1.49
1309,-1.64
1322,-1.79
1335,-1.98
1349,-2.17
1362,-2.38
1376,-2.58
1390,-2.81
1404,-3.05
1418,-3.28
1432,-3.52
1446,-3.76
1461,-4.02
1475,-4.29
1490,-4.56
1505,-4.83
1520,-5.10
1535,-5.37
1550,-5.65
1566,-5.92
1582,-6.19
1597,-6.47
1613,-6.76
1629,-7.05
1646,-7.35
1662,-7.66
1679,-7.97
1696,-8.28
1713,-8.57
1730,-8.87
1747,-9.17
1764,-9.47
1782,-9.77
1800,-10.07
1818,-10.37
1836,-10.68
1854,-10.98
1873,-11.28
1892,-11.57
1911,-11.86
1930,-12.16
1949,-12.46
1969,-12.75
1988,-13.04
2008,-13.33
2028,-13.62
2048,-13.90
2069,-14.17
2090,-14.43
2111,-14.70
2132,-14.97
2153,-15.22
2175,-15.46
2196,-15.71
2218,-15.94
2240,-16.16
2263,-16.36
2285,-16.53
2308,-16.69
2331,-16.83
2355,-16.96
2378,-17.06
2402,-17.15
2426,-17.22
2450,-17.25
2475,-17.27
2500,-17.26
2525,-17.25
2550,-17.22
2575,-17.20
2601,-17.16
2627,-17.10
2653,-17.04
2680,-16.98
2707,-16.94
2734,-16.89
2761,-16.83
2789,-16.77
2817,-16.71
2845,-16.64
2873,-16.59
2902,-16.53
2931,-16.48
2960,-16.42
2990,-16.37
3020,-16.33
3050,-16.30
3080,-16.28
3111,-16.27
3142,-16.28
3174,-16.31
3206,-16.35
3238,-16.41
3270,-16.50
3303,-16.62
3336,-16.74
3369,-16.88
3403,-17.05
3437,-17.24
3471,-17.45
3506,-17.70
3541,-18.00
3576,-18.34
3612,-18.73
3648,-19.14
3685,-19.52
3721,-19.84
3759,-20.08
3796,-20.22
3834,-20.23
3873,-20.08
3911,-19.79
3950,-19.37
3990,-18.84
4030,-18.19
4070,-17.46
4111,-16.67
4152,-15.86
4193,-15.06
4235,-14.31
4278,-13.63
4321,-13.04
4364,-12.55
4407,-12.17
4451,-11.85
4496,-11.58
4541,-11.35
4586,-11.15
4632,-10.97
4679,-10.81
4725,-10.69
4773,-10.60
4820,-10.53
4868,-10.50
4917,-10.51
4966,-10.55
5016,-10.62
5066,-10.71
5117,-10.80
5168,-10.90
5220,-10.98
5272,-11.06
5325,-11.13
5378,-11.18
5432,-11.21
5486,-11.22
5541,-11.21
5596,-11.19
5652,-11.15
5709,-11.11
5766,-11.08
5823,-11.06
5882,-11.03
5940,-11.02
6000,-11.03
6060,-11.05
6120,-11.09
6182,-11.14
6244,-11.21
6306,-11.30
6369,-11.41
6433,-11.52
6497,-11.66
6562,-11.84
6628,-12.04
6694,-12.27
6761,-12.51
6828,-12.77
6897,-13.02
6966,-13.28
7035,-13.55
7106,-13.83
7177,-14.10
7249,-14.36
7321,-14.63
7394,-14.89
7468,-15.16
7543,-15.43
7618,-15.69
7694,-15.96
7771,-16.22
7849,-16.50
7928,-16.80
8007,-17.14
8087,-17.50
8168,-17.88
8250,-18.28
8332,-18.70
8415,-19.14
8499,-19.60
8584,-20.07
8670,-20.53
8757,-20.96
8845,-21.35
8933,-21.71
9022,-22.04
9113,-22.30
9204,-22.50
9296,-22.65
9389,-22.75
9483,-22.79
9577,-22.81
9673,-22.80
9770,-22.75
9868,-22.68
9966,-22.59
10066,-22.48
10167,-22.34
10268,-22.18
10371,-21.98
10475,-21.73
10579,-21.44
10685,-21.12
10792,-20.77
10900,-20.41
11009,-20.03
11119,-19.66
11230,-19.29
11343,-18.95
11456,-18.63
11571,-18.36
11686,-18.12
11803,-17.92
11921,-17.76
12040,-17.65
12161,-17.57
12282,-17.52
12405,-17.49
12529,-17.50
12655,-17.53
12781,-17.59
12909,-17.69
13038,-17.83
13168,-18.03
13300,-18.31
13433,-18.67
13567,-19.09
13703,-19.57
13840,-20.14
13978,-20.76
14118,-21.43
14259,-22.13
14402,-22.89
14546,-23.69
14692,-24.52
14838,-25.35
14987,-26.17
15137,-26.98
15288,-27.73
15441,-28.42
15595,-29.03
15751,-29.57
15909,-30.04
16068,-30.43
16229,-30.74
16391,-30.97
16555,-31.13
16720,-31.25
16888,-31.32
17056,-31.35
17227,-31.35
17399,-31.34
17573,-31.34
17749,-31.34
17926,-31.33
18106,-31.34
18287,-31.38
18470,-31.42
18654,-31.47
18841,-31.53
19029,-31.58
19220,-31.65
19412,-31.71
19606,-31.78
19802,-31.86
20000,-31.93
