frequency,raw,smoothed,error,error_smoothed,equalization,parametric_eq,fixed_band_eq,equalized_raw,equalized_smoothed,target
20.00,13.68,13.68,5.47,5.47,-5.45,-5.18,-2.64,8.22,8.23,8.21
20.20,13.70,13.69,5.49,5.48,-5.48,-5.19,-2.71,8.21,8.21,8.21
20.40,13.72,13.71,5.51,5.50,-5.51,-5.20,-2.79,8.21,8.20,8.21
20.61,13.74,13.73,5.53,5.53,-5.54,-5.21,-2.87,8.20,8.20,8.21
20.81,13.76,13.76,5.55,5.55,-5.56,-5.21,-2.95,8.20,8.20,8.21
21.02,13.78,13.78,5.57,5.57,-5.58,-5.22,-3.03,8.19,8.20,8.21
21.23,13.81,13.80,5.60,5.59,-5.60,-5.23,-3.12,8.20,8.20,8.21
21.44,13.83,13.83,5.62,5.62,-5.62,-5.24,-3.20,8.20,8.21,8.21
21.66,13.85,13.85,5.64,5.65,-5.64,-5.25,-3.29,8.20,8.21,8.20
21.87,13.88,13.87,5.67,5.67,-5.66,-5.26,-3.39,8.22,8.21,8.20
22.09,13.89,13.88,5.68,5.68,-5.67,-5.27,-3.48,8.22,8.21,8.20
22.31,13.89,13.89,5.68,5.69,-5.68,-5.27,-3.58,8.21,8.21,8.20
22.54,13.89,13.89,5.68,5.68,-5.69,-5.28,-3.68,8.20,8.20,8.20
22.76,13.89,13.89,5.68,5.68,-5.69,-5.29,-3.79,8.20,8.20,8.20
22.99,13.89,13.89,5.69,5.69,-5.69,-5.30,-3.89,8.20,8.20,8.20
23.22,13.89,13.89,5.69,5.69,-5.69,-5.31,-4.00,8.20,8.20,8.20
23.45,13.89,13.89,5.69,5.69,-5.69,-5.32,-4.11,8.20,8.20,8.20
23.69,13.89,13.89,5.69,5.69,-5.69,-5.33,-4.22,8.20,8.20,8.20
23.92,13.89,13.89,5.69,5.69,-5.69,-5.34,-4.34,8.20,8.20,8.20
24.16,13.89,13.89,5.69,5.69,-5.69,-5.35,-4.46,8.20,8.20,8.19
24.40,13.89,13.88,5.69,5.69,-5.69,-5.36,-4.57,8.20,8.19,8.19
24.65,13.89,13.88,5.69,5.69,-5.70,-5.37,-4.70,8.19,8.19,8.19
24.89,13.89,13.89,5.70,5.70,-5.71,-5.38,-4.82,8.18,8.18,8.19
25.14,13.90,13.90,5.71,5.71,-5.72,-5.40,-4.94,8.17,8.18,8.19
25.39,13.93,13.92,5.74,5.74,-5.74,-5.41,-5.07,8.18,8.18,8.19
25.65,13.96,13.95,5.77,5.77,-5.77,-5.42,-5.19,8.19,8.19,8.19
25.91,13.98,13.98,5.79,5.79,-5.79,-5.43,-5.32,8.18,8.19,8.18
26.16,14.01,14.00,5.82,5.82,-5.82,-5.44,-5.45,8.19,8.18,8.18
26.43,14.03,14.03,5.84,5.85,-5.85,-5.45,-5.57,8.18,8.18,8.18
26.69,14.06,14.06,5.88,5.88,-5.87,-5.47,-5.70,8.19,8.19,8.18
26.96,14.09,14.08,5.91,5.90,-5.89,-5.48,-5.82,8.20,8.19,8.18
27.23,14.09,14.09,5.91,5.91,-5.90,-5.49,-5.95,8.18,8.19,8.18
27.50,14.09,14.09,5.91,5.91,-5.91,-5.50,-6.07,8.17,8.18,8.17
27.77,14.09,14.09,5.91,5.91,-5.92,-5.52,-6.18,8.17,8.17,8.17
28.05,14.09,14.09,5.92,5.92,-5.92,-5.53,-6.30,8.17,8.17,8.17
28.33,14.09,14.09,5.92,5.92,-5.92,-5.54,-6.40,8.16,8.16,8.17
28.62,14.09,14.09,5.92,5.92,-5.92,-5.56,-6.51,8.16,8.16,8.17
28.90,14.09,14.09,5.92,5.92,-5.92,-5.57,-6.60,8.16,8.16,8.16
29.19,14.09,14.09,5.92,5.92,-5.92,-5.58,-6.70,8.16,8.16,8.16
29.48,14.09,14.09,5.93,5.93,-5.93,-5.60,-6.78,8.16,8.16,8.16
29.78,14.09,14.09,5.93,5.93,-5.93,-5.61,-6.86,8.16,8.16,8.16
30.08,14.09,14.09,5.93,5.93,-5.93,-5.63,-6.92,8.15,8.15,8.15
30.38,14.09,14.09,5.93,5.93,-5.93,-5.64,-6.98,8.15,8.15,8.15
30.68,14.09,14.09,5.94,5.94,-5.94,-5.66,-7.03,8.15,8.15,8.15
30.99,14.09,14.09,5.94,5.94,-5.94,-5.67,-7.08,8.15,8.15,8.15
31.30,14.09,14.09,5.94,5.94,-5.94,-5.69,-7.11,8.14,8.14,8.14
31.61,14.09,14.09,5.95,5.95,-5.95,-5.70,-7.13,8.14,8.14,8.14
31.93,14.09,14.09,5.95,5.95,-5.95,-5.72,-7.14,8.14,8.14,8.14
32.24,14.09,14.09,5.95,5.95,-5.95,-5.73,-7.15,8.13,8.13,8.13
32.57,14.09,14.09,5.96,5.96,-5.96,-5.75,-7.14,8.13,8.13,8.13
32.89,14.09,14.09,5.96,5.96,-5.96,-5.77,-7.13,8.13,8.13,8.13
33.22,14.09,14.09,5.96,5.96,-5.96,-5.78,-7.11,8.12,8.12,8.12
33.55,14.09,14.09,5.97,5.97,-5.97,-5.80,-7.09,8.12,8.12,8.12
33.89,14.09,14.09,5.97,5.97,-5.97,-5.82,-7.05,8.11,8.11,8.11
34.23,14.09,14.09,5.98,5.98,-5.98,-5.84,-7.01,8.11,8.11,8.11
34.57,14.09,14.09,5.98,5.98,-5.98,-5.85,-6.97,8.11,8.11,8.11
34.92,14.09,14.09,5.98,5.98,-5.98,-5.87,-6.92,8.10,8.10,8.10
35.27,14.09,14.09,5.99,5.99,-5.99,-5.89,-6.87,8.10,8.10,8.10
35.62,14.09,14.09,5.99,5.99,-5.99,-5.91,-6.81,8.09,8.09,8.09
35.97,14.09,14.09,6.00,6.00,-6.00,-5.93,-6.76,8.09,8.09,8.09
36.33,14.09,14.09,6.00,6.00,-6.00,-5.95,-6.70,8.08,8.08,8.08
36.70,14.09,14.09,6.01,6.01,-6.01,-5.97,-6.64,8.08,8.08,8.08
37.06,14.09,14.09,6.02,6.02,-6.02,-5.98,-6.58,8.07,8.07,8.07
37.43,14.09,14.09,6.02,6.02,-6.02,-6.00,-6.52,8.06,8.06,8.06
37.81,14.09,14.09,6.03,6.03,-6.03,-6.02,-6.46,8.06,8.06,8.06
38.19,14.09,14.09,6.03,6.03,-6.03,-6.04,-6.40,8.05,8.05,8.05
38.57,14.09,14.09,6.04,6.04,-6.04,-6.06,-6.34,8.04,8.04,8.04
38.95,14.09,14.09,6.05,6.05,-6.05,-6.09,-6.29,8.04,8.04,8.04
39.34,14.09,14.09,6.05,6.05,-6.05,-6.11,-6.24,8.03,8.03,8.03
39.74,14.09,14.09,6.06,6.06,-6.06,-6.13,-6.19,8.02,8.02,8.02
40.14,14.09,14.09,6.07,6.07,-6.07,-6.15,-6.14,8.02,8.02,8.02
40.54,14.09,14.09,6.08,6.08,-6.08,-6.17,-6.10,8.01,8.01,8.01
40.94,14.09,14.09,6.09,6.09,-6.09,-6.19,-6.06,8.00,8.00,8.00
41.35,14.09,14.09,6.09,6.09,-6.09,-6.21,-6.03,7.99,7.99,7.99
41.76,14.09,14.09,6.10,6.10,-6.10,-6.24,-5.99,7.98,7.98,7.98
42.18,14.09,14.09,6.11,6.11,-6.11,-6.26,-5.97,7.97,7.97,7.97
42.60,14.09,14.09,6.12,6.12,-6.12,-6.28,-5.94,7.96,7.96,7.96
43.03,14.09,14.09,6.13,6.13,-6.13,-6.30,-5.93,7.95,7.95,7.95
43.46,14.09,14.09,6.14,6.14,-6.14,-6.33,-5.91,7.94,7.94,7.94
43.90,14.09,14.09,6.15,6.15,-6.15,-6.35,-5.90,7.93,7.93,7.93
44.33,14.09,14.09,6.16,6.16,-6.16,-6.37,-5.89,7.92,7.92,7.92
44.78,14.09,14.09,6.17,6.17,-6.17,-6.40,-5.89,7.91,7.91,7.91
45.23,14.09,14.09,6.19,6.19,-6.19,-6.42,-5.89,7.90,7.90,7.90
45.68,14.09,14.09,6.20,6.20,-6.20,-6.45,-5.90,7.89,7.89,7.89
46.13,14.09,14.09,6.21,6.21,-6.21,-6.47,-5.91,7.88,7.88,7.88
46.60,14.09,14.09,6.22,6.22,-6.22,-6.49,-5.93,7.86,7.86,7.86
47.06,14.09,14.09,6.24,6.24,-6.24,-6.52,-5.95,7.85,7.85,7.85
47.53,14.09,14.09,6.25,6.25,-6.25,-6.54,-5.97,7.84,7.84,7.84
48.01,14.09,14.09,6.26,6.26,-6.26,-6.57,-6.00,7.82,7.82,7.82
48.49,14.09,14.09,6.28,6.28,-6.28,-6.59,-6.03,7.81,7.81,7.81
48.97,14.09,14.09,6.29,6.29,-6.29,-6.62,-6.06,7.79,7.79,7.79
49.46,14.09,14.09,6.31,6.31,-6.31,-6.64,-6.10,7.78,7.78,7.78
49.96,14.09,14.09,6.33,6.33,-6.33,-6.67,-6.14,7.76,7.76,7.76
50.46,14.09,14.09,6.34,6.34,-6.34,-6.70,-6.19,7.74,7.74,7.74
50.96,14.09,14.09,6.36,6.36,-6.36,-6.72,-6.23,7.72,7.72,7.72
51.47,14.09,14.09,6.38,6.38,-6.38,-6.75,-6.28,7.71,7.71,7.71
51.99,14.09,14.09,6.40,6.40,-6.40,-6.77,-6.34,7.69,7.69,7.69
52.51,14.09,14.09,6.42,6.42,-6.42,-6.80,-6.39,7.67,7.67,7.67
53.03,14.09,14.09,6.44,6.44,-6.44,-6.83,-6.44,7.65,7.65,7.65
53.56,14.09,14.09,6.46,6.46,-6.46,-6.85,-6.50,7.63,7.63,7.63
54.10,14.09,14.09,6.48,6.48,-6.48,-6.88,-6.56,7.61,7.61,7.61
54.64,14.09,14.09,6.50,6.50,-6.50,-6.91,-6.62,7.59,7.59,7.59
55.18,14.09,14.09,6.52,6.52,-6.52,-6.93,-6.67,7.56,7.56,7.56
55.74,14.09,14.09,6.55,6.55,-6.55,-6.96,-6.73,7.54,7.54,7.54
56.29,14.09,14.09,6.57,6.57,-6.58,-6.99,-6.79,7.51,7.51,7.51
56.86,14.09,14.09,6.60,6.60,-6.60,-7.02,-6.84,7.48,7.48,7.49
57.42,14.09,14.09,6.62,6.62,-6.63,-7.04,-6.89,7.46,7.46,7.46
58.00,14.09,14.09,6.65,6.65,-6.64,-7.07,-6.94,7.44,7.44,7.44
58.58,14.09,14.09,6.67,6.67,-6.65,-7.10,-6.99,7.43,7.43,7.41
59.16,14.08,14.07,6.69,6.69,-6.66,-7.12,-7.03,7.41,7.41,7.38
59.76,14.05,14.04,6.69,6.68,-6.66,-7.15,-7.07,7.38,7.37,7.35
60.35,14.00,13.99,6.67,6.67,-6.66,-7.18,-7.11,7.33,7.33,7.32
60.96,13.93,13.94,6.63,6.65,-6.67,-7.21,-7.14,7.26,7.27,7.29
61.57,13.91,13.90,6.64,6.64,-6.67,-7.23,-7.17,7.23,7.23,7.26
62.18,13.89,13.89,6.66,6.66,-6.68,-7.26,-7.19,7.21,7.21,7.23
62.80,13.89,13.88,6.69,6.69,-6.70,-7.29,-7.21,7.19,7.19,7.20
63.43,13.89,13.88,6.72,6.72,-6.72,-7.31,-7.22,7.17,7.17,7.16
64.07,13.89,13.89,6.76,6.76,-6.75,-7.34,-7.23,7.14,7.14,7.13
64.71,13.89,13.89,6.79,6.79,-6.79,-7.37,-7.24,7.10,7.10,7.09
65.35,13.89,13.89,6.83,6.83,-6.83,-7.39,-7.24,7.06,7.06,7.05
66.01,13.89,13.89,6.87,6.87,-6.87,-7.42,-7.24,7.02,7.02,7.02
66.67,13.89,13.89,6.91,6.91,-6.91,-7.45,-7.23,6.98,6.98,6.98
67.33,13.89,13.89,6.95,6.95,-6.95,-7.47,-7.22,6.94,6.94,6.94
68.01,13.89,13.89,6.99,6.99,-6.99,-7.50,-7.21,6.89,6.89,6.90
68.69,13.89,13.89,7.03,7.03,-7.04,-7.53,-7.20,6.85,6.85,6.85
69.37,13.89,13.89,7.08,7.08,-7.08,-7.55,-7.18,6.80,6.80,6.81
70.07,13.89,13.89,7.12,7.12,-7.12,-7.58,-7.16,6.76,6.76,6.77
70.77,13.89,13.89,7.16,7.17,-7.16,-7.61,-7.15,6.72,6.72,6.72
71.48,13.89,13.89,7.21,7.22,-7.20,-7.63,-7.13,6.69,6.69,6.68
72.19,13.89,13.88,7.26,7.25,-7.23,-7.66,-7.11,6.65,6.65,6.63
72.91,13.87,13.85,7.29,7.27,-7.26,-7.68,-7.09,6.60,6.59,6.58
73.64,13.81,13.82,7.27,7.29,-7.29,-7.71,-7.08,6.52,6.53,6.53
74.38,13.78,13.79,7.30,7.31,-7.31,-7.73,-7.06,6.47,6.48,6.48
75.12,13.77,13.75,7.34,7.33,-7.33,-7.76,-7.05,6.43,6.42,6.43
75.87,13.74,13.73,7.36,7.35,-7.36,-7.79,-7.04,6.38,6.37,6.38
76.63,13.70,13.70,7.37,7.38,-7.39,-7.81,-7.03,6.31,6.32,6.32
77.40,13.68,13.68,7.41,7.41,-7.42,-7.84,-7.03,6.25,6.26,6.27
78.17,13.68,13.67,7.46,7.46,-7.47,-7.86,-7.03,6.21,6.21,6.21
78.95,13.68,13.67,7.52,7.52,-7.52,-7.88,-7.03,6.16,6.16,6.16
79.74,13.68,13.68,7.58,7.58,-7.57,-7.91,-7.03,6.10,6.10,6.10
80.54,13.68,13.68,7.63,7.63,-7.64,-7.93,-7.05,6.04,6.04,6.04
81.35,13.68,13.68,7.69,7.69,-7.70,-7.96,-7.06,5.98,5.98,5.98
82.16,13.68,13.68,7.75,7.75,-7.76,-7.98,-7.08,5.92,5.92,5.92
82.98,13.68,13.68,7.81,7.82,-7.81,-8.01,-7.10,5.86,5.87,5.86
83.81,13.68,13.68,7.88,7.88,-7.86,-8.03,-7.13,5.82,5.82,5.80
84.65,13.68,13.66,7.94,7.93,-7.90,-8.05,-7.16,5.78,5.77,5.74
85.50,13.64,13.63,7.96,7.96,-7.93,-8.08,-7.20,5.70,5.70,5.67
86.35,13.58,13.58,7.97,7.97,-7.97,-8.10,-7.25,5.61,5.61,5.61
87.22,13.53,13.53,7.98,7.98,-8.01,-8.12,-7.30,5.52,5.52,5.54
88.09,13.48,13.49,8.00,8.01,-8.05,-8.15,-7.35,5.43,5.44,5.48
88.97,13.49,13.48,8.07,8.07,-8.10,-8.17,-7.41,5.39,5.38,5.41
89.86,13.49,13.48,8.14,8.14,-8.15,-8.19,-7.47,5.33,5.33,5.34
90.76,13.49,13.49,8.21,8.21,-8.21,-8.22,-7.55,5.27,5.27,5.28
91.66,13.49,13.49,8.28,8.28,-8.27,-8.24,-7.62,5.21,5.21,5.21
92.58,13.49,13.49,8.35,8.35,-8.33,-8.27,-7.70,5.15,5.16,5.14
93.51,13.49,13.48,8.42,8.42,-8.38,-8.29,-7.79,5.10,5.10,5.07
94.44,13.47,13.46,8.47,8.47,-8.43,-8.31,-7.88,5.04,5.03,5.00
95.39,13.43,13.41,8.50,8.49,-8.47,-8.34,-7.97,4.96,4.94,4.93
96.34,13.36,13.35,8.50,8.50,-8.51,-8.36,-8.08,4.85,4.85,4.86
97.30,13.28,13.30,8.49,8.51,-8.55,-8.38,-8.18,4.73,4.75,4.78
98.28,13.27,13.26,8.55,8.55,-8.59,-8.41,-8.29,4.68,4.67,4.71
99.26,13.25,13.24,8.61,8.60,-8.63,-8.43,-8.41,4.62,4.61,4.64
100.25,13.24,13.23,8.67,8.67,-8.67,-8.46,-8.53,4.56,4.56,4.57
101.25,13.22,13.22,8.72,8.73,-8.71,-8.48,-8.65,4.50,4.51,4.50
102.27,13.21,13.21,8.78,8.79,-8.76,-8.51,-8.78,4.45,4.45,4.42
103.29,13.19,13.17,8.84,8.82,-8.79,-8.53,-8.90,4.39,4.38,4.35
104.32,13.14,13.13,8.86,8.85,-8.83,-8.56,-9.04,4.31,4.30,4.28
105.37,13.05,13.07,8.84,8.86,-8.85,-8.58,-9.17,4.19,4.21,4.20
106.42,13.01,12.99,8.88,8.86,-8.88,-8.61,-9.30,4.13,4.12,4.13
107.48,12.94,12.93,8.88,8.88,-8.90,-8.63,-9.44,4.03,4.03,4.06
108.56,12.88,12.89,8.89,8.91,-8.93,-8.66,-9.57,3.94,3.96,3.98
109.64,12.86,12.85,8.94,8.94,-8.97,-8.69,-9.70,3.89,3.89,3.91
110.74,12.84,12.83,9.00,8.99,-9.00,-8.72,-9.83,3.84,3.83,3.84
111.85,12.82,12.82,9.05,9.06,-9.04,-8.74,-9.96,3.78,3.79,3.77
112.97,12.81,12.81,9.11,9.11,-9.07,-8.77,-10.08,3.73,3.73,3.69
114.10,12.79,12.77,9.16,9.15,-9.12,-8.80,-10.20,3.67,3.66,3.62
115.24,12.73,12.72,9.17,9.17,-9.16,-8.83,-10.31,3.56,3.56,3.55
116.39,12.66,12.66,9.17,9.18,-9.21,-8.86,-10.41,3.45,3.45,3.48
117.55,12.61,12.62,9.20,9.21,-9.26,-8.89,-10.50,3.35,3.36,3.41
118.73,12.61,12.61,9.27,9.27,-9.30,-8.92,-10.59,3.31,3.31,3.34
119.92,12.62,12.61,9.34,9.34,-9.34,-8.95,-10.66,3.27,3.27,3.27
121.12,12.63,12.62,9.42,9.42,-9.38,-8.98,-10.73,3.24,3.24,3.20
122.33,12.62,12.61,9.48,9.48,-9.43,-9.01,-10.78,3.18,3.18,3.13
123.55,12.58,12.57,9.51,9.50,-9.48,-9.04,-10.82,3.09,3.09,3.07
124.79,12.53,12.52,9.53,9.52,-9.54,-9.07,-10.84,2.99,2.98,3.00
126.03,12.46,12.48,9.52,9.54,-9.58,-9.10,-10.86,2.87,2.90,2.93
127.29,12.46,12.46,9.59,9.59,-9.62,-9.14,-10.85,2.83,2.84,2.87
128.57,12.47,12.46,9.66,9.66,-9.65,-9.17,-10.84,2.81,2.81,2.80
129.85,12.47,12.46,9.73,9.72,-9.69,-9.20,-10.81,2.78,2.78,2.74
131.15,12.45,12.43,9.77,9.76,-9.72,-9.23,-10.78,2.72,2.71,2.68
132.46,12.39,12.38,9.77,9.77,-9.76,-9.27,-10.73,2.62,2.62,2.61
133.79,12.32,12.33,9.76,9.78,-9.80,-9.30,-10.67,2.51,2.53,2.55
135.12,12.29,12.30,9.79,9.80,-9.84,-9.33,-10.60,2.45,2.46,2.49
136.48,12.29,12.29,9.85,9.85,-9.86,-9.37,-10.53,2.42,2.42,2.43
137.84,12.30,12.28,9.92,9.91,-9.89,-9.40,-10.45,2.40,2.39,2.37
139.22,12.27,12.26,9.95,9.94,-9.92,-9.43,-10.36,2.35,2.34,2.32
140.61,12.22,12.21,9.96,9.95,-9.94,-9.47,-10.27,2.27,2.27,2.26
142.02,12.16,12.16,9.95,9.96,-9.97,-9.50,-10.18,2.19,2.19,2.20
143.44,12.12,12.13,9.97,9.98,-9.99,-9.54,-10.08,2.13,2.14,2.15
144.87,12.10,12.10,10.00,10.00,-10.00,-9.57,-9.98,2.10,2.10,2.10
146.32,12.09,12.07,10.04,10.02,-10.01,-9.60,-9.88,2.08,2.06,2.04
147.78,12.03,12.02,10.02,10.02,-10.02,-9.64,-9.79,2.01,2.00,2.00
149.26,11.97,11.97,10.01,10.02,-10.03,-9.67,-9.69,1.94,1.94,1.95
150.75,11.91,11.92,10.00,10.02,-10.04,-9.70,-9.60,1.86,1.88,1.90
152.26,11.90,11.90,10.04,10.04,-10.05,-9.73,-9.51,1.85,1.85,1.85
153.78,11.90,11.87,10.09,10.07,-10.05,-9.76,-9.42,1.84,1.82,1.81
155.32,11.84,11.84,10.08,10.08,-10.06,-9.79,-9.33,1.78,1.78,1.76
156.88,11.80,11.79,10.08,10.08,-10.07,-9.82,-9.25,1.73,1.72,1.71
158.44,11.73,11.74,10.06,10.07,-10.07,-9.85,-9.18,1.65,1.66,1.67
160.03,11.70,11.69,10.07,10.07,-10.08,-9.88,-9.10,1.61,1.61,1.63
161.63,11.66,11.65,10.08,10.07,-10.09,-9.91,-9.04,1.57,1.56,1.57
163.24,11.61,11.62,10.07,10.09,-10.09,-9.94,-8.98,1.51,1.53,1.53
164.88,11.59,11.59,10.09,10.10,-10.10,-9.96,-8.93,1.49,1.50,1.49
166.53,11.59,11.56,10.13,10.10,-10.10,-9.99,-8.88,1.49,1.46,1.45
168.19,11.52,11.52,10.10,10.11,-10.10,-10.01,-8.84,1.42,1.43,1.41
169.87,11.47,11.48,10.09,10.11,-10.09,-10.03,-8.80,1.37,1.39,1.38
171.57,11.45,11.43,10.10,10.09,-10.09,-10.05,-8.77,1.36,1.34,1.34
173.29,11.39,11.38,10.08,10.07,-10.08,-10.07,-8.74,1.31,1.30,1.31
175.02,11.32,11.33,10.04,10.05,-10.06,-10.09,-8.73,1.26,1.27,1.27
176.77,11.26,11.27,10.02,10.03,-10.03,-10.10,-8.71,1.22,1.24,1.24
178.54,11.25,11.22,10.04,10.02,-10.01,-10.12,-8.71,1.23,1.21,1.20
180.32,11.18,11.18,10.00,10.00,-9.99,-10.13,-8.71,1.18,1.18,1.17
182.13,11.12,11.12,9.97,9.98,-9.98,-10.14,-8.72,1.14,1.14,1.14
183.95,11.07,11.06,9.95,9.95,-9.97,-10.15,-8.73,1.09,1.09,1.11
185.79,11.02,11.02,9.93,9.94,-9.97,-10.16,-8.75,1.05,1.05,1.08
187.65,10.99,11.00,9.93,9.95,-9.96,-10.16,-8.78,1.02,1.04,1.05
189.52,11.01,11.00,9.98,9.97,-9.96,-10.17,-8.81,1.04,1.03,1.03
191.42,11.00,10.98,9.99,9.98,-9.96,-10.17,-8.85,1.04,1.03,1.00
193.33,10.96,10.96,9.98,9.98,-9.95,-10.17,-8.89,1.00,1.00,0.97
195.27,10.91,10.91,9.96,9.96,-9.95,-10.17,-8.94,0.95,0.96,0.95
197.22,10.87,10.86,9.94,9.93,-9.94,-10.16,-8.99,0.92,0.91,0.93
199.19,10.80,10.81,9.89,9.91,-9.93,-10.15,-9.05,0.87,0.88,0.90
201.18,10.78,10.78,9.90,9.90,-9.90,-10.14,-9.12,0.87,0.87,0.88
203.19,10.75,10.74,9.89,9.88,-9.87,-10.13,-9.18,0.87,0.87,0.86
205.23,10.71,10.70,9.87,9.86,-9.84,-10.12,-9.25,0.87,0.86,0.84
207.28,10.63,10.63,9.81,9.82,-9.81,-10.10,-9.33,0.82,0.83,0.81
209.35,10.57,10.56,9.77,9.77,-9.77,-10.08,-9.40,0.79,0.79,0.79
211.44,10.50,10.49,9.72,9.71,-9.74,-10.06,-9.48,0.76,0.75,0.77
213.56,10.43,10.44,9.67,9.68,-9.70,-10.04,-9.56,0.73,0.74,0.76
215.69,10.38,10.39,9.64,9.65,-9.66,-10.01,-9.64,0.72,0.73,0.74
217.85,10.37,10.34,9.65,9.62,-9.61,-9.99,-9.72,0.75,0.73,0.72
220.03,10.30,10.29,9.59,9.59,-9.57,-9.96,-9.80,0.72,0.72,0.70
222.23,10.23,10.23,9.54,9.55,-9.53,-9.92,-9.87,0.69,0.70,0.69
224.45,10.17,10.16,9.50,9.49,-9.49,-9.89,-9.95,0.67,0.67,0.67
226.70,10.10,10.10,9.44,9.45,-9.45,-9.85,-10.01,0.64,0.65,0.65
228.96,10.06,10.05,9.42,9.41,-9.42,-9.82,-10.08,0.64,0.63,0.64
231.25,9.99,9.99,9.36,9.37,-9.38,-9.77,-10.13,0.60,0.61,0.63
233.57,9.96,9.95,9.34,9.34,-9.35,-9.73,-10.18,0.61,0.60,0.61
235.90,9.90,9.91,9.31,9.32,-9.32,-9.69,-10.22,0.57,0.59,0.59
238.26,9.90,9.88,9.32,9.30,-9.30,-9.64,-10.25,0.60,0.58,0.58
240.64,9.84,9.84,9.27,9.28,-9.27,-9.59,-10.27,0.56,0.57,0.56
243.05,9.80,9.81,9.25,9.26,-9.25,-9.54,-10.28,0.55,0.56,0.55
245.48,9.78,9.76,9.24,9.22,-9.22,-9.49,-10.27,0.56,0.55,0.54
247.93,9.72,9.72,9.19,9.19,-9.18,-9.44,-10.26,0.53,0.54,0.53
250.41,9.68,9.67,9.16,9.15,-9.15,-9.38,-10.23,0.53,0.52,0.52
252.92,9.62,9.62,9.11,9.11,-9.11,-9.32,-10.19,0.50,0.51,0.51
255.45,9.57,9.57,9.06,9.06,-9.08,-9.26,-10.14,0.49,0.49,0.51
258.00,9.53,9.51,9.03,9.02,-9.04,-9.20,-10.07,0.48,0.47,0.50
260.58,9.46,9.48,8.97,9.00,-9.00,-9.14,-9.99,0.45,0.48,0.49
263.19,9.45,9.45,8.97,8.97,-8.96,-9.08,-9.90,0.49,0.49,0.48
265.82,9.45,9.40,8.98,8.93,-8.92,-9.01,-9.80,0.53,0.48,0.47
268.48,9.33,9.35,8.87,8.89,-8.87,-8.95,-9.69,0.45,0.48,0.46
271.16,9.26,9.28,8.80,8.83,-8.82,-8.88,-9.57,0.43,0.46,0.45
273.87,9.24,9.20,8.79,8.75,-8.77,-8.81,-9.45,0.46,0.42,0.44
276.61,9.14,9.14,8.70,8.70,-8.71,-8.74,-9.32,0.42,0.42,0.44
279.38,9.05,9.08,8.62,8.65,-8.65,-8.67,-9.18,0.40,0.43,0.43
282.17,9.04,9.01,8.61,8.58,-8.58,-8.60,-9.04,0.46,0.43,0.42
284.99,8.97,8.95,8.54,8.53,-8.51,-8.53,-8.89,0.45,0.44,0.42
287.84,8.86,8.88,8.43,8.45,-8.44,-8.45,-8.74,0.41,0.44,0.43
290.72,8.81,8.79,8.38,8.36,-8.37,-8.38,-8.59,0.43,0.41,0.42
293.63,8.70,8.71,8.28,8.29,-8.31,-8.30,-8.44,0.39,0.41,0.42
296.57,8.65,8.65,8.23,8.23,-8.24,-8.23,-8.29,0.41,0.41,0.42
299.53,8.60,8.58,8.17,8.16,-8.18,-8.15,-8.14,0.42,0.41,0.42
302.53,8.53,8.54,8.11,8.11,-8.12,-8.07,-7.99,0.41,0.42,0.42
305.55,8.49,8.48,8.06,8.06,-8.06,-8.00,-7.84,0.43,0.42,0.42
308.61,8.43,8.42,8.01,8.00,-8.01,-7.92,-7.69,0.42,0.42,0.42
311.69,8.37,8.37,7.94,7.95,-7.95,-7.84,-7.55,0.42,0.42,0.42
314.81,8.32,8.31,7.90,7.89,-7.89,-7.76,-7.41,0.43,0.42,0.42
317.96,8.26,8.26,7.83,7.84,-7.82,-7.68,-7.27,0.43,0.43,0.42
321.14,8.19,8.20,7.77,7.77,-7.75,-7.60,-7.14,0.43,0.44,0.42
324.35,8.14,8.12,7.71,7.70,-7.68,-7.52,-7.01,0.46,0.45,0.42
327.59,8.05,8.03,7.60,7.60,-7.61,-7.44,-6.88,0.44,0.43,0.44
330.87,7.95,7.95,7.51,7.51,-7.53,-7.36,-6.76,0.41,0.42,0.44
334.18,7.85,7.87,7.40,7.43,-7.46,-7.28,-6.64,0.39,0.42,0.44
337.52,7.83,7.80,7.39,7.36,-7.38,-7.19,-6.53,0.45,0.43,0.44
340.90,7.76,7.75,7.31,7.30,-7.30,-7.11,-6.42,0.46,0.45,0.45
344.30,7.68,7.70,7.22,7.25,-7.22,-7.03,-6.32,0.46,0.48,0.45
347.75,7.64,7.62,7.18,7.16,-7.14,-6.95,-6.22,0.49,0.48,0.46
351.23,7.55,7.53,7.09,7.07,-7.07,-6.86,-6.12,0.48,0.46,0.46
354.74,7.43,7.44,6.95,6.98,-6.99,-6.78,-6.03,0.44,0.46,0.47
358.28,7.34,7.36,6.87,6.89,-6.91,-6.70,-5.95,0.43,0.45,0.47
361.87,7.32,7.29,6.84,6.81,-6.83,-6.62,-5.86,0.49,0.46,0.48
365.49,7.23,7.23,6.74,6.75,-6.74,-6.53,-5.79,0.48,0.49,0.48
369.14,7.16,7.16,6.67,6.67,-6.66,-6.45,-5.71,0.50,0.50,0.48
372.83,7.09,7.07,6.59,6.58,-6.58,-6.37,-5.64,0.51,0.50,0.50
376.56,7.00,7.00,6.50,6.50,-6.50,-6.29,-5.58,0.50,0.50,0.50
380.33,6.91,6.92,6.40,6.42,-6.41,-6.20,-5.52,0.49,0.51,0.50
384.13,6.86,6.84,6.35,6.33,-6.33,-6.12,-5.46,0.52,0.51,0.50
387.97,6.78,6.76,6.26,6.24,-6.25,-6.04,-5.41,0.53,0.51,0.52
391.85,6.67,6.68,6.13,6.15,-6.17,-5.96,-5.36,0.50,0.52,0.54
395.77,6.60,6.61,6.06,6.07,-6.09,-5.87,-5.31,0.51,0.53,0.54
399.73,6.57,6.55,6.02,6.00,-6.01,-5.79,-5.26,0.56,0.54,0.54
403.72,6.49,6.48,5.93,5.93,-5.92,-5.71,-5.22,0.57,0.56,0.55
407.76,6.40,6.40,5.85,5.85,-5.83,-5.63,-5.18,0.57,0.57,0.55
411.84,6.30,6.31,5.74,5.75,-5.73,-5.54,-5.15,0.56,0.58,0.56
415.96,6.24,6.21,5.67,5.65,-5.63,-5.46,-5.11,0.60,0.58,0.57
420.12,6.12,6.11,5.55,5.54,-5.54,-5.38,-5.08,0.58,0.58,0.56
424.32,6.00,6.02,5.42,5.44,-5.44,-5.30,-5.05,0.55,0.58,0.57
428.56,5.92,5.91,5.33,5.33,-5.35,-5.22,-5.02,0.56,0.55,0.58
432.85,5.85,5.82,5.26,5.23,-5.27,-5.14,-4.99,0.57,0.55,0.59
437.18,5.73,5.78,5.13,5.18,-5.20,-5.05,-4.96,0.53,0.58,0.60
441.55,5.75,5.74,5.14,5.13,-5.14,-4.97,-4.93,0.61,0.60,0.61
445.96,5.77,5.72,5.15,5.10,-5.09,-4.89,-4.90,0.68,0.63,0.62
450.42,5.68,5.71,5.04,5.08,-5.05,-4.81,-4.87,0.63,0.66,0.63
454.93,5.67,5.67,5.02,5.02,-5.02,-4.73,-4.84,0.65,0.65,0.64
459.48,5.65,5.62,4.99,4.97,-5.00,-4.65,-4.80,0.65,0.63,0.65
464.07,5.59,5.60,4.93,4.95,-4.96,-4.57,-4.77,0.62,0.64,0.65
468.71,5.57,5.58,4.91,4.92,-4.93,-4.49,-4.73,0.64,0.65,0.66
473.40,5.58,5.57,4.91,4.90,-4.88,-4.40,-4.69,0.69,0.68,0.67
478.13,5.56,5.56,4.88,4.88,-4.84,-4.32,-4.64,0.72,0.72,0.68
482.91,5.53,5.51,4.83,4.81,-4.79,-4.24,-4.60,0.74,0.72,0.70
487.74,5.45,5.41,4.74,4.71,-4.73,-4.16,-4.55,0.71,0.68,0.71
492.62,5.30,5.34,4.58,4.63,-4.66,-4.08,-4.49,0.64,0.69,0.72
