frequency,raw
20.00,-4.25
20.20,-4.17
20.40,-4.10
20.61,-4.03
20.81,-3.96
21.02,-3.89
21.23,-3.85
21.44,-3.80
21.66,-3.76
21.87,-3.73
22.09,-3.70
22.31,-3.67
22.54,-3.65
22.76,-3.63
22.99,-3.62
23.22,-3.61
23.45,-3.59
23.69,-3.59
23.92,-3.59
24.16,-3.58
24.40,-3.58
24.65,-3.60
24.89,-3.61
25.14,-3.62
25.39,-3.63
25.65,-3.63
25.91,-3.65
26.16,-3.65
26.43,-3.66
26.69,-3.66
26.96,-3.67
27.23,-3.67
27.50,-3.67
27.77,-3.68
28.05,-3.69
28.33,-3.70
28.62,-3.70
28.90,-3.70
29.19,-3.71
29.48,-3.70
29.78,-3.71
30.08,-3.70
30.38,-3.71
30.68,-3.70
30.99,-3.70
31.30,-3.69
31.61,-3.67
31.93,-3.67
32.24,-3.67
32.57,-3.65
32.89,-3.64
33.22,-3.63
33.55,-3.62
33.89,-3.61
34.23,-3.60
34.57,-3.60
34.92,-3.59
35.27,-3.58
35.62,-3.58
35.97,-3.57
36.33,-3.56
36.70,-3.56
37.06,-3.56
37.43,-3.54
37.81,-3.53
38.19,-3.53
38.57,-3.51
38.95,-3.51
39.34,-3.50
39.74,-3.50
40.14,-3.48
40.54,-3.48
40.94,-3.47
41.35,-3.47
41.76,-3.46
42.18,-3.46
42.60,-3.46
43.03,-3.46
43.46,-3.46
43.90,-3.48
44.33,-3.49
44.78,-3.51
45.23,-3.52
45.68,-3.53
46.13,-3.54
46.60,-3.53
47.06,-3.54
47.53,-3.54
48.01,-3.53
48.49,-3.54
48.97,-3.55
49.46,-3.56
49.96,-3.57
50.46,-3.56
50.96,-3.55
51.47,-3.56
51.99,-3.55
52.51,-3.53
53.03,-3.52
53.56,-3.51
54.10,-3.50
54.64,-3.49
55.18,-3.48
55.74,-3.47
56.29,-3.46
56.86,-3.45
57.42,-3.44
58.00,-3.42
58.58,-3.40
59.16,-3.38
59.76,-3.37
60.35,-3.36
60.96,-3.35
61.57,-3.36
62.18,-3.36
62.80,-3.34
63.43,-3.34
64.07,-3.33
64.71,-3.32
65.35,-3.31
66.01,-3.30
66.67,-3.29
67.33,-3.28
68.01,-3.27
68.69,-3.26
69.37,-3.26
70.07,-3.25
70.77,-3.23
71.48,-3.23
72.19,-3.22
72.91,-3.21
73.64,-3.21
74.38,-3.20
75.12,-3.20
75.87,-3.18
76.63,-3.17
77.40,-3.16
78.17,-3.17
78.95,-3.15
79.74,-3.16
80.54,-3.16
81.35,-3.17
82.16,-3.17
82.98,-3.17
83.81,-3.19
84.65,-3.20
85.50,-3.20
86.35,-3.22
87.22,-3.24
88.09,-3.25
88.97,-3.26
89.86,-3.28
90.76,-3.29
91.66,-3.29
92.58,-3.30
93.51,-3.28
94.44,-3.28
95.39,-3.28
96.34,-3.28
97.30,-3.27
98.28,-3.27
99.26,-3.26
100.25,-3.26
101.25,-3.25
102.27,-3.25
103.29,-3.25
104.32,-3.23
105.37,-3.22
106.42,-3.21
107.48,-3.20
108.56,-3.20
109.64,-3.19
110.74,-3.16
111.85,-3.14
112.97,-3.12
114.10,-3.09
115.24,-3.07
116.39,-3.04
117.55,-3.02
118.73,-2.99
119.92,-2.95
121.12,-2.93
122.33,-2.91
123.55,-2.88
124.79,-2.85
126.03,-2.83
127.29,-2.81
128.57,-2.80
129.85,-2.77
131.15,-2.75
132.46,-2.73
133.79,-2.69
135.12,-2.68
136.48,-2.65
137.84,-2.63
139.22,-2.62
140.61,-2.61
142.02,-2.57
143.44,-2.56
144.87,-2.55
146.32,-2.54
147.78,-2.52
149.26,-2.52
150.75,-2.52
152.26,-2.52
153.78,-2.52
155.32,-2.53
156.88,-2.53
158.44,-2.54
160.03,-2.54
161.63,-2.55
163.24,-2.56
164.88,-2.55
166.53,-2.56
168.19,-2.56
169.87,-2.56
171.57,-2.56
173.29,-2.55
175.02,-2.55
176.77,-2.55
178.54,-2.55
180.32,-2.54
182.13,-2.52
183.95,-2.52
185.79,-2.50
187.65,-2.50
189.52,-2.49
191.42,-2.49
193.33,-2.48
195.27,-2.47
197.22,-2.46
199.19,-2.47
201.18,-2.45
203.19,-2.44
205.23,-2.43
207.28,-2.41
209.35,-2.41
211.44,-2.40
213.56,-2.38
215.69,-2.35
217.85,-2.34
220.03,-2.33
222.23,-2.31
224.45,-2.28
226.70,-2.25
228.96,-2.23
231.25,-2.20
233.57,-2.18
235.90,-2.16
238.26,-2.15
240.64,-2.12
243.05,-2.09
245.48,-2.06
247.93,-2.03
250.41,-2.02
252.92,-1.98
255.45,-1.95
258.00,-1.93
260.58,-1.91
263.19,-1.88
265.82,-1.86
268.48,-1.83
271.16,-1.81
273.87,-1.79
276.61,-1.76
279.38,-1.75
282.17,-1.73
284.99,-1.70
287.84,-1.68
290.72,-1.64
293.63,-1.62
296.57,-1.58
299.53,-1.56
302.53,-1.54
305.55,-1.50
308.61,-1.49
311.69,-1.46
314.81,-1.42
317.96,-1.41
321.14,-1.39
324.35,-1.38
327.59,-1.35
330.87,-1.33
334.18,-1.31
337.52,-1.29
340.90,-1.26
344.30,-1.23
347.75,-1.21
351.23,-1.18
354.74,-1.15
358.28,-1.12
361.87,-1.08
365.49,-1.05
369.14,-1.03
372.83,-1.01
376.56,-0.99
380.33,-0.96
384.13,-0.94
387.97,-0.93
391.85,-0.92
395.77,-0.91
399.73,-0.90
403.72,-0.90
407.76,-0.89
411.84,-0.88
415.96,-0.87
420.12,-0.86
424.32,-0.85
428.56,-0.84
432.85,-0.84
437.18,-0.82
441.55,-0.80
445.96,-0.79
450.42,-0.78
454.93,-0.76
459.48,-0.75
464.07,-0.74
468.71,-0.72
473.40,-0.72
478.13,-0.72
482.91,-0.73
487.74,-0.72
492.62,-0.72
497.55,-0.74
502.52,-0.74
507.55,-0.75
512.62,-0.74
517.75,-0.73
522.93,-0.72
528.16,-0.72
533.44,-0.69
538.77,-0.67
544.16,-0.64
549.60,-0.61
555.10,-0.59
560.65,-0.56
566.25,-0.52
571.92,-0.51
577.64,-0.49
583.41,-0.47
589.25,-0.46
595.14,-0.44
601.09,-0.44
607.10,-0.43
613.17,-0.42
619.30,-0.41
625.50,-0.40
631.75,-0.40
638.07,-0.39
644.45,-0.38
650.89,-0.36
657.40,-0.34
663.98,-0.30
670.62,-0.28
677.32,-0.25
684.10,-0.21
690.94,-0.16
697.85,-0.12
704.83,-0.08
711.87,-0.05
718.99,-0.01
726.18,0.02
733.44,0.06
740.78,0.09
748.19,0.11
755.67,0.12
763.23,0.13
770.86,0.13
778.57,0.13
786.35,0.12
794.22,0.11
802.16,0.10
810.18,0.10
818.28,0.09
826.46,0.09
834.73,0.08
843.08,0.08
851.51,0.08
860.02,0.08
868.62,0.08
877.31,0.09
886.08,0.09
894.94,0.10
903.89,0.10
912.93,0.11
922.06,0.11
931.28,0.10
940.59,0.09
950.00,0.09
959.50,0.08
969.09,0.09
978.78,0.09
988.57,0.09
998.46,0.11
1008.44,0.13
1018.53,0.16
1028.71,0.19
1039.00,0.23
1049.39,0.26
1059.88,0.30
1070.48,0.34
1081.19,0.39
1092.00,0.44
1102.92,0.49
1113.95,0.54
1125.09,0.61
1136.34,0.67
1147.70,0.74
1159.18,0.80
1170.77,0.86
1182.48,0.92
1194.30,0.98
1206.25,1.03
1218.31,1.09
1230.49,1.14
1242.80,1.18
1255.22,1.22
1267.78,1.27
1280.45,1.30
1293.26,1.35
1306.19,1.38
1319.25,1.41
1332.45,1.45
1345.77,1.50
1359.23,1.55
1372.82,1.62
1386.55,1.67
1400.41,1.72
1414.42,1.78
1428.56,1.85
1442.85,1.90
1457.28,1.96
1471.85,2.02
1486.57,2.07
1501.43,2.14
1516.45,2.22
1531.61,2.29
1546.93,2.36
1562.40,2.44
1578.02,2.51
1593.80,2.58
1609.74,2.67
1625.84,2.76
1642.10,2.86
1658.52,2.96
1675.10,3.07
1691.85,3.16
1708.77,3.27
1725.86,3.38
1743.12,3.51
1760.55,3.63
1778.15,3.76
1795.94,3.88
1813.90,4.02
1832.03,4.17
1850.36,4.33
1868.86,4.48
1887.55,4.64
1906.42,4.81
1925.49,4.99
1944.74,5.18
1964.19,5.37
1983.83,5.56
2003.67,5.77
2023.71,5.96
2043.94,6.16
2064.38,6.35
2085.03,6.53
2105.88,6.73
2126.94,6.91
2148.20,7.09
2169.69,7.27
2191.38,7.44
2213.30,7.61
2235.43,7.78
2257.78,7.92
2280.36,8.06
2303.17,8.20
2326.20,8.34
2349.46,8.48
2372.95,8.60
2396.68,8.72
2420.65,8.84
2444.86,8.96
2469.31,9.07
2494.00,9.19
2518.94,9.31
2544.13,9.41
2569.57,9.50
2595.27,9.60
2621.22,9.70
2647.43,9.77
2673.90,9.85
2700.64,9.91
2727.65,9.95
2754.93,9.97
2782.48,9.98
2810.30,9.97
2838.40,9.93
2866.79,9.88
2895.46,9.84
2924.41,9.76
2953.65,9.67
2983.19,9.58
3013.02,9.44
3043.15,9.30
3073.58,9.14
3104.32,8.98
3135.36,8.82
3166.72,8.68
3198.38,8.53
3230.37,8.38
3262.67,8.23
3295.30,8.09
3328.25,7.94
3361.53,7.78
3395.15,7.61
3429.10,7.45
3463.39,7.28
3498.03,7.13
3533.01,6.99
3568.34,6.84
3604.02,6.68
3640.06,6.53
3676.46,6.39
3713.22,6.24
3750.36,6.10
3787.86,5.96
3825.74,5.84
3864.00,5.76
3902.64,5.69
3941.66,5.63
3981.08,5.53
4020.89,5.42
4061.10,5.28
4101.71,5.14
4142.73,5.00
4184.15,4.84
4226.00,4.69
4268.26,4.52
4310.94,4.34
4354.05,4.16
4397.59,3.99
4441.56,3.80
4485.98,3.63
4530.84,3.46
4576.15,3.30
4621.91,3.17
4668.13,3.06
4714.81,2.94
4761.96,2.86
4809.58,2.77
4857.67,2.67
4906.25,2.59
4955.31,2.50
5004.87,2.44
5054.91,2.40
5105.46,2.39
5156.52,2.41
5208.08,2.45
5260.16,2.51
5312.77,2.61
5365.89,2.71
5419.55,2.83
5473.75,2.99
5528.49,3.18
5583.77,3.39
5639.61,3.65
5696.00,3.91
5752.96,4.17
5810.49,4.42
5868.60,4.65
5927.28,4.86
5986.56,5.04
6046.42,5.17
6106.89,5.25
6167.96,5.31
6229.64,5.32
6291.93,5.30
6354.85,5.25
6418.40,5.17
6482.58,5.07
6547.41,4.93
6612.88,4.76
6679.01,4.56
6745.80,4.36
6813.26,4.14
6881.39,3.92
6950.21,3.69
7019.71,3.46
7089.91,3.21
7160.81,2.95
7232.41,2.69
7304.74,2.45
7377.79,2.24
7451.56,2.05
7526.08,1.89
7601.34,1.79
7677.35,1.74
7754.13,1.75
7831.67,1.82
7909.98,1.96
7989.08,2.17
8068.98,2.44
8149.67,2.79
8231.16,3.20
8313.47,3.67
8396.61,4.20
8480.57,4.75
8565.38,5.30
8651.03,5.83
8737.54,6.32
8824.92,6.77
8913.17,7.15
9002.30,7.46
9092.32,7.65
9183.25,7.73
9275.08,7.70
9367.83,7.54
9461.51,7.26
9556.12,6.85
9651.68,6.32
9748.20,5.72
9845.68,5.04
9944.14,4.33
10043.58,3.59
10144.02,2.85
10245.46,2.12
10347.91,1.42
10451.39,0.74
10555.91,0.11
10661.46,-0.49
10768.08,-1.06
10875.76,-1.57
10984.52,-2.04
11094.36,-2.47
11205.31,-2.87
11317.36,-3.29
11430.53,-3.70
11544.84,-4.09
11660.29,-4.49
11776.89,-4.90
11894.66,-5.27
12013.60,-5.65
12133.74,-6.00
12255.08,-6.34
12377.63,-6.64
12501.41,-6.91
12626.42,-7.12
12752.68,-7.27
12880.21,-7.35
13009.01,-7.34
13139.10,-7.23
13270.49,-7.01
13403.20,-6.67
13537.23,-6.27
13672.60,-5.83
13809.33,-5.38
13947.42,-4.96
14086.90,-4.57
14227.77,-4.23
14370.04,-4.03
14513.74,-3.99
14658.88,-4.11
14805.47,-4.40
14953.52,-4.82
15103.06,-5.39
15254.09,-6.07
15406.63,-6.80
15560.70,-7.57
15716.30,-8.32
15873.47,-9.04
16032.20,-9.75
16192.52,-10.46
16354.45,-11.10
16517.99,-11.62
16683.17,-11.98
16850.01,-12.21
17018.51,-12.33
17188.69,-12.52
17360.58,-12.61
17534.18,-12.69
17709.53,-12.76
17886.62,-12.88
18065.49,-13.28
18246.14,-13.87
18428.60,-14.47
18612.89,-15.11
18799.02,-15.75
18987.01,-16.40
19176.88,-17.38
19368.65,-18.40
19562.33,-19.43
19757.96,-20.49
19955.54,-21.55
