frequency,raw
20.00,-0.98
20.20,-1.01
20.40,-1.03
20.61,-1.05
20.81,-1.07
21.02,-1.09
21.23,-1.11
21.44,-1.13
21.66,-1.15
21.87,-1.16
22.09,-1.18
22.31,-1.20
22.54,-1.22
22.76,-1.24
22.99,-1.25
23.22,-1.27
23.45,-1.28
23.69,-1.30
23.92,-1.31
24.16,-1.31
24.40,-1.31
24.65,-1.30
24.89,-1.29
25.14,-1.27
25.39,-1.25
25.65,-1.23
25.91,-1.20
26.16,-1.18
26.43,-1.15
26.69,-1.12
26.96,-1.10
27.23,-1.08
27.50,-1.07
27.77,-1.06
28.05,-1.05
28.33,-1.05
28.62,-1.05
28.90,-1.06
29.19,-1.07
29.48,-1.08
29.78,-1.09
30.08,-1.11
30.38,-1.12
30.68,-1.14
30.99,-1.16
31.30,-1.17
31.61,-1.18
31.93,-1.19
32.24,-1.19
32.57,-1.20
32.89,-1.19
33.22,-1.19
33.55,-1.17
33.89,-1.16
34.23,-1.14
34.57,-1.13
34.92,-1.11
35.27,-1.09
35.62,-1.07
35.97,-1.06
36.33,-1.04
36.70,-1.04
37.06,-1.03
37.43,-1.03
37.81,-1.03
38.19,-1.03
38.57,-1.04
38.95,-1.05
39.34,-1.06
39.74,-1.07
40.14,-1.08
40.54,-1.09
40.94,-1.09
41.35,-1.10
41.76,-1.10
42.18,-1.10
42.60,-1.10
43.03,-1.09
43.46,-1.08
43.90,-1.07
44.33,-1.06
44.78,-1.05
45.23,-1.04
45.68,-1.03
46.13,-1.02
46.60,-1.02
47.06,-1.02
47.53,-1.02
48.01,-1.02
48.49,-1.03
48.97,-1.03
49.46,-1.03
49.96,-1.04
50.46,-1.04
50.96,-1.05
51.47,-1.05
51.99,-1.06
52.51,-1.06
53.03,-1.07
53.56,-1.07
54.10,-1.07
54.64,-1.07
55.18,-1.07
55.74,-1.07
56.29,-1.07
56.86,-1.07
57.42,-1.07
58.00,-1.07
58.58,-1.07
59.16,-1.08
59.76,-1.08
60.35,-1.08
60.96,-1.08
61.57,-1.08
62.18,-1.08
62.80,-1.08
63.43,-1.08
64.07,-1.08
64.71,-1.08
65.35,-1.08
66.01,-1.08
66.67,-1.08
67.33,-1.08
68.01,-1.07
68.69,-1.07
69.37,-1.07
70.07,-1.07
70.77,-1.06
71.48,-1.06
72.19,-1.06
72.91,-1.06
73.64,-1.06
74.38,-1.07
75.12,-1.07
75.87,-1.07
76.63,-1.08
77.40,-1.08
78.17,-1.09
78.95,-1.09
79.74,-1.09
80.54,-1.09
81.35,-1.09
82.16,-1.09
82.98,-1.09
83.81,-1.08
84.65,-1.08
85.50,-1.06
86.35,-1.05
87.22,-1.04
88.09,-1.03
88.97,-1.02
89.86,-1.01
90.76,-1.00
91.66,-0.99
92.58,-0.98
93.51,-0.98
94.44,-0.99
95.39,-0.99
96.34,-1.00
97.30,-1.01
98.28,-1.03
99.26,-1.04
100.25,-1.06
101.25,-1.08
102.27,-1.11
103.29,-1.13
104.32,-1.15
105.37,-1.17
106.42,-1.19
107.48,-1.21
108.56,-1.23
109.64,-1.24
110.74,-1.25
111.85,-1.25
112.97,-1.26
114.10,-1.27
115.24,-1.27
116.39,-1.28
117.55,-1.27
118.73,-1.27
119.92,-1.27
121.12,-1.27
122.33,-1.27
123.55,-1.27
124.79,-1.26
126.03,-1.27
127.29,-1.27
128.57,-1.27
129.85,-1.27
131.15,-1.26
132.46,-1.26
133.79,-1.26
135.12,-1.26
136.48,-1.25
137.84,-1.25
139.22,-1.25
140.61,-1.25
142.02,-1.26
143.44,-1.26
144.87,-1.26
146.32,-1.26
147.78,-1.26
149.26,-1.27
150.75,-1.27
152.26,-1.27
153.78,-1.28
155.32,-1.29
156.88,-1.30
158.44,-1.30
160.03,-1.31
161.63,-1.32
163.24,-1.33
164.88,-1.34
166.53,-1.36
168.19,-1.37
169.87,-1.38
171.57,-1.39
173.29,-1.41
175.02,-1.42
176.77,-1.43
178.54,-1.43
180.32,-1.44
182.13,-1.44
183.95,-1.44
185.79,-1.43
187.65,-1.43
189.52,-1.42
191.42,-1.42
193.33,-1.41
195.27,-1.41
197.22,-1.40
199.19,-1.40
201.18,-1.40
203.19,-1.40
205.23,-1.40
207.28,-1.41
209.35,-1.42
211.44,-1.43
213.56,-1.44
215.69,-1.44
217.85,-1.45
220.03,-1.46
222.23,-1.46
224.45,-1.47
226.70,-1.47
228.96,-1.47
231.25,-1.47
233.57,-1.47
235.90,-1.46
238.26,-1.46
240.64,-1.45
243.05,-1.45
245.48,-1.44
247.93,-1.44
250.41,-1.44
252.92,-1.44
255.45,-1.44
258.00,-1.45
260.58,-1.45
263.19,-1.46
265.82,-1.48
268.48,-1.49
271.16,-1.50
273.87,-1.51
276.61,-1.52
279.38,-1.54
282.17,-1.55
284.99,-1.55
287.84,-1.56
290.72,-1.56
293.63,-1.56
296.57,-1.56
299.53,-1.56
302.53,-1.56
305.55,-1.56
308.61,-1.56
311.69,-1.56
314.81,-1.57
317.96,-1.57
321.14,-1.57
324.35,-1.57
327.59,-1.57
330.87,-1.57
334.18,-1.55
337.52,-1.55
340.90,-1.53
344.30,-1.53
347.75,-1.51
351.23,-1.51
354.74,-1.49
358.28,-1.48
361.87,-1.48
365.49,-1.47
369.14,-1.47
372.83,-1.47
376.56,-1.47
380.33,-1.47
384.13,-1.49
387.97,-1.50
391.85,-1.51
395.77,-1.53
399.73,-1.56
403.72,-1.58
407.76,-1.59
411.84,-1.62
415.96,-1.62
420.12,-1.63
424.32,-1.61
428.56,-1.60
432.85,-1.58
437.18,-1.54
441.55,-1.51
445.96,-1.48
450.42,-1.43
454.93,-1.38
459.48,-1.33
464.07,-1.28
468.71,-1.22
473.40,-1.16
478.13,-1.10
482.91,-1.05
487.74,-1.00
492.62,-0.95
497.55,-0.92
502.52,-0.88
507.55,-0.87
512.62,-0.86
517.75,-0.85
522.93,-0.84
528.16,-0.86
533.44,-0.88
538.77,-0.89
544.16,-0.93
549.60,-0.95
555.10,-0.98
560.65,-1.02
566.25,-1.05
571.92,-1.07
577.64,-1.09
583.41,-1.10
589.25,-1.10
595.14,-1.09
601.09,-1.07
607.10,-1.04
613.17,-1.01
619.30,-0.98
625.50,-0.94
631.75,-0.91
638.07,-0.87
644.45,-0.82
650.89,-0.77
657.40,-0.71
663.98,-0.65
670.62,-0.59
677.32,-0.52
684.10,-0.47
690.94,-0.42
697.85,-0.37
704.83,-0.33
711.87,-0.30
718.99,-0.27
726.18,-0.26
733.44,-0.23
740.78,-0.20
748.19,-0.19
755.67,-0.17
763.23,-0.15
770.86,-0.14
778.57,-0.10
786.35,-0.06
794.22,-0.02
802.16,0.02
810.18,0.07
818.28,0.13
826.46,0.18
834.73,0.24
843.08,0.30
851.51,0.34
860.02,0.38
868.62,0.43
877.31,0.48
886.08,0.52
894.94,0.56
903.89,0.60
912.93,0.64
922.06,0.67
931.28,0.71
940.59,0.74
950.00,0.77
959.50,0.82
969.09,0.85
978.78,0.88
988.57,0.92
998.46,0.95
1008.44,0.99
1018.53,1.01
1028.71,1.04
1039.00,1.08
1049.39,1.11
1059.88,1.14
1070.48,1.17
1081.19,1.20
1092.00,1.23
1102.92,1.27
1113.95,1.31
1125.09,1.36
1136.34,1.40
1147.70,1.44
1159.18,1.49
1170.77,1.54
1182.48,1.59
1194.30,1.65
1206.25,1.71
1218.31,1.76
1230.49,1.82
1242.80,1.88
1255.22,1.94
1267.78,2.01
1280.45,2.08
1293.26,2.15
1306.19,2.22
1319.25,2.30
1332.45,2.36
1345.77,2.44
1359.23,2.52
1372.82,2.61
1386.55,2.70
1400.41,2.78
1414.42,2.86
1428.56,2.95
1442.85,3.04
1457.28,3.14
1471.85,3.24
1486.57,3.34
1501.43,3.46
1516.45,3.57
1531.61,3.67
1546.93,3.78
1562.40,3.90
1578.02,4.02
1593.80,4.15
1609.74,4.28
1625.84,4.40
1642.10,4.52
1658.52,4.64
1675.10,4.76
1691.85,4.89
1708.77,5.02
1725.86,5.14
1743.12,5.26
1760.55,5.37
1778.15,5.50
1795.94,5.62
1813.90,5.75
1832.03,5.87
1850.36,6.00
1868.86,6.11
1887.55,6.24
1906.42,6.36
1925.49,6.50
1944.74,6.62
1964.19,6.76
1983.83,6.89
2003.67,7.02
2023.71,7.15
2043.94,7.29
2064.38,7.42
2085.03,7.57
2105.88,7.72
2126.94,7.87
2148.20,8.02
2169.69,8.19
2191.38,8.35
2213.30,8.51
2235.43,8.66
2257.78,8.79
2280.36,8.91
2303.17,9.01
2326.20,9.11
2349.46,9.20
2372.95,9.27
2396.68,9.35
2420.65,9.42
2444.86,9.49
2469.31,9.56
2494.00,9.63
2518.94,9.71
2544.13,9.81
2569.57,9.88
2595.27,9.95
2621.22,10.04
2647.43,10.12
2673.90,10.19
2700.64,10.27
2727.65,10.34
2754.93,10.37
2782.48,10.41
2810.30,10.45
2838.40,10.48
2866.79,10.51
2895.46,10.52
2924.41,10.53
2953.65,10.55
2983.19,10.56
3013.02,10.57
3043.15,10.57
3073.58,10.58
3104.32,10.57
3135.36,10.56
3166.72,10.55
3198.38,10.54
3230.37,10.52
3262.67,10.50
3295.30,10.48
3328.25,10.44
3361.53,10.42
3395.15,10.40
3429.10,10.38
3463.39,10.36
3498.03,10.34
3533.01,10.31
3568.34,10.27
3604.02,10.22
3640.06,10.17
3676.46,10.13
3713.22,10.06
3750.36,10.00
3787.86,9.95
3825.74,9.89
3864.00,9.83
3902.64,9.78
3941.66,9.71
3981.08,9.64
4020.89,9.57
4061.10,9.51
4101.71,9.45
4142.73,9.39
4184.15,9.33
4226.00,9.26
4268.26,9.19
4310.94,9.10
4354.05,8.99
4397.59,8.88
4441.56,8.76
4485.98,8.64
4530.84,8.54
4576.15,8.43
4621.91,8.32
4668.13,8.22
4714.81,8.12
4761.96,8.01
4809.58,7.90
4857.67,7.78
4906.25,7.65
4955.31,7.52
5004.87,7.37
5054.91,7.24
5105.46,7.08
5156.52,6.93
5208.08,6.78
5260.16,6.61
5312.77,6.45
5365.89,6.28
5419.55,6.12
5473.75,5.95
5528.49,5.80
5583.77,5.64
5639.61,5.49
5696.00,5.35
5752.96,5.20
5810.49,5.06
5868.60,4.92
5927.28,4.77
5986.56,4.60
6046.42,4.41
6106.89,4.20
6167.96,3.99
6229.64,3.77
6291.93,3.52
6354.85,3.27
6418.40,3.00
6482.58,2.74
6547.41,2.49
6612.88,2.24
6679.01,2.00
6745.80,1.77
6813.26,1.55
6881.39,1.30
6950.21,1.07
7019.71,0.83
7089.91,0.60
7160.81,0.36
7232.41,0.11
7304.74,-0.17
7377.79,-0.44
7451.56,-0.73
7526.08,-1.00
7601.34,-1.25
7677.35,-1.50
7754.13,-1.72
7831.67,-1.91
7909.98,-2.08
7989.08,-2.24
8068.98,-2.35
8149.67,-2.44
8231.16,-2.50
8313.47,-2.56
8396.61,-2.60
8480.57,-2.63
8565.38,-2.66
8651.03,-2.66
8737.54,-2.63
8824.92,-2.58
8913.17,-2.54
9002.30,-2.50
9092.32,-2.45
9183.25,-2.36
9275.08,-2.21
9367.83,-2.02
9461.51,-1.78
9556.12,-1.54
9651.68,-1.27
9748.20,-1.00
9845.68,-0.71
9944.14,-0.39
10043.58,-0.08
10144.02,0.21
10245.46,0.48
10347.91,0.82
10451.39,1.19
10555.91,1.51
10661.46,1.79
10768.08,2.00
10875.76,2.13
10984.52,2.14
11094.36,2.05
11205.31,1.84
11317.36,1.52
11430.53,1.10
11544.84,0.51
11660.29,-0.18
11776.89,-0.99
11894.66,-1.86
12013.60,-2.75
12133.74,-3.65
12255.08,-4.53
12377.63,-5.39
12501.41,-6.22
12626.42,-6.97
12752.68,-7.64
12880.21,-8.17
13009.01,-8.59
13139.10,-8.86
13270.49,-9.00
13403.20,-9.06
13537.23,-9.02
13672.60,-8.89
13809.33,-8.72
13947.42,-8.52
14086.90,-8.33
14227.77,-8.18
14370.04,-8.11
14513.74,-8.13
14658.88,-8.25
14805.47,-8.47
14953.52,-8.77
15103.06,-9.14
15254.09,-9.57
15406.63,-10.05
15560.70,-10.55
15716.30,-11.02
15873.47,-11.50
16032.20,-11.97
16192.52,-12.42
16354.45,-12.86
16517.99,-13.24
16683.17,-13.57
16850.01,-13.86
17018.51,-14.11
17188.69,-14.45
17360.58,-14.83
17534.18,-15.14
17709.53,-15.43
17886.62,-15.73
18065.49,-16.22
18246.14,-16.72
18428.60,-17.12
18612.89,-17.49
18799.02,-17.90
18987.01,-18.31
19176.88,-18.76
19368.65,-19.29
19562.33,-19.70
19757.96,-20.07
19955.54,-20.43
