frequency,raw,error,smoothed,error_smoothed,equalization,parametric_eq,fixed_band_eq,equalized_raw,equalized_smoothed,target
20.00,0.29,-5.25,0.29,-5.28,5.28,4.50,-0.21,5.57,5.57,5.54
20.20,0.45,-5.13,0.45,-5.15,5.15,4.47,-0.21,5.60,5.60,5.58
20.40,0.61,-5.01,0.61,-5.02,5.02,4.43,-0.21,5.63,5.63,5.62
20.61,0.77,-4.89,0.77,-4.88,4.88,4.38,-0.21,5.65,5.66,5.65
20.81,0.93,-4.76,0.93,-4.75,4.75,4.32,-0.21,5.68,5.68,5.69
21.02,1.10,-4.63,1.10,-4.61,4.61,4.25,-0.21,5.71,5.71,5.73
21.23,1.26,-4.49,1.26,-4.47,4.47,4.17,-0.21,5.73,5.73,5.75
21.44,1.42,-4.35,1.42,-4.33,4.33,4.08,-0.21,5.76,5.75,5.77
21.66,1.58,-4.21,1.58,-4.19,4.19,3.99,-0.21,5.77,5.78,5.79
21.87,1.75,-4.05,1.75,-4.05,4.05,3.88,-0.21,5.80,5.80,5.80
22.09,1.91,-3.91,1.91,-3.90,3.90,3.77,-0.21,5.81,5.81,5.82
22.31,2.08,-3.75,2.08,-3.75,3.75,3.65,-0.21,5.84,5.83,5.83
22.54,2.24,-3.60,2.24,-3.60,3.60,3.52,-0.21,5.84,5.84,5.84
22.76,2.41,-3.44,2.41,-3.45,3.45,3.39,-0.21,5.86,5.85,5.85
22.99,2.57,-3.28,2.57,-3.29,3.29,3.25,-0.21,5.86,5.86,5.85
23.22,2.74,-3.12,2.74,-3.13,3.13,3.11,-0.21,5.87,5.87,5.86
23.45,2.90,-2.97,2.90,-2.97,2.97,2.96,-0.21,5.87,5.88,5.87
23.69,3.07,-2.81,3.07,-2.82,2.82,2.81,-0.20,5.88,5.89,5.88
23.92,3.24,-2.65,3.24,-2.66,2.66,2.65,-0.20,5.90,5.90,5.89
24.16,3.40,-2.51,3.41,-2.50,2.50,2.49,-0.20,5.90,5.91,5.91
24.40,3.57,-2.36,3.57,-2.34,2.34,2.33,-0.20,5.92,5.92,5.93
24.65,3.74,-2.19,3.74,-2.19,2.19,2.17,-0.20,5.92,5.93,5.93
24.89,3.91,-2.02,3.91,-2.03,2.03,2.00,-0.20,5.94,5.94,5.94
25.14,4.08,-1.86,4.07,-1.87,1.87,1.84,-0.21,5.95,5.95,5.95
25.39,4.24,-1.71,4.24,-1.72,1.72,1.67,-0.21,5.96,5.96,5.96
25.65,4.41,-1.57,4.41,-1.56,1.56,1.50,-0.21,5.97,5.97,5.98
25.91,4.58,-1.40,4.58,-1.40,1.40,1.33,-0.21,5.98,5.98,5.98
26.16,4.75,-1.23,4.75,-1.24,1.24,1.17,-0.22,6.00,5.99,5.98
26.43,4.91,-1.09,4.91,-1.09,1.09,1.00,-0.22,5.99,6.00,5.99
26.69,5.08,-0.92,5.08,-0.93,0.93,0.83,-0.23,6.01,6.01,6.00
26.96,5.24,-0.78,5.25,-0.77,0.77,0.67,-0.23,6.01,6.02,6.02
27.23,5.41,-0.62,5.41,-0.61,0.61,0.50,-0.24,6.02,6.03,6.03
27.50,5.58,-0.46,5.58,-0.46,0.46,0.34,-0.25,6.03,6.04,6.04
27.77,5.75,-0.29,5.75,-0.30,0.30,0.17,-0.26,6.05,6.04,6.04
28.05,5.92,-0.14,5.91,-0.14,0.14,0.01,-0.28,6.06,6.05,6.06
28.33,6.08,0.02,6.08,0.02,-0.02,-0.15,-0.29,6.06,6.06,6.06
28.62,6.25,0.18,6.25,0.18,-0.18,-0.31,-0.31,6.07,6.07,6.07
28.90,6.41,0.33,6.41,0.33,-0.33,-0.47,-0.33,6.08,6.08,6.08
29.19,6.58,0.50,6.58,0.49,-0.49,-0.62,-0.35,6.09,6.09,6.08
29.48,6.74,0.64,6.75,0.65,-0.65,-0.78,-0.38,6.09,6.09,6.11
29.78,6.91,0.80,6.91,0.81,-0.81,-0.93,-0.40,6.10,6.10,6.10
30.08,7.07,0.95,7.08,0.97,-0.97,-1.08,-0.44,6.10,6.11,6.11
30.38,7.24,1.13,7.24,1.13,-1.13,-1.23,-0.47,6.11,6.12,6.11
30.68,7.41,1.28,7.41,1.28,-1.28,-1.38,-0.51,6.13,6.12,6.13
30.99,7.57,1.44,7.57,1.44,-1.44,-1.52,-0.55,6.13,6.13,6.13
31.30,7.74,1.60,7.73,1.59,-1.59,-1.67,-0.59,6.15,6.14,6.14
31.61,7.90,1.75,7.89,1.75,-1.75,-1.81,-0.63,6.15,6.15,6.15
31.93,8.06,1.90,8.06,1.90,-1.90,-1.95,-0.68,6.16,6.16,6.16
32.24,8.22,2.07,8.22,2.05,-2.05,-2.09,-0.74,6.17,6.17,6.16
32.57,8.37,2.20,8.37,2.20,-2.20,-2.23,-0.79,6.17,6.17,6.17
32.89,8.53,2.35,8.53,2.35,-2.35,-2.36,-0.85,6.18,6.18,6.18
33.22,8.68,2.49,8.69,2.50,-2.50,-2.50,-0.92,6.18,6.19,6.19
33.55,8.84,2.64,8.84,2.64,-2.64,-2.63,-0.98,6.20,6.20,6.20
33.89,8.99,2.78,8.99,2.79,-2.79,-2.76,-1.05,6.20,6.20,6.21
34.23,9.14,2.92,9.14,2.93,-2.93,-2.89,-1.13,6.21,6.21,6.22
34.57,9.29,3.07,9.29,3.07,-3.07,-3.01,-1.20,6.22,6.22,6.22
34.92,9.43,3.21,9.43,3.21,-3.21,-3.14,-1.28,6.22,6.23,6.22
35.27,9.58,3.35,9.58,3.34,-3.34,-3.26,-1.36,6.23,6.23,6.23
35.62,9.72,3.48,9.72,3.48,-3.48,-3.39,-1.45,6.24,6.24,6.24
35.97,9.86,3.63,9.86,3.62,-3.62,-3.51,-1.53,6.25,6.24,6.24
36.33,9.99,3.75,9.99,3.75,-3.75,-3.63,-1.63,6.24,6.24,6.24
36.70,10.13,3.89,10.13,3.88,-3.88,-3.74,-1.72,6.24,6.25,6.24
37.06,10.26,4.01,10.26,4.01,-4.01,-3.86,-1.81,6.25,6.25,6.25
37.43,10.39,4.13,10.39,4.14,-4.14,-3.97,-1.91,6.25,6.25,6.26
37.81,10.52,4.27,10.52,4.27,-4.27,-4.09,-2.01,6.25,6.25,6.25
38.19,10.64,4.39,10.65,4.40,-4.40,-4.20,-2.12,6.24,6.25,6.25
38.57,10.77,4.52,10.77,4.52,-4.52,-4.31,-2.22,6.25,6.25,6.25
38.95,10.90,4.66,10.89,4.64,-4.64,-4.42,-2.33,6.26,6.25,6.25
39.34,11.01,4.77,11.01,4.76,-4.76,-4.52,-2.44,6.25,6.25,6.24
39.74,11.12,4.88,11.13,4.88,-4.88,-4.63,-2.56,6.24,6.25,6.24
40.14,11.24,4.99,11.24,4.99,-4.99,-4.73,-2.67,6.24,6.25,6.25
40.54,11.35,5.11,11.35,5.11,-5.11,-4.84,-2.79,6.24,6.25,6.24
40.94,11.45,5.21,11.46,5.21,-5.21,-4.94,-2.91,6.24,6.24,6.24
41.35,11.56,5.32,11.56,5.32,-5.32,-5.04,-3.03,6.24,6.24,6.24
41.76,11.67,5.43,11.66,5.42,-5.42,-5.13,-3.16,6.25,6.24,6.24
42.18,11.77,5.52,11.76,5.52,-5.52,-5.23,-3.29,6.25,6.24,6.25
42.60,11.86,5.62,11.85,5.61,-5.61,-5.33,-3.42,6.25,6.24,6.24
43.03,11.96,5.71,11.94,5.70,-5.70,-5.42,-3.55,6.26,6.24,6.25
43.46,12.03,5.78,12.03,5.79,-5.79,-5.51,-3.69,6.24,6.24,6.25
43.90,12.11,5.88,12.11,5.87,-5.87,-5.60,-3.83,6.24,6.24,6.23
44.33,12.19,5.95,12.19,5.95,-5.95,-5.69,-3.97,6.24,6.24,6.24
44.78,12.27,6.04,12.27,6.03,-6.03,-5.78,-4.12,6.24,6.24,6.23
45.23,12.34,6.11,12.34,6.10,-6.10,-5.86,-4.26,6.24,6.24,6.23
45.68,12.41,6.18,12.41,6.18,-6.18,-5.95,-4.41,6.23,6.24,6.23
46.13,12.48,6.25,12.48,6.25,-6.25,-6.03,-4.57,6.23,6.24,6.23
46.60,12.54,6.30,12.55,6.31,-6.31,-6.11,-4.72,6.22,6.23,6.24
47.06,12.60,6.37,12.61,6.38,-6.38,-6.19,-4.88,6.22,6.23,6.23
47.53,12.66,6.43,12.67,6.45,-6.45,-6.27,-5.04,6.21,6.23,6.23
48.01,12.73,6.49,12.73,6.51,-6.51,-6.34,-5.21,6.22,6.22,6.24
48.49,12.79,6.56,12.79,6.57,-6.57,-6.41,-5.37,6.22,6.22,6.23
48.97,12.85,6.64,12.84,6.63,-6.63,-6.49,-5.54,6.22,6.21,6.21
49.46,12.90,6.70,12.89,6.69,-6.69,-6.56,-5.71,6.21,6.20,6.20
49.96,12.95,6.77,12.94,6.74,-6.74,-6.63,-5.89,6.21,6.19,6.18
50.46,12.99,6.80,12.98,6.80,-6.80,-6.69,-6.06,6.19,6.18,6.19
50.96,13.03,6.85,13.02,6.85,-6.85,-6.76,-6.24,6.18,6.17,6.18
51.47,13.06,6.91,13.06,6.90,-6.90,-6.82,-6.41,6.16,6.16,6.15
51.99,13.09,6.95,13.10,6.95,-6.95,-6.88,-6.59,6.14,6.15,6.14
52.51,13.12,6.98,13.13,6.99,-6.99,-6.94,-6.77,6.13,6.14,6.14
53.03,13.15,7.03,13.16,7.04,-7.04,-7.00,-6.94,6.11,6.12,6.12
53.56,13.18,7.07,13.19,7.08,-7.08,-7.05,-7.12,6.10,6.11,6.11
54.10,13.21,7.11,13.21,7.12,-7.12,-7.11,-7.29,6.09,6.09,6.09
54.64,13.24,7.16,13.23,7.15,-7.15,-7.16,-7.46,6.09,6.08,6.08
55.18,13.26,7.20,13.26,7.19,-7.19,-7.21,-7.62,6.07,6.07,6.06
55.74,13.28,7.24,13.27,7.22,-7.22,-7.25,-7.79,6.06,6.05,6.04
56.29,13.30,7.26,13.29,7.25,-7.25,-7.30,-7.94,6.05,6.04,6.04
56.86,13.31,7.29,13.31,7.28,-7.28,-7.34,-8.09,6.02,6.02,6.02
57.42,13.32,7.32,13.32,7.32,-7.32,-7.38,-8.23,6.00,6.01,6.00
58.00,13.34,7.35,13.34,7.35,-7.35,-7.42,-8.36,5.99,5.99,5.99
58.58,13.35,7.38,13.35,7.38,-7.38,-7.46,-8.49,5.97,5.97,5.97
59.16,13.35,7.39,13.36,7.41,-7.41,-7.49,-8.60,5.94,5.95,5.96
59.76,13.36,7.41,13.36,7.43,-7.43,-7.53,-8.70,5.93,5.93,5.95
60.35,13.36,7.44,13.37,7.46,-7.46,-7.56,-8.78,5.90,5.91,5.92
60.96,13.37,7.47,13.37,7.49,-7.49,-7.59,-8.86,5.88,5.89,5.90
61.57,13.38,7.52,13.37,7.51,-7.51,-7.61,-8.92,5.87,5.86,5.86
62.18,13.38,7.55,13.37,7.54,-7.54,-7.64,-8.96,5.84,5.84,5.83
62.80,13.38,7.57,13.37,7.56,-7.56,-7.66,-9.00,5.82,5.81,5.81
63.43,13.37,7.59,13.36,7.58,-7.58,-7.68,-9.01,5.79,5.78,5.78
64.07,13.36,7.61,13.36,7.60,-7.60,-7.70,-9.01,5.76,5.75,5.75
64.71,13.35,7.63,13.35,7.62,-7.62,-7.71,-9.00,5.73,5.73,5.72
65.35,13.33,7.64,13.34,7.64,-7.64,-7.73,-8.98,5.69,5.70,5.69
66.01,13.32,7.66,13.33,7.66,-7.66,-7.74,-8.94,5.66,5.67,5.66
66.67,13.31,7.66,13.31,7.67,-7.67,-7.75,-8.90,5.64,5.64,5.65
67.33,13.29,7.67,13.30,7.69,-7.69,-7.76,-8.84,5.60,5.61,5.62
68.01,13.27,7.68,13.28,7.70,-7.70,-7.76,-8.77,5.57,5.58,5.59
68.69,13.25,7.70,13.26,7.71,-7.71,-7.77,-8.69,5.54,5.55,5.55
69.37,13.23,7.71,13.24,7.71,-7.71,-7.77,-8.61,5.52,5.52,5.52
70.07,13.22,7.73,13.21,7.72,-7.72,-7.77,-8.52,5.50,5.50,5.49
70.77,13.20,7.73,13.19,7.72,-7.72,-7.77,-8.43,5.48,5.47,5.47
71.48,13.18,7.73,13.16,7.72,-7.72,-7.77,-8.33,5.46,5.44,5.45
72.19,13.15,7.74,13.14,7.72,-7.72,-7.76,-8.23,5.43,5.42,5.41
72.91,13.11,7.72,13.11,7.72,-7.72,-7.76,-8.13,5.39,5.39,5.39
73.64,13.08,7.72,13.08,7.71,-7.71,-7.75,-8.02,5.37,5.37,5.36
74.38,13.05,7.70,13.05,7.71,-7.71,-7.74,-7.92,5.34,5.35,5.35
75.12,13.01,7.69,13.02,7.70,-7.70,-7.73,-7.82,5.31,5.32,5.32
75.87,12.98,7.67,12.99,7.69,-7.69,-7.71,-7.72,5.29,5.31,5.31
76.63,12.95,7.66,12.96,7.67,-7.67,-7.70,-7.62,5.28,5.29,5.29
77.40,12.92,7.65,12.93,7.66,-7.66,-7.68,-7.52,5.26,5.27,5.27
78.17,12.89,7.64,12.90,7.64,-7.64,-7.67,-7.42,5.25,5.26,5.25
78.95,12.86,7.62,12.87,7.62,-7.62,-7.65,-7.33,5.24,5.24,5.24
79.74,12.84,7.61,12.83,7.60,-7.60,-7.63,-7.24,5.24,5.23,5.23
80.54,12.81,7.59,12.80,7.58,-7.58,-7.61,-7.16,5.23,5.22,5.22
81.35,12.78,7.57,12.77,7.55,-7.55,-7.58,-7.07,5.23,5.21,5.21
82.16,12.74,7.54,12.73,7.53,-7.53,-7.56,-7.00,5.21,5.20,5.20
82.98,12.70,7.50,12.69,7.50,-7.50,-7.54,-6.92,5.20,5.20,5.20
83.81,12.66,7.47,12.66,7.47,-7.47,-7.51,-6.86,5.19,5.19,5.19
84.65,12.62,7.45,12.62,7.43,-7.43,-7.48,-6.79,5.19,5.18,5.17
85.50,12.58,7.40,12.57,7.39,-7.39,-7.46,-6.73,5.19,5.18,5.18
86.35,12.53,7.35,12.53,7.35,-7.35,-7.43,-6.68,5.18,5.18,5.18
87.22,12.48,7.31,12.49,7.31,-7.31,-7.40,-6.63,5.17,5.17,5.17
88.09,12.44,7.27,12.44,7.27,-7.27,-7.37,-6.59,5.17,5.17,5.17
88.97,12.39,7.22,12.40,7.23,-7.23,-7.34,-6.55,5.16,5.17,5.17
89.86,12.36,7.18,12.36,7.19,-7.19,-7.31,-6.51,5.17,5.17,5.18
90.76,12.31,7.15,12.32,7.15,-7.15,-7.27,-6.48,5.16,5.17,5.16
91.66,12.27,7.11,12.28,7.11,-7.11,-7.24,-6.46,5.16,5.17,5.16
92.58,12.23,7.07,12.24,7.07,-7.07,-7.21,-6.44,5.16,5.16,5.16
93.51,12.19,7.02,12.19,7.03,-7.03,-7.18,-6.42,5.16,5.16,5.17
94.44,12.15,6.99,12.15,6.99,-6.99,-7.14,-6.41,5.16,5.16,5.16
95.39,12.11,6.95,12.11,6.96,-6.96,-7.11,-6.40,5.15,5.15,5.16
96.34,12.08,6.93,12.07,6.93,-6.93,-7.07,-6.40,5.15,5.15,5.15
97.30,12.05,6.91,12.03,6.89,-6.89,-7.04,-6.40,5.16,5.14,5.14
98.28,12.01,6.88,12.00,6.86,-6.86,-7.00,-6.41,5.15,5.13,5.13
99.26,11.96,6.84,11.95,6.83,-6.83,-6.97,-6.41,5.13,5.12,5.12
100.25,11.90,6.79,11.91,6.80,-6.80,-6.94,-6.43,5.10,5.11,5.11
101.25,11.85,6.75,11.87,6.77,-6.77,-6.90,-6.44,5.08,5.10,5.10
102.27,11.80,6.72,11.82,6.73,-6.73,-6.87,-6.46,5.07,5.09,5.08
103.29,11.78,6.72,11.77,6.70,-6.70,-6.83,-6.48,5.08,5.07,5.06
104.32,11.74,6.69,11.72,6.67,-6.67,-6.80,-6.51,5.07,5.05,5.05
105.37,11.70,6.67,11.67,6.64,-6.64,-6.76,-6.53,5.06,5.03,5.03
106.42,11.64,6.63,11.62,6.62,-6.62,-6.73,-6.56,5.02,5.00,5.01
107.48,11.58,6.59,11.57,6.59,-6.59,-6.69,-6.59,4.99,4.98,4.99
108.56,11.52,6.57,11.52,6.57,-6.57,-6.66,-6.62,4.95,4.95,4.95
109.64,11.45,6.53,11.47,6.55,-6.55,-6.63,-6.65,4.90,4.91,4.92
110.74,11.39,6.50,11.42,6.54,-6.54,-6.59,-6.67,4.85,4.88,4.89
111.85,11.35,6.50,11.37,6.53,-6.53,-6.56,-6.70,4.82,4.84,4.85
112.97,11.31,6.51,11.32,6.52,-6.52,-6.53,-6.73,4.79,4.80,4.80
114.10,11.27,6.50,11.28,6.51,-6.51,-6.50,-6.76,4.76,4.76,4.77
115.24,11.22,6.50,11.23,6.50,-6.50,-6.46,-6.78,4.72,4.73,4.72
116.39,11.19,6.51,11.18,6.49,-6.49,-6.43,-6.80,4.70,4.68,4.68
117.55,11.15,6.51,11.14,6.49,-6.49,-6.40,-6.82,4.66,4.64,4.64
118.73,11.10,6.51,11.09,6.49,-6.49,-6.38,-6.83,4.61,4.60,4.59
119.92,11.05,6.49,11.05,6.49,-6.49,-6.35,-6.85,4.56,4.56,4.56
121.12,11.01,6.49,11.01,6.48,-6.48,-6.32,-6.85,4.53,4.52,4.52
122.33,10.97,6.49,10.96,6.47,-6.47,-6.29,-6.86,4.50,4.49,4.48
123.55,10.92,6.46,10.91,6.46,-6.46,-6.27,-6.86,4.45,4.45,4.45
124.79,10.86,6.44,10.87,6.45,-6.45,-6.24,-6.85,4.41,4.41,4.42
126.03,10.80,6.42,10.82,6.44,-6.44,-6.22,-6.84,4.36,4.38,4.38
127.29,10.77,6.42,10.77,6.42,-6.42,-6.20,-6.82,4.35,4.35,4.35
128.57,10.74,6.43,10.72,6.41,-6.41,-6.17,-6.81,4.33,4.32,4.31
129.85,10.68,6.40,10.67,6.39,-6.39,-6.15,-6.78,4.29,4.29,4.28
131.15,10.61,6.36,10.62,6.37,-6.37,-6.13,-6.75,4.24,4.26,4.25
132.46,10.57,6.34,10.57,6.35,-6.35,-6.12,-6.72,4.22,4.23,4.23
133.79,10.51,6.31,10.52,6.32,-6.32,-6.10,-6.69,4.19,4.20,4.20
135.12,10.46,6.29,10.47,6.29,-6.29,-6.08,-6.65,4.17,4.17,4.17
136.48,10.43,6.28,10.41,6.27,-6.27,-6.07,-6.61,4.16,4.15,4.15
137.84,10.38,6.26,10.36,6.24,-6.24,-6.06,-6.56,4.14,4.12,4.12
139.22,10.33,6.24,10.31,6.20,-6.20,-6.04,-6.52,4.13,4.10,4.09
140.61,10.27,6.21,10.25,6.17,-6.17,-6.03,-6.47,4.10,4.08,4.06
142.02,10.18,6.13,10.19,6.14,-6.14,-6.02,-6.43,4.04,4.05,4.05
143.44,10.14,6.10,10.14,6.11,-6.11,-6.02,-6.38,4.03,4.03,4.04
144.87,10.08,6.07,10.09,6.08,-6.08,-6.01,-6.33,4.00,4.01,4.01
146.32,10.04,6.06,10.04,6.05,-6.05,-6.01,-6.28,3.99,3.98,3.98
147.78,9.98,6.01,9.99,6.03,-6.03,-6.00,-6.23,3.95,3.96,3.97
149.26,9.94,6.00,9.94,6.01,-6.01,-6.00,-6.19,3.93,3.93,3.94
150.75,9.88,5.98,9.90,6.00,-6.00,-6.00,-6.15,3.88,3.90,3.90
152.26,9.85,5.98,9.86,5.99,-5.99,-6.01,-6.10,3.86,3.87,3.87
153.78,9.82,5.97,9.83,5.99,-5.99,-6.01,-6.06,3.83,3.84,3.85
155.32,9.80,6.00,9.81,5.99,-5.99,-6.02,-6.03,3.81,3.81,3.80
156.88,9.77,5.99,9.79,6.01,-6.01,-6.03,-5.99,3.76,3.78,3.78
158.44,9.76,6.01,9.77,6.03,-6.03,-6.04,-5.96,3.73,3.75,3.75
160.03,9.75,6.04,9.76,6.05,-6.05,-6.05,-5.93,3.70,3.71,3.71
161.63,9.75,6.08,9.76,6.08,-6.08,-6.06,-5.91,3.67,3.68,3.67
163.24,9.75,6.11,9.75,6.11,-6.11,-6.08,-5.89,3.64,3.64,3.64
164.88,9.76,6.15,9.75,6.15,-6.15,-6.10,-5.87,3.61,3.60,3.61
166.53,9.77,6.20,9.75,6.19,-6.19,-6.12,-5.86,3.58,3.57,3.57
168.19,9.77,6.24,9.76,6.23,-6.23,-6.14,-5.85,3.54,3.53,3.53
169.87,9.77,6.28,9.76,6.27,-6.27,-6.16,-5.84,3.50,3.49,3.49
171.57,9.77,6.32,9.76,6.32,-6.32,-6.19,-5.84,3.45,3.45,3.45
173.29,9.77,6.36,9.76,6.36,-6.36,-6.21,-5.85,3.41,3.40,3.41
175.02,9.77,6.40,9.77,6.41,-6.41,-6.24,-5.86,3.36,3.36,3.37
176.77,9.77,6.46,9.77,6.45,-6.45,-6.27,-5.87,3.32,3.31,3.31
178.54,9.77,6.50,9.77,6.50,-6.50,-6.31,-5.89,3.27,3.27,3.27
180.32,9.77,6.55,9.77,6.55,-6.55,-6.34,-5.91,3.22,3.22,3.22
182.13,9.77,6.59,9.77,6.60,-6.60,-6.38,-5.93,3.17,3.17,3.18
183.95,9.77,6.65,9.77,6.65,-6.65,-6.42,-5.96,3.12,3.13,3.12
185.79,9.77,6.69,9.78,6.70,-6.70,-6.46,-6.00,3.07,3.08,3.08
187.65,9.77,6.75,9.78,6.75,-6.75,-6.50,-6.04,3.02,3.03,3.02
189.52,9.77,6.80,9.78,6.80,-6.80,-6.54,-6.08,2.97,2.98,2.97
191.42,9.77,6.84,9.79,6.85,-6.85,-6.58,-6.13,2.92,2.93,2.93
193.33,9.78,6.89,9.79,6.90,-6.90,-6.63,-6.18,2.88,2.89,2.89
195.27,9.79,6.94,9.79,6.95,-6.95,-6.67,-6.23,2.84,2.84,2.85
197.22,9.79,6.99,9.79,6.99,-6.99,-6.72,-6.29,2.80,2.80,2.80
199.19,9.79,7.04,9.78,7.03,-7.03,-6.76,-6.35,2.76,2.75,2.75
201.18,9.78,7.07,9.77,7.06,-7.06,-6.81,-6.41,2.72,2.71,2.71
203.19,9.77,7.09,9.76,7.09,-7.09,-6.85,-6.47,2.68,2.67,2.68
205.23,9.76,7.13,9.74,7.11,-7.11,-6.90,-6.54,2.65,2.63,2.63
207.28,9.74,7.13,9.72,7.13,-7.13,-6.94,-6.61,2.61,2.59,2.61
209.35,9.70,7.14,9.69,7.13,-7.13,-6.98,-6.68,2.57,2.55,2.56
211.44,9.66,7.15,9.65,7.13,-7.13,-7.02,-6.75,2.53,2.52,2.51
213.56,9.61,7.13,9.60,7.12,-7.12,-7.06,-6.82,2.49,2.48,2.48
215.69,9.57,7.11,9.55,7.10,-7.10,-7.10,-6.89,2.47,2.45,2.46
217.85,9.50,7.08,9.50,7.08,-7.08,-7.13,-6.96,2.42,2.42,2.42
220.03,9.45,7.06,9.44,7.05,-7.05,-7.16,-7.03,2.40,2.39,2.39
222.23,9.39,7.03,9.38,7.01,-7.01,-7.19,-7.09,2.38,2.37,2.36
224.45,9.30,6.96,9.31,6.97,-6.97,-7.22,-7.15,2.33,2.34,2.34
226.70,9.22,6.90,9.24,6.92,-6.92,-7.24,-7.21,2.30,2.32,2.32
228.96,9.15,6.85,9.18,6.87,-6.87,-7.25,-7.26,2.28,2.30,2.30
231.25,9.10,6.81,9.11,6.82,-6.82,-7.26,-7.31,2.28,2.29,2.29
233.57,9.05,6.78,9.04,6.77,-6.77,-7.27,-7.34,2.28,2.27,2.27
235.90,8.98,6.72,8.98,6.72,-6.72,-7.26,-7.38,2.26,2.26,2.26
238.26,8.93,6.68,8.92,6.67,-6.67,-7.26,-7.40,2.26,2.26,2.25
240.64,8.86,6.61,8.87,6.62,-6.62,-7.25,-7.42,2.24,2.25,2.25
243.05,8.81,6.56,8.81,6.57,-6.57,-7.23,-7.43,2.24,2.25,2.25
245.48,8.75,6.50,8.76,6.52,-6.52,-7.20,-7.42,2.23,2.25,2.25
247.93,8.70,6.45,8.72,6.47,-6.47,-7.17,-7.41,2.23,2.25,2.25
250.41,8.67,6.42,8.67,6.42,-6.42,-7.14,-7.39,2.25,2.26,2.25
252.92,8.62,6.36,8.63,6.37,-6.37,-7.09,-7.36,2.25,2.26,2.26
255.45,8.60,6.32,8.59,6.32,-6.32,-7.05,-7.32,2.28,2.27,2.28
258.00,8.56,6.28,8.55,6.27,-6.27,-6.99,-7.27,2.29,2.28,2.28
260.58,8.53,6.24,8.52,6.22,-6.22,-6.93,-7.20,2.31,2.29,2.29
263.19,8.49,6.18,8.48,6.18,-6.18,-6.87,-7.13,2.31,2.31,2.31
265.82,8.44,6.13,8.45,6.13,-6.13,-6.80,-7.06,2.31,2.32,2.31
268.48,8.41,6.07,8.42,6.08,-6.08,-6.73,-6.97,2.33,2.33,2.34
271.16,8.37,6.02,8.38,6.03,-6.03,-6.65,-6.88,2.34,2.35,2.35
273.87,8.33,5.97,8.34,5.98,-5.98,-6.57,-6.78,2.35,2.36,2.36
276.61,8.31,5.92,8.31,5.93,-5.93,-6.48,-6.67,2.38,2.38,2.39
279.38,8.29,5.89,8.27,5.88,-5.88,-6.40,-6.56,2.41,2.40,2.39
282.17,8.27,5.86,8.24,5.83,-5.83,-6.31,-6.44,2.44,2.41,2.41
284.99,8.23,5.80,8.20,5.77,-5.77,-6.22,-6.33,2.46,2.42,2.43
287.84,8.16,5.72,8.16,5.72,-5.72,-6.12,-6.20,2.44,2.44,2.44
290.72,8.11,5.66,8.13,5.67,-5.67,-6.03,-6.08,2.44,2.46,2.45
293.63,8.07,5.60,8.09,5.62,-5.62,-5.94,-5.95,2.45,2.47,2.47
296.57,8.04,5.55,8.05,5.57,-5.57,-5.84,-5.83,2.47,2.49,2.49
299.53,8.00,5.50,8.02,5.52,-5.52,-5.75,-5.70,2.48,2.50,2.50
302.53,7.98,5.48,7.98,5.47,-5.47,-5.65,-5.57,2.51,2.51,2.50
305.55,7.95,5.42,7.94,5.42,-5.42,-5.56,-5.44,2.53,2.53,2.53
308.61,7.92,5.38,7.90,5.36,-5.36,-5.47,-5.32,2.56,2.54,2.54
311.69,7.87,5.32,7.87,5.32,-5.32,-5.37,-5.19,2.55,2.55,2.55
314.81,7.83,5.25,7.83,5.27,-5.27,-5.29,-5.07,2.56,2.56,2.58
317.96,7.79,5.22,7.79,5.22,-5.22,-5.20,-4.95,2.57,2.57,2.57
321.14,7.75,5.17,7.76,5.18,-5.18,-5.11,-4.83,2.57,2.58,2.58
324.35,7.72,5.14,7.72,5.13,-5.13,-5.03,-4.71,2.59,2.59,2.58
327.59,7.68,5.08,7.68,5.09,-5.09,-4.95,-4.59,2.59,2.59,2.60
330.87,7.64,5.04,7.64,5.04,-5.04,-4.87,-4.48,2.60,2.60,2.60
334.18,7.60,5.00,7.60,4.99,-4.99,-4.79,-4.37,2.61,2.60,2.60
337.52,7.56,4.96,7.55,4.95,-4.95,-4.72,-4.26,2.61,2.61,2.60
340.90,7.52,4.91,7.51,4.90,-4.90,-4.65,-4.16,2.62,2.61,2.61
344.30,7.47,4.86,7.47,4.86,-4.86,-4.58,-4.05,2.61,2.61,2.61
347.75,7.42,4.81,7.42,4.81,-4.81,-4.52,-3.95,2.61,2.61,2.61
351.23,7.36,4.75,7.37,4.76,-4.76,-4.46,-3.86,2.60,2.61,2.61
354.74,7.31,4.70,7.32,4.71,-4.71,-4.40,-3.76,2.60,2.60,2.61
358.28,7.26,4.66,7.26,4.66,-4.66,-4.35,-3.67,2.60,2.60,2.60
361.87,7.22,4.62,7.21,4.61,-4.61,-4.30,-3.58,2.61,2.60,2.59
365.49,7.16,4.57,7.15,4.56,-4.56,-4.25,-3.50,2.60,2.59,2.59
369.14,7.10,4.52,7.09,4.51,-4.51,-4.21,-3.42,2.59,2.59,2.58
372.83,7.04,4.46,7.04,4.46,-4.46,-4.17,-3.34,2.58,2.58,2.58
376.56,6.97,4.40,6.98,4.40,-4.40,-4.13,-3.26,2.57,2.57,2.57
380.33,6.90,4.33,6.91,4.35,-4.35,-4.10,-3.18,2.55,2.57,2.57
384.13,6.84,4.28,6.85,4.29,-4.29,-4.07,-3.11,2.55,2.56,2.56
387.97,6.79,4.24,6.79,4.24,-4.24,-4.04,-3.04,2.55,2.55,2.55
391.85,6.73,4.19,6.73,4.18,-4.18,-4.01,-2.97,2.55,2.55,2.54
395.77,6.67,4.12,6.66,4.12,-4.12,-3.98,-2.91,2.55,2.54,2.55
399.73,6.60,4.06,6.59,4.06,-4.06,-3.96,-2.85,2.54,2.53,2.54
403.72,6.53,4.00,6.53,4.00,-4.00,-3.93,-2.78,2.53,2.53,2.53
407.76,6.45,3.94,6.46,3.94,-3.94,-3.90,-2.72,2.51,2.52,2.51
411.84,6.39,3.87,6.39,3.87,-3.87,-3.87,-2.67,2.52,2.52,2.52
415.96,6.32,3.81,6.32,3.81,-3.81,-3.84,-2.61,2.51,2.51,2.51
420.12,6.25,3.74,6.25,3.74,-3.74,-3.81,-2.55,2.51,2.51,2.51
424.32,6.17,3.66,6.18,3.67,-3.67,-3.77,-2.50,2.50,2.51,2.51
428.56,6.11,3.61,6.10,3.60,-3.60,-3.72,-2.45,2.51,2.51,2.50
432.85,6.04,3.54,6.03,3.53,-3.53,-3.67,-2.40,2.51,2.50,2.50
437.18,5.96,3.46,5.95,3.45,-3.45,-3.62,-2.35,2.51,2.50,2.50
441.55,5.88,3.37,5.88,3.38,-3.38,-3.55,-2.30,2.50,2.50,2.51
445.96,5.80,3.29,5.80,3.30,-3.30,-3.48,-2.25,2.50,2.51,2.51
450.42,5.71,3.21,5.72,3.22,-3.22,-3.40,-2.20,2.49,2.51,2.50
454.93,5.64,3.13,5.65,3.14,-3.14,-3.32,-2.15,2.50,2.51,2.51
459.48,5.56,3.05,5.57,3.05,-3.05,-3.22,-2.10,2.51,2.51,2.51
464.07,5.48,2.96,5.48,2.97,-2.97,-3.12,-2.05,2.51,2.52,2.52
468.71,5.41,2.88,5.40,2.88,-2.88,-3.02,-2.00,2.53,2.52,2.53
473.40,5.31,2.78,5.32,2.79,-2.79,-2.91,-1.96,2.52,2.53,2.53
478.13,5.23,2.69,5.23,2.69,-2.69,-2.79,-1.91,2.54,2.53,2.54
482.91,5.14,2.60,5.13,2.60,-2.60,-2.67,-1.86,2.54,2.54,2.54
487.74,5.05,2.50,5.04,2.50,-2.50,-2.55,-1.81,2.55,2.55,2.55
492.62,4.95,2.39,4.95,2.40,-2.40,-2.42,-1.75,2.55,2.55,2.56
497.55,4.86,2.30,4.85,2.29,-2.29,-2.29,-1.70,2.57,2.56,2.56
502.52,4.76,2.19,4.75,2.19,-2.19,-2.16,-1.65,2.57,2.56,2.56
507.55,4.64,2.08,4.64,2.08,-2.08,-2.03,-1.59,2.56,2.56,2.56
512.62,4.54,1.98,4.54,1.97,-1.97,-1.90,-1.54,2.57,2.57,2.56
517.75,4.43,1.86,4.43,1.86,-1.86,-1.77,-1.48,2.57,2.57,2.57
522.93,4.31,1.74,4.32,1.75,-1.75,-1.63,-1.43,2.56,2.57,2.57
