frequency,raw,error,smoothed,error_smoothed,equalization,parametric_eq,fixed_band_eq,equalized_raw,equalized_smoothed,target
20.00,-5.89,-2.76,-5.89,-2.79,2.79,1.94,-0.04,-3.10,-3.10,-3.13
20.20,-5.81,-2.68,-5.81,-2.70,2.70,1.90,-0.04,-3.11,-3.11,-3.13
20.40,-5.74,-2.61,-5.73,-2.61,2.61,1.85,-0.04,-3.12,-3.12,-3.13
20.61,-5.66,-2.53,-5.65,-2.52,2.52,1.79,-0.04,-3.13,-3.13,-3.13
20.81,-5.58,-2.45,-5.57,-2.43,2.43,1.72,-0.04,-3.14,-3.14,-3.13
21.02,-5.50,-2.37,-5.49,-2.34,2.34,1.64,-0.04,-3.15,-3.15,-3.13
21.23,-5.42,-2.27,-5.42,-2.25,2.25,1.56,-0.04,-3.16,-3.16,-3.15
21.44,-5.34,-2.18,-5.34,-2.16,2.16,1.47,-0.03,-3.17,-3.18,-3.16
21.66,-5.26,-2.08,-5.26,-2.07,2.07,1.38,-0.03,-3.19,-3.19,-3.18
21.87,-5.18,-1.99,-5.18,-1.98,1.98,1.28,-0.03,-3.20,-3.20,-3.20
22.09,-5.11,-1.90,-5.11,-1.89,1.89,1.19,-0.03,-3.22,-3.22,-3.21
22.31,-5.04,-1.80,-5.03,-1.80,1.80,1.10,-0.03,-3.24,-3.24,-3.24
22.54,-4.96,-1.70,-4.96,-1.70,1.70,1.02,-0.03,-3.26,-3.26,-3.26
22.76,-4.88,-1.60,-4.88,-1.60,1.60,0.93,-0.03,-3.27,-3.28,-3.28
22.99,-4.82,-1.51,-4.81,-1.51,1.51,0.85,-0.03,-3.31,-3.30,-3.31
23.22,-4.75,-1.41,-4.74,-1.41,1.41,0.78,-0.03,-3.33,-3.32,-3.34
23.45,-4.67,-1.31,-4.66,-1.32,1.32,0.70,-0.03,-3.35,-3.35,-3.36
23.69,-4.60,-1.23,-4.59,-1.23,1.23,0.63,-0.03,-3.37,-3.37,-3.37
23.92,-4.52,-1.12,-4.52,-1.13,1.13,0.57,-0.03,-3.38,-3.39,-3.39
24.16,-4.45,-1.04,-4.45,-1.04,1.04,0.50,-0.03,-3.40,-3.41,-3.40
24.40,-4.38,-0.96,-4.38,-0.96,0.96,0.44,-0.03,-3.43,-3.43,-3.42
24.65,-4.31,-0.87,-4.31,-0.87,0.87,0.39,-0.03,-3.44,-3.44,-3.44
24.89,-4.24,-0.78,-4.25,-0.78,0.78,0.33,-0.03,-3.46,-3.46,-3.46
25.14,-4.18,-0.70,-4.18,-0.70,0.70,0.28,-0.03,-3.47,-3.48,-3.47
25.39,-4.11,-0.61,-4.11,-0.62,0.62,0.24,-0.03,-3.49,-3.49,-3.49
25.65,-4.05,-0.54,-4.05,-0.54,0.54,0.19,-0.03,-3.51,-3.51,-3.50
25.91,-3.99,-0.45,-3.98,-0.46,0.46,0.15,-0.03,-3.53,-3.52,-3.53
26.16,-3.92,-0.37,-3.92,-0.38,0.38,0.10,-0.03,-3.54,-3.54,-3.55
26.43,-3.86,-0.30,-3.85,-0.30,0.30,0.07,-0.03,-3.56,-3.56,-3.56
26.69,-3.80,-0.22,-3.79,-0.22,0.22,0.03,-0.04,-3.58,-3.57,-3.58
26.96,-3.73,-0.14,-3.73,-0.14,0.14,-0.01,-0.04,-3.59,-3.59,-3.59
27.23,-3.67,-0.07,-3.66,-0.06,0.06,-0.04,-0.04,-3.61,-3.60,-3.60
27.50,-3.61,0.00,-3.60,0.01,-0.01,-0.08,-0.05,-3.62,-3.62,-3.61
27.77,-3.54,0.09,-3.54,0.09,-0.09,-0.11,-0.05,-3.62,-3.63,-3.63
28.05,-3.48,0.16,-3.48,0.16,-0.16,-0.14,-0.06,-3.64,-3.64,-3.64
28.33,-3.42,0.24,-3.42,0.23,-0.23,-0.17,-0.07,-3.65,-3.65,-3.66
28.62,-3.36,0.31,-3.36,0.31,-0.31,-0.20,-0.08,-3.66,-3.67,-3.67
28.90,-3.31,0.38,-3.31,0.37,-0.37,-0.23,-0.09,-3.68,-3.68,-3.68
29.19,-3.26,0.45,-3.25,0.44,-0.44,-0.26,-0.10,-3.70,-3.69,-3.70
29.48,-3.20,0.51,-3.20,0.51,-0.51,-0.28,-0.11,-3.70,-3.71,-3.70
29.78,-3.15,0.57,-3.15,0.57,-0.57,-0.31,-0.12,-3.72,-3.72,-3.71
30.08,-3.10,0.63,-3.10,0.63,-0.63,-0.34,-0.13,-3.73,-3.73,-3.73
30.38,-3.06,0.69,-3.05,0.70,-0.70,-0.36,-0.15,-3.75,-3.75,-3.75
30.68,-3.01,0.75,-3.01,0.75,-0.75,-0.39,-0.17,-3.76,-3.76,-3.76
30.99,-2.96,0.82,-2.97,0.81,-0.81,-0.41,-0.18,-3.77,-3.78,-3.78
31.30,-2.93,0.86,-2.93,0.87,-0.87,-0.44,-0.20,-3.79,-3.79,-3.79
31.61,-2.89,0.92,-2.89,0.92,-0.92,-0.46,-0.23,-3.81,-3.81,-3.80
31.93,-2.86,0.97,-2.85,0.97,-0.97,-0.48,-0.25,-3.83,-3.83,-3.82
32.24,-2.82,1.04,-2.82,1.03,-1.03,-0.51,-0.27,-3.84,-3.85,-3.85
32.57,-2.79,1.08,-2.79,1.08,-1.08,-0.53,-0.30,-3.86,-3.86,-3.87
32.89,-2.76,1.12,-2.76,1.13,-1.13,-0.56,-0.32,-3.88,-3.88,-3.88
33.22,-2.73,1.18,-2.73,1.18,-1.18,-0.58,-0.35,-3.90,-3.90,-3.91
33.55,-2.70,1.22,-2.70,1.22,-1.22,-0.60,-0.38,-3.92,-3.92,-3.92
33.89,-2.68,1.27,-2.67,1.27,-1.27,-0.63,-0.41,-3.95,-3.94,-3.94
34.23,-2.65,1.32,-2.65,1.31,-1.31,-0.65,-0.45,-3.96,-3.96,-3.96
34.57,-2.63,1.36,-2.63,1.36,-1.36,-0.67,-0.48,-3.98,-3.98,-3.99
34.92,-2.61,1.40,-2.60,1.40,-1.40,-0.70,-0.51,-4.01,-4.00,-4.01
35.27,-2.59,1.43,-2.58,1.44,-1.44,-0.72,-0.55,-4.03,-4.02,-4.02
35.62,-2.56,1.48,-2.56,1.48,-1.48,-0.74,-0.59,-4.04,-4.04,-4.04
35.97,-2.55,1.52,-2.54,1.52,-1.52,-0.77,-0.63,-4.07,-4.06,-4.06
36.33,-2.52,1.56,-2.52,1.56,-1.56,-0.79,-0.67,-4.08,-4.08,-4.08
36.70,-2.51,1.59,-2.50,1.60,-1.60,-0.82,-0.71,-4.10,-4.10,-4.10
37.06,-2.48,1.64,-2.48,1.63,-1.63,-0.84,-0.75,-4.11,-4.12,-4.12
37.43,-2.47,1.67,-2.47,1.67,-1.67,-0.86,-0.79,-4.14,-4.14,-4.13
37.81,-2.45,1.71,-2.45,1.71,-1.71,-0.89,-0.84,-4.15,-4.16,-4.16
38.19,-2.43,1.75,-2.44,1.74,-1.74,-0.91,-0.88,-4.17,-4.18,-4.18
38.57,-2.43,1.76,-2.42,1.77,-1.77,-0.94,-0.93,-4.20,-4.20,-4.19
38.95,-2.41,1.81,-2.41,1.81,-1.81,-0.96,-0.98,-4.21,-4.21,-4.21
39.34,-2.40,1.84,-2.39,1.84,-1.84,-0.99,-1.03,-4.23,-4.23,-4.24
39.74,-2.38,1.88,-2.38,1.87,-1.87,-1.02,-1.07,-4.25,-4.25,-4.26
40.14,-2.37,1.90,-2.36,1.90,-1.90,-1.04,-1.12,-4.27,-4.27,-4.26
40.54,-2.36,1.93,-2.35,1.93,-1.93,-1.07,-1.18,-4.29,-4.28,-4.29
40.94,-2.34,1.96,-2.33,1.97,-1.97,-1.10,-1.23,-4.30,-4.30,-4.30
41.35,-2.33,2.00,-2.32,2.00,-2.00,-1.13,-1.28,-4.32,-4.32,-4.32
41.76,-2.30,2.03,-2.30,2.03,-2.03,-1.15,-1.34,-4.33,-4.33,-4.33
42.18,-2.29,2.06,-2.28,2.07,-2.07,-1.18,-1.39,-4.35,-4.35,-4.34
42.60,-2.27,2.10,-2.27,2.10,-2.10,-1.21,-1.45,-4.37,-4.37,-4.37
43.03,-2.25,2.12,-2.25,2.14,-2.14,-1.24,-1.51,-4.38,-4.38,-4.37
43.46,-2.23,2.17,-2.23,2.17,-2.17,-1.27,-1.57,-4.40,-4.40,-4.39
43.90,-2.21,2.21,-2.21,2.20,-2.20,-1.30,-1.63,-4.41,-4.41,-4.42
44.33,-2.19,2.25,-2.19,2.24,-2.24,-1.33,-1.69,-4.42,-4.43,-4.43
44.78,-2.18,2.27,-2.17,2.27,-2.27,-1.36,-1.75,-4.45,-4.45,-4.45
45.23,-2.16,2.32,-2.16,2.31,-2.31,-1.39,-1.82,-4.46,-4.46,-4.47
45.68,-2.14,2.35,-2.14,2.34,-2.34,-1.43,-1.88,-4.48,-4.48,-4.49
46.13,-2.12,2.39,-2.12,2.38,-2.38,-1.46,-1.95,-4.49,-4.50,-4.50
46.60,-2.10,2.41,-2.10,2.42,-2.42,-1.49,-2.01,-4.51,-4.51,-4.51
47.06,-2.08,2.45,-2.08,2.45,-2.45,-1.53,-2.08,-4.53,-4.53,-4.53
47.53,-2.06,2.49,-2.06,2.49,-2.49,-1.56,-2.15,-4.55,-4.55,-4.54
48.01,-2.04,2.51,-2.03,2.53,-2.53,-1.60,-2.22,-4.57,-4.57,-4.55
48.49,-2.02,2.56,-2.01,2.57,-2.57,-1.63,-2.29,-4.59,-4.58,-4.57
48.97,-2.00,2.61,-1.99,2.61,-2.61,-1.67,-2.37,-4.61,-4.60,-4.60
49.46,-1.97,2.66,-1.96,2.65,-2.65,-1.71,-2.44,-4.62,-4.62,-4.63
49.96,-1.95,2.71,-1.94,2.70,-2.70,-1.75,-2.51,-4.64,-4.64,-4.66
50.46,-1.91,2.75,-1.91,2.74,-2.74,-1.79,-2.59,-4.65,-4.66,-4.65
50.96,-1.89,2.78,-1.89,2.78,-2.78,-1.82,-2.66,-4.67,-4.67,-4.67
51.47,-1.86,2.84,-1.86,2.83,-2.83,-1.87,-2.74,-4.69,-4.69,-4.70
51.99,-1.84,2.88,-1.84,2.87,-2.87,-1.91,-2.81,-4.71,-4.71,-4.72
52.51,-1.82,2.91,-1.81,2.92,-2.92,-1.95,-2.89,-4.74,-4.73,-4.73
53.03,-1.79,2.96,-1.79,2.97,-2.97,-1.99,-2.96,-4.75,-4.75,-4.75
53.56,-1.76,3.01,-1.76,3.01,-3.01,-2.03,-3.04,-4.77,-4.77,-4.77
54.10,-1.73,3.06,-1.73,3.05,-3.05,-2.08,-3.11,-4.78,-4.79,-4.78
54.64,-1.72,3.09,-1.71,3.10,-3.10,-2.12,-3.19,-4.81,-4.81,-4.80
55.18,-1.69,3.14,-1.68,3.14,-3.14,-2.17,-3.26,-4.83,-4.82,-4.83
55.74,-1.66,3.19,-1.66,3.18,-3.18,-2.22,-3.33,-4.84,-4.84,-4.85
56.29,-1.64,3.22,-1.63,3.23,-3.23,-2.26,-3.40,-4.86,-4.86,-4.86
56.86,-1.61,3.27,-1.61,3.27,-3.27,-2.31,-3.47,-4.88,-4.88,-4.88
57.42,-1.58,3.32,-1.58,3.31,-3.31,-2.36,-3.53,-4.89,-4.89,-4.90
58.00,-1.56,3.36,-1.56,3.36,-3.36,-2.41,-3.60,-4.91,-4.91,-4.91
58.58,-1.54,3.40,-1.53,3.40,-3.40,-2.46,-3.66,-4.94,-4.93,-4.94
59.16,-1.51,3.44,-1.51,3.44,-3.44,-2.52,-3.72,-4.95,-4.95,-4.95
59.76,-1.49,3.48,-1.49,3.49,-3.49,-2.57,-3.77,-4.97,-4.97,-4.96
60.35,-1.46,3.53,-1.46,3.53,-3.53,-2.62,-3.83,-4.98,-4.99,-4.99
60.96,-1.45,3.55,-1.44,3.57,-3.57,-2.68,-3.88,-5.02,-5.01,-4.99
61.57,-1.42,3.61,-1.42,3.61,-3.61,-2.74,-3.92,-5.03,-5.03,-5.03
62.18,-1.39,3.67,-1.39,3.65,-3.65,-2.79,-3.97,-5.04,-5.05,-5.05
62.80,-1.37,3.70,-1.37,3.69,-3.69,-2.85,-4.01,-5.06,-5.06,-5.07
63.43,-1.35,3.75,-1.35,3.73,-3.73,-2.91,-4.05,-5.08,-5.08,-5.09
64.07,-1.34,3.78,-1.33,3.77,-3.77,-2.97,-4.08,-5.11,-5.10,-5.11
64.71,-1.31,3.81,-1.31,3.81,-3.81,-3.04,-4.11,-5.12,-5.12,-5.12
65.35,-1.29,3.85,-1.28,3.85,-3.85,-3.10,-4.14,-5.13,-5.13,-5.14
66.01,-1.27,3.88,-1.26,3.89,-3.89,-3.16,-4.17,-5.15,-5.15,-5.15
66.67,-1.24,3.93,-1.24,3.92,-3.92,-3.23,-4.19,-5.16,-5.16,-5.16
67.33,-1.22,3.96,-1.22,3.96,-3.96,-3.29,-4.21,-5.18,-5.18,-5.17
68.01,-1.20,4.00,-1.20,4.00,-4.00,-3.36,-4.23,-5.19,-5.19,-5.19
68.69,-1.18,4.03,-1.17,4.03,-4.03,-3.43,-4.25,-5.21,-5.21,-5.20
69.37,-1.16,4.07,-1.15,4.07,-4.07,-3.50,-4.27,-5.23,-5.22,-5.23
70.07,-1.13,4.11,-1.13,4.11,-4.11,-3.57,-4.28,-5.24,-5.24,-5.24
70.77,-1.11,4.14,-1.10,4.15,-4.15,-3.65,-4.30,-5.26,-5.26,-5.25
71.48,-1.08,4.20,-1.08,4.20,-4.20,-3.72,-4.31,-5.27,-5.27,-5.27
72.19,-1.06,4.23,-1.05,4.24,-4.24,-3.79,-4.33,-5.30,-5.29,-5.29
72.91,-1.03,4.29,-1.03,4.28,-4.28,-3.87,-4.34,-5.31,-5.31,-5.31
73.64,-1.01,4.33,-1.00,4.33,-4.33,-3.95,-4.36,-5.34,-5.33,-5.34
74.38,-0.99,4.37,-0.98,4.38,-4.38,-4.03,-4.38,-5.36,-5.36,-5.35
75.12,-0.95,4.44,-0.95,4.43,-4.43,-4.11,-4.40,-5.37,-5.38,-5.39
75.87,-0.93,4.48,-0.92,4.48,-4.48,-4.19,-4.42,-5.40,-5.40,-5.40
76.63,-0.90,4.53,-0.90,4.53,-4.53,-4.27,-4.44,-5.43,-5.43,-5.42
77.40,-0.87,4.58,-0.87,4.58,-4.58,-4.35,-4.46,-5.45,-5.45,-5.45
78.17,-0.85,4.64,-0.84,4.64,-4.64,-4.44,-4.49,-5.48,-5.48,-5.49
78.95,-0.81,4.69,-0.81,4.69,-4.69,-4.52,-4.52,-5.50,-5.50,-5.50
79.74,-0.79,4.74,-0.78,4.75,-4.75,-4.61,-4.55,-5.53,-5.53,-5.53
80.54,-0.76,4.80,-0.75,4.80,-4.80,-4.70,-4.59,-5.56,-5.56,-5.56
81.35,-0.73,4.86,-0.73,4.86,-4.86,-4.79,-4.62,-5.59,-5.59,-5.59
82.16,-0.70,4.92,-0.70,4.92,-4.92,-4.87,-4.66,-5.61,-5.62,-5.62
82.98,-0.67,4.97,-0.67,4.97,-4.97,-4.97,-4.71,-5.64,-5.65,-5.64
83.81,-0.64,5.05,-0.64,5.03,-5.03,-5.06,-4.76,-5.67,-5.68,-5.68
84.65,-0.63,5.09,-0.62,5.09,-5.09,-5.15,-4.81,-5.72,-5.71,-5.71
85.50,-0.59,5.15,-0.59,5.15,-5.15,-5.24,-4.86,-5.74,-5.74,-5.74
86.35,-0.57,5.21,-0.56,5.21,-5.21,-5.33,-4.92,-5.77,-5.77,-5.77
87.22,-0.55,5.26,-0.54,5.27,-5.27,-5.43,-4.98,-5.81,-5.80,-5.81
88.09,-0.51,5.34,-0.51,5.33,-5.33,-5.52,-5.05,-5.83,-5.84,-5.84
88.97,-0.49,5.38,-0.49,5.39,-5.39,-5.62,-5.12,-5.87,-5.87,-5.87
89.86,-0.47,5.44,-0.46,5.44,-5.44,-5.71,-5.19,-5.91,-5.91,-5.90
90.76,-0.44,5.51,-0.44,5.50,-5.50,-5.81,-5.27,-5.94,-5.94,-5.95
91.66,-0.42,5.56,-0.41,5.56,-5.56,-5.90,-5.35,-5.98,-5.97,-5.98
92.58,-0.39,5.64,-0.39,5.62,-5.62,-6.00,-5.44,-6.01,-6.01,-6.02
93.51,-0.37,5.67,-0.36,5.68,-5.68,-6.09,-5.53,-6.05,-6.05,-6.04
94.44,-0.34,5.74,-0.34,5.74,-5.74,-6.18,-5.62,-6.08,-6.08,-6.08
95.39,-0.32,5.80,-0.32,5.81,-5.81,-6.28,-5.72,-6.12,-6.12,-6.11
96.34,-0.30,5.87,-0.30,5.87,-5.87,-6.37,-5.82,-6.16,-6.16,-6.16
97.30,-0.28,5.93,-0.27,5.93,-5.93,-6.46,-5.92,-6.20,-6.20,-6.20
98.28,-0.26,5.98,-0.25,5.99,-5.99,-6.55,-6.02,-6.24,-6.24,-6.24
99.26,-0.24,6.05,-0.23,6.05,-6.05,-6.64,-6.13,-6.29,-6.28,-6.29
100.25,-0.22,6.11,-0.22,6.11,-6.11,-6.73,-6.25,-6.33,-6.33,-6.33
101.25,-0.20,6.17,-0.20,6.17,-6.17,-6.81,-6.36,-6.37,-6.37,-6.37
102.27,-0.19,6.23,-0.18,6.23,-6.23,-6.89,-6.47,-6.42,-6.41,-6.42
103.29,-0.17,6.30,-0.17,6.29,-6.29,-6.97,-6.59,-6.46,-6.46,-6.47
104.32,-0.16,6.35,-0.16,6.35,-6.35,-7.05,-6.71,-6.50,-6.50,-6.51
105.37,-0.15,6.40,-0.15,6.41,-6.41,-7.12,-6.83,-6.55,-6.55,-6.54
106.42,-0.14,6.46,-0.14,6.46,-6.46,-7.20,-6.94,-6.60,-6.60,-6.59
107.48,-0.13,6.52,-0.13,6.52,-6.52,-7.26,-7.06,-6.64,-6.64,-6.64
108.56,-0.13,6.57,-0.12,6.57,-6.57,-7.33,-7.18,-6.70,-6.69,-6.69
109.64,-0.12,6.63,-0.12,6.62,-6.62,-7.39,-7.29,-6.74,-6.74,-6.74
110.74,-0.12,6.66,-0.12,6.67,-6.67,-7.44,-7.40,-6.79,-6.79,-6.78
111.85,-0.12,6.71,-0.12,6.72,-6.72,-7.50,-7.51,-6.84,-6.84,-6.83
112.97,-0.13,6.77,-0.12,6.77,-6.77,-7.54,-7.61,-6.89,-6.89,-6.90
114.10,-0.14,6.80,-0.13,6.81,-6.81,-7.58,-7.70,-6.94,-6.94,-6.94
115.24,-0.14,6.85,-0.14,6.85,-6.85,-7.62,-7.79,-6.98,-6.99,-6.99
116.39,-0.15,6.90,-0.15,6.88,-6.88,-7.65,-7.87,-7.03,-7.04,-7.04
117.55,-0.17,6.93,-0.17,6.91,-6.91,-7.68,-7.94,-7.08,-7.08,-7.09
118.73,-0.19,6.95,-0.19,6.94,-6.94,-7.70,-8.00,-7.13,-7.13,-7.14
119.92,-0.21,6.97,-0.21,6.97,-6.97,-7.72,-8.06,-7.18,-7.18,-7.18
121.12,-0.23,7.00,-0.23,7.00,-7.00,-7.73,-8.10,-7.22,-7.22,-7.22
122.33,-0.25,7.02,-0.25,7.02,-7.02,-7.74,-8.12,-7.26,-7.27,-7.27
123.55,-0.28,7.03,-0.28,7.04,-7.04,-7.74,-8.14,-7.31,-7.31,-7.30
124.79,-0.31,7.04,-0.30,7.05,-7.05,-7.73,-8.14,-7.36,-7.35,-7.35
126.03,-0.34,7.05,-0.33,7.06,-7.06,-7.72,-8.14,-7.40,-7.39,-7.39
127.29,-0.37,7.06,-0.36,7.07,-7.07,-7.71,-8.11,-7.44,-7.44,-7.43
128.57,-0.40,7.09,-0.39,7.08,-7.08,-7.69,-8.08,-7.48,-7.48,-7.48
129.85,-0.43,7.09,-0.43,7.09,-7.09,-7.66,-8.04,-7.51,-7.51,-7.52
131.15,-0.46,7.09,-0.46,7.09,-7.09,-7.63,-7.98,-7.54,-7.55,-7.55
132.46,-0.50,7.10,-0.50,7.09,-7.09,-7.60,-7.91,-7.58,-7.58,-7.59
133.79,-0.53,7.09,-0.53,7.09,-7.09,-7.56,-7.83,-7.61,-7.62,-7.61
135.12,-0.57,7.09,-0.57,7.08,-7.08,-7.52,-7.75,-7.65,-7.65,-7.66
136.48,-0.61,7.07,-0.61,7.07,-7.07,-7.48,-7.65,-7.68,-7.68,-7.68
137.84,-0.65,7.05,-0.64,7.06,-7.06,-7.43,-7.55,-7.70,-7.70,-7.70
139.22,-0.69,7.05,-0.68,7.04,-7.04,-7.38,-7.44,-7.73,-7.73,-7.74
140.61,-0.73,7.04,-0.72,7.03,-7.03,-7.33,-7.33,-7.75,-7.75,-7.77
142.02,-0.77,7.00,-0.76,7.01,-7.01,-7.27,-7.21,-7.77,-7.77,-7.76
143.44,-0.81,6.98,-0.80,6.98,-6.98,-7.22,-7.09,-7.79,-7.79,-7.78
144.87,-0.85,6.96,-0.85,6.96,-6.96,-7.16,-6.96,-7.81,-7.81,-7.81
146.32,-0.89,6.94,-0.89,6.93,-6.93,-7.10,-6.83,-7.82,-7.82,-7.83
147.78,-0.93,6.91,-0.93,6.91,-6.91,-7.04,-6.70,-7.84,-7.84,-7.83
149.26,-0.97,6.88,-0.97,6.88,-6.88,-6.98,-6.58,-7.85,-7.86,-7.85
150.75,-1.02,6.86,-1.02,6.85,-6.85,-6.92,-6.45,-7.87,-7.87,-7.87
152.26,-1.06,6.83,-1.06,6.83,-6.83,-6.87,-6.32,-7.88,-7.89,-7.89
153.78,-1.10,6.81,-1.10,6.80,-6.80,-6.81,-6.19,-7.90,-7.90,-7.90
155.32,-1.14,6.78,-1.14,6.78,-6.78,-6.75,-6.06,-7.91,-7.92,-7.91
156.88,-1.19,6.74,-1.18,6.75,-6.75,-6.70,-5.94,-7.94,-7.93,-7.93
158.44,-1.23,6.72,-1.22,6.73,-6.73,-6.65,-5.82,-7.96,-7.95,-7.95
160.03,-1.26,6.71,-1.25,6.71,-6.71,-6.60,-5.70,-7.97,-7.97,-7.97
161.63,-1.30,6.70,-1.28,6.70,-6.70,-6.55,-5.58,-7.99,-7.98,-7.99
163.24,-1.33,6.68,-1.31,6.69,-6.69,-6.51,-5.47,-8.01,-8.00,-8.00
164.88,-1.36,6.66,-1.34,6.68,-6.68,-6.47,-5.36,-8.04,-8.02,-8.01
166.53,-1.38,6.65,-1.36,6.67,-6.67,-6.44,-5.25,-8.05,-8.04,-8.03
168.19,-1.40,6.66,-1.39,6.67,-6.67,-6.41,-5.15,-8.07,-8.06,-8.06
169.87,-1.43,6.65,-1.41,6.67,-6.67,-6.38,-5.05,-8.10,-8.08,-8.08
171.57,-1.44,6.66,-1.43,6.67,-6.67,-6.36,-4.95,-8.10,-8.10,-8.10
173.29,-1.47,6.65,-1.46,6.67,-6.67,-6.35,-4.85,-8.13,-8.12,-8.11
175.02,-1.48,6.66,-1.49,6.66,-6.66,-6.34,-4.76,-8.14,-8.15,-8.14
176.77,-1.51,6.67,-1.52,6.65,-6.65,-6.33,-4.68,-8.16,-8.17,-8.18
178.54,-1.55,6.65,-1.56,6.64,-6.64,-6.33,-4.59,-8.18,-8.20,-8.20
180.32,-1.59,6.64,-1.61,6.62,-6.62,-6.33,-4.52,-8.20,-8.23,-8.23
182.13,-1.65,6.60,-1.67,6.59,-6.59,-6.33,-4.44,-8.23,-8.25,-8.25
183.95,-1.72,6.57,-1.73,6.55,-6.55,-6.34,-4.37,-8.27,-8.28,-8.28
185.79,-1.79,6.52,-1.80,6.50,-6.50,-6.34,-4.30,-8.29,-8.31,-8.31
187.65,-1.87,6.48,-1.89,6.45,-6.45,-6.34,-4.23,-8.31,-8.33,-8.34
189.52,-1.98,6.39,-1.98,6.38,-6.38,-6.34,-4.17,-8.36,-8.36,-8.36
191.42,-2.07,6.32,-2.08,6.30,-6.30,-6.33,-4.11,-8.37,-8.38,-8.39
193.33,-2.19,6.21,-2.19,6.22,-6.22,-6.30,-4.05,-8.41,-8.41,-8.40
195.27,-2.31,6.12,-2.30,6.13,-6.13,-6.27,-4.00,-8.43,-8.43,-8.42
197.22,-2.43,6.02,-2.42,6.03,-6.03,-6.22,-3.94,-8.45,-8.45,-8.44
199.19,-2.55,5.94,-2.55,5.92,-5.92,-6.15,-3.89,-8.47,-8.47,-8.48
201.18,-2.68,5.82,-2.67,5.82,-5.82,-6.07,-3.85,-8.49,-8.49,-8.49
203.19,-2.82,5.69,-2.80,5.70,-5.70,-5.97,-3.80,-8.52,-8.51,-8.50
205.23,-2.95,5.58,-2.93,5.59,-5.59,-5.85,-3.76,-8.53,-8.52,-8.52
207.28,-3.07,5.46,-3.07,5.47,-5.47,-5.72,-3.72,-8.54,-8.54,-8.52
209.35,-3.21,5.35,-3.20,5.35,-5.35,-5.57,-3.68,-8.56,-8.55,-8.55
211.44,-3.34,5.24,-3.33,5.23,-5.23,-5.41,-3.64,-8.57,-8.57,-8.57
213.56,-3.47,5.11,-3.47,5.11,-5.11,-5.24,-3.60,-8.58,-8.58,-8.58
215.69,-3.61,4.97,-3.60,4.99,-4.99,-5.07,-3.57,-8.59,-8.59,-8.58
217.85,-3.74,4.85,-3.73,4.86,-4.86,-4.89,-3.53,-8.60,-8.59,-8.59
220.03,-3.87,4.74,-3.87,4.73,-4.73,-4.71,-3.50,-8.60,-8.60,-8.60
222.23,-4.00,4.62,-4.00,4.60,-4.60,-4.53,-3.46,-8.60,-8.60,-8.61
224.45,-4.13,4.47,-4.13,4.47,-4.47,-4.36,-3.43,-8.60,-8.60,-8.60
226.70,-4.27,4.34,-4.26,4.34,-4.34,-4.18,-3.39,-8.60,-8.60,-8.61
228.96,-4.39,4.22,-4.39,4.20,-4.20,-4.01,-3.36,-8.59,-8.60,-8.60
231.25,-4.53,4.06,-4.52,4.07,-4.07,-3.85,-3.32,-8.59,-8.59,-8.59
233.57,-4.66,3.92,-4.65,3.93,-3.93,-3.68,-3.28,-8.58,-8.58,-8.58
235.90,-4.79,3.78,-4.78,3.79,-3.79,-3.53,-3.24,-8.57,-8.57,-8.57
238.26,-4.91,3.66,-4.91,3.65,-3.65,-3.37,-3.20,-8.55,-8.56,-8.57
240.64,-5.05,3.50,-5.04,3.50,-3.50,-3.23,-3.16,-8.55,-8.54,-8.54
243.05,-5.17,3.36,-5.17,3.36,-3.36,-3.08,-3.11,-8.53,-8.53,-8.53
245.48,-5.30,3.21,-5.29,3.21,-3.21,-2.94,-3.06,-8.51,-8.51,-8.50
247.93,-5.42,3.07,-5.42,3.07,-3.07,-2.81,-3.01,-8.49,-8.49,-8.49
250.41,-5.54,2.94,-5.54,2.92,-2.92,-2.67,-2.96,-8.46,-8.46,-8.47
252.92,-5.67,2.77,-5.66,2.78,-2.78,-2.55,-2.91,-8.44,-8.44,-8.44
255.45,-5.80,2.62,-5.79,2.63,-2.63,-2.42,-2.85,-8.43,-8.42,-8.41
258.00,-5.91,2.48,-5.91,2.48,-2.48,-2.30,-2.79,-8.39,-8.39,-8.39
260.58,-6.03,2.34,-6.03,2.34,-2.34,-2.18,-2.73,-8.36,-8.37,-8.37
263.19,-6.16,2.19,-6.16,2.19,-2.19,-2.06,-2.66,-8.34,-8.34,-8.34
265.82,-6.28,2.04,-6.28,2.04,-2.04,-1.94,-2.60,-8.31,-8.32,-8.32
268.48,-6.40,1.90,-6.40,1.89,-1.89,-1.82,-2.53,-8.29,-8.29,-8.29
271.16,-6.52,1.74,-6.52,1.74,-1.74,-1.71,-2.45,-8.26,-8.26,-8.25
273.87,-6.65,1.59,-6.64,1.60,-1.60,-1.59,-2.38,-8.24,-8.24,-8.24
276.61,-6.76,1.45,-6.76,1.45,-1.45,-1.48,-2.31,-8.21,-8.21,-8.20
279.38,-6.88,1.31,-6.88,1.30,-1.30,-1.37,-2.23,-8.18,-8.18,-8.18
282.17,-7.01,1.15,-7.00,1.15,-1.15,-1.25,-2.15,-8.16,-8.16,-8.16
284.99,-7.13,1.00,-7.12,1.01,-1.01,-1.14,-2.07,-8.13,-8.13,-8.13
287.84,-7.25,0.86,-7.24,0.86,-0.86,-1.02,-1.99,-8.10,-8.10,-8.10
290.72,-7.36,0.71,-7.36,0.71,-0.71,-0.91,-1.91,-8.06,-8.07,-8.07
293.63,-7.48,0.57,-7.48,0.56,-0.56,-0.79,-1.82,-8.03,-8.04,-8.05
296.57,-7.60,0.41,-7.60,0.41,-0.41,-0.67,-1.74,-8.01,-8.01,-8.01
299.53,-7.72,0.27,-7.72,0.26,-0.26,-0.55,-1.65,-7.98,-7.98,-7.98
302.53,-7.84,0.12,-7.83,0.11,-0.11,-0.43,-1.57,-7.95,-7.94,-7.96
305.55,-7.96,-0.05,-7.95,-0.04,0.04,-0.31,-1.48,-7.92,-7.91,-7.91
308.61,-8.06,-0.18,-8.06,-0.18,0.18,-0.18,-1.39,-7.87,-7.88,-7.88
311.69,-8.18,-0.33,-8.18,-0.33,0.33,-0.06,-1.31,-7.85,-7.85,-7.84
314.81,-8.29,-0.48,-8.29,-0.48,0.48,0.07,-1.22,-7.81,-7.81,-7.80
317.96,-8.40,-0.62,-8.40,-0.62,0.62,0.21,-1.13,-7.78,-7.78,-7.78
321.14,-8.51,-0.76,-8.51,-0.76,0.76,0.34,-1.04,-7.74,-7.75,-7.75
324.35,-8.62,-0.90,-8.62,-0.90,0.90,0.48,-0.95,-7.71,-7.72,-7.72
327.59,-8.72,-1.04,-8.73,-1.04,1.04,0.62,-0.86,-7.68,-7.69,-7.68
330.87,-8.83,-1.17,-8.83,-1.17,1.17,0.76,-0.78,-7.65,-7.66,-7.65
334.18,-8.93,-1.29,-8.93,-1.30,1.30,0.90,-0.69,-7.62,-7.63,-7.63
337.52,-9.02,-1.41,-9.03,-1.43,1.43,1.05,-0.60,-7.59,-7.60,-7.61
340.90,-9.12,-1.54,-9.12,-1.54,1.54,1.19,-0.51,-7.57,-7.58,-7.58
344.30,-9.21,-1.65,-9.21,-1.65,1.65,1.34,-0.42,-7.55,-7.56,-7.56
347.75,-9.30,-1.77,-9.29,-1.75,1.75,1.49,-0.33,-7.54,-7.54,-7.53
351.23,-9.38,-1.86,-9.36,-1.85,1.85,1.63,-0.24,-7.53,-7.51,-7.51
354.74,-9.46,-1.96,-9.42,-1.93,1.93,1.77,-0.15,-7.53,-7.49,-7.49
358.28,-9.51,-2.03,-9.48,-2.01,2.01,1.91,-0.06,-7.50,-7.47,-7.47
361.87,-9.54,-2.08,-9.53,-2.07,2.07,2.05,0.03,-7.46,-7.45,-7.45
365.49,-9.57,-2.14,-9.56,-2.13,2.13,2.17,0.12,-7.43,-7.43,-7.43
369.14,-9.60,-2.18,-9.59,-2.18,2.18,2.29,0.21,-7.41,-7.41,-7.42
372.83,-9.62,-2.22,-9.62,-2.22,2.22,2.40,0.30,-7.39,-7.39,-7.40
376.56,-9.62,-2.24,-9.63,-2.26,2.26,2.50,0.39,-7.36,-7.37,-7.38
380.33,-9.63,-2.28,-9.63,-2.28,2.28,2.58,0.48,-7.35,-7.35,-7.35
384.13,-9.62,-2.29,-9.62,-2.29,2.29,2.65,0.57,-7.32,-7.33,-7.33
387.97,-9.62,-2.30,-9.61,-2.30,2.30,2.70,0.66,-7.31,-7.31,-7.31
391.85,-9.60,-2.30,-9.59,-2.30,2.30,2.74,0.74,-7.29,-7.29,-7.29
395.77,-9.58,-2.31,-9.57,-2.30,2.30,2.76,0.83,-7.28,-7.27,-7.26
399.73,-9.54,-2.29,-9.54,-2.29,2.29,2.76,0.92,-7.25,-7.25,-7.24
403.72,-9.51,-2.28,-9.50,-2.27,2.27,2.75,1.01,-7.23,-7.22,-7.22
407.76,-9.47,-2.26,-9.45,-2.25,2.25,2.72,1.09,-7.22,-7.20,-7.21
411.84,-9.42,-2.24,-9.40,-2.22,2.22,2.67,1.17,-7.19,-7.18,-7.18
415.96,-9.36,-2.20,-9.35,-2.19,2.19,2.61,1.26,-7.16,-7.16,-7.16
420.12,-9.31,-2.17,-9.30,-2.16,2.16,2.54,1.34,-7.14,-7.13,-7.14
424.32,-9.25,-2.14,-9.24,-2.13,2.13,2.46,1.41,-7.12,-7.11,-7.11
