frequency,raw,error,smoothed,error_smoothed,equalization,parametric_eq,equalized_raw,equalized_smoothed,target
20,-5.06,-9.20,-5.03,-9.17,6.00,5.39,0.94,0.97,4.14
21,-4.74,-8.83,-4.76,-8.85,6.00,5.65,1.26,1.24,4.09
22,-4.50,-8.54,-4.49,-8.54,6.00,5.88,1.50,1.51,4.05
23,-4.21,-8.21,-4.24,-8.23,6.00,6.06,1.79,1.76,4.00
24,-3.96,-7.91,-3.99,-7.94,6.00,6.19,2.04,2.01,3.95
25,-3.75,-7.65,-3.76,-7.67,6.00,6.28,2.25,2.24,3.90
26,-3.57,-7.42,-3.54,-7.40,6.00,6.33,2.43,2.46,3.85
27,-3.37,-7.17,-3.34,-7.14,6.00,6.33,2.63,2.66,3.81
28,-3.16,-6.91,-3.14,-6.90,6.00,6.29,2.84,2.86,3.76
29,-2.94,-6.65,-2.95,-6.66,6.00,6.22,3.06,3.05,3.71
30,-2.79,-6.45,-2.77,-6.43,5.97,6.13,3.18,3.20,3.66
31,-2.54,-6.15,-2.60,-6.21,5.91,6.01,3.38,3.31,3.61
32,-2.46,-6.02,-2.44,-6.00,5.83,5.87,3.37,3.39,3.56
33,-2.32,-5.82,-2.29,-5.79,5.71,5.71,3.40,3.43,3.51
34,-2.14,-5.59,-2.14,-5.60,5.57,5.55,3.44,3.43,3.46
35,-1.99,-5.39,-2.00,-5.41,5.41,5.37,3.42,3.41,3.41
36,-1.86,-5.21,-1.87,-5.23,5.23,5.20,3.37,3.35,3.35
37,-1.77,-5.07,-1.75,-5.05,5.05,5.02,3.28,3.30,3.30
38,-1.63,-4.88,-1.63,-4.88,4.88,4.84,3.25,3.25,3.25
39,-1.52,-4.71,-1.51,-4.71,4.71,4.66,3.19,3.20,3.20
40,-1.42,-4.56,-1.40,-4.54,4.54,4.48,3.13,3.14,3.15
41,-1.27,-4.36,-1.29,-4.38,4.38,4.31,3.12,3.09,3.09
42,-1.20,-4.24,-1.19,-4.23,4.23,4.14,3.03,3.04,3.04
43,-1.07,-4.06,-1.09,-4.08,4.08,3.97,3.01,2.99,2.99
44,-1.01,-3.94,-1.00,-3.93,3.93,3.81,2.92,2.94,2.94
45,-0.89,-3.77,-0.91,-3.79,3.79,3.65,2.90,2.89,2.89
46,-0.85,-3.68,-0.82,-3.65,3.65,3.50,2.81,2.83,2.83
47,-0.72,-3.50,-0.74,-3.52,3.52,3.35,2.81,2.78,2.78
48,-0.65,-3.38,-0.66,-3.39,3.39,3.20,2.75,2.74,2.73
49,-0.60,-3.28,-0.58,-3.27,3.27,3.06,2.67,2.69,2.69
50,-0.50,-3.14,-0.50,-3.14,3.14,2.92,2.64,2.64,2.64
51,-0.42,-3.01,-0.42,-3.01,3.01,2.79,2.60,2.59,2.59
52,-0.34,-2.88,-0.34,-2.89,2.89,2.66,2.55,2.55,2.55
53,-0.27,-2.77,-0.25,-2.75,2.75,2.53,2.49,2.50,2.50
54,-0.15,-2.61,-0.16,-2.62,2.62,2.41,2.47,2.46,2.46
55,-0.09,-2.50,-0.06,-2.48,2.48,2.29,2.39,2.42,2.42
56,0.00,-2.37,0.04,-2.34,2.34,2.17,2.34,2.38,2.38
57,0.13,-2.21,0.14,-2.19,2.19,2.06,2.33,2.34,2.34
58,0.26,-2.04,0.25,-2.05,2.05,1.95,2.32,2.30,2.30
59,0.35,-1.91,0.35,-1.91,1.91,1.84,2.27,2.26,2.26
60,0.50,-1.73,0.45,-1.78,1.78,1.74,2.28,2.23,2.23
61,0.54,-1.65,0.54,-1.66,1.66,1.63,2.20,2.20,2.20
62,0.64,-1.52,0.62,-1.54,1.54,1.53,2.18,2.16,2.16
63,0.68,-1.45,0.70,-1.43,1.43,1.44,2.11,2.13,2.13
64,0.78,-1.32,0.78,-1.33,1.33,1.34,2.11,2.10,2.10
65,0.84,-1.23,0.85,-1.23,1.23,1.25,2.07,2.07,2.07
66,0.92,-1.12,0.92,-1.13,1.13,1.15,2.05,2.04,2.04
67,0.93,-1.08,0.98,-1.03,1.03,1.06,1.97,2.02,2.02
68,1.03,-0.96,1.05,-0.94,0.94,0.97,1.97,1.99,1.99
69,1.11,-0.85,1.12,-0.84,0.84,0.88,1.96,1.96,1.96
70,1.20,-0.73,1.18,-0.75,0.75,0.80,1.96,1.94,1.94
71,1.30,-0.61,1.25,-0.66,0.66,0.71,1.97,1.91,1.91
72,1.31,-0.57,1.30,-0.58,0.58,0.63,1.89,1.88,1.88
73,1.34,-0.52,1.36,-0.50,0.50,0.55,1.84,1.86,1.86
74,1.40,-0.43,1.41,-0.42,0.42,0.46,1.82,1.83,1.83
75,1.46,-0.34,1.46,-0.34,0.34,0.38,1.81,1.81,1.81
76,1.48,-0.30,1.51,-0.27,0.27,0.30,1.75,1.78,1.78
77,1.54,-0.21,1.56,-0.19,0.19,0.23,1.74,1.75,1.75
78,1.63,-0.09,1.60,-0.12,0.12,0.15,1.75,1.72,1.72
79,1.64,-0.05,1.65,-0.04,0.04,0.07,1.68,1.69,1.69
80,1.72,0.06,1.70,0.04,-0.04,-0.01,1.69,1.66,1.66
81,1.73,0.10,1.75,0.11,-0.11,-0.08,1.62,1.63,1.63
82,1.79,0.19,1.79,0.19,-0.19,-0.16,1.60,1.60,1.60
83,1.84,0.27,1.84,0.27,-0.27,-0.23,1.57,1.57,1.57
84,1.87,0.33,1.88,0.35,-0.35,-0.31,1.53,1.54,1.54
85,1.94,0.44,1.93,0.43,-0.43,-0.38,1.52,1.50,1.50
86,1.97,0.50,1.97,0.50,-0.50,-0.46,1.47,1.47,1.47
87,2.01,0.58,2.02,0.58,-0.58,-0.53,1.43,1.43,1.43
88,2.05,0.66,2.06,0.67,-0.67,-0.60,1.39,1.40,1.40
89,2.10,0.74,2.10,0.75,-0.75,-0.68,1.36,1.36,1.36
90,2.14,0.82,2.15,0.83,-0.83,-0.75,1.32,1.32,1.32
91,2.21,0.93,2.19,0.91,-0.91,-0.82,1.31,1.28,1.28
92,2.22,0.98,2.23,0.99,-0.99,-0.89,1.24,1.24,1.24
93,2.28,1.08,2.27,1.06,-1.06,-0.96,1.22,1.20,1.20
94,2.29,1.13,2.31,1.14,-1.14,-1.03,1.15,1.16,1.16
95,2.34,1.22,2.35,1.22,-1.22,-1.11,1.12,1.12,1.12
96,2.38,1.30,2.39,1.30,-1.30,-1.18,1.08,1.08,1.08
97,2.42,1.38,2.43,1.39,-1.39,-1.25,1.04,1.04,1.04
98,2.47,1.47,2.47,1.47,-1.47,-1.32,1.00,1.00,1.00
99,2.51,1.56,2.51,1.56,-1.56,-1.39,0.95,0.95,0.96
100,2.55,1.64,2.56,1.65,-1.65,-1.46,0.90,0.91,0.92
101,2.59,1.72,2.61,1.75,-1.75,-1.53,0.85,0.86,0.88
102,2.64,1.81,2.66,1.84,-1.84,-1.60,0.80,0.82,0.84
104,2.74,1.99,2.70,1.93,-1.93,-1.74,0.81,0.77,0.75
105,2.74,2.03,2.75,2.02,-2.02,-1.81,0.72,0.73,0.71
106,2.82,2.15,2.79,2.11,-2.11,-1.88,0.71,0.68,0.68
107,2.81,2.18,2.83,2.19,-2.19,-1.95,0.62,0.64,0.64
108,2.89,2.29,2.87,2.27,-2.27,-2.02,0.62,0.60,0.60
109,2.88,2.32,2.91,2.35,-2.35,-2.09,0.54,0.56,0.56
110,2.95,2.43,2.94,2.42,-2.42,-2.16,0.54,0.53,0.53
111,2.96,2.47,2.98,2.49,-2.49,-2.23,0.47,0.49,0.49
112,3.03,2.58,3.02,2.56,-2.56,-2.29,0.47,0.45,0.46
113,3.04,2.62,3.06,2.64,-2.64,-2.36,0.40,0.42,0.42
114,3.08,2.70,3.09,2.71,-2.71,-2.43,0.37,0.38,0.39
115,3.11,2.76,3.13,2.79,-2.79,-2.50,0.32,0.34,0.35
117,3.21,2.93,3.17,2.87,-2.87,-2.63,0.34,0.30,0.29
118,3.22,2.97,3.21,2.95,-2.95,-2.70,0.28,0.26,0.25
119,3.24,3.02,3.25,3.02,-3.02,-2.77,0.22,0.22,0.22
120,3.26,3.07,3.28,3.10,-3.10,-2.84,0.16,0.18,0.19
121,3.29,3.13,3.32,3.17,-3.17,-2.90,0.12,0.15,0.16
123,3.37,3.28,3.36,3.25,-3.25,-3.03,0.12,0.11,0.10
124,3.40,3.34,3.39,3.32,-3.32,-3.10,0.08,0.07,0.07
125,3.42,3.39,3.43,3.40,-3.40,-3.16,0.03,0.03,0.04
126,3.44,3.43,3.46,3.47,-3.47,-3.23,-0.02,-0.00,0.01
128,3.52,3.57,3.50,3.53,-3.53,-3.35,-0.01,-0.04,-0.05
129,3.53,3.61,3.53,3.60,-3.60,-3.42,-0.07,-0.07,-0.08
130,3.55,3.66,3.55,3.66,-3.66,-3.48,-0.11,-0.11,-0.10
131,3.57,3.70,3.58,3.72,-3.72,-3.54,-0.15,-0.14,-0.13
133,3.62,3.80,3.60,3.78,-3.78,-3.66,-0.15,-0.17,-0.18
134,3.62,3.83,3.62,3.83,-3.83,-3.72,-0.21,-0.21,-0.20
135,3.60,3.83,3.65,3.88,-3.88,-3.78,-0.28,-0.24,-0.23
137,3.69,3.97,3.66,3.93,-3.93,-3.89,-0.24,-0.27,-0.27
138,3.64,3.94,3.68,3.98,-3.98,-3.95,-0.34,-0.30,-0.29
140,3.76,4.10,3.70,4.03,-4.03,-4.06,-0.26,-0.33,-0.34
141,3.72,4.08,3.72,4.07,-4.07,-4.11,-0.35,-0.35,-0.36
142,3.68,4.06,3.74,4.12,-4.12,-4.16,-0.43,-0.38,-0.37
144,3.78,4.19,3.75,4.16,-4.16,-4.26,-0.38,-0.41,-0.41
145,3.74,4.17,3.77,4.20,-4.20,-4.31,-0.45,-0.43,-0.42
147,3.77,4.23,3.78,4.24,-4.24,-4.40,-0.46,-0.45,-0.46
148,3.81,4.28,3.79,4.27,-4.27,-4.45,-0.46,-0.48,-0.47
150,3.81,4.32,3.80,4.30,-4.30,-4.54,-0.49,-0.50,-0.50
151,3.81,4.33,3.81,4.33,-4.33,-4.58,-0.52,-0.52,-0.51
153,3.82,4.37,3.82,4.36,-4.36,-4.66,-0.53,-0.54,-0.54
154,3.81,4.37,3.82,4.38,-4.38,-4.69,-0.56,-0.56,-0.56
156,3.82,4.41,3.82,4.40,-4.40,-4.76,-0.57,-0.58,-0.58
157,3.81,4.41,3.82,4.41,-4.41,-4.80,-0.60,-0.60,-0.59
159,3.81,4.43,3.81,4.43,-4.43,-4.86,-0.62,-0.62,-0.62
160,3.80,4.43,3.81,4.44,-4.44,-4.89,-0.64,-0.64,-0.63
162,3.80,4.46,3.80,4.46,-4.46,-4.94,-0.66,-0.66,-0.66
164,3.78,4.47,3.80,4.48,-4.48,-4.99,-0.69,-0.68,-0.68
165,3.77,4.47,3.79,4.49,-4.49,-5.01,-0.72,-0.70,-0.70
167,3.80,4.53,3.79,4.51,-4.51,-5.05,-0.71,-0.72,-0.72
169,3.81,4.56,3.78,4.53,-4.53,-5.08,-0.72,-0.75,-0.75
170,3.78,4.55,3.78,4.55,-4.55,-5.09,-0.76,-0.77,-0.77
172,3.74,4.54,3.77,4.56,-4.56,-5.12,-0.82,-0.79,-0.79
174,3.74,4.56,3.76,4.58,-4.58,-5.13,-0.84,-0.82,-0.82
175,3.76,4.60,3.76,4.60,-4.60,-5.14,-0.84,-0.84,-0.84
177,3.77,4.64,3.75,4.62,-4.62,-5.15,-0.84,-0.87,-0.86
179,3.75,4.65,3.74,4.63,-4.63,-5.16,-0.88,-0.89,-0.89
181,3.71,4.63,3.73,4.65,-4.65,-5.16,-0.93,-0.92,-0.92
183,3.72,4.67,3.72,4.66,-4.66,-5.15,-0.94,-0.94,-0.95
184,3.71,4.68,3.71,4.68,-4.68,-5.15,-0.97,-0.97,-0.97
186,3.69,4.69,3.70,4.69,-4.69,-5.14,-1.00,-0.99,-0.99
188,3.67,4.69,3.69,4.71,-4.71,-5.12,-1.04,-1.02,-1.02
190,3.67,4.72,3.68,4.73,-4.73,-5.10,-1.05,-1.05,-1.05
192,3.67,4.75,3.67,4.74,-4.74,-5.08,-1.07,-1.07,-1.07
194,3.66,4.76,3.66,4.75,-4.75,-5.05,-1.09,-1.10,-1.10
196,3.65,4.78,3.64,4.76,-4.76,-5.02,-1.11,-1.12,-1.12
198,3.63,4.78,3.62,4.77,-4.77,-4.99,-1.14,-1.15,-1.15
200,3.60,4.77,3.60,4.77,-4.77,-4.96,-1.17,-1.17,-1.17
202,3.57,4.77,3.58,4.77,-4.77,-4.92,-1.20,-1.19,-1.19
204,3.54,4.76,3.55,4.76,-4.76,-4.88,-1.22,-1.21,-1.22
206,3.52,4.76,3.52,4.75,-4.75,-4.84,-1.23,-1.24,-1.24
208,3.49,4.75,3.49,4.74,-4.74,-4.80,-1.25,-1.26,-1.26
210,3.45,4.73,3.46,4.73,-4.73,-4.76,-1.28,-1.27,-1.27
212,3.43,4.73,3.42,4.72,-4.72,-4.71,-1.28,-1.29,-1.29
214,3.38,4.69,3.39,4.70,-4.70,-4.67,-1.32,-1.31,-1.31
216,3.34,4.67,3.37,4.69,-4.69,-4.62,-1.35,-1.33,-1.32
218,3.31,4.65,3.34,4.68,-4.68,-4.57,-1.36,-1.34,-1.34
221,3.30,4.66,3.31,4.66,-4.66,-4.50,-1.36,-1.35,-1.36
223,3.29,4.66,3.27,4.64,-4.64,-4.45,-1.35,-1.37,-1.37
225,3.27,4.65,3.24,4.62,-4.62,-4.40,-1.34,-1.38,-1.38
227,3.22,4.61,3.20,4.59,-4.59,-4.36,-1.36,-1.39,-1.39
229,3.15,4.55,3.16,4.55,-4.55,-4.31,-1.40,-1.39,-1.39
232,3.08,4.49,3.11,4.51,-4.51,-4.24,-1.43,-1.40,-1.40
234,3.06,4.47,3.06,4.46,-4.46,-4.19,-1.40,-1.41,-1.41
236,2.98,4.39,3.00,4.41,-4.41,-4.14,-1.43,-1.41,-1.41
239,2.95,4.37,2.95,4.36,-4.36,-4.07,-1.41,-1.41,-1.41
241,2.88,4.30,2.89,4.30,-4.30,-4.02,-1.42,-1.41,-1.41
244,2.84,4.26,2.83,4.25,-4.25,-3.96,-1.40,-1.41,-1.41
246,2.78,4.19,2.78,4.19,-4.19,-3.91,-1.41,-1.41,-1.41
248,2.72,4.13,2.72,4.13,-4.13,-3.87,-1.40,-1.41,-1.41
251,2.65,4.06,2.66,4.07,-4.07,-3.80,-1.41,-1.40,-1.40
253,2.61,4.01,2.60,4.00,-4.00,-3.76,-1.39,-1.40,-1.40
256,2.54,3.94,2.54,3.94,-3.94,-3.70,-1.39,-1.39,-1.39
259,2.47,3.86,2.48,3.87,-3.87,-3.64,-1.40,-1.39,-1.39
261,2.41,3.79,2.42,3.80,-3.80,-3.60,-1.39,-1.38,-1.38
264,2.38,3.76,2.36,3.74,-3.74,-3.54,-1.35,-1.37,-1.37
266,2.29,3.66,2.30,3.67,-3.67,-3.51,-1.38,-1.37,-1.36
269,2.24,3.60,2.25,3.60,-3.60,-3.45,-1.36,-1.36,-1.36
272,2.20,3.55,2.19,3.54,-3.54,-3.40,-1.33,-1.35,-1.35
274,2.12,3.46,2.13,3.47,-3.47,-3.36,-1.35,-1.34,-1.34
277,2.06,3.39,2.08,3.41,-3.41,-3.31,-1.34,-1.33,-1.33
280,2.02,3.34,2.02,3.34,-3.34,-3.27,-1.32,-1.32,-1.32
283,1.98,3.30,1.97,3.28,-3.28,-3.22,-1.30,-1.31,-1.31
286,1.88,3.19,1.91,3.22,-3.22,-3.17,-1.33,-1.30,-1.30
288,1.88,3.18,1.86,3.16,-3.16,-3.15,-1.27,-1.29,-1.29
291,1.84,3.13,1.81,3.10,-3.10,-3.10,-1.25,-1.28,-1.28
294,1.73,3.01,1.76,3.04,-3.04,-3.06,-1.30,-1.28,-1.28
297,1.71,2.98,1.71,2.98,-2.98,-3.02,-1.27,-1.27,-1.27
300,1.65,2.91,1.67,2.93,-2.93,-2.98,-1.27,-1.26,-1.26
303,1.64,2.89,1.63,2.87,-2.87,-2.94,-1.23,-1.25,-1.25
306,1.59,2.83,1.59,2.83,-2.83,-2.90,-1.23,-1.24,-1.24
309,1.51,2.75,1.55,2.78,-2.78,-2.86,-1.27,-1.23,-1.23
312,1.51,2.74,1.51,2.74,-2.74,-2.83,-1.23,-1.23,-1.23
316,1.49,2.71,1.48,2.70,-2.70,-2.78,-1.21,-1.22,-1.22
319,1.45,2.66,1.45,2.66,-2.66,-2.74,-1.21,-1.21,-1.21
322,1.42,2.63,1.42,2.62,-2.62,-2.71,-1.20,-1.20,-1.20
325,1.38,2.58,1.39,2.59,-2.59,-2.67,-1.20,-1.20,-1.20
328,1.37,2.56,1.36,2.55,-2.55,-2.63,-1.18,-1.19,-1.19
332,1.30,2.49,1.33,2.51,-2.51,-2.59,-1.21,-1.18,-1.18
335,1.30,2.48,1.30,2.47,-2.47,-2.55,-1.17,-1.18,-1.18
338,1.27,2.45,1.26,2.44,-2.44,-2.51,-1.16,-1.17,-1.17
342,1.23,2.40,1.23,2.40,-2.40,-2.46,-1.17,-1.17,-1.17
345,1.19,2.35,1.20,2.36,-2.36,-2.42,-1.17,-1.16,-1.16
349,1.15,2.31,1.16,2.32,-2.32,-2.37,-1.17,-1.16,-1.16
352,1.15,2.30,1.13,2.28,-2.28,-2.33,-1.13,-1.15,-1.15
356,1.07,2.22,1.09,2.24,-2.24,-2.28,-1.17,-1.15,-1.15
359,1.07,2.22,1.06,2.20,-2.20,-2.24,-1.13,-1.14,-1.14
363,1.02,2.16,1.02,2.16,-2.16,-2.19,-1.13,-1.14,-1.14
366,0.96,2.10,0.98,2.11,-2.11,-2.15,-1.15,-1.14,-1.14
370,0.93,2.07,0.93,2.07,-2.07,-2.09,-1.14,-1.13,-1.13
374,0.90,2.03,0.89,2.02,-2.02,-2.04,-1.12,-1.13,-1.13
377,0.84,1.97,0.85,1.98,-1.98,-2.00,-1.14,-1.13,-1.13
381,0.78,1.91,0.81,1.94,-1.94,-1.94,-1.15,-1.13,-1.13
385,0.78,1.91,0.76,1.89,-1.89,-1.89,-1.11,-1.13,-1.13
389,0.73,1.86,0.72,1.85,-1.85,-1.83,-1.11,-1.13,-1.13
393,0.66,1.79,0.67,1.80,-1.80,-1.77,-1.14,-1.13,-1.13
397,0.64,1.77,0.63,1.75,-1.75,-1.72,-1.11,-1.13,-1.13
401,0.57,1.70,0.58,1.71,-1.71,-1.66,-1.14,-1.12,-1.12
405,0.51,1.64,0.54,1.66,-1.66,-1.61,-1.15,-1.12,-1.12
409,0.50,1.62,0.49,1.61,-1.61,-1.55,-1.11,-1.12,-1.12
413,0.47,1.59,0.44,1.56,-1.56,-1.50,-1.09,-1.12,-1.12
417,0.37,1.49,0.40,1.51,-1.51,-1.44,-1.14,-1.12,-1.12
421,0.35,1.46,0.35,1.46,-1.46,-1.39,-1.11,-1.11,-1.11
425,0.29,1.40,0.30,1.41,-1.41,-1.34,-1.11,-1.11,-1.11
430,0.27,1.37,0.25,1.35,-1.35,-1.27,-1.08,-1.10,-1.10
434,0.20,1.30,0.20,1.29,-1.29,-1.22,-1.09,-1.09,-1.09
438,0.13,1.22,0.15,1.23,-1.23,-1.17,-1.10,-1.08,-1.08
443,0.11,1.19,0.10,1.17,-1.17,-1.11,-1.06,-1.07,-1.07
447,0.04,1.10,0.05,1.11,-1.11,-1.06,-1.07,-1.06,-1.06
451,-0.02,1.03,0.00,1.05,-1.05,-1.01,-1.07,-1.05,-1.05
456,-0.02,1.02,-0.05,0.99,-0.99,-0.95,-1.00,-1.03,-1.03
460,-0.09,0.93,-0.09,0.92,-0.92,-0.90,-1.01,-1.02,-1.02
465,-0.16,0.84,-0.14,0.86,-0.86,-0.84,-1.02,-1.00,-1.00
470,-0.21,0.78,-0.19,0.80,-0.80,-0.78,-1.00,-0.98,-0.98
474,-0.21,0.76,-0.23,0.74,-0.74,-0.73,-0.94,-0.97,-0.97
479,-0.30,0.65,-0.28,0.67,-0.67,-0.67,-0.97,-0.95,-0.95
484,-0.30,0.63,-0.32,0.61,-0.61,-0.62,-0.91,-0.93,-0.93
489,-0.36,0.56,-0.37,0.55,-0.55,-0.56,-0.90,-0.91,-0.91
494,-0.42,0.48,-0.41,0.49,-0.49,-0.51,-0.90,-0.90,-0.90
499,-0.45,0.43,-0.46,0.43,-0.43,-0.45,-0.87,-0.88,-0.88
504,-0.51,0.36,-0.50,0.37,-0.37,-0.40,-0.87,-0.87,-0.86
509,-0.58,0.27,-0.54,0.31,-0.31,-0.34,-0.89,-0.85,-0.85
514,-0.58,0.26,-0.58,0.26,-0.26,-0.29,-0.83,-0.84,-0.84
519,-0.61,0.22,-0.62,0.20,-0.20,-0.23,-0.81,-0.82,-0.82
524,-0.65,0.16,-0.66,0.15,-0.15,-0.18,-0.80,-0.81,-0.81
529,-0.70,0.10,-0.70,0.10,-0.10,-0.13,-0.79,-0.80,-0.80
535,-0.75,0.04,-0.74,0.04,-0.04,-0.06,-0.79,-0.79,-0.79
540,-0.79,-0.01,-0.78,-0.01,0.01,-0.01,-0.78,-0.77,-0.77
545,-0.83,-0.07,-0.82,-0.06,0.06,0.04,-0.76,-0.76,-0.76
551,-0.85,-0.10,-0.87,-0.12,0.12,0.10,-0.73,-0.75,-0.75
556,-0.92,-0.18,-0.91,-0.17,0.17,0.15,-0.74,-0.74,-0.74
562,-0.93,-0.21,-0.95,-0.23,0.23,0.22,-0.70,-0.72,-0.72
568,-1.01,-0.30,-0.99,-0.28,0.28,0.28,-0.73,-0.71,-0.71
573,-1.02,-0.33,-1.02,-0.33,0.33,0.33,-0.68,-0.69,-0.69
579,-1.08,-0.41,-1.05,-0.38,0.38,0.39,-0.69,-0.67,-0.67
585,-1.08,-0.43,-1.08,-0.43,0.43,0.45,-0.64,-0.65,-0.65
591,-1.14,-0.51,-1.11,-0.48,0.48,0.51,-0.66,-0.63,-0.63
596,-1.14,-0.53,-1.13,-0.53,0.53,0.56,-0.61,-0.61,-0.61
602,-1.16,-0.57,-1.16,-0.58,0.58,0.62,-0.58,-0.58,-0.58
608,-1.17,-0.61,-1.19,-0.63,0.63,0.67,-0.54,-0.56,-0.56
615,-1.21,-0.68,-1.22,-0.69,0.69,0.74,-0.52,-0.53,-0.53
621,-1.21,-0.70,-1.25,-0.75,0.75,0.80,-0.46,-0.50,-0.50
627,-1.29,-0.81,-1.29,-0.82,0.82,0.85,-0.47,-0.47,-0.48
633,-1.35,-0.90,-1.34,-0.89,0.89,0.90,-0.46,-0.45,-0.45
639,-1.37,-0.95,-1.38,-0.96,0.96,0.96,-0.41,-0.42,-0.42
646,-1.46,-1.06,-1.42,-1.03,1.03,1.01,-0.43,-0.39,-0.39
652,-1.50,-1.13,-1.46,-1.09,1.09,1.06,-0.41,-0.37,-0.37
659,-1.49,-1.14,-1.49,-1.15,1.15,1.12,-0.34,-0.34,-0.34
665,-1.53,-1.21,-1.52,-1.20,1.20,1.16,-0.33,-0.32,-0.32
672,-1.52,-1.22,-1.54,-1.24,1.24,1.21,-0.28,-0.30,-0.30
679,-1.55,-1.27,-1.56,-1.28,1.28,1.26,-0.27,-0.28,-0.28
686,-1.59,-1.32,-1.58,-1.32,1.32,1.30,-0.27,-0.27,-0.26
692,-1.58,-1.33,-1.60,-1.35,1.35,1.33,-0.22,-0.25,-0.25
699,-1.62,-1.38,-1.63,-1.39,1.39,1.37,-0.23,-0.24,-0.24
706,-1.66,-1.43,-1.65,-1.41,1.41,1.40,-0.24,-0.23,-0.23
713,-1.66,-1.43,-1.66,-1.44,1.44,1.42,-0.22,-0.23,-0.22
721,-1.68,-1.46,-1.68,-1.46,1.46,1.45,-0.22,-0.22,-0.22
728,-1.73,-1.51,-1.69,-1.47,1.47,1.47,-0.26,-0.22,-0.22
735,-1.72,-1.50,-1.69,-1.48,1.48,1.48,-0.24,-0.22,-0.22
742,-1.71,-1.49,-1.70,-1.48,1.48,1.49,-0.23,-0.22,-0.22
750,-1.68,-1.45,-1.69,-1.47,1.47,1.49,-0.21,-0.22,-0.22
757,-1.67,-1.44,-1.69,-1.46,1.46,1.49,-0.20,-0.23,-0.23
765,-1.65,-1.42,-1.68,-1.45,1.45,1.48,-0.19,-0.23,-0.23
773,-1.66,-1.42,-1.68,-1.44,1.44,1.47,-0.21,-0.23,-0.23
780,-1.68,-1.44,-1.67,-1.43,1.43,1.46,-0.25,-0.24,-0.24
788,-1.70,-1.45,-1.66,-1.42,1.42,1.43,-0.28,-0.24,-0.24
796,-1.66,-1.41,-1.64,-1.40,1.40,1.41,-0.26,-0.25,-0.25
804,-1.62,-1.37,-1.62,-1.37,1.37,1.38,-0.25,-0.25,-0.25
812,-1.59,-1.33,-1.59,-1.34,1.34,1.34,-0.25,-0.25,-0.25
820,-1.56,-1.30,-1.56,-1.30,1.30,1.31,-0.25,-0.25,-0.25
828,-1.53,-1.27,-1.52,-1.26,1.26,1.26,-0.27,-0.25,-0.25
837,-1.44,-1.18,-1.47,-1.21,1.21,1.21,-0.22,-0.25,-0.25
845,-1.44,-1.19,-1.41,-1.16,1.16,1.17,-0.27,-0.25,-0.25
853,-1.38,-1.13,-1.36,-1.11,1.11,1.12,-0.27,-0.25,-0.25
862,-1.30,-1.05,-1.30,-1.06,1.06,1.06,-0.24,-0.24,-0.24
871,-1.23,-0.99,-1.24,-1.00,1.00,1.00,-0.23,-0.24,-0.24
879,-1.13,-0.90,-1.17,-0.95,0.95,0.94,-0.18,-0.23,-0.23
888,-1.13,-0.91,-1.11,-0.89,0.89,0.88,-0.24,-0.22,-0.22
897,-1.03,-0.82,-1.04,-0.83,0.83,0.81,-0.19,-0.21,-0.21
906,-0.98,-0.78,-0.97,-0.78,0.78,0.74,-0.20,-0.20,-0.20
915,-0.93,-0.74,-0.90,-0.72,0.72,0.68,-0.21,-0.18,-0.18
924,-0.85,-0.68,-0.82,-0.65,0.65,0.61,-0.19,-0.17,-0.17
933,-0.73,-0.58,-0.74,-0.59,0.59,0.54,-0.14,-0.15,-0.15
943,-0.62,-0.49,-0.65,-0.52,0.52,0.46,-0.10,-0.13,-0.13
952,-0.55,-0.44,-0.55,-0.44,0.44,0.39,-0.11,-0.11,-0.11
962,-0.47,-0.38,-0.45,-0.36,0.36,0.31,-0.10,-0.09,-0.09
971,-0.35,-0.28,-0.34,-0.28,0.28,0.24,-0.07,-0.06,-0.06
981,-0.23,-0.19,-0.23,-0.19,0.19,0.16,-0.03,-0.04,-0.04
991,-0.12,-0.11,-0.11,-0.10,0.10,0.08,-0.02,-0.01,-0.01
1001,0.01,-0.01,0.02,-0.01,0.01,-0.01,0.02,0.02,0.02
1011,0.15,0.10,0.15,0.10,-0.10,-0.09,0.06,0.05,0.05
1021,0.28,0.19,0.29,0.20,-0.20,-0.17,0.08,0.09,0.09
1031,0.42,0.30,0.44,0.31,-0.31,-0.25,0.11,0.13,0.12
1041,0.55,0.39,0.59,0.42,-0.42,-0.34,0.13,0.16,0.16
1052,0.73,0.53,0.74,0.53,-0.53,-0.43,0.20,0.20,0.20
1062,0.90,0.66,0.88,0.64,-0.64,-0.51,0.27,0.25,0.25
1073,1.04,0.75,1.03,0.74,-0.74,-0.61,0.31,0.29,0.29
1084,1.16,0.83,1.16,0.82,-0.82,-0.70,0.34,0.34,0.33
1094,1.32,0.94,1.28,0.90,-0.90,-0.79,0.42,0.38,0.38
1105,1.44,1.02,1.40,0.97,-0.97,-0.88,0.47,0.43,0.43
1116,1.53,1.06,1.51,1.03,-1.03,-0.97,0.50,0.48,0.47
1128,1.58,1.06,1.61,1.09,-1.09,-1.07,0.49,0.52,0.52
1139,1.69,1.12,1.72,1.15,-1.15,-1.17,0.54,0.57,0.57
1150,1.80,1.19,1.83,1.22,-1.22,-1.26,0.59,0.62,0.62
1162,1.92,1.26,1.95,1.29,-1.29,-1.35,0.63,0.66,0.66
1173,2.04,1.34,2.08,1.38,-1.38,-1.44,0.67,0.71,0.71
1185,2.16,1.41,2.21,1.47,-1.47,-1.53,0.70,0.75,0.75
1197,2.37,1.58,2.35,1.56,-1.56,-1.62,0.81,0.79,0.79
1209,2.55,1.73,2.48,1.65,-1.65,-1.70,0.90,0.83,0.83
1221,2.62,1.76,2.60,1.74,-1.74,-1.78,0.88,0.86,0.86
1233,2.72,1.83,2.71,1.82,-1.82,-1.85,0.90,0.89,0.89
1246,2.83,1.91,2.81,1.89,-1.89,-1.92,0.94,0.92,0.92
1258,2.88,1.93,2.89,1.95,-1.95,-1.98,0.94,0.95,0.95
1271,2.98,2.01,2.96,1.99,-1.99,-2.04,0.99,0.97,0.97
1283,3.05,2.06,3.02,2.04,-2.04,-2.10,1.02,0.99,0.99
1296,3.07,2.07,3.08,2.08,-2.08,-2.15,1.00,1.00,1.01
1309,3.09,2.08,3.13,2.12,-2.12,-2.19,0.98,1.02,1.02
1322,3.14,2.12,3.19,2.16,-2.16,-2.24,0.98,1.02,1.03
1335,3.25,2.22,3.24,2.21,-2.21,-2.28,1.04,1.03,1.03
1349,3.31,2.28,3.30,2.27,-2.27,-2.32,1.05,1.03,1.03
1362,3.35,2.32,3.36,2.33,-2.33,-2.36,1.03,1.04,1.04
1376,3.43,2.40,3.43,2.39,-2.39,-2.40,1.04,1.03,1.04
1390,3.50,2.47,3.50,2.46,-2.46,-2.44,1.04,1.03,1.03
1404,3.56,2.53,3.57,2.54,-2.54,-2.48,1.02,1.03,1.03
1418,3.64,2.62,3.64,2.62,-2.62,-2.53,1.03,1.03,1.03
1432,3.70,2.68,3.72,2.70,-2.70,-2.57,1.01,1.02,1.03
1446,3.81,2.79,3.80,2.78,-2.78,-2.62,1.04,1.02,1.02
1461,3.88,2.86,3.88,2.86,-2.86,-2.68,1.03,1.02,1.02
1475,3.96,2.94,3.96,2.93,-2.93,-2.73,1.03,1.03,1.03
1490,4.04,3.01,4.04,3.01,-3.01,-2.79,1.03,1.03,1.03
1505,4.12,3.08,4.13,3.08,-3.08,-2.86,1.04,1.04,1.04
1520,4.21,3.16,4.21,3.15,-3.15,-2.93,1.06,1.05,1.05
1535,4.31,3.24,4.29,3.22,-3.22,-3.00,1.09,1.07,1.07
1550,4.36,3.27,4.38,3.28,-3.28,-3.07,1.08,1.09,1.09
1566,4.45,3.33,4.46,3.34,-3.34,-3.15,1.11,1.12,1.12
1582,4.55,3.40,4.55,3.39,-3.39,-3.24,1.16,1.16,1.16
1597,4.62,3.43,4.64,3.45,-3.45,-3.32,1.18,1.20,1.19
1613,4.74,3.50,4.74,3.50,-3.50,-3.40,1.25,1.24,1.24
1629,4.81,3.52,4.83,3.54,-3.54,-3.49,1.27,1.29,1.29
1646,4.95,3.60,4.93,3.58,-3.58,-3.58,1.37,1.35,1.35
1662,5.01,3.60,5.03,3.61,-3.61,-3.66,1.40,1.42,1.41
1679,5.12,3.64,5.12,3.64,-3.64,-3.74,1.48,1.49,1.48
1696,5.25,3.69,5.22,3.66,-3.66,-3.82,1.60,1.56,1.56
1713,5.29,3.65,5.31,3.67,-3.67,-3.89,1.63,1.64,1.64
1730,5.41,3.69,5.40,3.67,-3.67,-3.96,1.75,1.73,1.73
1747,5.47,3.65,5.48,3.66,-3.66,-4.02,1.81,1.82,1.82
1764,5.57,3.66,5.56,3.65,-3.65,-4.06,1.92,1.91,1.91
1782,5.63,3.62,5.64,3.63,-3.63,-4.11,2.00,2.01,2.01
1800,5.73,3.62,5.73,3.61,-3.61,-4.13,2.12,2.11,2.11
1818,5.80,3.58,5.81,3.59,-3.59,-4.15,2.21,2.22,2.22
1836,5.89,3.57,5.90,3.57,-3.57,-4.16,2.32,2.32,2.32
