frequency,raw,error,smoothed,error_smoothed,equalization,parametric_eq,equalized_raw,equalized_smoothed,target
20,3.36,-0.12,3.31,-0.17,0.17,0.49,3.53,3.48,3.48
21,3.24,-0.24,3.23,-0.25,0.25,0.56,3.49,3.48,3.48
22,3.09,-0.38,3.14,-0.33,0.33,0.63,3.42,3.48,3.48
23,3.01,-0.46,3.06,-0.42,0.42,0.70,3.43,3.47,3.47
24,2.94,-0.53,2.96,-0.51,0.51,0.78,3.45,3.47,3.47
25,2.85,-0.62,2.87,-0.60,0.60,0.87,3.45,3.47,3.47
26,2.77,-0.69,2.77,-0.69,0.69,0.95,3.46,3.47,3.46
27,2.67,-0.79,2.67,-0.79,0.79,1.03,3.46,3.46,3.46
28,2.58,-0.88,2.56,-0.89,0.89,1.11,3.48,3.46,3.46
29,2.49,-0.96,2.45,-1.00,1.00,1.18,3.49,3.45,3.45
30,2.38,-1.07,2.34,-1.11,1.11,1.25,3.49,3.45,3.45
31,2.26,-1.18,2.22,-1.22,1.22,1.30,3.48,3.44,3.44
32,2.12,-1.32,2.11,-1.33,1.33,1.35,3.45,3.44,3.44
33,1.98,-1.45,1.99,-1.44,1.44,1.40,3.42,3.43,3.43
34,1.85,-1.57,1.87,-1.55,1.55,1.43,3.40,3.42,3.42
35,1.73,-1.68,1.76,-1.66,1.66,1.47,3.39,3.42,3.42
36,1.62,-1.79,1.65,-1.76,1.76,1.51,3.38,3.41,3.41
37,1.52,-1.88,1.54,-1.86,1.86,1.55,3.38,3.40,3.40
38,1.42,-1.97,1.44,-1.95,1.95,1.60,3.37,3.39,3.39
39,1.33,-2.05,1.35,-2.03,2.03,1.65,3.37,3.38,3.38
40,1.25,-2.12,1.26,-2.11,2.11,1.71,3.36,3.37,3.37
41,1.17,-2.19,1.17,-2.19,2.19,1.77,3.36,3.36,3.36
42,1.09,-2.25,1.09,-2.25,2.25,1.84,3.34,3.35,3.35
43,1.02,-2.31,1.02,-2.31,2.31,1.92,3.33,3.33,3.33
44,0.95,-2.37,0.95,-2.37,2.37,2.01,3.32,3.32,3.32
45,0.89,-2.41,0.89,-2.42,2.42,2.10,3.31,3.30,3.30
46,0.83,-2.46,0.83,-2.46,2.46,2.19,3.29,3.29,3.29
47,0.77,-2.50,0.77,-2.50,2.50,2.30,3.28,3.27,3.27
48,0.71,-2.54,0.71,-2.54,2.54,2.40,3.25,3.26,3.26
49,0.66,-2.58,0.66,-2.58,2.58,2.51,3.24,3.24,3.24
50,0.61,-2.61,0.61,-2.61,2.61,2.62,3.22,3.22,3.22
51,0.56,-2.64,0.56,-2.64,2.64,2.73,3.20,3.20,3.20
52,0.52,-2.66,0.51,-2.66,2.66,2.85,3.18,3.18,3.18
53,0.47,-2.69,0.47,-2.69,2.69,2.95,3.16,3.16,3.16
54,0.43,-2.70,0.43,-2.71,2.71,3.06,3.14,3.13,3.13
55,0.38,-2.73,0.39,-2.72,2.72,3.16,3.10,3.11,3.11
56,0.34,-2.74,0.35,-2.74,2.74,3.25,3.08,3.09,3.09
57,0.30,-2.76,0.31,-2.75,2.75,3.33,3.05,3.06,3.06
58,0.25,-2.78,0.27,-2.76,2.76,3.41,3.02,3.03,3.03
59,0.21,-2.80,0.23,-2.78,2.78,3.47,2.99,3.01,3.01
60,0.17,-2.81,0.19,-2.79,2.79,3.52,2.96,2.98,2.98
61,0.14,-2.81,0.15,-2.80,2.80,3.55,2.94,2.95,2.95
62,0.11,-2.81,0.11,-2.81,2.81,3.58,2.92,2.92,2.92
63,0.07,-2.82,0.06,-2.83,2.83,3.59,2.90,2.89,2.89
64,0.04,-2.82,0.01,-2.85,2.85,3.59,2.89,2.86,2.86
65,-0.01,-2.84,-0.05,-2.88,2.88,3.58,2.87,2.83,2.83
66,-0.08,-2.87,-0.12,-2.91,2.91,3.57,2.83,2.79,2.79
67,-0.16,-2.92,-0.19,-2.95,2.95,3.54,2.79,2.76,2.76
68,-0.25,-2.97,-0.26,-2.99,2.99,3.50,2.74,2.72,2.72
69,-0.35,-3.04,-0.34,-3.03,3.03,3.46,2.68,2.69,2.69
70,-0.44,-3.09,-0.43,-3.08,3.08,3.42,2.64,2.65,2.65
71,-0.53,-3.15,-0.51,-3.13,3.13,3.37,2.60,2.62,2.62
72,-0.62,-3.20,-0.60,-3.18,3.18,3.32,2.57,2.58,2.58
73,-0.71,-3.25,-0.70,-3.24,3.24,3.27,2.53,2.54,2.54
74,-0.78,-3.28,-0.79,-3.29,3.29,3.21,2.51,2.50,2.50
75,-0.87,-3.33,-0.88,-3.35,3.35,3.16,2.48,2.46,2.46
76,-0.97,-3.39,-0.97,-3.40,3.40,3.11,2.43,2.43,2.43
77,-1.07,-3.45,-1.06,-3.45,3.45,3.06,2.38,2.39,2.39
78,-1.16,-3.50,-1.15,-3.49,3.49,3.01,2.34,2.35,2.35
79,-1.25,-3.55,-1.23,-3.54,3.54,2.97,2.29,2.31,2.31
80,-1.32,-3.58,-1.31,-3.58,3.58,2.92,2.26,2.26,2.26
81,-1.39,-3.61,-1.39,-3.62,3.62,2.88,2.23,2.22,2.22
82,-1.47,-3.65,-1.47,-3.65,3.65,2.85,2.18,2.18,2.18
83,-1.53,-3.67,-1.53,-3.67,3.67,2.81,2.15,2.14,2.14
84,-1.60,-3.70,-1.60,-3.70,3.70,2.78,2.10,2.10,2.10
85,-1.66,-3.72,-1.66,-3.72,3.72,2.75,2.06,2.06,2.06
86,-1.72,-3.74,-1.71,-3.73,3.73,2.73,2.01,2.02,2.02
87,-1.77,-3.74,-1.76,-3.74,3.74,2.71,1.97,1.97,1.97
88,-1.82,-3.75,-1.81,-3.74,3.74,2.69,1.92,1.93,1.93
89,-1.85,-3.74,-1.85,-3.74,3.74,2.67,1.89,1.89,1.89
90,-1.89,-3.74,-1.88,-3.73,3.73,2.66,1.84,1.85,1.85
91,-1.92,-3.73,-1.91,-3.72,3.72,2.65,1.80,1.81,1.81
92,-1.94,-3.71,-1.94,-3.71,3.71,2.64,1.77,1.77,1.77
93,-1.96,-3.69,-1.96,-3.69,3.69,2.64,1.73,1.73,1.73
94,-1.98,-3.67,-1.98,-3.67,3.67,2.63,1.69,1.69,1.69
95,-2.00,-3.64,-2.00,-3.64,3.64,2.63,1.65,1.65,1.65
96,-2.01,-3.61,-2.01,-3.62,3.62,2.63,1.61,1.61,1.61
97,-2.00,-3.57,-2.02,-3.59,3.59,2.64,1.59,1.56,1.57
98,-2.02,-3.55,-2.03,-3.56,3.56,2.64,1.54,1.52,1.53
99,-2.03,-3.52,-2.04,-3.52,3.52,2.65,1.49,1.48,1.49
100,-2.04,-3.49,-2.04,-3.49,3.49,2.66,1.45,1.44,1.45
101,-2.05,-3.46,-2.05,-3.45,3.45,2.66,1.40,1.40,1.41
102,-2.07,-3.44,-2.05,-3.41,3.41,2.67,1.34,1.36,1.37
104,-2.07,-3.37,-2.05,-3.36,3.36,2.70,1.29,1.32,1.30
105,-2.06,-3.32,-2.04,-3.32,3.32,2.71,1.26,1.28,1.26
106,-2.05,-3.28,-2.04,-3.27,3.27,2.72,1.22,1.24,1.23
107,-2.03,-3.22,-2.03,-3.23,3.23,2.73,1.20,1.20,1.19
108,-2.01,-3.16,-2.02,-3.18,3.18,2.74,1.17,1.16,1.16
109,-1.99,-3.11,-2.01,-3.13,3.13,2.75,1.14,1.12,1.12
110,-1.98,-3.07,-2.00,-3.08,3.08,2.76,1.10,1.09,1.09
111,-1.96,-3.01,-1.98,-3.03,3.03,2.77,1.08,1.05,1.05
112,-1.96,-2.98,-1.97,-2.99,2.99,2.78,1.03,1.02,1.02
113,-1.95,-2.94,-1.95,-2.94,2.94,2.79,0.99,0.98,0.99
114,-1.94,-2.90,-1.94,-2.89,2.89,2.80,0.95,0.95,0.96
115,-1.93,-2.86,-1.92,-2.84,2.84,2.80,0.91,0.91,0.93
117,-1.92,-2.79,-1.91,-2.78,2.78,2.81,0.87,0.88,0.87
118,-1.91,-2.75,-1.89,-2.73,2.73,2.81,0.82,0.84,0.84
119,-1.90,-2.71,-1.87,-2.68,2.68,2.81,0.78,0.81,0.81
120,-1.87,-2.65,-1.85,-2.62,2.62,2.80,0.76,0.78,0.78
121,-1.85,-2.60,-1.83,-2.57,2.57,2.80,0.72,0.74,0.75
123,-1.78,-2.48,-1.81,-2.52,2.52,2.78,0.74,0.71,0.70
124,-1.75,-2.42,-1.79,-2.46,2.46,2.77,0.71,0.68,0.67
125,-1.73,-2.38,-1.76,-2.41,2.41,2.76,0.68,0.64,0.65
126,-1.72,-2.34,-1.74,-2.36,2.36,2.74,0.64,0.61,0.62
128,-1.71,-2.28,-1.72,-2.31,2.31,2.70,0.60,0.58,0.57
129,-1.71,-2.26,-1.70,-2.26,2.26,2.68,0.55,0.55,0.55
130,-1.72,-2.25,-1.69,-2.21,2.21,2.66,0.49,0.52,0.53
131,-1.70,-2.20,-1.67,-2.16,2.16,2.64,0.46,0.49,0.50
133,-1.67,-2.13,-1.65,-2.11,2.11,2.58,0.44,0.47,0.46
134,-1.64,-2.08,-1.63,-2.07,2.07,2.56,0.43,0.44,0.44
135,-1.61,-2.03,-1.61,-2.02,2.02,2.53,0.41,0.41,0.42
137,-1.56,-1.94,-1.59,-1.97,1.97,2.46,0.41,0.38,0.38
138,-1.55,-1.91,-1.57,-1.93,1.93,2.43,0.38,0.36,0.36
140,-1.53,-1.85,-1.55,-1.88,1.88,2.36,0.35,0.33,0.32
141,-1.53,-1.83,-1.53,-1.84,1.84,2.33,0.31,0.31,0.30
142,-1.53,-1.82,-1.51,-1.79,1.79,2.30,0.26,0.28,0.29
144,-1.51,-1.76,-1.49,-1.75,1.75,2.22,0.24,0.26,0.25
145,-1.50,-1.74,-1.47,-1.70,1.70,2.19,0.20,0.23,0.24
147,-1.46,-1.66,-1.45,-1.66,1.66,2.12,0.20,0.21,0.21
148,-1.43,-1.62,-1.43,-1.61,1.61,2.08,0.19,0.19,0.19
150,-1.38,-1.54,-1.41,-1.57,1.57,2.01,0.19,0.16,0.16
151,-1.36,-1.51,-1.39,-1.53,1.53,1.97,0.17,0.14,0.15
153,-1.34,-1.46,-1.37,-1.49,1.49,1.90,0.15,0.12,0.12
154,-1.34,-1.44,-1.35,-1.45,1.45,1.86,0.11,0.10,0.11
156,-1.34,-1.42,-1.33,-1.41,1.41,1.79,0.07,0.08,0.08
157,-1.33,-1.40,-1.31,-1.37,1.37,1.76,0.05,0.06,0.07
159,-1.32,-1.36,-1.29,-1.34,1.34,1.69,0.02,0.05,0.04
160,-1.31,-1.34,-1.27,-1.30,1.30,1.66,-0.01,0.03,0.03
162,-1.27,-1.28,-1.25,-1.26,1.26,1.59,-0.01,0.01,0.01
164,-1.22,-1.21,-1.23,-1.23,1.23,1.53,0.01,-0.01,-0.01
165,-1.20,-1.18,-1.21,-1.19,1.19,1.50,-0.01,-0.02,-0.02
167,-1.17,-1.13,-1.20,-1.16,1.16,1.44,-0.01,-0.04,-0.04
169,-1.15,-1.09,-1.18,-1.12,1.12,1.38,-0.03,-0.06,-0.06
170,-1.14,-1.07,-1.16,-1.09,1.09,1.35,-0.05,-0.07,-0.07
172,-1.14,-1.05,-1.14,-1.06,1.06,1.29,-0.08,-0.09,-0.09
174,-1.13,-1.03,-1.13,-1.03,1.03,1.24,-0.10,-0.10,-0.10
175,-1.12,-1.01,-1.11,-1.00,1.00,1.21,-0.12,-0.11,-0.11
177,-1.11,-0.98,-1.10,-0.97,0.97,1.16,-0.14,-0.13,-0.13
179,-1.10,-0.96,-1.08,-0.94,0.94,1.11,-0.16,-0.14,-0.14
181,-1.09,-0.93,-1.06,-0.91,0.91,1.06,-0.18,-0.15,-0.15
183,-1.07,-0.90,-1.04,-0.88,0.88,1.01,-0.19,-0.17,-0.17
184,-1.05,-0.87,-1.03,-0.85,0.85,0.99,-0.20,-0.18,-0.17
186,-1.01,-0.82,-1.01,-0.82,0.82,0.94,-0.19,-0.19,-0.19
188,-0.97,-0.77,-0.99,-0.79,0.79,0.90,-0.18,-0.20,-0.20
190,-0.94,-0.73,-0.97,-0.76,0.76,0.86,-0.18,-0.21,-0.21
192,-0.93,-0.71,-0.96,-0.74,0.74,0.82,-0.19,-0.22,-0.22
194,-0.92,-0.69,-0.94,-0.71,0.71,0.78,-0.21,-0.23,-0.23
196,-0.92,-0.68,-0.93,-0.69,0.69,0.74,-0.23,-0.24,-0.24
198,-0.92,-0.67,-0.92,-0.67,0.67,0.70,-0.25,-0.25,-0.25
200,-0.92,-0.66,-0.91,-0.65,0.65,0.67,-0.27,-0.26,-0.26
202,-0.92,-0.65,-0.90,-0.63,0.63,0.63,-0.29,-0.27,-0.27
204,-0.91,-0.63,-0.90,-0.62,0.62,0.60,-0.29,-0.28,-0.28
206,-0.89,-0.60,-0.89,-0.60,0.60,0.57,-0.29,-0.29,-0.29
208,-0.89,-0.59,-0.88,-0.58,0.58,0.54,-0.31,-0.29,-0.29
210,-0.87,-0.57,-0.87,-0.57,0.57,0.51,-0.30,-0.30,-0.30
212,-0.86,-0.55,-0.86,-0.55,0.55,0.48,-0.31,-0.31,-0.31
214,-0.84,-0.52,-0.84,-0.53,0.53,0.45,-0.31,-0.32,-0.32
216,-0.82,-0.50,-0.83,-0.51,0.51,0.42,-0.31,-0.32,-0.32
218,-0.80,-0.47,-0.81,-0.48,0.48,0.40,-0.32,-0.33,-0.33
221,-0.78,-0.44,-0.79,-0.45,0.45,0.36,-0.33,-0.34,-0.34
223,-0.77,-0.43,-0.76,-0.42,0.42,0.34,-0.35,-0.34,-0.34
225,-0.75,-0.40,-0.73,-0.39,0.39,0.32,-0.36,-0.35,-0.35
227,-0.73,-0.37,-0.70,-0.35,0.35,0.30,-0.38,-0.35,-0.35
229,-0.71,-0.35,-0.66,-0.30,0.30,0.28,-0.40,-0.36,-0.36
232,-0.66,-0.29,-0.63,-0.26,0.26,0.25,-0.40,-0.37,-0.37
234,-0.62,-0.25,-0.58,-0.21,0.21,0.23,-0.41,-0.37,-0.37
236,-0.56,-0.18,-0.54,-0.17,0.17,0.22,-0.39,-0.38,-0.38
239,-0.49,-0.11,-0.50,-0.12,0.12,0.19,-0.37,-0.38,-0.38
241,-0.45,-0.06,-0.46,-0.08,0.08,0.18,-0.37,-0.39,-0.39
244,-0.40,-0.01,-0.43,-0.04,0.04,0.16,-0.36,-0.39,-0.39
246,-0.37,0.03,-0.40,-0.01,0.01,0.15,-0.36,-0.40,-0.40
248,-0.35,0.05,-0.38,0.02,-0.02,0.14,-0.37,-0.40,-0.40
251,-0.33,0.07,-0.36,0.04,-0.04,0.12,-0.37,-0.40,-0.40
253,-0.32,0.09,-0.35,0.06,-0.06,0.12,-0.37,-0.41,-0.41
256,-0.33,0.08,-0.35,0.06,-0.06,0.10,-0.39,-0.41,-0.41
259,-0.35,0.07,-0.36,0.06,-0.06,0.10,-0.41,-0.42,-0.42
261,-0.37,0.05,-0.37,0.05,-0.05,0.09,-0.42,-0.42,-0.42
264,-0.39,0.03,-0.38,0.04,-0.04,0.08,-0.43,-0.42,-0.42
266,-0.41,0.02,-0.40,0.02,-0.02,0.08,-0.43,-0.43,-0.42
269,-0.44,-0.01,-0.43,0.00,-0.00,0.08,-0.44,-0.43,-0.43
272,-0.47,-0.04,-0.45,-0.02,0.02,0.07,-0.45,-0.43,-0.43
274,-0.49,-0.05,-0.48,-0.04,0.04,0.07,-0.45,-0.43,-0.43
277,-0.51,-0.07,-0.50,-0.07,0.07,0.07,-0.44,-0.44,-0.44
280,-0.54,-0.10,-0.53,-0.09,0.09,0.07,-0.45,-0.44,-0.44
283,-0.56,-0.12,-0.55,-0.11,0.11,0.07,-0.45,-0.44,-0.44
286,-0.58,-0.13,-0.57,-0.13,0.13,0.07,-0.45,-0.45,-0.45
288,-0.60,-0.15,-0.60,-0.15,0.15,0.07,-0.45,-0.45,-0.45
291,-0.62,-0.17,-0.61,-0.16,0.16,0.08,-0.45,-0.45,-0.45
294,-0.64,-0.19,-0.63,-0.18,0.18,0.08,-0.46,-0.45,-0.45
297,-0.65,-0.19,-0.65,-0.19,0.19,0.08,-0.45,-0.45,-0.45
300,-0.67,-0.21,-0.66,-0.21,0.21,0.09,-0.46,-0.46,-0.46
303,-0.68,-0.22,-0.68,-0.22,0.22,0.09,-0.46,-0.46,-0.46
306,-0.69,-0.23,-0.69,-0.23,0.23,0.09,-0.46,-0.46,-0.46
309,-0.71,-0.25,-0.71,-0.25,0.25,0.10,-0.46,-0.46,-0.46
312,-0.72,-0.25,-0.72,-0.26,0.26,0.10,-0.46,-0.46,-0.46
316,-0.74,-0.27,-0.74,-0.27,0.27,0.11,-0.47,-0.47,-0.47
319,-0.75,-0.28,-0.75,-0.29,0.29,0.12,-0.46,-0.47,-0.47
322,-0.77,-0.30,-0.77,-0.30,0.30,0.12,-0.47,-0.47,-0.47
325,-0.78,-0.31,-0.79,-0.32,0.32,0.13,-0.46,-0.47,-0.47
328,-0.80,-0.33,-0.81,-0.33,0.33,0.13,-0.47,-0.47,-0.47
332,-0.82,-0.34,-0.83,-0.35,0.35,0.14,-0.47,-0.47,-0.47
335,-0.84,-0.36,-0.85,-0.37,0.37,0.15,-0.47,-0.48,-0.48
338,-0.86,-0.38,-0.87,-0.39,0.39,0.15,-0.47,-0.48,-0.48
342,-0.89,-0.41,-0.89,-0.41,0.41,0.16,-0.48,-0.48,-0.48
345,-0.91,-0.43,-0.91,-0.43,0.43,0.17,-0.48,-0.48,-0.48
349,-0.93,-0.45,-0.93,-0.45,0.45,0.18,-0.48,-0.48,-0.48
352,-0.95,-0.47,-0.95,-0.46,0.46,0.18,-0.48,-0.48,-0.48
356,-0.98,-0.50,-0.97,-0.48,0.48,0.19,-0.50,-0.48,-0.48
359,-0.99,-0.50,-0.98,-0.50,0.50,0.20,-0.49,-0.48,-0.48
363,-1.00,-0.51,-1.00,-0.51,0.51,0.20,-0.49,-0.49,-0.49
366,-1.01,-0.52,-1.01,-0.53,0.53,0.21,-0.48,-0.49,-0.49
370,-1.03,-0.54,-1.03,-0.54,0.54,0.22,-0.49,-0.49,-0.49
374,-1.04,-0.55,-1.04,-0.55,0.55,0.23,-0.49,-0.49,-0.49
377,-1.04,-0.55,-1.05,-0.55,0.55,0.23,-0.48,-0.49,-0.49
381,-1.05,-0.56,-1.05,-0.56,0.56,0.24,-0.49,-0.49,-0.49
385,-1.06,-0.57,-1.06,-0.57,0.57,0.25,-0.49,-0.49,-0.49
389,-1.07,-0.57,-1.06,-0.57,0.57,0.26,-0.50,-0.50,-0.50
393,-1.07,-0.57,-1.07,-0.57,0.57,0.27,-0.50,-0.50,-0.50
397,-1.07,-0.57,-1.07,-0.57,0.57,0.27,-0.50,-0.50,-0.50
401,-1.07,-0.57,-1.07,-0.57,0.57,0.28,-0.50,-0.50,-0.50
405,-1.07,-0.57,-1.07,-0.57,0.57,0.29,-0.50,-0.50,-0.50
409,-1.07,-0.57,-1.07,-0.56,0.56,0.30,-0.51,-0.50,-0.50
413,-1.06,-0.56,-1.06,-0.56,0.56,0.31,-0.50,-0.50,-0.50
417,-1.06,-0.56,-1.06,-0.55,0.55,0.32,-0.50,-0.50,-0.50
421,-1.05,-0.55,-1.05,-0.55,0.55,0.32,-0.50,-0.50,-0.50
425,-1.04,-0.54,-1.04,-0.54,0.54,0.33,-0.50,-0.50,-0.50
430,-1.03,-0.53,-1.03,-0.53,0.53,0.34,-0.50,-0.50,-0.50
434,-1.02,-0.52,-1.02,-0.52,0.52,0.35,-0.50,-0.50,-0.50
438,-1.01,-0.51,-1.01,-0.51,0.51,0.36,-0.49,-0.50,-0.50
443,-1.00,-0.50,-1.00,-0.50,0.50,0.37,-0.49,-0.49,-0.49
447,-1.00,-0.51,-0.99,-0.49,0.49,0.38,-0.50,-0.49,-0.49
451,-1.00,-0.51,-0.97,-0.48,0.48,0.39,-0.51,-0.49,-0.49
456,-0.98,-0.50,-0.96,-0.48,0.48,0.40,-0.50,-0.48,-0.48
460,-0.96,-0.48,-0.94,-0.47,0.47,0.40,-0.49,-0.48,-0.48
465,-0.92,-0.45,-0.93,-0.46,0.46,0.42,-0.46,-0.47,-0.47
470,-0.88,-0.42,-0.92,-0.46,0.46,0.43,-0.42,-0.46,-0.46
474,-0.87,-0.42,-0.90,-0.45,0.45,0.43,-0.42,-0.45,-0.45
479,-0.86,-0.42,-0.89,-0.45,0.45,0.44,-0.41,-0.44,-0.44
484,-0.86,-0.43,-0.88,-0.45,0.45,0.45,-0.41,-0.43,-0.43
489,-0.88,-0.46,-0.87,-0.45,0.45,0.47,-0.42,-0.42,-0.42
494,-0.88,-0.47,-0.86,-0.46,0.46,0.48,-0.42,-0.41,-0.41
499,-0.88,-0.49,-0.86,-0.46,0.46,0.49,-0.41,-0.39,-0.39
504,-0.87,-0.49,-0.85,-0.47,0.47,0.50,-0.40,-0.38,-0.38
509,-0.86,-0.50,-0.84,-0.48,0.48,0.51,-0.38,-0.36,-0.36
514,-0.83,-0.49,-0.82,-0.48,0.48,0.52,-0.35,-0.34,-0.34
519,-0.81,-0.49,-0.81,-0.49,0.49,0.53,-0.32,-0.32,-0.32
524,-0.79,-0.48,-0.80,-0.49,0.49,0.54,-0.30,-0.30,-0.30
529,-0.78,-0.50,-0.78,-0.50,0.50,0.55,-0.28,-0.28,-0.28
535,-0.76,-0.50,-0.77,-0.50,0.50,0.57,-0.26,-0.26,-0.26
540,-0.74,-0.50,-0.75,-0.51,0.51,0.58,-0.23,-0.24,-0.24
545,-0.73,-0.51,-0.73,-0.51,0.51,0.59,-0.22,-0.22,-0.22
551,-0.72,-0.53,-0.71,-0.52,0.52,0.60,-0.20,-0.19,-0.19
556,-0.69,-0.52,-0.69,-0.52,0.52,0.61,-0.17,-0.17,-0.17
562,-0.67,-0.53,-0.67,-0.53,0.53,0.63,-0.14,-0.14,-0.14
568,-0.65,-0.53,-0.65,-0.53,0.53,0.64,-0.12,-0.12,-0.12
573,-0.63,-0.54,-0.63,-0.54,0.54,0.66,-0.09,-0.09,-0.09
579,-0.61,-0.55,-0.61,-0.55,0.55,0.67,-0.06,-0.06,-0.06
585,-0.58,-0.55,-0.59,-0.55,0.55,0.69,-0.03,-0.03,-0.03
591,-0.56,-0.56,-0.56,-0.56,0.56,0.71,0.00,-0.00,-0.00
596,-0.54,-0.57,-0.54,-0.57,0.57,0.72,0.03,0.03,0.03
602,-0.53,-0.59,-0.52,-0.58,0.58,0.74,0.05,0.06,0.06
608,-0.50,-0.59,-0.50,-0.59,0.59,0.75,0.09,0.09,0.09
615,-0.48,-0.60,-0.48,-0.60,0.60,0.78,0.12,0.12,0.12
621,-0.46,-0.61,-0.46,-0.61,0.61,0.79,0.15,0.15,0.15
627,-0.43,-0.62,-0.43,-0.62,0.62,0.81,0.19,0.19,0.19
633,-0.42,-0.64,-0.41,-0.64,0.64,0.83,0.22,0.22,0.22
639,-0.40,-0.65,-0.40,-0.65,0.65,0.85,0.25,0.26,0.25
646,-0.38,-0.67,-0.38,-0.67,0.67,0.88,0.29,0.29,0.29
652,-0.35,-0.67,-0.36,-0.68,0.68,0.90,0.33,0.32,0.32
659,-0.33,-0.69,-0.34,-0.70,0.70,0.92,0.37,0.36,0.36
665,-0.32,-0.72,-0.33,-0.72,0.72,0.95,0.40,0.40,0.40
672,-0.31,-0.74,-0.31,-0.74,0.74,0.97,0.43,0.43,0.43
679,-0.29,-0.76,-0.29,-0.76,0.76,1.00,0.47,0.47,0.47
686,-0.27,-0.78,-0.28,-0.79,0.79,1.03,0.52,0.51,0.51
692,-0.26,-0.80,-0.26,-0.81,0.81,1.05,0.55,0.54,0.54
699,-0.26,-0.84,-0.25,-0.83,0.83,1.08,0.57,0.58,0.58
706,-0.24,-0.86,-0.23,-0.85,0.85,1.11,0.61,0.62,0.62
713,-0.24,-0.90,-0.21,-0.87,0.87,1.14,0.63,0.66,0.66
721,-0.22,-0.91,-0.19,-0.89,0.89,1.18,0.67,0.70,0.70
728,-0.20,-0.93,-0.18,-0.91,0.91,1.21,0.71,0.73,0.73
735,-0.18,-0.95,-0.16,-0.93,0.93,1.24,0.75,0.77,0.77
742,-0.14,-0.95,-0.14,-0.95,0.95,1.28,0.81,0.81,0.81
750,-0.11,-0.96,-0.13,-0.97,0.97,1.31,0.86,0.85,0.85
757,-0.09,-0.97,-0.11,-1.00,1.00,1.35,0.91,0.88,0.88
765,-0.08,-1.00,-0.10,-1.02,1.02,1.39,0.95,0.92,0.92
773,-0.07,-1.03,-0.10,-1.05,1.05,1.43,0.99,0.96,0.96
780,-0.07,-1.06,-0.09,-1.09,1.09,1.46,1.02,0.99,0.99
788,-0.07,-1.10,-0.09,-1.12,1.12,1.50,1.05,1.03,1.03
796,-0.08,-1.14,-0.09,-1.16,1.16,1.54,1.08,1.06,1.06
804,-0.10,-1.20,-0.10,-1.19,1.19,1.58,1.10,1.10,1.10
812,-0.11,-1.24,-0.10,-1.23,1.23,1.62,1.12,1.13,1.13
820,-0.12,-1.29,-0.10,-1.27,1.27,1.66,1.15,1.17,1.17
828,-0.14,-1.34,-0.10,-1.30,1.30,1.69,1.16,1.20,1.20
837,-0.14,-1.37,-0.11,-1.34,1.34,1.74,1.20,1.23,1.23
845,-0.14,-1.40,-0.11,-1.37,1.37,1.77,1.23,1.26,1.26
853,-0.12,-1.41,-0.10,-1.40,1.40,1.81,1.28,1.29,1.29
862,-0.10,-1.42,-0.10,-1.42,1.42,1.85,1.32,1.32,1.32
871,-0.08,-1.43,-0.10,-1.45,1.45,1.89,1.37,1.35,1.35
879,-0.07,-1.45,-0.09,-1.47,1.47,1.92,1.40,1.38,1.38
888,-0.06,-1.47,-0.08,-1.49,1.49,1.95,1.44,1.41,1.41
897,-0.06,-1.50,-0.08,-1.52,1.52,1.98,1.46,1.44,1.44
906,-0.06,-1.53,-0.07,-1.54,1.54,2.01,1.48,1.47,1.47
915,-0.06,-1.55,-0.06,-1.56,1.56,2.04,1.50,1.49,1.49
924,-0.06,-1.58,-0.06,-1.58,1.58,2.06,1.52,1.52,1.52
933,-0.07,-1.62,-0.05,-1.60,1.60,2.09,1.53,1.55,1.55
943,-0.07,-1.64,-0.05,-1.62,1.62,2.11,1.55,1.57,1.57
952,-0.06,-1.66,-0.04,-1.64,1.64,2.12,1.58,1.60,1.60
962,-0.06,-1.69,-0.04,-1.66,1.66,2.13,1.60,1.63,1.63
971,-0.04,-1.69,-0.03,-1.69,1.69,2.14,1.65,1.65,1.65
981,-0.02,-1.70,-0.03,-1.71,1.71,2.15,1.69,1.68,1.68
991,-0.01,-1.72,-0.02,-1.73,1.73,2.15,1.72,1.71,1.71
1001,0.00,-1.73,-0.02,-1.75,1.75,2.15,1.75,1.74,1.74
1011,0.01,-1.75,-0.02,-1.78,1.78,2.14,1.79,1.76,1.76
1021,0.00,-1.79,-0.02,-1.81,1.81,2.13,1.81,1.79,1.79
1031,0.00,-1.82,-0.02,-1.83,1.83,2.12,1.84,1.82,1.82
1041,-0.02,-1.86,-0.02,-1.86,1.86,2.11,1.85,1.84,1.84
1052,-0.03,-1.90,-0.02,-1.90,1.90,2.09,1.87,1.87,1.87
1062,-0.04,-1.94,-0.03,-1.93,1.93,2.07,1.89,1.90,1.90
1073,-0.04,-1.97,-0.03,-1.96,1.96,2.04,1.92,1.93,1.93
1084,-0.04,-2.00,-0.03,-1.99,1.99,2.01,1.95,1.96,1.96
1094,-0.03,-2.02,-0.03,-2.02,2.02,1.98,1.99,1.99,1.99
1105,-0.03,-2.05,-0.03,-2.05,2.05,1.95,2.02,2.02,2.02
1116,-0.03,-2.08,-0.03,-2.07,2.07,1.91,2.04,2.05,2.05
1128,-0.03,-2.11,-0.02,-2.10,2.10,1.87,2.07,2.08,2.08
1139,-0.02,-2.13,-0.02,-2.12,2.12,1.83,2.11,2.11,2.11
1150,-0.02,-2.16,-0.01,-2.15,2.15,1.79,2.13,2.14,2.14
1162,0.00,-2.17,0.00,-2.17,2.17,1.75,2.17,2.17,2.17
1173,0.01,-2.19,0.01,-2.19,2.19,1.71,2.20,2.20,2.20
1185,0.04,-2.19,0.02,-2.21,2.21,1.66,2.25,2.23,2.23
1197,0.07,-2.20,0.03,-2.23,2.23,1.61,2.30,2.27,2.27
1209,0.10,-2.20,0.05,-2.25,2.25,1.57,2.35,2.30,2.30
1221,0.12,-2.21,0.07,-2.26,2.26,1.52,2.38,2.33,2.33
1233,0.13,-2.23,0.10,-2.27,2.27,1.48,2.40,2.37,2.37
1246,0.15,-2.25,0.13,-2.26,2.26,1.43,2.42,2.40,2.40
1258,0.16,-2.27,0.18,-2.25,2.25,1.39,2.41,2.43,2.43
1271,0.19,-2.28,0.24,-2.23,2.23,1.34,2.42,2.47,2.47
1283,0.24,-2.26,0.31,-2.19,2.19,1.30,2.43,2.50,2.50
1296,0.30,-2.24,0.40,-2.14,2.14,1.25,2.44,2.54,2.54
1309,0.41,-2.16,0.50,-2.07,2.07,1.21,2.48,2.57,2.57
1322,0.54,-2.07,0.62,-1.99,1.99,1.16,2.53,2.61,2.61
1335,0.69,-1.95,0.75,-1.90,1.90,1.12,2.59,2.64,2.64
1349,0.87,-1.81,0.89,-1.80,1.80,1.08,2.67,2.68,2.68
1362,1.03,-1.69,1.03,-1.69,1.69,1.04,2.72,2.72,2.72
1376,1.20,-1.55,1.17,-1.58,1.58,0.99,2.78,2.75,2.75
1390,1.36,-1.43,1.32,-1.47,1.47,0.95,2.83,2.79,2.79
1404,1.50,-1.33,1.46,-1.37,1.37,0.91,2.88,2.83,2.83
1418,1.64,-1.23,1.58,-1.28,1.28,0.87,2.93,2.87,2.87
1432,1.76,-1.15,1.70,-1.21,1.21,0.84,2.97,2.91,2.91
1446,1.86,-1.09,1.80,-1.15,1.15,0.80,3.01,2.95,2.95
1461,1.94,-1.05,1.88,-1.10,1.10,0.76,3.04,2.99,2.99
1475,2.00,-1.03,1.95,-1.07,1.07,0.73,3.08,3.03,3.03
1490,2.04,-1.03,2.00,-1.06,1.06,0.69,3.10,3.07,3.07
1505,2.05,-1.06,2.04,-1.07,1.07,0.66,3.12,3.11,3.11
1520,2.07,-1.08,2.06,-1.09,1.09,0.63,3.16,3.15,3.15
1535,2.07,-1.12,2.08,-1.11,1.11,0.60,3.18,3.19,3.19
1550,2.08,-1.15,2.08,-1.15,1.15,0.56,3.23,3.23,3.23
1566,2.10,-1.17,2.09,-1.19,1.19,0.53,3.29,3.27,3.27
1582,2.11,-1.21,2.09,-1.23,1.23,0.50,3.34,3.32,3.32
1597,2.11,-1.25,2.10,-1.26,1.26,0.47,3.38,3.36,3.36
1613,2.12,-1.28,2.11,-1.29,1.29,0.44,3.41,3.40,3.40
1629,2.11,-1.34,2.14,-1.31,1.31,0.41,3.42,3.45,3.45
1646,2.12,-1.37,2.17,-1.32,1.32,0.38,3.44,3.49,3.49
1662,2.14,-1.40,2.23,-1.31,1.31,0.35,3.45,3.54,3.54
1679,2.20,-1.38,2.30,-1.29,1.29,0.32,3.49,3.58,3.58
1696,2.30,-1.33,2.38,-1.25,1.25,0.29,3.55,3.63,3.63
1713,2.42,-1.26,2.48,-1.19,1.19,0.26,3.61,3.68,3.68
1730,2.57,-1.15,2.60,-1.12,1.12,0.23,3.69,3.72,3.72
1747,2.73,-1.04,2.73,-1.04,1.04,0.21,3.77,3.77,3.77
1764,2.90,-0.92,2.87,-0.95,0.95,0.18,3.85,3.82,3.82
1782,3.07,-0.80,3.02,-0.85,0.85,0.15,3.92,3.87,3.87
1800,3.24,-0.68,3.18,-0.74,0.74,0.12,3.99,3.92,3.93
