frequency,raw,smoothed,error,error_smoothed,equalization,parametric_eq,fixed_band_eq,equalized_raw,equalized_smoothed,target
20.00,-6.15,-6.16,-9.17,-9.18,6.00,6.14,2.56,-0.15,-0.16,3.02
20.20,-6.06,-6.06,-9.11,-9.11,6.00,6.13,2.63,-0.06,-0.06,3.05
20.40,-5.97,-5.96,-9.05,-9.04,6.00,6.13,2.71,0.03,0.04,3.08
20.61,-5.87,-5.87,-8.97,-8.98,6.00,6.12,2.79,0.13,0.13,3.10
20.81,-5.78,-5.78,-8.91,-8.91,6.00,6.12,2.86,0.22,0.22,3.13
21.02,-5.69,-5.70,-8.85,-8.86,6.00,6.11,2.95,0.31,0.30,3.16
21.23,-5.64,-5.64,-8.81,-8.81,6.00,6.11,3.03,0.36,0.36,3.17
21.44,-5.59,-5.58,-8.77,-8.77,6.00,6.10,3.12,0.41,0.42,3.18
21.66,-5.53,-5.54,-8.72,-8.72,6.00,6.10,3.21,0.47,0.46,3.19
21.87,-5.48,-5.48,-8.67,-8.67,6.00,6.09,3.30,0.52,0.52,3.19
22.09,-5.41,-5.40,-8.61,-8.60,6.00,6.08,3.39,0.59,0.60,3.20
22.31,-5.31,-5.31,-8.51,-8.51,6.00,6.08,3.49,0.69,0.69,3.20
22.54,-5.21,-5.21,-8.41,-8.41,6.00,6.07,3.59,0.79,0.79,3.20
22.76,-5.11,-5.11,-8.31,-8.30,6.00,6.06,3.70,0.89,0.89,3.20
22.99,-5.01,-5.02,-8.20,-8.21,6.00,6.06,3.80,0.99,0.98,3.19
23.22,-4.96,-4.96,-8.15,-8.14,6.00,6.05,3.91,1.04,1.04,3.18
23.45,-4.91,-4.91,-8.09,-8.09,6.00,6.04,4.02,1.09,1.09,3.18
23.69,-4.86,-4.86,-8.04,-8.04,6.00,6.04,4.13,1.14,1.14,3.18
23.92,-4.81,-4.81,-7.99,-7.99,6.00,6.03,4.24,1.19,1.19,3.18
24.16,-4.75,-4.75,-7.94,-7.94,6.00,6.02,4.36,1.25,1.25,3.19
24.40,-4.70,-4.70,-7.89,-7.88,6.00,6.01,4.48,1.30,1.30,3.19
24.65,-4.64,-4.64,-7.82,-7.82,6.00,6.01,4.60,1.36,1.36,3.18
24.89,-4.58,-4.58,-7.76,-7.76,6.00,6.00,4.72,1.42,1.42,3.18
25.14,-4.53,-4.53,-7.71,-7.70,6.00,5.99,4.84,1.47,1.47,3.18
25.39,-4.47,-4.47,-7.65,-7.64,6.00,5.98,4.97,1.53,1.53,3.18
25.65,-4.41,-4.41,-7.59,-7.58,6.00,5.97,5.09,1.59,1.59,3.18
25.91,-4.35,-4.36,-7.52,-7.53,6.00,5.96,5.22,1.65,1.64,3.17
26.16,-4.33,-4.33,-7.49,-7.50,6.00,5.95,5.34,1.67,1.67,3.16
26.43,-4.33,-4.33,-7.49,-7.49,6.00,5.94,5.47,1.67,1.67,3.16
26.69,-4.33,-4.33,-7.49,-7.49,6.00,5.93,5.59,1.67,1.67,3.16
26.96,-4.33,-4.32,-7.49,-7.48,6.00,5.92,5.71,1.67,1.68,3.16
27.23,-4.28,-4.28,-7.44,-7.43,6.00,5.91,5.83,1.72,1.72,3.16
27.50,-4.21,-4.22,-7.37,-7.37,6.00,5.90,5.95,1.79,1.78,3.16
27.77,-4.15,-4.15,-7.30,-7.30,6.00,5.89,6.06,1.85,1.85,3.15
28.05,-4.09,-4.09,-7.23,-7.23,6.00,5.88,6.17,1.91,1.91,3.14
28.33,-4.02,-4.02,-7.15,-7.16,6.00,5.87,6.27,1.98,1.98,3.13
28.62,-3.96,-3.96,-7.09,-7.09,6.00,5.86,6.37,2.04,2.04,3.13
28.90,-3.89,-3.89,-7.02,-7.02,6.00,5.84,6.46,2.11,2.11,3.13
29.19,-3.83,-3.83,-6.95,-6.95,6.00,5.83,6.55,2.17,2.17,3.12
29.48,-3.77,-3.77,-6.90,-6.89,6.00,5.82,6.63,2.23,2.23,3.13
29.78,-3.71,-3.71,-6.83,-6.83,6.00,5.80,6.70,2.29,2.29,3.12
30.08,-3.67,-3.68,-6.78,-6.79,6.00,5.79,6.76,2.33,2.32,3.11
30.38,-3.66,-3.66,-6.76,-6.76,6.00,5.78,6.81,2.34,2.34,3.10
30.68,-3.66,-3.65,-6.76,-6.75,6.00,5.76,6.85,2.34,2.35,3.10
30.99,-3.65,-3.65,-6.74,-6.74,6.00,5.74,6.88,2.35,2.35,3.09
31.30,-3.65,-3.65,-6.73,-6.74,6.00,5.73,6.90,2.35,2.35,3.08
31.61,-3.65,-3.65,-6.73,-6.73,6.00,5.71,6.91,2.35,2.35,3.08
31.93,-3.65,-3.65,-6.72,-6.72,6.00,5.69,6.91,2.35,2.35,3.07
32.24,-3.65,-3.65,-6.71,-6.71,6.00,5.67,6.90,2.35,2.35,3.06
32.57,-3.65,-3.65,-6.71,-6.70,6.00,5.66,6.88,2.35,2.35,3.06
32.89,-3.65,-3.66,-6.70,-6.71,6.00,5.64,6.85,2.35,2.34,3.05
33.22,-3.70,-3.70,-6.74,-6.74,6.00,5.61,6.81,2.30,2.30,3.04
33.55,-3.77,-3.76,-6.81,-6.80,6.00,5.59,6.76,2.23,2.24,3.04
33.89,-3.85,-3.86,-6.87,-6.89,6.00,5.57,6.71,2.15,2.14,3.02
34.23,-3.98,-4.00,-7.00,-7.02,6.00,5.54,6.65,2.02,2.00,3.02
34.57,-4.13,-4.14,-7.14,-7.15,6.00,5.52,6.58,1.87,1.86,3.01
34.92,-4.29,-4.24,-7.28,-7.24,6.01,5.49,6.52,1.72,1.77,3.00
35.27,-4.27,-4.28,-7.26,-7.27,6.03,5.46,6.44,1.76,1.75,2.99
35.62,-4.19,-4.22,-7.17,-7.20,6.05,5.43,6.36,1.86,1.83,2.98
35.97,-4.12,-4.07,-7.08,-7.04,6.05,5.40,6.28,1.93,1.97,2.96
36.33,-3.86,-3.87,-6.82,-6.83,6.01,5.37,6.20,2.15,2.14,2.96
36.70,-3.59,-3.61,-6.54,-6.55,5.94,5.33,6.11,2.35,2.34,2.95
37.06,-3.31,-3.28,-6.24,-6.22,5.84,5.30,6.03,2.54,2.56,2.93
37.43,-2.97,-2.96,-5.89,-5.88,5.71,5.26,5.94,2.75,2.75,2.93
37.81,-2.63,-2.66,-5.55,-5.57,5.56,5.21,5.85,2.93,2.90,2.91
38.19,-2.38,-2.40,-5.28,-5.30,5.39,5.17,5.77,3.01,2.99,2.90
38.57,-2.23,-2.21,-5.13,-5.10,5.21,5.12,5.69,2.98,3.00,2.90
38.95,-2.07,-2.08,-4.95,-4.96,5.03,5.07,5.60,2.96,2.95,2.88
39.34,-1.97,-1.97,-4.83,-4.84,4.86,5.01,5.52,2.89,2.89,2.87
39.74,-1.88,-1.87,-4.73,-4.73,4.72,4.95,5.45,2.84,2.84,2.85
40.14,-1.79,-1.78,-4.64,-4.62,4.61,4.89,5.37,2.82,2.83,2.84
40.54,-1.70,-1.70,-4.53,-4.53,4.54,4.82,5.30,2.84,2.84,2.83
40.94,-1.61,-1.64,-4.43,-4.46,4.47,4.76,5.23,2.86,2.84,2.82
41.35,-1.60,-1.61,-4.41,-4.42,4.41,4.68,5.16,2.81,2.80,2.81
41.76,-1.60,-1.58,-4.40,-4.38,4.34,4.61,5.10,2.74,2.76,2.80
42.18,-1.56,-1.53,-4.35,-4.33,4.29,4.53,5.04,2.73,2.75,2.79
42.60,-1.46,-1.46,-4.24,-4.25,4.23,4.45,4.99,2.77,2.77,2.78
43.03,-1.37,-1.40,-4.14,-4.17,4.18,4.38,4.93,2.81,2.78,2.77
43.46,-1.37,-1.36,-4.12,-4.11,4.14,4.31,4.89,2.77,2.77,2.75
43.90,-1.37,-1.36,-4.10,-4.09,4.10,4.24,4.84,2.73,2.74,2.73
44.33,-1.37,-1.37,-4.08,-4.08,4.08,4.19,4.80,2.71,2.71,2.71
44.78,-1.37,-1.37,-4.06,-4.06,4.07,4.14,4.76,2.70,2.70,2.69
45.23,-1.38,-1.38,-4.05,-4.05,4.07,4.11,4.73,2.69,2.69,2.67
45.68,-1.41,-1.41,-4.06,-4.06,4.08,4.09,4.70,2.67,2.67,2.65
46.13,-1.45,-1.47,-4.09,-4.10,4.10,4.08,4.67,2.65,2.64,2.63
46.60,-1.53,-1.53,-4.15,-4.15,4.12,4.09,4.65,2.59,2.60,2.63
47.06,-1.60,-1.57,-4.21,-4.18,4.14,4.11,4.63,2.54,2.57,2.61
47.53,-1.60,-1.60,-4.19,-4.19,4.16,4.14,4.61,2.56,2.56,2.59
48.01,-1.60,-1.63,-4.18,-4.20,4.19,4.18,4.60,2.59,2.56,2.58
48.49,-1.66,-1.66,-4.20,-4.21,4.21,4.23,4.59,2.55,2.55,2.54
48.97,-1.73,-1.71,-4.24,-4.22,4.24,4.28,4.58,2.51,2.53,2.51
49.46,-1.77,-1.77,-4.25,-4.25,4.27,4.33,4.58,2.49,2.49,2.48
49.96,-1.82,-1.84,-4.27,-4.30,4.30,4.38,4.58,2.48,2.46,2.45
50.46,-1.93,-1.93,-4.37,-4.36,4.35,4.44,4.58,2.42,2.42,2.44
50.96,-2.04,-2.01,-4.46,-4.42,4.42,4.49,4.58,2.38,2.41,2.42
51.47,-2.10,-2.09,-4.48,-4.48,4.51,4.54,4.58,2.41,2.42,2.38
51.99,-2.15,-2.20,-4.51,-4.56,4.60,4.59,4.59,2.45,2.41,2.36
52.51,-2.33,-2.33,-4.67,-4.67,4.70,4.65,4.60,2.38,2.37,2.34
53.03,-2.52,-2.49,-4.84,-4.81,4.80,4.70,4.60,2.28,2.32,2.32
53.56,-2.64,-2.65,-4.94,-4.94,4.90,4.75,4.61,2.26,2.26,2.30
54.10,-2.76,-2.78,-5.03,-5.05,4.99,4.81,4.62,2.23,2.22,2.27
54.64,-2.88,-2.87,-5.12,-5.11,5.08,4.87,4.63,2.20,2.22,2.24
55.18,-2.96,-2.93,-5.18,-5.15,5.15,4.93,4.63,2.19,2.22,2.22
55.74,-2.96,-2.99,-5.15,-5.19,5.21,4.99,4.64,2.25,2.22,2.19
56.29,-3.03,-3.06,-5.20,-5.23,5.25,5.06,4.64,2.22,2.19,2.17
56.86,-3.16,-3.12,-5.30,-5.27,5.26,5.12,4.64,2.10,2.14,2.15
57.42,-3.19,-3.18,-5.31,-5.30,5.27,5.18,4.64,2.08,2.09,2.12
58.00,-3.19,-3.20,-5.29,-5.30,5.26,5.24,4.64,2.07,2.06,2.10
58.58,-3.19,-3.19,-5.27,-5.27,5.26,5.29,4.63,2.07,2.06,2.08
59.16,-3.19,-3.19,-5.25,-5.25,5.25,5.33,4.62,2.06,2.06,2.06
59.76,-3.19,-3.18,-5.23,-5.21,5.25,5.35,4.60,2.06,2.08,2.04
60.35,-3.19,-3.19,-5.19,-5.19,5.26,5.36,4.58,2.07,2.07,2.00
60.96,-3.19,-3.24,-5.17,-5.21,5.26,5.33,4.56,2.07,2.02,1.98
61.57,-3.32,-3.31,-5.26,-5.25,5.26,5.29,4.53,1.94,1.95,1.94
62.18,-3.42,-3.38,-5.32,-5.29,5.26,5.22,4.50,1.84,1.88,1.90
62.80,-3.42,-3.43,-5.30,-5.31,5.26,5.12,4.46,1.84,1.83,1.88
63.43,-3.42,-3.43,-5.26,-5.28,5.25,5.01,4.41,1.83,1.82,1.84
64.07,-3.42,-3.41,-5.24,-5.23,5.23,4.88,4.36,1.81,1.81,1.82
64.71,-3.38,-3.36,-5.17,-5.16,5.18,4.75,4.31,1.80,1.81,1.79
65.35,-3.31,-3.31,-5.07,-5.07,5.09,4.61,4.25,1.78,1.79,1.76
66.01,-3.19,-3.24,-4.93,-4.98,4.97,4.47,4.19,1.78,1.73,1.74
66.67,-3.19,-3.17,-4.90,-4.88,4.82,4.33,4.12,1.63,1.66,1.71
67.33,-3.08,-3.04,-4.76,-4.72,4.65,4.19,4.04,1.58,1.61,1.68
68.01,-2.87,-2.86,-4.52,-4.51,4.47,4.06,3.97,1.60,1.61,1.65
68.69,-2.60,-2.63,-4.22,-4.25,4.27,3.93,3.89,1.67,1.64,1.62
69.37,-2.40,-2.42,-3.98,-4.01,4.06,3.81,3.80,1.66,1.64,1.58
70.07,-2.26,-2.24,-3.81,-3.80,3.85,3.69,3.72,1.59,1.60,1.55
70.77,-2.10,-2.10,-3.63,-3.62,3.63,3.57,3.63,1.53,1.54,1.53
71.48,-1.94,-1.94,-3.43,-3.44,3.42,3.46,3.54,1.48,1.48,1.49
72.19,-1.78,-1.78,-3.24,-3.24,3.23,3.35,3.44,1.45,1.45,1.46
72.91,-1.62,-1.61,-3.04,-3.04,3.04,3.25,3.35,1.42,1.43,1.42
73.64,-1.45,-1.45,-2.83,-2.84,2.86,3.15,3.25,1.41,1.40,1.39
74.38,-1.31,-1.33,-2.67,-2.68,2.67,3.05,3.16,1.36,1.34,1.36
75.12,-1.19,-1.19,-2.51,-2.52,2.48,2.95,3.06,1.29,1.28,1.32
75.87,-1.10,-1.04,-2.39,-2.33,2.29,2.86,2.96,1.19,1.24,1.29
76.63,-0.86,-0.88,-2.12,-2.14,2.11,2.76,2.86,1.25,1.23,1.26
77.40,-0.69,-0.71,-1.92,-1.94,1.95,2.67,2.76,1.26,1.24,1.23
78.17,-0.59,-0.57,-1.78,-1.76,1.81,2.58,2.66,1.23,1.25,1.19
78.95,-0.47,-0.50,-1.63,-1.66,1.71,2.49,2.56,1.24,1.21,1.16
79.74,-0.46,-0.46,-1.59,-1.59,1.63,2.40,2.47,1.17,1.18,1.13
80.54,-0.46,-0.43,-1.56,-1.53,1.59,2.31,2.37,1.13,1.15,1.10
81.35,-0.46,-0.48,-1.52,-1.54,1.57,2.22,2.27,1.11,1.09,1.06
82.16,-0.50,-0.55,-1.53,-1.58,1.58,2.14,2.18,1.08,1.03,1.03
82.98,-0.68,-0.62,-1.68,-1.61,1.60,2.05,2.08,0.92,0.98,1.00
83.81,-0.68,-0.68,-1.63,-1.63,1.61,1.97,1.99,0.93,0.93,0.95
84.65,-0.68,-0.70,-1.59,-1.62,1.59,1.88,1.90,0.91,0.89,0.91
85.50,-0.68,-0.70,-1.57,-1.58,1.55,1.80,1.81,0.87,0.85,0.89
86.35,-0.68,-0.66,-1.53,-1.51,1.46,1.71,1.72,0.78,0.79,0.85
87.22,-0.62,-0.57,-1.43,-1.38,1.32,1.63,1.63,0.70,0.75,0.81
88.09,-0.39,-0.44,-1.16,-1.21,1.15,1.54,1.54,0.76,0.71,0.77
88.97,-0.24,-0.25,-0.98,-0.98,0.95,1.46,1.45,0.71,0.70,0.74
89.86,-0.07,-0.03,-0.76,-0.73,0.74,1.38,1.36,0.67,0.70,0.69
90.76,0.18,0.17,-0.46,-0.48,0.51,1.30,1.28,0.69,0.68,0.64
91.66,0.39,0.37,-0.22,-0.23,0.30,1.22,1.19,0.69,0.67,0.61
92.58,0.54,0.53,-0.02,-0.03,0.09,1.14,1.11,0.63,0.62,0.56
93.51,0.64,0.63,0.12,0.11,-0.10,1.06,1.03,0.54,0.53,0.52
94.44,0.69,0.72,0.21,0.24,-0.26,0.98,0.95,0.43,0.46,0.48
95.39,0.78,0.80,0.35,0.37,-0.39,0.90,0.87,0.39,0.41,0.43
96.34,0.91,0.87,0.53,0.48,-0.49,0.83,0.79,0.42,0.38,0.38
97.30,0.91,0.91,0.58,0.58,-0.56,0.75,0.71,0.35,0.35,0.33
98.28,0.91,0.93,0.62,0.64,-0.61,0.68,0.64,0.30,0.32,0.29
99.26,0.91,0.92,0.67,0.67,-0.65,0.61,0.56,0.26,0.27,0.24
100.25,0.90,0.87,0.70,0.67,-0.67,0.53,0.49,0.23,0.20,0.20
101.25,0.83,0.81,0.68,0.66,-0.67,0.46,0.41,0.16,0.14,0.15
102.27,0.68,0.74,0.57,0.64,-0.66,0.39,0.34,0.02,0.08,0.11
103.29,0.68,0.66,0.63,0.61,-0.63,0.33,0.27,0.05,0.03,0.05
104.32,0.63,0.60,0.62,0.59,-0.59,0.26,0.20,0.04,0.01,0.01
105.37,0.51,0.54,0.54,0.58,-0.55,0.20,0.13,-0.04,-0.01,-0.03
106.42,0.46,0.45,0.54,0.53,-0.51,0.13,0.07,-0.05,-0.06,-0.08
107.48,0.36,0.34,0.49,0.47,-0.47,0.07,0.00,-0.11,-0.13,-0.13
108.56,0.24,0.22,0.42,0.40,-0.43,0.01,-0.06,-0.19,-0.21,-0.18
109.64,0.08,0.10,0.31,0.33,-0.38,-0.05,-0.12,-0.30,-0.27,-0.23
110.74,0.00,0.05,0.27,0.32,-0.33,-0.10,-0.18,-0.33,-0.28,-0.27
111.85,0.00,-0.01,0.32,0.31,-0.27,-0.16,-0.24,-0.27,-0.28,-0.32
112.97,-0.02,-0.11,0.37,0.27,-0.22,-0.21,-0.30,-0.24,-0.33,-0.39
114.10,-0.27,-0.25,0.16,0.18,-0.17,-0.26,-0.35,-0.44,-0.41,-0.43
115.24,-0.46,-0.37,0.03,0.12,-0.12,-0.31,-0.40,-0.58,-0.49,-0.49
116.39,-0.46,-0.48,0.08,0.06,-0.08,-0.36,-0.45,-0.54,-0.56,-0.54
117.55,-0.47,-0.54,0.12,0.05,-0.06,-0.40,-0.50,-0.53,-0.60,-0.59
118.73,-0.63,-0.59,0.02,0.05,-0.04,-0.44,-0.54,-0.67,-0.64,-0.65
119.92,-0.68,-0.67,0.01,0.03,-0.06,-0.48,-0.58,-0.74,-0.73,-0.69
121.12,-0.68,-0.70,0.06,0.05,-0.10,-0.52,-0.62,-0.78,-0.80,-0.74
122.33,-0.68,-0.65,0.12,0.14,-0.17,-0.55,-0.66,-0.85,-0.82,-0.80
123.55,-0.58,-0.58,0.26,0.26,-0.26,-0.58,-0.69,-0.84,-0.84,-0.84
124.79,-0.47,-0.51,0.42,0.37,-0.36,-0.61,-0.72,-0.84,-0.88,-0.89
126.03,-0.46,-0.43,0.48,0.51,-0.48,-0.64,-0.75,-0.94,-0.92,-0.94
127.29,-0.38,-0.37,0.61,0.63,-0.62,-0.66,-0.78,-1.00,-0.98,-0.99
128.57,-0.28,-0.31,0.77,0.74,-0.75,-0.68,-0.80,-1.03,-1.06,-1.05
129.85,-0.23,-0.23,0.87,0.87,-0.89,-0.70,-0.82,-1.12,-1.11,-1.10
131.15,-0.18,-0.14,0.97,1.00,-1.01,-0.71,-0.84,-1.19,-1.15,-1.15
132.46,-0.05,-0.07,1.14,1.12,-1.12,-0.72,-0.85,-1.17,-1.19,-1.19
133.79,-0.00,-0.02,1.23,1.22,-1.20,-0.73,-0.87,-1.20,-1.22,-1.23
135.12,0.00,0.02,1.29,1.30,-1.27,-0.73,-0.88,-1.27,-1.25,-1.29
136.48,0.00,0.01,1.32,1.33,-1.32,-0.73,-0.89,-1.32,-1.31,-1.32
137.84,-0.00,-0.03,1.36,1.34,-1.33,-0.72,-0.89,-1.33,-1.36,-1.36
139.22,-0.12,-0.11,1.30,1.31,-1.30,-0.72,-0.90,-1.42,-1.41,-1.42
140.61,-0.21,-0.20,1.25,1.25,-1.24,-0.70,-0.90,-1.45,-1.44,-1.46
142.02,-0.34,-0.32,1.14,1.17,-1.15,-0.68,-0.91,-1.49,-1.47,-1.48
143.44,-0.44,-0.46,1.08,1.06,-1.03,-0.64,-0.91,-1.47,-1.49,-1.52
144.87,-0.64,-0.67,0.92,0.90,-0.88,-0.61,-0.91,-1.52,-1.55,-1.56
146.32,-0.90,-0.89,0.70,0.71,-0.72,-0.57,-0.91,-1.62,-1.61,-1.60
147.78,-1.16,-1.11,0.47,0.52,-0.54,-0.52,-0.91,-1.70,-1.66,-1.63
149.26,-1.31,-1.31,0.36,0.36,-0.36,-0.46,-0.91,-1.67,-1.68,-1.67
150.75,-1.47,-1.52,0.25,0.19,-0.18,-0.39,-0.91,-1.65,-1.70,-1.72
152.26,-1.72,-1.72,0.03,0.04,-0.02,-0.32,-0.91,-1.74,-1.74,-1.75
153.78,-1.98,-1.94,-0.19,-0.15,0.13,-0.24,-0.91,-1.85,-1.81,-1.79
155.32,-2.09,-2.12,-0.26,-0.29,0.24,-0.15,-0.91,-1.85,-1.87,-1.83
156.88,-2.26,-2.22,-0.39,-0.35,0.32,-0.07,-0.91,-1.94,-1.90,-1.87
158.44,-2.28,-2.31,-0.37,-0.40,0.37,0.02,-0.91,-1.91,-1.94,-1.91
160.03,-2.34,-2.39,-0.39,-0.43,0.38,0.10,-0.91,-1.96,-2.00,-1.95
161.63,-2.48,-2.39,-0.48,-0.40,0.37,0.16,-0.91,-2.11,-2.02,-2.00
163.24,-2.37,-2.38,-0.33,-0.34,0.34,0.21,-0.91,-2.03,-2.04,-2.04
164.88,-2.28,-2.33,-0.21,-0.26,0.29,0.22,-0.91,-1.99,-2.04,-2.07
166.53,-2.28,-2.27,-0.17,-0.17,0.24,0.23,-0.91,-2.04,-2.03,-2.11
168.19,-2.28,-2.27,-0.14,-0.13,0.19,0.18,-0.91,-2.09,-2.08,-2.14
169.87,-2.28,-2.28,-0.10,-0.10,0.13,0.13,-0.92,-2.15,-2.15,-2.18
171.57,-2.28,-2.28,-0.06,-0.06,0.07,0.04,-0.92,-2.21,-2.21,-2.22
173.29,-2.28,-2.30,-0.03,-0.04,-0.00,-0.05,-0.93,-2.28,-2.30,-2.25
175.02,-2.28,-2.28,0.01,0.01,-0.08,-0.17,-0.93,-2.36,-2.36,-2.29
176.77,-2.28,-2.22,0.05,0.11,-0.16,-0.29,-0.94,-2.44,-2.38,-2.33
178.54,-2.10,-2.12,0.28,0.26,-0.25,-0.42,-0.95,-2.35,-2.37,-2.38
180.32,-1.97,-1.99,0.44,0.43,-0.37,-0.54,-0.95,-2.34,-2.35,-2.41
182.13,-1.87,-1.89,0.57,0.56,-0.50,-0.66,-0.96,-2.37,-2.39,-2.44
183.95,-1.82,-1.84,0.67,0.64,-0.65,-0.79,-0.97,-2.47,-2.49,-2.49
185.79,-1.82,-1.76,0.70,0.76,-0.80,-0.90,-0.98,-2.62,-2.56,-2.52
187.65,-1.66,-1.64,0.90,0.92,-0.96,-1.02,-0.99,-2.62,-2.59,-2.56
189.52,-1.43,-1.48,1.16,1.10,-1.12,-1.13,-1.01,-2.55,-2.60,-2.59
191.42,-1.31,-1.31,1.31,1.31,-1.29,-1.25,-1.02,-2.60,-2.60,-2.62
193.33,-1.19,-1.18,1.46,1.47,-1.47,-1.36,-1.03,-2.66,-2.64,-2.65
195.27,-1.04,-1.06,1.63,1.61,-1.65,-1.48,-1.05,-2.69,-2.72,-2.67
197.22,-0.94,-0.91,1.76,1.80,-1.83,-1.59,-1.06,-2.77,-2.74,-2.70
199.19,-0.77,-0.74,1.97,1.99,-1.98,-1.71,-1.08,-2.75,-2.72,-2.74
201.18,-0.55,-0.59,2.21,2.17,-2.11,-1.83,-1.09,-2.66,-2.70,-2.76
203.19,-0.46,-0.48,2.31,2.29,-2.22,-1.95,-1.11,-2.68,-2.70,-2.77
205.23,-0.46,-0.44,2.34,2.35,-2.30,-2.06,-1.13,-2.76,-2.74,-2.80
207.28,-0.46,-0.45,2.34,2.36,-2.36,-2.17,-1.14,-2.82,-2.81,-2.80
209.35,-0.46,-0.46,2.37,2.37,-2.40,-2.25,-1.16,-2.86,-2.86,-2.83
211.44,-0.46,-0.46,2.39,2.38,-2.43,-2.33,-1.17,-2.89,-2.89,-2.85
213.56,-0.46,-0.46,2.40,2.40,-2.44,-2.37,-1.19,-2.90,-2.90,-2.86
215.69,-0.46,-0.46,2.40,2.40,-2.43,-2.40,-1.20,-2.89,-2.89,-2.86
217.85,-0.46,-0.45,2.41,2.42,-2.42,-2.37,-1.22,-2.88,-2.87,-2.87
220.03,-0.46,-0.45,2.42,2.43,-2.39,-2.34,-1.23,-2.85,-2.84,-2.88
222.23,-0.46,-0.48,2.44,2.41,-2.35,-2.27,-1.25,-2.81,-2.83,-2.90
224.45,-0.56,-0.57,2.33,2.33,-2.29,-2.19,-1.26,-2.85,-2.86,-2.89
226.70,-0.67,-0.68,2.22,2.21,-2.21,-2.09,-1.27,-2.88,-2.89,-2.89
228.96,-0.84,-0.79,2.05,2.10,-2.11,-1.99,-1.28,-2.95,-2.89,-2.89
231.25,-0.89,-0.89,1.99,1.99,-2.00,-1.88,-1.28,-2.89,-2.89,-2.88
233.57,-0.94,-1.00,1.94,1.88,-1.89,-1.77,-1.29,-2.83,-2.88,-2.88
235.90,-1.13,-1.11,1.75,1.77,-1.78,-1.67,-1.30,-2.91,-2.89,-2.88
238.26,-1.25,-1.24,1.63,1.64,-1.68,-1.56,-1.30,-2.93,-2.92,-2.88
240.64,-1.35,-1.34,1.52,1.53,-1.58,-1.47,-1.30,-2.93,-2.92,-2.87
243.05,-1.37,-1.35,1.49,1.50,-1.50,-1.38,-1.30,-2.87,-2.85,-2.86
245.48,-1.37,-1.38,1.47,1.46,-1.42,-1.30,-1.29,-2.79,-2.81,-2.84
247.93,-1.37,-1.44,1.46,1.40,-1.36,-1.23,-1.29,-2.73,-2.79,-2.83
250.41,-1.56,-1.51,1.27,1.31,-1.30,-1.16,-1.28,-2.86,-2.81,-2.83
252.92,-1.60,-1.58,1.21,1.23,-1.26,-1.09,-1.26,-2.86,-2.84,-2.81
255.45,-1.60,-1.62,1.19,1.18,-1.23,-1.03,-1.25,-2.83,-2.84,-2.79
258.00,-1.60,-1.60,1.17,1.17,-1.20,-0.97,-1.24,-2.80,-2.80,-2.77
260.58,-1.60,-1.60,1.16,1.16,-1.17,-0.92,-1.22,-2.77,-2.77,-2.76
263.19,-1.60,-1.60,1.14,1.14,-1.14,-0.87,-1.20,-2.74,-2.74,-2.74
265.82,-1.60,-1.59,1.12,1.13,-1.10,-0.82,-1.17,-2.70,-2.70,-2.72
268.48,-1.60,-1.59,1.10,1.11,-1.06,-0.78,-1.15,-2.66,-2.66,-2.70
271.16,-1.60,-1.63,1.07,1.05,-1.01,-0.74,-1.12,-2.61,-2.64,-2.67
273.87,-1.68,-1.68,0.98,0.98,-0.95,-0.69,-1.09,-2.63,-2.62,-2.66
276.61,-1.80,-1.77,0.84,0.87,-0.86,-0.65,-1.06,-2.66,-2.63,-2.64
279.38,-1.82,-1.87,0.80,0.75,-0.77,-0.62,-1.03,-2.59,-2.65,-2.62
282.17,-1.99,-1.96,0.62,0.65,-0.68,-0.58,-1.00,-2.67,-2.63,-2.61
284.99,-2.05,-2.01,0.53,0.57,-0.58,-0.54,-0.96,-2.63,-2.59,-2.58
287.84,-2.05,-2.09,0.52,0.47,-0.49,-0.51,-0.93,-2.54,-2.58,-2.57
290.72,-2.12,-2.15,0.42,0.39,-0.40,-0.47,-0.89,-2.52,-2.55,-2.54
293.63,-2.26,-2.22,0.26,0.31,-0.31,-0.43,-0.85,-2.57,-2.53,-2.52
296.57,-2.28,-2.26,0.22,0.25,-0.23,-0.40,-0.81,-2.51,-2.49,-2.50
299.53,-2.28,-2.30,0.20,0.18,-0.15,-0.36,-0.77,-2.43,-2.45,-2.48
302.53,-2.29,-2.35,0.18,0.11,-0.08,-0.33,-0.73,-2.37,-2.43,-2.47
305.55,-2.48,-2.43,-0.05,0.01,-0.02,-0.30,-0.69,-2.50,-2.44,-2.43
308.61,-2.51,-2.49,-0.10,-0.08,0.03,-0.26,-0.65,-2.48,-2.46,-2.41
311.69,-2.51,-2.53,-0.12,-0.14,0.08,-0.23,-0.61,-2.43,-2.44,-2.39
314.81,-2.51,-2.51,-0.16,-0.15,0.13,-0.19,-0.57,-2.38,-2.38,-2.35
317.96,-2.51,-2.51,-0.18,-0.17,0.19,-0.16,-0.52,-2.32,-2.32,-2.33
321.14,-2.51,-2.50,-0.19,-0.18,0.24,-0.12,-0.48,-2.27,-2.26,-2.32
324.35,-2.51,-2.52,-0.21,-0.23,0.29,-0.08,-0.44,-2.22,-2.23,-2.30
327.59,-2.54,-2.58,-0.27,-0.31,0.34,-0.05,-0.40,-2.20,-2.25,-2.27
330.87,-2.69,-2.66,-0.43,-0.40,0.38,-0.01,-0.35,-2.31,-2.27,-2.26
334.18,-2.74,-2.72,-0.50,-0.48,0.44,0.03,-0.31,-2.30,-2.28,-2.24
337.52,-2.74,-2.75,-0.52,-0.53,0.49,0.06,-0.27,-2.25,-2.26,-2.22
340.90,-2.74,-2.74,-0.55,-0.55,0.53,0.10,-0.22,-2.21,-2.21,-2.19
344.30,-2.74,-2.74,-0.56,-0.56,0.56,0.14,-0.18,-2.18,-2.18,-2.18
347.75,-2.74,-2.74,-0.58,-0.58,0.58,0.18,-0.14,-2.16,-2.16,-2.16
351.23,-2.74,-2.74,-0.60,-0.60,0.60,0.22,-0.09,-2.14,-2.14,-2.14
354.74,-2.74,-2.74,-0.62,-0.62,0.61,0.26,-0.05,-2.13,-2.13,-2.12
358.28,-2.74,-2.74,-0.63,-0.63,0.64,0.30,-0.01,-2.10,-2.10,-2.11
361.87,-2.74,-2.73,-0.65,-0.64,0.67,0.35,0.03,-2.07,-2.05,-2.09
365.49,-2.74,-2.75,-0.66,-0.67,0.72,0.39,0.08,-2.02,-2.03,-2.08
369.14,-2.76,-2.80,-0.69,-0.73,0.76,0.43,0.12,-2.00,-2.04,-2.07
372.83,-2.90,-2.87,-0.85,-0.82,0.81,0.48,0.16,-2.09,-2.06,-2.05
376.56,-2.96,-2.94,-0.91,-0.90,0.85,0.52,0.20,-2.11,-2.08,-2.05
380.33,-2.96,-2.97,-0.94,-0.95,0.90,0.57,0.25,-2.06,-2.07,-2.02
384.13,-2.96,-2.97,-0.95,-0.96,0.93,0.61,0.29,-2.03,-2.03,-2.01
387.97,-2.96,-2.96,-0.96,-0.96,0.97,0.66,0.33,-1.99,-1.99,-2.00
391.85,-2.96,-2.96,-0.97,-0.97,0.99,0.70,0.37,-1.97,-1.97,-1.99
395.77,-2.96,-2.96,-0.99,-0.98,1.00,0.74,0.41,-1.96,-1.96,-1.97
399.73,-2.96,-2.96,-1.00,-0.99,1.00,0.79,0.45,-1.96,-1.96,-1.96
403.72,-2.96,-2.96,-1.00,-1.01,1.01,0.83,0.49,-1.95,-1.95,-1.96
407.76,-2.96,-2.96,-1.01,-1.02,1.02,0.87,0.53,-1.94,-1.94,-1.95
411.84,-2.96,-2.96,-1.03,-1.03,1.03,0.92,0.57,-1.93,-1.93,-1.93
415.96,-2.96,-2.96,-1.04,-1.04,1.05,0.96,0.61,-1.91,-1.91,-1.92
420.12,-2.96,-2.96,-1.05,-1.05,1.06,1.00,0.65,-1.90,-1.90,-1.91
424.32,-2.96,-2.96,-1.06,-1.06,1.07,1.03,0.69,-1.89,-1.89,-1.90
428.56,-2.96,-2.96,-1.07,-1.07,1.06,1.07,0.72,-1.90,-1.90,-1.89
432.85,-2.96,-2.98,-1.08,-1.09,1.05,1.10,0.76,-1.91,-1.92,-1.88
437.18,-2.96,-2.96,-1.09,-1.09,1.04,1.13,0.79,-1.92,-1.92,-1.87
441.55,-2.96,-2.90,-1.10,-1.04,1.03,1.15,0.82,-1.93,-1.88,-1.86
445.96,-2.80,-2.83,-0.95,-0.99,1.01,1.17,0.85,-1.79,-1.82,-1.85
450.42,-2.74,-2.77,-0.90,-0.93,0.99,1.19,0.88,-1.75,-1.78,-1.84
454.93,-2.74,-2.73,-0.92,-0.91,0.96,1.21,0.91,-1.78,-1.77,-1.82
459.48,-2.74,-2.75,-0.93,-0.94,0.93,1.22,0.93,-1.81,-1.82,-1.81
464.07,-2.74,-2.74,-0.95,-0.95,0.89,1.23,0.96,-1.85,-1.85,-1.79
468.71,-2.74,-2.69,-0.97,-0.92,0.87,1.23,0.98,-1.87,-1.82,-1.77
473.40,-2.60,-2.62,-0.84,-0.86,0.85,1.23,0.99,-1.75,-1.77,-1.76
