frequency,raw,error,smoothed,error_smoothed,equalization,parametric_eq,equalized_raw,equalized_smoothed,target
20.00,-6.16,-4.37,-6.16,-4.37,4.37,1.18,-1.80,-1.80,-1.80
20.20,-6.07,-4.32,-6.08,-4.32,4.32,1.22,-1.75,-1.75,-1.75
20.40,-5.98,-4.27,-5.99,-4.27,4.27,1.26,-1.71,-1.71,-1.71
20.61,-5.91,-4.23,-5.90,-4.23,4.23,1.30,-1.68,-1.67,-1.67
20.81,-5.81,-4.18,-5.81,-4.18,4.18,1.34,-1.63,-1.63,-1.63
21.02,-5.72,-4.13,-5.73,-4.13,4.13,1.38,-1.59,-1.59,-1.59
21.23,-5.63,-4.08,-5.64,-4.09,4.09,1.42,-1.55,-1.55,-1.55
21.44,-5.55,-4.04,-5.55,-4.04,4.04,1.47,-1.52,-1.51,-1.51
21.66,-5.47,-3.99,-5.46,-3.99,3.99,1.51,-1.47,-1.47,-1.47
21.87,-5.37,-3.94,-5.38,-3.94,3.94,1.56,-1.43,-1.43,-1.43
22.09,-5.28,-3.89,-5.29,-3.90,3.90,1.61,-1.39,-1.39,-1.39
22.31,-5.20,-3.85,-5.20,-3.85,3.85,1.66,-1.36,-1.35,-1.35
22.54,-5.12,-3.80,-5.11,-3.80,3.80,1.71,-1.32,-1.31,-1.31
22.76,-5.02,-3.75,-5.03,-3.75,3.75,1.76,-1.27,-1.28,-1.27
22.99,-4.93,-3.70,-4.94,-3.70,3.70,1.82,-1.23,-1.24,-1.24
23.22,-4.85,-3.66,-4.85,-3.65,3.65,1.87,-1.20,-1.20,-1.20
23.45,-4.76,-3.61,-4.76,-3.60,3.60,1.93,-1.16,-1.16,-1.16
23.69,-4.68,-3.56,-4.67,-3.55,3.55,1.99,-1.12,-1.12,-1.12
23.92,-4.58,-3.50,-4.58,-3.50,3.50,2.04,-1.08,-1.08,-1.08
24.16,-4.49,-3.45,-4.50,-3.45,3.45,2.10,-1.04,-1.04,-1.04
24.40,-4.40,-3.40,-4.41,-3.41,3.41,2.16,-1.00,-1.00,-1.00
24.65,-4.33,-3.36,-4.32,-3.36,3.36,2.22,-0.97,-0.96,-0.96
24.89,-4.23,-3.31,-4.23,-3.31,3.31,2.28,-0.93,-0.93,-0.93
25.14,-4.14,-3.25,-4.15,-3.26,3.26,2.35,-0.89,-0.89,-0.89
25.39,-4.05,-3.20,-4.06,-3.21,3.21,2.41,-0.85,-0.85,-0.85
25.65,-3.98,-3.16,-3.97,-3.16,3.16,2.47,-0.82,-0.81,-0.81
25.91,-3.89,-3.11,-3.89,-3.11,3.11,2.53,-0.78,-0.78,-0.78
26.16,-3.80,-3.06,-3.80,-3.06,3.06,2.59,-0.74,-0.74,-0.74
26.43,-3.72,-3.01,-3.72,-3.01,3.01,2.65,-0.71,-0.71,-0.71
26.69,-3.63,-2.96,-3.63,-2.96,2.96,2.71,-0.67,-0.67,-0.67
26.96,-3.55,-2.91,-3.55,-2.91,2.91,2.77,-0.63,-0.64,-0.64
27.23,-3.47,-2.86,-3.47,-2.86,2.86,2.83,-0.60,-0.60,-0.60
27.50,-3.38,-2.82,-3.38,-2.82,2.82,2.88,-0.57,-0.57,-0.57
27.77,-3.30,-2.77,-3.30,-2.77,2.77,2.93,-0.54,-0.54,-0.53
28.05,-3.22,-2.72,-3.22,-2.72,2.72,2.98,-0.51,-0.50,-0.50
28.33,-3.14,-2.67,-3.14,-2.67,2.67,3.02,-0.47,-0.47,-0.47
28.62,-3.07,-2.63,-3.06,-2.62,2.62,3.07,-0.44,-0.44,-0.44
28.90,-2.98,-2.58,-2.98,-2.58,2.58,3.10,-0.41,-0.41,-0.41
29.19,-2.90,-2.53,-2.90,-2.53,2.53,3.14,-0.38,-0.37,-0.37
29.48,-2.82,-2.48,-2.83,-2.48,2.48,3.17,-0.34,-0.34,-0.34
29.78,-2.75,-2.43,-2.75,-2.44,2.44,3.19,-0.31,-0.31,-0.31
30.08,-2.67,-2.38,-2.68,-2.40,2.40,3.21,-0.27,-0.29,-0.28
30.38,-2.61,-2.35,-2.61,-2.35,2.35,3.22,-0.25,-0.26,-0.26
30.68,-2.53,-2.31,-2.54,-2.31,2.31,3.23,-0.23,-0.23,-0.23
30.99,-2.47,-2.26,-2.47,-2.27,2.27,3.23,-0.20,-0.20,-0.20
31.30,-2.41,-2.23,-2.40,-2.23,2.23,3.23,-0.18,-0.18,-0.18
31.61,-2.34,-2.19,-2.34,-2.18,2.18,3.22,-0.16,-0.15,-0.15
31.93,-2.28,-2.15,-2.27,-2.14,2.14,3.20,-0.13,-0.13,-0.13
32.24,-2.21,-2.11,-2.21,-2.10,2.10,3.18,-0.11,-0.11,-0.10
32.57,-2.16,-2.07,-2.14,-2.06,2.06,3.15,-0.10,-0.08,-0.08
32.89,-2.08,-2.02,-2.08,-2.02,2.02,3.12,-0.07,-0.06,-0.06
33.22,-2.02,-1.98,-2.02,-1.97,1.97,3.08,-0.05,-0.04,-0.04
33.55,-1.95,-1.93,-1.96,-1.93,1.93,3.04,-0.02,-0.03,-0.02
33.89,-1.88,-1.88,-1.89,-1.89,1.89,2.99,0.00,-0.01,-0.00
34.23,-1.82,-1.84,-1.83,-1.84,1.84,2.94,0.02,0.01,0.01
34.57,-1.76,-1.79,-1.77,-1.80,1.80,2.88,0.03,0.03,0.03
34.92,-1.71,-1.75,-1.71,-1.75,1.75,2.82,0.05,0.04,0.04
35.27,-1.66,-1.71,-1.65,-1.71,1.71,2.76,0.05,0.06,0.06
35.62,-1.59,-1.67,-1.59,-1.66,1.66,2.70,0.07,0.07,0.07
35.97,-1.53,-1.62,-1.53,-1.62,1.62,2.63,0.08,0.08,0.08
36.33,-1.48,-1.58,-1.48,-1.57,1.57,2.56,0.09,0.09,0.09
36.70,-1.43,-1.53,-1.42,-1.52,1.52,2.48,0.10,0.10,0.10
37.06,-1.36,-1.48,-1.37,-1.48,1.48,2.41,0.11,0.11,0.11
37.43,-1.30,-1.43,-1.31,-1.43,1.43,2.34,0.13,0.12,0.12
37.81,-1.25,-1.38,-1.26,-1.38,1.38,2.26,0.13,0.12,0.13
38.19,-1.20,-1.34,-1.20,-1.33,1.33,2.18,0.13,0.13,0.13
38.57,-1.15,-1.29,-1.15,-1.29,1.29,2.11,0.13,0.14,0.14
38.95,-1.10,-1.24,-1.10,-1.24,1.24,2.03,0.14,0.14,0.14
39.34,-1.04,-1.19,-1.05,-1.19,1.19,1.95,0.15,0.14,0.14
39.74,-0.99,-1.14,-1.00,-1.14,1.14,1.87,0.15,0.15,0.15
40.14,-0.95,-1.09,-0.95,-1.10,1.10,1.80,0.15,0.15,0.15
40.54,-0.90,-1.05,-0.90,-1.05,1.05,1.72,0.15,0.15,0.15
40.94,-0.85,-1.00,-0.86,-1.00,1.00,1.64,0.15,0.15,0.15
41.35,-0.80,-0.95,-0.81,-0.96,0.96,1.57,0.15,0.15,0.15
41.76,-0.76,-0.91,-0.76,-0.91,0.91,1.49,0.15,0.15,0.15
42.18,-0.71,-0.86,-0.72,-0.87,0.87,1.42,0.15,0.15,0.15
42.60,-0.67,-0.82,-0.67,-0.82,0.82,1.35,0.15,0.15,0.15
43.03,-0.63,-0.78,-0.63,-0.78,0.78,1.27,0.14,0.15,0.15
43.46,-0.58,-0.73,-0.58,-0.73,0.73,1.20,0.15,0.15,0.15
43.90,-0.55,-0.69,-0.54,-0.69,0.69,1.13,0.14,0.15,0.15
44.33,-0.50,-0.65,-0.50,-0.64,0.64,1.06,0.14,0.15,0.15
44.78,-0.45,-0.60,-0.45,-0.60,0.60,0.99,0.14,0.15,0.15
45.23,-0.41,-0.55,-0.41,-0.56,0.56,0.92,0.15,0.15,0.15
45.68,-0.36,-0.51,-0.37,-0.51,0.51,0.86,0.15,0.15,0.15
46.13,-0.31,-0.46,-0.32,-0.47,0.47,0.79,0.16,0.15,0.15
46.60,-0.28,-0.43,-0.28,-0.43,0.43,0.72,0.16,0.15,0.15
47.06,-0.23,-0.39,-0.24,-0.39,0.39,0.66,0.16,0.15,0.15
47.53,-0.19,-0.35,-0.19,-0.35,0.35,0.59,0.16,0.16,0.16
48.01,-0.15,-0.31,-0.15,-0.31,0.31,0.53,0.16,0.16,0.16
48.49,-0.11,-0.28,-0.11,-0.28,0.28,0.47,0.16,0.16,0.16
48.97,-0.07,-0.24,-0.07,-0.24,0.24,0.41,0.17,0.17,0.17
49.46,-0.03,-0.21,-0.03,-0.20,0.20,0.35,0.17,0.17,0.17
49.96,0.01,-0.17,0.01,-0.17,0.17,0.28,0.17,0.18,0.18
50.46,0.05,-0.14,0.05,-0.14,0.14,0.23,0.18,0.18,0.18
50.96,0.10,-0.09,0.09,-0.10,0.10,0.17,0.20,0.19,0.19
51.47,0.13,-0.07,0.12,-0.07,0.07,0.11,0.19,0.19,0.19
51.99,0.17,-0.03,0.16,-0.03,0.03,0.05,0.20,0.19,0.20
52.51,0.20,0.00,0.20,0.00,-0.00,-0.01,0.20,0.20,0.20
53.03,0.24,0.03,0.24,0.04,-0.04,-0.06,0.20,0.20,0.20
53.56,0.28,0.07,0.28,0.07,-0.07,-0.12,0.20,0.21,0.21
54.10,0.32,0.11,0.32,0.11,-0.11,-0.17,0.20,0.21,0.21
54.64,0.36,0.14,0.36,0.15,-0.15,-0.22,0.21,0.21,0.21
55.18,0.40,0.19,0.39,0.19,-0.19,-0.27,0.21,0.21,0.21
55.74,0.44,0.23,0.43,0.23,-0.23,-0.33,0.21,0.20,0.21
56.29,0.48,0.27,0.47,0.27,-0.27,-0.38,0.20,0.20,0.21
56.86,0.52,0.31,0.51,0.31,-0.31,-0.43,0.20,0.20,0.20
57.42,0.56,0.36,0.55,0.36,-0.36,-0.47,0.20,0.19,0.20
58.00,0.60,0.40,0.59,0.41,-0.41,-0.52,0.19,0.19,0.19
58.58,0.63,0.44,0.63,0.45,-0.45,-0.57,0.17,0.18,0.18
59.16,0.67,0.49,0.67,0.50,-0.50,-0.61,0.16,0.17,0.17
59.76,0.71,0.54,0.71,0.55,-0.55,-0.66,0.15,0.16,0.17
60.35,0.76,0.60,0.75,0.60,-0.60,-0.70,0.15,0.15,0.16
60.96,0.81,0.66,0.80,0.65,-0.65,-0.74,0.15,0.15,0.15
61.57,0.85,0.71,0.84,0.70,-0.70,-0.78,0.14,0.14,0.14
62.18,0.89,0.76,0.88,0.75,-0.75,-0.82,0.13,0.13,0.13
62.80,0.93,0.81,0.92,0.81,-0.81,-0.86,0.12,0.12,0.12
63.43,0.97,0.86,0.96,0.86,-0.86,-0.90,0.11,0.11,0.11
64.07,1.00,0.90,1.01,0.91,-0.91,-0.94,0.09,0.10,0.10
64.71,1.05,0.95,1.05,0.96,-0.96,-0.97,0.09,0.09,0.09
65.35,1.09,1.00,1.10,1.01,-1.01,-1.01,0.08,0.09,0.08
66.01,1.14,1.06,1.14,1.06,-1.06,-1.04,0.08,0.08,0.08
66.67,1.19,1.11,1.18,1.11,-1.11,-1.07,0.08,0.07,0.07
67.33,1.23,1.16,1.22,1.15,-1.15,-1.11,0.07,0.07,0.07
68.01,1.26,1.19,1.26,1.20,-1.20,-1.14,0.06,0.06,0.06
68.69,1.31,1.25,1.30,1.24,-1.24,-1.17,0.06,0.06,0.06
69.37,1.35,1.29,1.34,1.28,-1.28,-1.21,0.06,0.05,0.06
70.07,1.39,1.33,1.38,1.33,-1.33,-1.24,0.06,0.05,0.05
70.77,1.43,1.38,1.41,1.37,-1.37,-1.27,0.06,0.05,0.05
71.48,1.46,1.41,1.45,1.41,-1.41,-1.30,0.05,0.04,0.05
72.19,1.49,1.44,1.49,1.45,-1.45,-1.33,0.04,0.04,0.04
72.91,1.52,1.47,1.52,1.49,-1.49,-1.37,0.03,0.03,0.04
73.64,1.55,1.51,1.56,1.53,-1.53,-1.40,0.02,0.03,0.04
74.38,1.59,1.55,1.59,1.57,-1.57,-1.44,0.02,0.03,0.03
75.12,1.63,1.60,1.63,1.61,-1.61,-1.47,0.02,0.02,0.03
75.87,1.66,1.63,1.66,1.64,-1.64,-1.51,0.01,0.02,0.03
76.63,1.70,1.67,1.70,1.68,-1.68,-1.54,0.01,0.02,0.02
77.40,1.73,1.71,1.73,1.72,-1.72,-1.58,0.01,0.01,0.02
78.17,1.77,1.75,1.76,1.76,-1.76,-1.62,0.01,0.01,0.01
78.95,1.81,1.80,1.80,1.79,-1.79,-1.66,0.01,0.01,0.01
79.74,1.84,1.83,1.83,1.82,-1.82,-1.70,0.01,0.01,0.01
80.54,1.87,1.86,1.86,1.86,-1.86,-1.74,0.01,0.01,0.00
81.35,1.90,1.89,1.89,1.88,-1.88,-1.79,0.01,0.01,0.00
82.16,1.92,1.91,1.92,1.91,-1.91,-1.83,0.01,0.01,0.00
82.98,1.94,1.93,1.94,1.93,-1.93,-1.88,0.01,0.01,0.00
83.81,1.96,1.95,1.96,1.94,-1.94,-1.93,0.01,0.01,0.01
84.65,1.98,1.97,1.97,1.96,-1.96,-1.98,0.02,0.02,0.01
85.50,2.00,1.98,1.98,1.97,-1.97,-2.03,0.03,0.02,0.01
86.35,2.02,2.00,1.99,1.98,-1.98,-2.09,0.04,0.01,0.01
87.22,2.03,2.01,1.99,1.98,-1.98,-2.14,0.04,0.01,0.02
88.09,2.03,2.01,2.00,1.99,-1.99,-2.20,0.04,0.01,0.02
88.97,2.02,2.00,2.00,2.00,-2.00,-2.26,0.02,0.00,0.02
89.86,2.00,1.98,2.01,2.01,-2.01,-2.32,-0.01,-0.00,0.02
90.76,1.99,1.97,2.01,2.02,-2.02,-2.38,-0.04,-0.01,0.01
91.66,2.00,1.99,2.02,2.04,-2.04,-2.45,-0.05,-0.02,0.00
92.58,2.01,2.02,2.03,2.06,-2.06,-2.51,-0.06,-0.03,-0.01
93.51,2.02,2.04,2.04,2.09,-2.09,-2.58,-0.08,-0.05,-0.03
94.44,2.04,2.08,2.06,2.13,-2.13,-2.65,-0.10,-0.07,-0.05
95.39,2.07,2.14,2.08,2.18,-2.18,-2.72,-0.11,-0.10,-0.07
96.34,2.10,2.20,2.10,2.23,-2.23,-2.79,-0.13,-0.12,-0.10
97.30,2.13,2.26,2.13,2.28,-2.28,-2.86,-0.16,-0.15,-0.13
98.28,2.17,2.33,2.16,2.34,-2.34,-2.94,-0.18,-0.18,-0.17
99.26,2.20,2.40,2.19,2.41,-2.41,-3.01,-0.21,-0.22,-0.21
100.25,2.24,2.48,2.22,2.47,-2.47,-3.09,-0.24,-0.25,-0.25
101.25,2.27,2.55,2.25,2.54,-2.54,-3.17,-0.27,-0.29,-0.29
102.27,2.29,2.62,2.27,2.60,-2.60,-3.24,-0.31,-0.33,-0.33
103.29,2.30,2.67,2.29,2.66,-2.66,-3.32,-0.37,-0.37,-0.38
104.32,2.32,2.74,2.30,2.72,-2.72,-3.40,-0.41,-0.42,-0.42
105.37,2.34,2.80,2.31,2.78,-2.78,-3.47,-0.44,-0.46,-0.47
106.42,2.35,2.86,2.32,2.83,-2.83,-3.55,-0.48,-0.51,-0.51
107.48,2.36,2.91,2.33,2.88,-2.88,-3.62,-0.52,-0.55,-0.55
108.56,2.35,2.94,2.33,2.93,-2.93,-3.69,-0.58,-0.60,-0.59
109.64,2.33,2.96,2.33,2.97,-2.97,-3.76,-0.64,-0.64,-0.63
110.74,2.32,2.98,2.34,3.01,-3.01,-3.83,-0.69,-0.67,-0.67
111.85,2.32,3.01,2.34,3.05,-3.05,-3.89,-0.73,-0.71,-0.70
112.97,2.33,3.06,2.35,3.09,-3.09,-3.95,-0.76,-0.74,-0.73
114.10,2.34,3.09,2.36,3.13,-3.13,-4.00,-0.79,-0.76,-0.76
115.24,2.36,3.14,2.38,3.17,-3.17,-4.05,-0.81,-0.79,-0.78
116.39,2.38,3.18,2.40,3.21,-3.21,-4.10,-0.83,-0.81,-0.80
117.55,2.41,3.23,2.42,3.25,-3.25,-4.13,-0.84,-0.83,-0.82
118.73,2.44,3.27,2.45,3.29,-3.29,-4.17,-0.85,-0.84,-0.84
119.92,2.49,3.33,2.47,3.33,-3.33,-4.19,-0.84,-0.85,-0.85
121.12,2.52,3.37,2.50,3.37,-3.37,-4.21,-0.85,-0.86,-0.86
122.33,2.54,3.40,2.53,3.40,-3.40,-4.22,-0.87,-0.87,-0.87
123.55,2.57,3.44,2.56,3.44,-3.44,-4.22,-0.87,-0.88,-0.88
124.79,2.61,3.49,2.59,3.47,-3.47,-4.22,-0.87,-0.88,-0.88
126.03,2.64,3.52,2.61,3.50,-3.50,-4.21,-0.87,-0.89,-0.89
127.29,2.65,3.54,2.63,3.53,-3.53,-4.19,-0.88,-0.89,-0.89
128.57,2.67,3.56,2.65,3.55,-3.55,-4.16,-0.89,-0.90,-0.90
129.85,2.68,3.58,2.66,3.57,-3.57,-4.12,-0.90,-0.91,-0.90
131.15,2.68,3.59,2.68,3.59,-3.59,-4.08,-0.92,-0.92,-0.91
132.46,2.67,3.58,2.68,3.61,-3.61,-4.03,-0.94,-0.92,-0.92
133.79,2.67,3.59,2.68,3.62,-3.62,-3.98,-0.95,-0.93,-0.93
135.12,2.67,3.60,2.68,3.63,-3.63,-3.92,-0.96,-0.94,-0.94
136.48,2.68,3.62,2.68,3.64,-3.64,-3.85,-0.96,-0.96,-0.95
137.84,2.68,3.64,2.67,3.64,-3.64,-3.78,-0.97,-0.97,-0.96
139.22,2.68,3.65,2.66,3.64,-3.64,-3.70,-0.97,-0.98,-0.98
140.61,2.67,3.66,2.65,3.65,-3.65,-3.62,-0.98,-1.00,-0.99
142.02,2.64,3.65,2.63,3.65,-3.65,-3.53,-1.01,-1.02,-1.01
143.44,2.63,3.66,2.62,3.65,-3.65,-3.44,-1.02,-1.03,-1.03
144.87,2.59,3.64,2.59,3.65,-3.65,-3.35,-1.06,-1.05,-1.05
146.32,2.57,3.64,2.57,3.64,-3.64,-3.25,-1.08,-1.07,-1.07
147.78,2.54,3.63,2.54,3.63,-3.63,-3.16,-1.10,-1.09,-1.09
149.26,2.52,3.63,2.51,3.63,-3.63,-3.06,-1.11,-1.12,-1.11
150.75,2.49,3.62,2.48,3.62,-3.62,-2.96,-1.13,-1.14,-1.14
152.26,2.45,3.60,2.44,3.61,-3.61,-2.86,-1.16,-1.16,-1.16
153.78,2.40,3.58,2.41,3.59,-3.59,-2.76,-1.20,-1.19,-1.18
155.32,2.37,3.57,2.37,3.58,-3.58,-2.65,-1.21,-1.21,-1.21
156.88,2.32,3.54,2.33,3.56,-3.56,-2.55,-1.24,-1.23,-1.23
158.44,2.28,3.53,2.28,3.54,-3.54,-2.45,-1.27,-1.26,-1.25
160.03,2.22,3.49,2.24,3.52,-3.52,-2.35,-1.30,-1.28,-1.27
161.63,2.19,3.48,2.19,3.49,-3.49,-2.25,-1.31,-1.30,-1.30
163.24,2.16,3.47,2.14,3.46,-3.46,-2.14,-1.31,-1.32,-1.32
164.88,2.10,3.44,2.09,3.43,-3.43,-2.04,-1.33,-1.34,-1.34
166.53,2.05,3.41,2.03,3.39,-3.39,-1.95,-1.34,-1.36,-1.36
168.19,1.99,3.37,1.97,3.35,-3.35,-1.85,-1.36,-1.38,-1.38
169.87,1.91,3.30,1.90,3.30,-3.30,-1.75,-1.39,-1.39,-1.40
171.57,1.84,3.25,1.84,3.25,-3.25,-1.65,-1.41,-1.41,-1.41
173.29,1.78,3.20,1.77,3.19,-3.19,-1.56,-1.41,-1.42,-1.42
175.02,1.68,3.11,1.69,3.12,-3.12,-1.46,-1.45,-1.43,-1.43
176.77,1.62,3.06,1.62,3.06,-3.06,-1.37,-1.44,-1.44,-1.44
178.54,1.55,2.99,1.54,2.98,-2.98,-1.27,-1.44,-1.44,-1.45
180.32,1.47,2.92,1.46,2.91,-2.91,-1.18,-1.44,-1.45,-1.45
182.13,1.39,2.84,1.37,2.82,-2.82,-1.09,-1.44,-1.45,-1.45
183.95,1.27,2.72,1.29,2.74,-2.74,-1.00,-1.47,-1.45,-1.45
185.79,1.19,2.63,1.20,2.65,-2.65,-0.91,-1.47,-1.45,-1.45
187.65,1.11,2.55,1.12,2.56,-2.56,-0.83,-1.46,-1.45,-1.45
189.52,1.04,2.48,1.03,2.47,-2.47,-0.74,-1.44,-1.44,-1.44
191.42,0.95,2.38,0.94,2.38,-2.38,-0.65,-1.43,-1.44,-1.44
193.33,0.86,2.29,0.85,2.28,-2.28,-0.57,-1.43,-1.44,-1.43
195.27,0.77,2.20,0.75,2.19,-2.19,-0.49,-1.42,-1.43,-1.43
197.22,0.67,2.09,0.66,2.09,-2.09,-0.41,-1.42,-1.43,-1.43
199.19,0.57,1.99,0.56,1.99,-1.99,-0.32,-1.43,-1.43,-1.43
201.18,0.47,1.89,0.46,1.90,-1.90,-0.25,-1.43,-1.43,-1.43
203.19,0.37,1.79,0.37,1.81,-1.81,-0.17,-1.44,-1.44,-1.43
205.23,0.27,1.69,0.28,1.71,-1.71,-0.09,-1.45,-1.44,-1.43
207.28,0.18,1.61,0.18,1.62,-1.62,-0.02,-1.45,-1.44,-1.43
209.35,0.08,1.51,0.08,1.53,-1.53,0.06,-1.46,-1.45,-1.44
211.44,-0.02,1.42,-0.01,1.45,-1.45,0.13,-1.47,-1.46,-1.45
213.56,-0.11,1.34,-0.11,1.36,-1.36,0.20,-1.48,-1.47,-1.46
215.69,-0.21,1.25,-0.20,1.28,-1.28,0.27,-1.49,-1.48,-1.47
217.85,-0.32,1.16,-0.30,1.19,-1.19,0.33,-1.52,-1.49,-1.48
220.03,-0.38,1.11,-0.39,1.11,-1.11,0.40,-1.50,-1.50,-1.49
222.23,-0.47,1.03,-0.49,1.03,-1.03,0.46,-1.50,-1.51,-1.51
224.45,-0.57,0.95,-0.59,0.94,-0.94,0.52,-1.52,-1.53,-1.52
226.70,-0.68,0.86,-0.69,0.86,-0.86,0.57,-1.54,-1.54,-1.54
228.96,-0.80,0.75,-0.79,0.77,-0.77,0.62,-1.57,-1.56,-1.56
231.25,-0.88,0.69,-0.91,0.67,-0.67,0.67,-1.56,-1.58,-1.58
233.57,-1.00,0.59,-1.02,0.57,-0.57,0.72,-1.58,-1.59,-1.59
235.90,-1.13,0.48,-1.14,0.47,-0.47,0.76,-1.60,-1.61,-1.61
238.26,-1.25,0.37,-1.27,0.36,-0.36,0.80,-1.61,-1.62,-1.63
240.64,-1.40,0.24,-1.40,0.24,-0.24,0.84,-1.64,-1.64,-1.64
243.05,-1.52,0.13,-1.54,0.11,-0.11,0.87,-1.64,-1.65,-1.66
245.48,-1.66,0.01,-1.68,-0.02,0.02,0.90,-1.65,-1.67,-1.67
247.93,-1.85,-0.17,-1.83,-0.16,0.16,0.92,-1.70,-1.68,-1.68
250.41,-1.97,-0.29,-1.99,-0.30,0.30,0.94,-1.67,-1.68,-1.69
252.92,-2.16,-0.47,-2.15,-0.46,0.46,0.96,-1.71,-1.69,-1.69
255.45,-2.31,-0.62,-2.31,-0.62,0.62,0.97,-1.70,-1.70,-1.70
258.00,-2.45,-0.75,-2.48,-0.78,0.78,0.98,-1.67,-1.70,-1.70
260.58,-2.64,-0.94,-2.65,-0.95,0.95,0.98,-1.69,-1.70,-1.70
263.19,-2.80,-1.10,-2.83,-1.13,1.13,0.98,-1.68,-1.70,-1.71
265.82,-3.01,-1.31,-3.01,-1.31,1.31,0.98,-1.71,-1.70,-1.70
268.48,-3.16,-1.46,-3.19,-1.49,1.49,0.98,-1.67,-1.69,-1.70
271.16,-3.32,-1.63,-3.37,-1.67,1.67,0.97,-1.65,-1.69,-1.70
273.87,-3.55,-1.87,-3.54,-1.86,1.86,0.96,-1.70,-1.68,-1.69
276.61,-3.72,-2.05,-3.71,-2.04,2.04,0.94,-1.69,-1.67,-1.68
279.38,-3.87,-2.21,-3.88,-2.21,2.21,0.93,-1.66,-1.67,-1.66
282.17,-4.02,-2.38,-4.04,-2.38,2.38,0.91,-1.64,-1.66,-1.65
284.99,-4.16,-2.53,-4.19,-2.54,2.54,0.89,-1.62,-1.65,-1.64
287.84,-4.34,-2.72,-4.33,-2.69,2.69,0.87,-1.65,-1.63,-1.62
290.72,-4.47,-2.87,-4.45,-2.83,2.83,0.84,-1.65,-1.62,-1.60
293.63,-4.58,-3.00,-4.56,-2.95,2.95,0.82,-1.64,-1.61,-1.59
296.57,-4.66,-3.09,-4.64,-3.05,3.05,0.79,-1.61,-1.59,-1.57
299.53,-4.73,-3.18,-4.72,-3.14,3.14,0.76,-1.60,-1.58,-1.56
302.53,-4.78,-3.24,-4.77,-3.20,3.20,0.73,-1.58,-1.56,-1.54
305.55,-4.81,-3.29,-4.80,-3.25,3.25,0.71,-1.57,-1.55,-1.52
308.61,-4.82,-3.32,-4.81,-3.28,3.28,0.67,-1.55,-1.53,-1.51
311.69,-4.81,-3.32,-4.80,-3.28,3.28,0.64,-1.53,-1.51,-1.49
314.81,-4.78,-3.31,-4.76,-3.27,3.27,0.61,-1.51,-1.49,-1.47
317.96,-4.73,-3.28,-4.71,-3.24,3.24,0.58,-1.49,-1.47,-1.46
321.14,-4.65,-3.21,-4.64,-3.19,3.19,0.55,-1.46,-1.45,-1.44
324.35,-4.56,-3.14,-4.56,-3.13,3.13,0.52,-1.43,-1.43,-1.42
327.59,-4.45,-3.05,-4.46,-3.05,3.05,0.49,-1.40,-1.40,-1.40
330.87,-4.35,-2.98,-4.35,-2.97,2.97,0.46,-1.39,-1.38,-1.38
334.18,-4.23,-2.88,-4.22,-2.87,2.87,0.42,-1.37,-1.36,-1.36
337.52,-4.07,-2.74,-4.09,-2.76,2.76,0.39,-1.31,-1.33,-1.33
340.90,-3.94,-2.64,-3.96,-2.65,2.65,0.36,-1.29,-1.31,-1.31
344.30,-3.78,-2.50,-3.81,-2.53,2.53,0.33,-1.25,-1.28,-1.28
347.75,-3.65,-2.40,-3.66,-2.41,2.41,0.30,-1.24,-1.25,-1.26
351.23,-3.50,-2.28,-3.52,-2.29,2.29,0.27,-1.21,-1.23,-1.23
354.74,-3.36,-2.16,-3.37,-2.17,2.17,0.24,-1.20,-1.20,-1.21
358.28,-3.21,-2.03,-3.22,-2.04,2.04,0.21,-1.17,-1.18,-1.18
361.87,-3.07,-1.92,-3.08,-1.92,1.92,0.18,-1.15,-1.15,-1.16
365.49,-2.91,-1.78,-2.93,-1.80,1.80,0.15,-1.12,-1.13,-1.13
369.14,-2.77,-1.66,-2.79,-1.68,1.68,0.12,-1.10,-1.11,-1.11
372.83,-2.64,-1.55,-2.65,-1.56,1.56,0.09,-1.09,-1.09,-1.09
376.56,-2.49,-1.42,-2.51,-1.44,1.44,0.07,-1.06,-1.08,-1.07
380.33,-2.36,-1.31,-2.38,-1.32,1.32,0.04,-1.05,-1.06,-1.05
384.13,-2.24,-1.21,-2.24,-1.19,1.19,0.01,-1.05,-1.04,-1.04
387.97,-2.11,-1.09,-2.10,-1.07,1.07,-0.02,-1.04,-1.03,-1.02
391.85,-1.98,-0.97,-1.97,-0.95,0.95,-0.04,-1.03,-1.02,-1.01
395.77,-1.86,-0.86,-1.84,-0.83,0.83,-0.07,-1.04,-1.01,-1.00
399.73,-1.72,-0.73,-1.71,-0.71,0.71,-0.10,-1.02,-1.01,-0.99
403.72,-1.58,-0.59,-1.59,-0.58,0.58,-0.12,-1.00,-1.00,-0.99
407.76,-1.46,-0.47,-1.46,-0.46,0.46,-0.15,-1.01,-1.00,-0.99
411.84,-1.33,-0.34,-1.33,-0.33,0.33,-0.17,-1.00,-1.00,-0.99
415.96,-1.19,-0.20,-1.21,-0.21,0.21,-0.20,-0.99,-1.00,-1.00
420.12,-1.07,-0.07,-1.09,-0.08,0.08,-0.22,-0.99,-1.01,-1.00
424.32,-0.97,0.03,-0.97,0.04,-0.04,-0.25,-1.01,-1.01,-1.01
428.56,-0.87,0.14,-0.86,0.16,-0.16,-0.27,-1.03,-1.02,-1.02
432.85,-0.75,0.27,-0.75,0.27,-0.27,-0.30,-1.03,-1.02,-1.03
437.18,-0.63,0.40,-0.65,0.38,-0.38,-0.32,-1.02,-1.03,-1.04
441.55,-0.54,0.50,-0.55,0.49,-0.49,-0.34,-1.04,-1.04,-1.05
445.96,-0.44,0.61,-0.45,0.59,-0.59,-0.36,-1.04,-1.04,-1.05
450.42,-0.35,0.70,-0.36,0.69,-0.69,-0.39,-1.05,-1.05,-1.06
454.93,-0.28,0.78,-0.27,0.78,-0.78,-0.41,-1.07,-1.06,-1.06
459.48,-0.19,0.87,-0.19,0.87,-0.87,-0.43,-1.06,-1.06,-1.07
464.07,-0.11,0.96,-0.12,0.95,-0.95,-0.45,-1.06,-1.07,-1.07
468.71,-0.05,1.02,-0.05,1.02,-1.02,-0.47,-1.08,-1.07,-1.07
473.40,0.03,1.10,0.01,1.09,-1.09,-0.48,-1.07,-1.08,-1.07
478.13,0.10,1.17,0.07,1.15,-1.15,-0.50,-1.06,-1.08,-1.07
482.91,0.15,1.22,0.13,1.21,-1.21,-0.52,-1.07,-1.08,-1.08
487.74,0.20,1.27,0.18,1.26,-1.26,-0.54,-1.07,-1.08,-1.08
492.62,0.23,1.30,0.23,1.31,-1.31,-0.55,-1.09,-1.08,-1.08
497.55,0.27,1.34,0.28,1.36,-1.36,-0.57,-1.09,-1.08,-1.08
502.52,0.31,1.38,0.32,1.40,-1.40,-0.58,-1.09,-1.08,-1.07
507.55,0.35,1.42,0.36,1.43,-1.43,-0.59,-1.09,-1.07,-1.07
512.62,0.39,1.45,0.40,1.47,-1.47,-0.61,-1.08,-1.06,-1.07
517.75,0.43,1.48,0.44,1.50,-1.50,-0.62,-1.07,-1.06,-1.06
522.93,0.48,1.52,0.48,1.52,-1.52,-0.63,-1.05,-1.04,-1.05
528.16,0.52,1.55,0.51,1.54,-1.54,-0.64,-1.03,-1.03,-1.03
533.44,0.56,1.58,0.55,1.56,-1.56,-0.65,-1.01,-1.02,-1.02
538.77,0.59,1.59,0.58,1.58,-1.58,-0.66,-0.99,-1.00,-1.00
544.16,0.61,1.59,0.61,1.59,-1.59,-0.67,-0.99,-0.98,-0.99
549.60,0.64,1.60,0.64,1.60,-1.60,-0.68,-0.97,-0.97,-0.97
555.10,0.66,1.60,0.66,1.61,-1.61,-0.69,-0.95,-0.95,-0.95
560.65,0.69,1.62,0.68,1.61,-1.61,-0.70,-0.93,-0.93,-0.93
566.25,0.71,1.62,0.69,1.62,-1.62,-0.71,-0.91,-0.92,-0.92
571.92,0.73,1.63,0.71,1.61,-1.61,-0.72,-0.89,-0.91,-0.90
577.64,0.74,1.62,0.71,1.61,-1.61,-0.73,-0.88,-0.90,-0.89
583.41,0.74,1.61,0.72,1.61,-1.61,-0.74,-0.87,-0.89,-0.87
589.25,0.73,1.59,0.72,1.60,-1.60,-0.75,-0.87,-0.88,-0.86
595.14,0.72,1.57,0.72,1.59,-1.59,-0.76,-0.87,-0.87,-0.86
601.09,0.71,1.56,0.72,1.58,-1.58,-0.77,-0.87,-0.86,-0.85
607.10,0.71,1.55,0.72,1.57,-1.57,-0.78,-0.86,-0.85,-0.84
613.17,0.71,1.54,0.72,1.56,-1.56,-0.79,-0.85,-0.84,-0.84
619.30,0.71,1.54,0.71,1.54,-1.54,-0.80,-0.84,-0.83,-0.83
625.50,0.71,1.53,0.71,1.53,-1.53,-0.81,-0.82,-0.82,-0.83
631.75,0.71,1.52,0.70,1.52,-1.52,-0.82,-0.81,-0.81,-0.82
638.07,0.71,1.51,0.70,1.50,-1.50,-0.84,-0.80,-0.80,-0.81
644.45,0.71,1.50,0.70,1.49,-1.49,-0.85,-0.78,-0.79,-0.79
650.89,0.71,1.48,0.70,1.47,-1.47,-0.86,-0.77,-0.77,-0.77
