frequency,raw,smoothed,error,error_smoothed,equalization,parametric_eq,fixed_band_eq,equalized_raw,equalized_smoothed,target
20.00,2.52,2.52,-2.98,-2.98,2.98,3.23,1.35,5.50,5.50,5.50
20.20,2.55,2.55,-2.98,-2.98,2.98,3.22,1.39,5.53,5.53,5.53
20.40,2.58,2.58,-2.98,-2.98,2.98,3.21,1.43,5.56,5.56,5.56
20.61,2.61,2.60,-2.97,-2.98,2.98,3.21,1.47,5.59,5.58,5.58
20.81,2.63,2.63,-2.98,-2.98,2.98,3.20,1.51,5.60,5.61,5.61
21.02,2.66,2.65,-2.98,-2.97,2.97,3.19,1.56,5.63,5.63,5.64
21.23,2.68,2.67,-2.97,-2.97,2.97,3.18,1.60,5.65,5.64,5.65
21.44,2.69,2.69,-2.97,-2.96,2.96,3.17,1.65,5.65,5.65,5.65
21.66,2.71,2.71,-2.96,-2.95,2.95,3.15,1.70,5.66,5.66,5.66
21.87,2.73,2.72,-2.94,-2.94,2.95,3.14,1.75,5.67,5.67,5.66
22.09,2.74,2.74,-2.94,-2.93,2.94,3.13,1.80,5.67,5.67,5.67
22.31,2.75,2.75,-2.93,-2.92,2.92,3.11,1.85,5.67,5.67,5.67
22.54,2.76,2.76,-2.91,-2.91,2.91,3.09,1.91,5.67,5.67,5.67
22.76,2.77,2.77,-2.90,-2.90,2.90,3.08,1.96,5.67,5.67,5.67
22.99,2.78,2.77,-2.88,-2.89,2.89,3.06,2.02,5.67,5.67,5.66
23.22,2.78,2.78,-2.88,-2.88,2.88,3.04,2.08,5.66,5.66,5.66
23.45,2.79,2.79,-2.87,-2.87,2.87,3.01,2.13,5.66,5.66,5.66
23.69,2.80,2.80,-2.86,-2.86,2.86,2.99,2.20,5.66,5.66,5.66
23.92,2.81,2.81,-2.85,-2.86,2.85,2.96,2.26,5.66,5.66,5.66
24.16,2.82,2.82,-2.85,-2.85,2.84,2.93,2.32,5.66,5.66,5.67
24.40,2.83,2.83,-2.84,-2.83,2.83,2.90,2.38,5.66,5.66,5.67
24.65,2.85,2.84,-2.81,-2.82,2.82,2.87,2.45,5.66,5.66,5.65
24.89,2.86,2.86,-2.80,-2.80,2.80,2.84,2.51,5.66,5.66,5.65
25.14,2.87,2.87,-2.79,-2.78,2.79,2.80,2.58,5.65,5.66,5.65
25.39,2.88,2.88,-2.77,-2.77,2.77,2.76,2.64,5.65,5.65,5.65
25.65,2.89,2.89,-2.76,-2.76,2.76,2.72,2.71,5.65,5.65,5.65
25.91,2.90,2.90,-2.74,-2.75,2.75,2.68,2.78,5.64,5.64,5.64
26.16,2.91,2.91,-2.73,-2.73,2.73,2.64,2.84,5.64,5.64,5.64
26.43,2.92,2.92,-2.72,-2.72,2.72,2.60,2.91,5.64,5.64,5.64
26.69,2.93,2.93,-2.71,-2.71,2.71,2.57,2.98,5.64,5.64,5.64
26.96,2.94,2.94,-2.70,-2.70,2.70,2.53,3.04,5.63,5.63,5.64
27.23,2.95,2.95,-2.69,-2.69,2.68,2.50,3.10,5.63,5.63,5.63
27.50,2.96,2.95,-2.68,-2.68,2.67,2.48,3.16,5.63,5.63,5.63
27.77,2.96,2.96,-2.66,-2.66,2.66,2.46,3.22,5.62,5.62,5.62
28.05,2.97,2.96,-2.65,-2.65,2.65,2.45,3.28,5.62,5.62,5.62
28.33,2.97,2.97,-2.64,-2.64,2.65,2.45,3.34,5.61,5.61,5.61
28.62,2.97,2.97,-2.64,-2.64,2.64,2.46,3.39,5.61,5.61,5.61
28.90,2.97,2.97,-2.64,-2.64,2.64,2.48,3.44,5.61,5.61,5.60
29.19,2.96,2.96,-2.64,-2.64,2.64,2.50,3.49,5.60,5.60,5.59
29.48,2.95,2.95,-2.65,-2.65,2.65,2.53,3.53,5.60,5.60,5.60
29.78,2.93,2.93,-2.66,-2.66,2.66,2.56,3.57,5.59,5.59,5.59
30.08,2.91,2.91,-2.68,-2.68,2.68,2.60,3.60,5.58,5.58,5.59
30.38,2.89,2.88,-2.69,-2.69,2.69,2.64,3.63,5.58,5.58,5.58
30.68,2.86,2.86,-2.72,-2.71,2.71,2.69,3.65,5.57,5.57,5.57
30.99,2.84,2.84,-2.72,-2.73,2.73,2.73,3.68,5.57,5.56,5.56
31.30,2.81,2.81,-2.75,-2.75,2.75,2.77,3.69,5.55,5.56,5.56
31.61,2.79,2.79,-2.77,-2.77,2.77,2.82,3.70,5.55,5.55,5.56
31.93,2.76,2.76,-2.79,-2.79,2.78,2.86,3.71,5.54,5.54,5.55
32.24,2.74,2.73,-2.80,-2.80,2.80,2.90,3.71,5.54,5.54,5.53
32.57,2.71,2.71,-2.82,-2.82,2.82,2.94,3.71,5.53,5.53,5.53
32.89,2.68,2.68,-2.85,-2.85,2.85,2.97,3.71,5.52,5.53,5.53
33.22,2.65,2.65,-2.87,-2.87,2.87,3.01,3.70,5.52,5.52,5.51
33.55,2.62,2.61,-2.90,-2.90,2.90,3.04,3.68,5.51,5.51,5.51
33.89,2.58,2.58,-2.92,-2.92,2.93,3.07,3.67,5.50,5.50,5.50
34.23,2.54,2.54,-2.96,-2.96,2.96,3.10,3.65,5.49,5.49,5.50
34.57,2.50,2.49,-2.99,-2.99,2.99,3.13,3.62,5.49,5.48,5.48
34.92,2.45,2.45,-3.02,-3.02,3.02,3.16,3.60,5.47,5.47,5.47
35.27,2.41,2.40,-3.06,-3.06,3.06,3.18,3.57,5.46,5.46,5.47
35.62,2.36,2.36,-3.10,-3.09,3.09,3.21,3.54,5.45,5.45,5.45
35.97,2.32,2.32,-3.12,-3.13,3.12,3.23,3.51,5.44,5.44,5.44
36.33,2.28,2.27,-3.16,-3.16,3.16,3.25,3.48,5.44,5.43,5.44
36.70,2.23,2.23,-3.19,-3.19,3.19,3.27,3.45,5.42,5.42,5.42
37.06,2.19,2.19,-3.22,-3.23,3.23,3.29,3.42,5.41,5.41,5.41
37.43,2.15,2.14,-3.26,-3.26,3.26,3.31,3.39,5.40,5.40,5.40
37.81,2.10,2.10,-3.29,-3.29,3.29,3.34,3.36,5.39,5.39,5.39
38.19,2.06,2.06,-3.32,-3.32,3.32,3.35,3.33,5.38,5.38,5.37
38.57,2.02,2.01,-3.35,-3.35,3.35,3.37,3.30,5.37,5.36,5.37
38.95,1.97,1.97,-3.39,-3.38,3.38,3.39,3.27,5.35,5.35,5.35
39.34,1.93,1.93,-3.41,-3.42,3.41,3.41,3.24,5.34,5.34,5.34
39.74,1.89,1.89,-3.44,-3.44,3.44,3.43,3.21,5.33,5.33,5.32
40.14,1.85,1.85,-3.47,-3.47,3.47,3.45,3.19,5.31,5.32,5.32
40.54,1.82,1.81,-3.49,-3.49,3.50,3.47,3.17,5.31,5.31,5.30
40.94,1.78,1.78,-3.52,-3.52,3.52,3.49,3.15,5.30,5.30,5.30
41.35,1.74,1.74,-3.55,-3.55,3.55,3.51,3.13,5.29,5.29,5.28
41.76,1.70,1.70,-3.58,-3.58,3.58,3.53,3.11,5.28,5.28,5.28
42.18,1.66,1.66,-3.61,-3.61,3.61,3.55,3.10,5.27,5.26,5.27
42.60,1.62,1.62,-3.64,-3.64,3.63,3.57,3.08,5.25,5.25,5.25
43.03,1.58,1.58,-3.67,-3.67,3.66,3.59,3.07,5.24,5.24,5.25
43.46,1.54,1.54,-3.69,-3.69,3.68,3.62,3.06,5.22,5.22,5.23
43.90,1.51,1.50,-3.69,-3.70,3.70,3.64,3.06,5.21,5.20,5.20
44.33,1.47,1.47,-3.72,-3.71,3.72,3.66,3.06,5.18,5.19,5.18
44.78,1.44,1.43,-3.73,-3.73,3.73,3.68,3.06,5.17,5.17,5.16
45.23,1.40,1.40,-3.75,-3.75,3.75,3.70,3.06,5.15,5.15,5.15
45.68,1.37,1.37,-3.76,-3.76,3.76,3.72,3.06,5.13,5.13,5.13
46.13,1.34,1.34,-3.77,-3.78,3.78,3.74,3.07,5.12,5.12,5.11
46.60,1.31,1.31,-3.79,-3.79,3.79,3.76,3.08,5.10,5.10,5.10
47.06,1.28,1.28,-3.80,-3.80,3.80,3.77,3.09,5.08,5.08,5.08
47.53,1.25,1.25,-3.81,-3.82,3.81,3.79,3.10,5.06,5.06,5.06
48.01,1.23,1.22,-3.82,-3.82,3.81,3.80,3.12,5.04,5.04,5.05
48.49,1.20,1.20,-3.82,-3.82,3.81,3.81,3.13,5.01,5.01,5.02
48.97,1.18,1.18,-3.81,-3.81,3.81,3.82,3.15,4.99,4.99,4.99
49.46,1.16,1.16,-3.80,-3.80,3.80,3.82,3.17,4.96,4.96,4.96
49.96,1.14,1.14,-3.79,-3.79,3.80,3.82,3.19,4.93,4.94,4.93
50.46,1.13,1.12,-3.79,-3.78,3.79,3.82,3.22,4.92,4.91,4.91
50.96,1.11,1.11,-3.78,-3.78,3.78,3.82,3.24,4.89,4.89,4.89
51.47,1.10,1.09,-3.76,-3.77,3.77,3.81,3.27,4.87,4.86,4.86
51.99,1.08,1.08,-3.76,-3.76,3.76,3.80,3.29,4.84,4.84,4.83
52.51,1.07,1.07,-3.75,-3.75,3.75,3.78,3.32,4.81,4.82,4.82
53.03,1.06,1.06,-3.74,-3.74,3.74,3.77,3.35,4.79,4.79,4.80
53.56,1.05,1.05,-3.72,-3.72,3.72,3.75,3.37,4.77,4.77,4.77
54.10,1.04,1.04,-3.71,-3.71,3.70,3.72,3.40,4.74,4.74,4.74
54.64,1.04,1.03,-3.68,-3.68,3.69,3.70,3.43,4.72,4.72,4.72
55.18,1.03,1.03,-3.67,-3.66,3.66,3.67,3.45,4.69,4.69,4.69
55.74,1.03,1.03,-3.64,-3.64,3.64,3.64,3.48,4.67,4.67,4.67
56.29,1.03,1.03,-3.62,-3.62,3.62,3.61,3.50,4.64,4.64,4.65
56.86,1.03,1.03,-3.59,-3.59,3.59,3.58,3.52,4.62,4.62,4.62
57.42,1.03,1.03,-3.56,-3.57,3.57,3.55,3.53,4.59,4.60,4.59
58.00,1.04,1.03,-3.53,-3.54,3.54,3.51,3.55,4.58,4.58,4.57
58.58,1.04,1.04,-3.51,-3.51,3.51,3.48,3.56,4.55,4.55,4.55
59.16,1.05,1.05,-3.48,-3.49,3.49,3.45,3.57,4.53,4.53,4.53
59.76,1.05,1.05,-3.46,-3.46,3.45,3.41,3.57,4.50,4.50,4.51
60.35,1.06,1.06,-3.42,-3.43,3.42,3.38,3.58,4.48,4.48,4.48
60.96,1.06,1.06,-3.40,-3.39,3.39,3.35,3.57,4.44,4.45,4.46
61.57,1.07,1.06,-3.35,-3.35,3.35,3.32,3.57,4.42,4.42,4.41
62.18,1.07,1.07,-3.31,-3.31,3.32,3.28,3.56,4.38,4.38,4.38
62.80,1.08,1.08,-3.28,-3.27,3.28,3.25,3.54,4.35,4.36,4.35
63.43,1.09,1.09,-3.23,-3.24,3.24,3.22,3.52,4.33,4.33,4.32
64.07,1.10,1.09,-3.20,-3.20,3.20,3.19,3.50,4.30,4.30,4.29
64.71,1.10,1.10,-3.17,-3.17,3.17,3.15,3.47,4.26,4.27,4.27
65.35,1.11,1.11,-3.13,-3.13,3.13,3.12,3.44,4.24,4.24,4.24
66.01,1.12,1.12,-3.09,-3.10,3.09,3.09,3.40,4.21,4.21,4.21
66.67,1.13,1.13,-3.06,-3.05,3.05,3.06,3.36,4.18,4.18,4.18
67.33,1.14,1.14,-3.02,-3.02,3.02,3.03,3.32,4.15,4.15,4.15
68.01,1.15,1.14,-2.98,-2.98,2.98,3.00,3.28,4.13,4.12,4.12
68.69,1.15,1.15,-2.94,-2.94,2.94,2.97,3.23,4.09,4.09,4.09
69.37,1.16,1.16,-2.90,-2.90,2.90,2.94,3.18,4.06,4.06,4.06
70.07,1.17,1.17,-2.86,-2.86,2.86,2.91,3.12,4.03,4.03,4.03
70.77,1.18,1.17,-2.83,-2.82,2.82,2.88,3.07,4.00,4.00,4.00
71.48,1.18,1.18,-2.79,-2.79,2.78,2.85,3.01,3.96,3.96,3.97
72.19,1.19,1.19,-2.75,-2.75,2.75,2.82,2.95,3.93,3.93,3.93
72.91,1.19,1.19,-2.71,-2.71,2.71,2.79,2.89,3.89,3.90,3.90
73.64,1.20,1.20,-2.66,-2.67,2.67,2.76,2.83,3.87,3.87,3.86
74.38,1.20,1.20,-2.64,-2.63,2.64,2.73,2.77,3.83,3.83,3.83
75.12,1.20,1.20,-2.60,-2.60,2.60,2.70,2.70,3.80,3.80,3.79
75.87,1.19,1.19,-2.58,-2.57,2.57,2.67,2.64,3.76,3.77,3.76
76.63,1.19,1.18,-2.55,-2.55,2.55,2.63,2.58,3.73,3.73,3.73
77.40,1.18,1.18,-2.53,-2.52,2.52,2.60,2.52,3.70,3.70,3.70
78.17,1.17,1.17,-2.49,-2.50,2.50,2.57,2.46,3.67,3.67,3.66
78.95,1.17,1.16,-2.47,-2.48,2.48,2.54,2.40,3.64,3.64,3.64
79.74,1.15,1.15,-2.46,-2.45,2.45,2.51,2.33,3.60,3.60,3.61
80.54,1.14,1.14,-2.43,-2.43,2.43,2.48,2.28,3.57,3.57,3.57
81.35,1.13,1.13,-2.41,-2.41,2.41,2.44,2.22,3.54,3.54,3.54
82.16,1.12,1.11,-2.38,-2.39,2.39,2.41,2.16,3.51,3.50,3.50
82.98,1.10,1.10,-2.38,-2.37,2.37,2.38,2.10,3.46,3.47,3.47
83.81,1.09,1.08,-2.34,-2.35,2.35,2.34,2.05,3.43,3.43,3.43
84.65,1.07,1.07,-2.32,-2.33,2.32,2.31,2.00,3.39,3.39,3.39
85.50,1.06,1.06,-2.30,-2.30,2.30,2.27,1.94,3.36,3.36,3.36
86.35,1.05,1.05,-2.28,-2.27,2.28,2.24,1.89,3.32,3.32,3.32
87.22,1.04,1.03,-2.25,-2.25,2.25,2.20,1.84,3.29,3.28,3.28
88.09,1.02,1.02,-2.22,-2.23,2.22,2.17,1.79,3.24,3.24,3.24
88.97,1.01,1.01,-2.20,-2.20,2.20,2.13,1.75,3.20,3.20,3.21
89.86,1.00,1.00,-2.17,-2.17,2.17,2.10,1.70,3.16,3.16,3.17
90.76,0.99,0.99,-2.13,-2.14,2.14,2.06,1.66,3.12,3.12,3.12
91.66,0.98,0.98,-2.11,-2.10,2.11,2.03,1.61,3.08,3.08,3.08
92.58,0.97,0.97,-2.06,-2.07,2.07,1.99,1.57,3.04,3.04,3.03
93.51,0.96,0.96,-2.04,-2.04,2.04,1.95,1.53,3.00,3.00,3.00
94.44,0.95,0.95,-2.01,-2.00,2.00,1.91,1.49,2.95,2.95,2.95
95.39,0.94,0.94,-1.97,-1.97,1.97,1.88,1.46,2.90,2.90,2.91
96.34,0.93,0.93,-1.93,-1.93,1.93,1.84,1.42,2.86,2.86,2.85
97.30,0.92,0.92,-1.89,-1.89,1.89,1.80,1.38,2.81,2.81,2.81
98.28,0.91,0.91,-1.86,-1.85,1.85,1.76,1.35,2.76,2.77,2.76
99.26,0.91,0.90,-1.81,-1.81,1.82,1.72,1.32,2.72,2.72,2.72
100.25,0.90,0.90,-1.78,-1.78,1.78,1.68,1.28,2.67,2.67,2.67
101.25,0.89,0.89,-1.74,-1.74,1.74,1.65,1.25,2.62,2.63,2.63
102.27,0.88,0.88,-1.70,-1.70,1.70,1.61,1.22,2.58,2.58,2.58
103.29,0.88,0.87,-1.65,-1.66,1.66,1.57,1.19,2.54,2.53,2.52
104.32,0.87,0.87,-1.62,-1.62,1.62,1.53,1.16,2.49,2.49,2.49
105.37,0.86,0.86,-1.58,-1.58,1.58,1.49,1.14,2.44,2.44,2.44
106.42,0.86,0.85,-1.54,-1.54,1.54,1.45,1.11,2.39,2.39,2.40
107.48,0.85,0.85,-1.50,-1.50,1.50,1.41,1.08,2.34,2.35,2.35
108.56,0.85,0.85,-1.45,-1.45,1.45,1.37,1.06,2.30,2.30,2.29
109.64,0.84,0.84,-1.41,-1.41,1.41,1.33,1.03,2.25,2.25,2.25
110.74,0.84,0.84,-1.36,-1.36,1.36,1.29,1.01,2.20,2.20,2.20
111.85,0.83,0.83,-1.33,-1.32,1.32,1.25,0.98,2.14,2.15,2.15
112.97,0.83,0.83,-1.26,-1.27,1.27,1.21,0.96,2.10,2.09,2.09
114.10,0.82,0.82,-1.23,-1.22,1.22,1.17,0.93,2.04,2.04,2.04
115.24,0.82,0.82,-1.17,-1.17,1.17,1.13,0.91,1.99,1.99,1.99
116.39,0.81,0.81,-1.13,-1.13,1.13,1.09,0.89,1.93,1.94,1.93
117.55,0.81,0.81,-1.07,-1.08,1.08,1.05,0.86,1.89,1.88,1.88
118.73,0.80,0.80,-1.03,-1.03,1.03,1.01,0.84,1.83,1.83,1.83
119.92,0.80,0.80,-0.99,-0.98,0.99,0.97,0.81,1.78,1.78,1.78
121.12,0.79,0.79,-0.94,-0.94,0.94,0.93,0.79,1.73,1.73,1.73
122.33,0.79,0.78,-0.89,-0.90,0.90,0.89,0.77,1.68,1.68,1.68
123.55,0.78,0.78,-0.86,-0.85,0.85,0.85,0.74,1.63,1.63,1.64
124.79,0.78,0.78,-0.81,-0.81,0.80,0.81,0.72,1.58,1.58,1.59
126.03,0.78,0.77,-0.76,-0.76,0.76,0.77,0.69,1.54,1.53,1.54
127.29,0.77,0.77,-0.72,-0.71,0.71,0.73,0.67,1.48,1.48,1.49
128.57,0.77,0.77,-0.66,-0.66,0.67,0.69,0.64,1.43,1.43,1.43
129.85,0.77,0.76,-0.61,-0.61,0.62,0.65,0.61,1.39,1.38,1.38
131.15,0.76,0.76,-0.57,-0.57,0.57,0.61,0.59,1.33,1.33,1.33
132.46,0.76,0.76,-0.52,-0.53,0.53,0.57,0.56,1.28,1.28,1.28
133.79,0.76,0.76,-0.49,-0.48,0.48,0.53,0.53,1.24,1.24,1.25
135.12,0.76,0.76,-0.43,-0.44,0.44,0.49,0.51,1.19,1.19,1.19
136.48,0.76,0.76,-0.40,-0.39,0.39,0.45,0.48,1.15,1.15,1.15
137.84,0.76,0.76,-0.35,-0.35,0.35,0.41,0.45,1.11,1.11,1.11
139.22,0.76,0.76,-0.30,-0.31,0.31,0.37,0.42,1.07,1.07,1.06
140.61,0.76,0.75,-0.26,-0.27,0.27,0.33,0.39,1.03,1.02,1.01
142.02,0.75,0.75,-0.24,-0.23,0.23,0.29,0.37,0.98,0.98,0.99
143.44,0.75,0.75,-0.20,-0.20,0.19,0.25,0.34,0.94,0.95,0.95
144.87,0.76,0.75,-0.15,-0.16,0.16,0.21,0.31,0.91,0.91,0.91
146.32,0.76,0.76,-0.11,-0.12,0.12,0.17,0.28,0.87,0.87,0.87
147.78,0.76,0.76,-0.08,-0.08,0.08,0.13,0.25,0.84,0.84,0.84
149.26,0.76,0.76,-0.05,-0.04,0.04,0.09,0.22,0.79,0.80,0.80
150.75,0.77,0.76,0.01,0.00,-0.00,0.05,0.19,0.76,0.76,0.76
152.26,0.77,0.77,0.05,0.05,-0.05,0.01,0.15,0.72,0.72,0.72
153.78,0.77,0.77,0.08,0.09,-0.09,-0.03,0.12,0.68,0.68,0.68
155.32,0.78,0.77,0.14,0.13,-0.13,-0.07,0.09,0.65,0.64,0.64
156.88,0.78,0.78,0.17,0.17,-0.17,-0.11,0.06,0.60,0.60,0.61
158.44,0.78,0.78,0.21,0.21,-0.21,-0.15,0.03,0.57,0.56,0.56
160.03,0.77,0.77,0.25,0.25,-0.25,-0.19,-0.00,0.52,0.52,0.52
161.63,0.77,0.76,0.29,0.28,-0.28,-0.24,-0.04,0.49,0.48,0.48
163.24,0.76,0.76,0.32,0.31,-0.31,-0.28,-0.07,0.45,0.44,0.44
164.88,0.75,0.75,0.34,0.34,-0.34,-0.32,-0.10,0.41,0.41,0.41
166.53,0.74,0.74,0.37,0.37,-0.37,-0.36,-0.14,0.37,0.37,0.37
168.19,0.73,0.72,0.40,0.39,-0.39,-0.40,-0.17,0.34,0.33,0.33
169.87,0.71,0.71,0.41,0.42,-0.41,-0.45,-0.20,0.29,0.30,0.29
171.57,0.70,0.70,0.44,0.44,-0.44,-0.49,-0.24,0.26,0.26,0.26
173.29,0.69,0.68,0.47,0.46,-0.47,-0.53,-0.27,0.22,0.22,0.22
175.02,0.68,0.68,0.49,0.50,-0.50,-0.58,-0.31,0.18,0.18,0.19
176.77,0.68,0.68,0.54,0.54,-0.54,-0.62,-0.34,0.14,0.14,0.14
178.54,0.69,0.68,0.59,0.58,-0.59,-0.66,-0.38,0.10,0.10,0.10
180.32,0.70,0.70,0.63,0.64,-0.64,-0.71,-0.41,0.05,0.06,0.06
182.13,0.73,0.72,0.70,0.70,-0.71,-0.75,-0.45,0.02,0.02,0.03
183.95,0.76,0.76,0.77,0.77,-0.77,-0.79,-0.49,-0.02,-0.02,-0.01
185.79,0.80,0.80,0.84,0.84,-0.85,-0.84,-0.52,-0.05,-0.05,-0.04
187.65,0.85,0.84,0.93,0.92,-0.92,-0.88,-0.56,-0.08,-0.08,-0.08
189.52,0.89,0.89,1.00,1.00,-1.00,-0.92,-0.60,-0.11,-0.11,-0.11
191.42,0.94,0.94,1.08,1.08,-1.07,-0.97,-0.64,-0.14,-0.14,-0.14
193.33,0.98,0.97,1.15,1.15,-1.14,-1.01,-0.67,-0.17,-0.17,-0.17
195.27,1.01,1.01,1.21,1.21,-1.20,-1.05,-0.71,-0.20,-0.19,-0.20
197.22,1.04,1.04,1.26,1.27,-1.26,-1.09,-0.75,-0.22,-0.22,-0.23
199.19,1.06,1.06,1.32,1.31,-1.31,-1.13,-0.79,-0.25,-0.25,-0.27
201.18,1.07,1.07,1.35,1.35,-1.35,-1.17,-0.83,-0.28,-0.28,-0.28
203.19,1.08,1.08,1.37,1.38,-1.38,-1.21,-0.86,-0.30,-0.30,-0.30
205.23,1.08,1.08,1.40,1.40,-1.40,-1.25,-0.90,-0.33,-0.32,-0.32
207.28,1.09,1.08,1.42,1.42,-1.42,-1.28,-0.94,-0.34,-0.34,-0.33
209.35,1.09,1.09,1.44,1.44,-1.44,-1.32,-0.98,-0.35,-0.36,-0.35
211.44,1.09,1.09,1.46,1.46,-1.46,-1.35,-1.01,-0.37,-0.37,-0.38
213.56,1.09,1.09,1.47,1.47,-1.47,-1.38,-1.05,-0.38,-0.38,-0.38
215.69,1.09,1.09,1.47,1.48,-1.48,-1.40,-1.08,-0.39,-0.39,-0.38
217.85,1.09,1.09,1.48,1.49,-1.49,-1.43,-1.12,-0.40,-0.40,-0.40
220.03,1.09,1.09,1.50,1.50,-1.49,-1.45,-1.15,-0.41,-0.41,-0.41
222.23,1.09,1.09,1.51,1.50,-1.50,-1.47,-1.18,-0.41,-0.41,-0.42
224.45,1.09,1.08,1.50,1.50,-1.50,-1.49,-1.21,-0.41,-0.41,-0.41
226.70,1.08,1.08,1.49,1.50,-1.49,-1.50,-1.24,-0.42,-0.41,-0.41
228.96,1.08,1.07,1.49,1.48,-1.49,-1.52,-1.27,-0.41,-0.41,-0.41
231.25,1.07,1.07,1.47,1.47,-1.48,-1.52,-1.29,-0.41,-0.41,-0.40
233.57,1.06,1.06,1.46,1.46,-1.47,-1.53,-1.31,-0.41,-0.41,-0.40
235.90,1.05,1.05,1.45,1.45,-1.45,-1.53,-1.33,-0.40,-0.40,-0.40
238.26,1.04,1.04,1.44,1.44,-1.43,-1.53,-1.35,-0.39,-0.39,-0.40
240.64,1.03,1.02,1.42,1.42,-1.41,-1.53,-1.37,-0.38,-0.39,-0.39
243.05,1.01,1.01,1.39,1.39,-1.39,-1.52,-1.38,-0.38,-0.38,-0.38
245.48,0.99,0.99,1.36,1.36,-1.36,-1.51,-1.39,-0.38,-0.37,-0.37
247.93,0.98,0.98,1.34,1.34,-1.34,-1.50,-1.40,-0.37,-0.37,-0.36
250.41,0.97,0.97,1.32,1.32,-1.32,-1.48,-1.40,-0.36,-0.35,-0.36
252.92,0.97,0.97,1.30,1.30,-1.30,-1.47,-1.41,-0.34,-0.34,-0.33
255.45,0.97,0.97,1.28,1.29,-1.29,-1.45,-1.40,-0.32,-0.32,-0.31
258.00,0.98,0.98,1.28,1.27,-1.28,-1.43,-1.40,-0.30,-0.30,-0.30
260.58,0.99,0.99,1.27,1.27,-1.27,-1.41,-1.40,-0.28,-0.28,-0.28
263.19,1.00,1.00,1.26,1.27,-1.26,-1.38,-1.39,-0.26,-0.26,-0.26
265.82,1.02,1.01,1.26,1.26,-1.26,-1.36,-1.38,-0.24,-0.24,-0.25
268.48,1.03,1.03,1.25,1.25,-1.25,-1.33,-1.37,-0.22,-0.22,-0.22
271.16,1.04,1.04,1.24,1.24,-1.24,-1.30,-1.35,-0.20,-0.20,-0.20
273.87,1.05,1.05,1.23,1.23,-1.23,-1.27,-1.33,-0.18,-0.18,-0.19
276.61,1.06,1.05,1.22,1.22,-1.22,-1.24,-1.32,-0.16,-0.16,-0.16
279.38,1.06,1.06,1.20,1.20,-1.20,-1.21,-1.30,-0.14,-0.14,-0.15
282.17,1.06,1.06,1.19,1.19,-1.18,-1.18,-1.27,-0.13,-0.13,-0.13
284.99,1.06,1.06,1.16,1.17,-1.16,-1.15,-1.25,-0.11,-0.11,-0.11
287.84,1.06,1.05,1.15,1.14,-1.14,-1.12,-1.23,-0.09,-0.09,-0.09
290.72,1.05,1.05,1.11,1.12,-1.12,-1.09,-1.20,-0.07,-0.07,-0.07
293.63,1.05,1.04,1.10,1.09,-1.09,-1.06,-1.18,-0.05,-0.05,-0.05
296.57,1.04,1.04,1.06,1.07,-1.07,-1.03,-1.15,-0.03,-0.03,-0.02
299.53,1.03,1.03,1.04,1.04,-1.04,-1.00,-1.12,-0.01,-0.01,-0.01
302.53,1.03,1.02,1.02,1.01,-1.00,-0.97,-1.10,0.02,0.02,0.01
305.55,1.02,1.02,0.97,0.98,-0.97,-0.94,-1.07,0.04,0.04,0.04
308.61,1.01,1.01,0.95,0.94,-0.94,-0.91,-1.04,0.07,0.07,0.06
311.69,1.00,1.00,0.91,0.91,-0.91,-0.88,-1.01,0.09,0.09,0.09
314.81,0.99,0.99,0.86,0.87,-0.88,-0.85,-0.98,0.11,0.11,0.12
317.96,0.99,0.98,0.85,0.84,-0.85,-0.83,-0.96,0.14,0.13,0.14
321.14,0.98,0.98,0.82,0.82,-0.82,-0.80,-0.93,0.15,0.16,0.16
324.35,0.98,0.98,0.80,0.80,-0.80,-0.77,-0.90,0.18,0.18,0.17
327.59,0.98,0.98,0.78,0.78,-0.78,-0.75,-0.88,0.20,0.20,0.20
330.87,0.98,0.98,0.76,0.76,-0.76,-0.72,-0.85,0.22,0.22,0.22
334.18,0.98,0.98,0.74,0.74,-0.74,-0.70,-0.83,0.23,0.23,0.24
337.52,0.98,0.98,0.72,0.72,-0.73,-0.67,-0.80,0.25,0.25,0.25
340.90,0.98,0.98,0.70,0.70,-0.71,-0.65,-0.78,0.26,0.27,0.28
344.30,0.99,0.98,0.69,0.69,-0.69,-0.63,-0.75,0.29,0.29,0.30
347.75,0.99,0.99,0.67,0.68,-0.66,-0.61,-0.73,0.32,0.33,0.32
351.23,0.99,0.99,0.65,0.65,-0.63,-0.58,-0.71,0.36,0.36,0.33
354.74,0.98,0.96,0.63,0.61,-0.59,-0.56,-0.68,0.39,0.37,0.35
358.28,0.92,0.92,0.55,0.55,-0.54,-0.54,-0.66,0.38,0.38,0.37
361.87,0.87,0.87,0.48,0.48,-0.49,-0.52,-0.64,0.38,0.38,0.39
365.49,0.81,0.81,0.41,0.41,-0.43,-0.51,-0.62,0.38,0.38,0.39
369.14,0.76,0.76,0.35,0.35,-0.36,-0.49,-0.60,0.40,0.40,0.40
372.83,0.72,0.71,0.30,0.29,-0.30,-0.47,-0.58,0.42,0.41,0.42
376.56,0.67,0.67,0.24,0.23,-0.24,-0.45,-0.56,0.43,0.43,0.43
380.33,0.63,0.63,0.17,0.17,-0.18,-0.44,-0.55,0.45,0.45,0.46
384.13,0.59,0.59,0.12,0.12,-0.13,-0.42,-0.53,0.46,0.46,0.47
387.97,0.56,0.56,0.08,0.08,-0.08,-0.40,-0.51,0.48,0.47,0.47
391.85,0.53,0.53,0.04,0.04,-0.04,-0.39,-0.49,0.49,0.49,0.48
395.77,0.50,0.50,-0.00,0.00,0.00,-0.38,-0.48,0.50,0.50,0.50
399.73,0.48,0.48,-0.03,-0.03,0.03,-0.36,-0.46,0.51,0.51,0.51
403.72,0.46,0.46,-0.06,-0.06,0.07,-0.35,-0.45,0.52,0.52,0.52
407.76,0.44,0.44,-0.09,-0.09,0.09,-0.34,-0.43,0.53,0.53,0.53
411.84,0.43,0.43,-0.12,-0.12,0.12,-0.32,-0.42,0.54,0.54,0.55
415.96,0.42,0.42,-0.14,-0.14,0.14,-0.31,-0.40,0.55,0.55,0.56
420.12,0.41,0.41,-0.16,-0.16,0.16,-0.30,-0.39,0.56,0.57,0.56
424.32,0.41,0.41,-0.17,-0.17,0.17,-0.29,-0.38,0.58,0.58,0.57
428.56,0.41,0.41,-0.17,-0.18,0.18,-0.28,-0.36,0.59,0.59,0.58
432.85,0.41,0.41,-0.18,-0.18,0.19,-0.27,-0.35,0.60,0.60,0.59
437.18,0.41,0.41,-0.19,-0.20,0.19,-0.26,-0.33,0.60,0.60,0.60
441.55,0.42,0.41,-0.20,-0.20,0.19,-0.25,-0.32,0.61,0.60,0.62
445.96,0.43,0.43,-0.20,-0.19,0.18,-0.25,-0.31,0.61,0.61,0.63
450.42,0.47,0.47,-0.17,-0.17,0.16,-0.24,-0.29,0.63,0.63,0.64
454.93,0.52,0.51,-0.14,-0.14,0.14,-0.23,-0.28,0.65,0.65,0.66
459.48,0.57,0.57,-0.10,-0.10,0.10,-0.23,-0.27,0.67,0.67,0.67
464.07,0.63,0.62,-0.06,-0.06,0.07,-0.22,-0.25,0.70,0.69,0.68
468.71,0.68,0.68,-0.03,-0.02,0.03,-0.21,-0.24,0.71,0.71,0.70
473.40,0.73,0.73,0.01,0.01,-0.01,-0.21,-0.22,0.71,0.72,0.71
478.13,0.79,0.78,0.05,0.05,-0.05,-0.21,-0.21,0.73,0.73,0.73
482.91,0.84,0.84,0.10,0.10,-0.09,-0.21,-0.19,0.74,0.75,0.74
487.74,0.90,0.89,0.14,0.13,-0.13,-0.20,-0.18,0.76,0.76,0.76
492.62,0.95,0.95,0.17,0.17,-0.17,-0.20,-0.16,0.78,0.78,0.78
497.55,1.00,1.00,0.21,0.21,-0.21,-0.20,-0.14,0.79,0.79,0.79
502.52,1.05,1.05,0.24,0.24,-0.24,-0.21,-0.12,0.80,0.80,0.81
507.55,1.10,1.10,0.28,0.28,-0.28,-0.21,-0.11,0.82,0.82,0.82
512.62,1.15,1.15,0.31,0.31,-0.31,-0.21,-0.09,0.84,0.84,0.84
517.75,1.20,1.20,0.34,0.34,-0.34,-0.22,-0.07,0.86,0.86,0.86
522.93,1.24,1.24,0.36,0.36,-0.36,-0.22,-0.05,0.87,0.87,0.88
528.16,1.28,1.28,0.39,0.39,-0.38,-0.23,-0.03,0.89,0.89,0.89
533.44,1.31,1.31,0.40,0.40,-0.40,-0.24,-0.01,0.90,0.91,0.91
538.77,1.35,1.34,0.42,0.42,-0.42,-0.24,0.01,0.93,0.93,0.93
544.16,1.37,1.37,0.42,0.43,-0.43,-0.25,0.04,0.94,0.94,0.94
549.60,1.40,1.40,0.43,0.43,-0.43,-0.26,0.06,0.96,0.96,0.96
