frequency,raw
20.00,-8.15
20.20,-8.13
20.40,-8.11
20.61,-8.09
20.81,-8.07
21.02,-8.05
21.23,-8.03
21.44,-8.01
21.66,-7.99
21.87,-7.97
22.09,-7.95
22.31,-7.93
22.54,-7.91
22.76,-7.88
22.99,-7.86
23.22,-7.83
23.45,-7.81
23.69,-7.79
23.92,-7.77
24.16,-7.75
24.40,-7.74
24.65,-7.72
24.89,-7.71
25.14,-7.69
25.39,-7.67
25.65,-7.65
25.91,-7.62
26.16,-7.60
26.43,-7.57
26.69,-7.55
26.96,-7.52
27.23,-7.50
27.50,-7.48
27.77,-7.46
28.05,-7.44
28.33,-7.42
28.62,-7.40
28.90,-7.38
29.19,-7.36
29.48,-7.34
29.78,-7.32
30.08,-7.30
30.38,-7.29
30.68,-7.28
30.99,-7.27
31.30,-7.26
31.61,-7.24
31.93,-7.21
32.24,-7.19
32.57,-7.16
32.89,-7.14
33.22,-7.13
33.55,-7.11
33.89,-7.10
34.23,-7.08
34.57,-7.06
34.92,-7.03
35.27,-7.01
35.62,-6.99
35.97,-6.99
36.33,-6.99
36.70,-6.98
37.06,-6.97
37.43,-6.94
37.81,-6.91
38.19,-6.88
38.57,-6.86
38.95,-6.85
39.34,-6.84
39.74,-6.83
40.14,-6.82
40.54,-6.79
40.94,-6.76
41.35,-6.74
41.76,-6.72
42.18,-6.72
42.60,-6.72
43.03,-6.71
43.46,-6.68
43.90,-6.66
44.33,-6.64
44.78,-6.63
45.23,-6.62
45.68,-6.61
46.13,-6.59
46.60,-6.56
47.06,-6.54
47.53,-6.53
48.01,-6.53
48.49,-6.52
48.97,-6.50
49.46,-6.48
49.96,-6.46
50.46,-6.45
50.96,-6.44
51.47,-6.43
51.99,-6.41
52.51,-6.39
53.03,-6.37
53.56,-6.35
54.10,-6.34
54.64,-6.32
55.18,-6.31
55.74,-6.30
56.29,-6.29
56.86,-6.28
57.42,-6.26
58.00,-6.24
58.58,-6.23
59.16,-6.22
59.76,-6.21
60.35,-6.19
60.96,-6.18
61.57,-6.17
62.18,-6.16
62.80,-6.14
63.43,-6.13
64.07,-6.12
64.71,-6.11
65.35,-6.10
66.01,-6.08
66.67,-6.08
67.33,-6.06
68.01,-6.04
68.69,-6.03
69.37,-6.03
70.07,-6.02
70.77,-6.00
71.48,-6.00
72.19,-5.99
72.91,-5.97
73.64,-5.96
74.38,-5.95
75.12,-5.95
75.87,-5.93
76.63,-5.92
77.40,-5.92
78.17,-5.91
78.95,-5.89
79.74,-5.89
80.54,-5.88
81.35,-5.87
82.16,-5.87
82.98,-5.86
83.81,-5.85
84.65,-5.84
85.50,-5.84
86.35,-5.83
87.22,-5.83
88.09,-5.82
88.97,-5.81
89.86,-5.80
90.76,-5.80
91.66,-5.79
92.58,-5.79
93.51,-5.78
94.44,-5.77
95.39,-5.76
96.34,-5.76
97.30,-5.76
98.28,-5.75
99.26,-5.74
100.25,-5.74
101.25,-5.74
102.27,-5.73
103.29,-5.73
104.32,-5.72
105.37,-5.72
106.42,-5.72
107.48,-5.71
108.56,-5.71
109.64,-5.70
110.74,-5.70
111.85,-5.70
112.97,-5.70
114.10,-5.69
115.24,-5.68
116.39,-5.68
117.55,-5.69
118.73,-5.69
119.92,-5.67
121.12,-5.67
122.33,-5.67
123.55,-5.68
124.79,-5.69
126.03,-5.69
127.29,-5.69
128.57,-5.68
129.85,-5.66
131.15,-5.64
132.46,-5.64
133.79,-5.68
135.12,-5.69
136.48,-5.70
137.84,-5.70
139.22,-5.71
140.61,-5.72
142.02,-5.72
143.44,-5.73
144.87,-5.74
146.32,-5.75
147.78,-5.76
149.26,-5.77
150.75,-5.78
152.26,-5.79
153.78,-5.80
155.32,-5.81
156.88,-5.82
158.44,-5.84
160.03,-5.85
161.63,-5.87
163.24,-5.89
164.88,-5.90
166.53,-5.92
168.19,-5.94
169.87,-5.96
171.57,-5.98
173.29,-6.00
175.02,-6.02
176.77,-6.04
178.54,-6.06
180.32,-6.08
182.13,-6.11
183.95,-6.13
185.79,-6.16
187.65,-6.19
189.52,-6.23
191.42,-6.27
193.33,-6.30
195.27,-6.34
197.22,-6.38
199.19,-6.39
201.18,-6.41
203.19,-6.42
205.23,-6.43
207.28,-6.44
209.35,-6.43
211.44,-6.41
213.56,-6.38
215.69,-6.32
217.85,-6.26
220.03,-6.17
222.23,-6.04
224.45,-5.92
226.70,-5.78
228.96,-5.62
231.25,-5.46
233.57,-5.30
235.90,-5.14
238.26,-4.99
240.64,-4.84
243.05,-4.69
245.48,-4.55
247.93,-4.42
250.41,-4.30
252.92,-4.19
255.45,-4.10
258.00,-4.02
260.58,-3.96
263.19,-3.91
265.82,-3.88
268.48,-3.87
271.16,-3.87
273.87,-3.87
276.61,-3.88
279.38,-3.89
282.17,-3.91
284.99,-3.93
287.84,-3.95
290.72,-3.98
293.63,-4.00
296.57,-4.03
299.53,-4.05
302.53,-4.08
305.55,-4.10
308.61,-4.12
311.69,-4.15
314.81,-4.17
317.96,-4.20
321.14,-4.23
324.35,-4.25
327.59,-4.28
330.87,-4.30
334.18,-4.32
337.52,-4.33
340.90,-4.34
344.30,-4.36
347.75,-4.37
351.23,-4.38
354.74,-4.40
358.28,-4.41
361.87,-4.42
365.49,-4.43
369.14,-4.43
372.83,-4.45
376.56,-4.46
380.33,-4.47
384.13,-4.48
387.97,-4.49
391.85,-4.50
395.77,-4.51
399.73,-4.52
403.72,-4.52
407.76,-4.53
411.84,-4.53
415.96,-4.54
420.12,-4.54
424.32,-4.55
428.56,-4.56
432.85,-4.57
437.18,-4.58
441.55,-4.59
445.96,-4.60
450.42,-4.61
454.93,-4.62
459.48,-4.63
464.07,-4.64
468.71,-4.65
473.40,-4.66
478.13,-4.67
482.91,-4.68
487.74,-4.69
492.62,-4.70
497.55,-4.71
502.52,-4.72
507.55,-4.73
512.62,-4.73
517.75,-4.74
522.93,-4.75
528.16,-4.75
533.44,-4.76
538.77,-4.76
544.16,-4.75
549.60,-4.75
555.10,-4.74
560.65,-4.73
566.25,-4.71
571.92,-4.69
577.64,-4.67
583.41,-4.65
589.25,-4.62
595.14,-4.59
601.09,-4.55
607.10,-4.52
613.17,-4.48
619.30,-4.44
625.50,-4.39
631.75,-4.35
638.07,-4.29
644.45,-4.24
650.89,-4.18
657.40,-4.11
663.98,-4.03
670.62,-3.95
677.32,-3.87
684.10,-3.77
690.94,-3.68
697.85,-3.58
704.83,-3.47
711.87,-3.37
718.99,-3.26
726.18,-3.15
733.44,-3.04
740.78,-2.93
748.19,-2.81
755.67,-2.70
763.23,-2.58
770.86,-2.47
778.57,-2.36
786.35,-2.25
794.22,-2.15
802.16,-2.04
810.18,-1.95
818.28,-1.85
826.46,-1.76
834.73,-1.67
843.08,-1.58
851.51,-1.49
860.02,-1.41
868.62,-1.32
877.31,-1.23
886.08,-1.15
894.94,-1.06
903.89,-0.97
912.93,-0.88
922.06,-0.79
931.28,-0.69
940.59,-0.60
950.00,-0.51
959.50,-0.41
969.09,-0.31
978.78,-0.21
988.57,-0.12
998.46,-0.02
1008.44,0.09
1018.53,0.19
1028.71,0.29
1039.00,0.39
1049.39,0.49
1059.88,0.60
1070.48,0.70
1081.19,0.80
1092.00,0.91
1102.92,1.01
1113.95,1.11
1125.09,1.22
1136.34,1.32
1147.70,1.42
1159.18,1.53
1170.77,1.64
1182.48,1.75
1194.30,1.86
1206.25,1.97
1218.31,2.08
1230.49,2.19
1242.80,2.30
1255.22,2.41
1267.78,2.51
1280.45,2.62
1293.26,2.72
1306.19,2.83
1319.25,2.93
1332.45,3.04
1345.77,3.15
1359.23,3.26
1372.82,3.36
1386.55,3.46
1400.41,3.56
1414.42,3.66
1428.56,3.75
1442.85,3.85
1457.28,3.95
1471.85,4.05
1486.57,4.16
1501.43,4.27
1516.45,4.38
1531.61,4.50
1546.93,4.62
1562.40,4.74
1578.02,4.86
1593.80,4.99
1609.74,5.11
1625.84,5.23
1642.10,5.35
1658.52,5.47
1675.10,5.59
1691.85,5.71
1708.77,5.83
1725.86,5.95
1743.12,6.08
1760.55,6.20
1778.15,6.32
1795.94,6.44
1813.90,6.56
1832.03,6.69
1850.36,6.81
1868.86,6.93
1887.55,7.06
1906.42,7.19
1925.49,7.31
1944.74,7.44
1964.19,7.57
1983.83,7.70
2003.67,7.84
2023.71,7.97
2043.94,8.10
2064.38,8.24
2085.03,8.37
2105.88,8.51
2126.94,8.65
2148.20,8.78
2169.69,8.91
2191.38,9.05
2213.30,9.18
2235.43,9.30
2257.78,9.43
2280.36,9.55
2303.17,9.67
2326.20,9.79
2349.46,9.89
2372.95,10.00
2396.68,10.10
2420.65,10.19
2444.86,10.27
2469.31,10.35
2494.00,10.41
2518.94,10.47
2544.13,10.53
2569.57,10.57
2595.27,10.60
2621.22,10.63
2647.43,10.65
2673.90,10.65
2700.64,10.65
2727.65,10.64
2754.93,10.62
2782.48,10.60
2810.30,10.56
2838.40,10.52
2866.79,10.46
2895.46,10.41
2924.41,10.34
2953.65,10.27
2983.19,10.19
3013.02,10.10
3043.15,10.01
3073.58,9.91
3104.32,9.81
3135.36,9.70
3166.72,9.59
3198.38,9.47
3230.37,9.35
3262.67,9.23
3295.30,9.11
3328.25,8.98
3361.53,8.85
3395.15,8.72
3429.10,8.59
3463.39,8.45
3498.03,8.32
3533.01,8.19
3568.34,8.05
3604.02,7.92
3640.06,7.78
3676.46,7.65
3713.22,7.52
3750.36,7.38
3787.86,7.25
3825.74,7.12
3864.00,7.00
3902.64,6.87
3941.66,6.75
3981.08,6.62
4020.89,6.50
4061.10,6.38
4101.71,6.27
4142.73,6.15
4184.15,6.04
4226.00,5.93
4268.26,5.82
4310.94,5.71
4354.05,5.61
4397.59,5.51
4441.56,5.41
4485.98,5.31
4530.84,5.21
4576.15,5.11
4621.91,5.02
4668.13,4.92
4714.81,4.83
4761.96,4.73
4809.58,4.64
4857.67,4.54
4906.25,4.44
4955.31,4.34
5004.87,4.24
5054.91,4.14
5105.46,4.03
5156.52,3.92
5208.08,3.81
5260.16,3.69
5312.77,3.58
5365.89,3.45
5419.55,3.32
5473.75,3.19
5528.49,3.06
5583.77,2.92
5639.61,2.78
5696.00,2.64
5752.96,2.50
5810.49,2.36
5868.60,2.22
5927.28,2.08
5986.56,1.94
6046.42,1.81
6106.89,1.68
6167.96,1.55
6229.64,1.42
6291.93,1.29
6354.85,1.16
6418.40,1.03
6482.58,0.90
6547.41,0.77
6612.88,0.64
6679.01,0.51
6745.80,0.38
6813.26,0.26
6881.39,0.13
6950.21,0.01
7019.71,-0.10
7089.91,-0.21
7160.81,-0.30
7232.41,-0.39
7304.74,-0.48
7377.79,-0.55
7451.56,-0.62
7526.08,-0.68
7601.34,-0.73
7677.35,-0.78
7754.13,-0.82
7831.67,-0.86
7909.98,-0.90
7989.08,-0.95
8068.98,-1.00
8149.67,-1.08
8231.16,-1.17
8313.47,-1.31
8396.61,-1.49
8480.57,-1.73
8565.38,-2.04
8651.03,-2.40
8737.54,-2.83
8824.92,-3.32
8913.17,-3.86
9002.30,-4.41
9092.32,-4.96
9183.25,-5.49
9275.08,-5.97
9367.83,-6.40
9461.51,-6.76
9556.12,-7.05
9651.68,-7.28
9748.20,-7.46
9845.68,-7.58
9944.14,-7.65
10043.58,-7.67
10144.02,-7.66
10245.46,-7.58
10347.91,-7.45
10451.39,-7.28
10555.91,-7.01
10661.46,-6.69
10768.08,-6.32
10875.76,-5.88
10984.52,-5.38
11094.36,-4.85
11205.31,-4.27
11317.36,-3.65
11430.53,-3.02
11544.84,-2.39
11660.29,-1.77
11776.89,-1.16
11894.66,-0.67
12013.60,-0.20
12133.74,0.17
12255.08,0.43
12377.63,0.62
12501.41,0.74
12626.42,0.81
12752.68,0.88
12880.21,1.00
13009.01,1.16
13139.10,1.32
13270.49,1.61
13403.20,1.95
13537.23,2.33
13672.60,2.62
13809.33,2.82
13947.42,2.58
14086.90,1.82
14227.77,0.75
14370.04,-0.66
14513.74,-2.45
14658.88,-4.42
14805.47,-6.34
14953.52,-8.20
15103.06,-9.83
15254.09,-11.35
15406.63,-12.33
15560.70,-13.07
15716.30,-13.43
15873.47,-13.47
16032.20,-13.39
16192.52,-13.15
16354.45,-12.93
16517.99,-12.76
16683.17,-12.86
16850.01,-13.19
17018.51,-13.67
17188.69,-14.34
17360.58,-15.05
17534.18,-15.75
17709.53,-16.41
17886.62,-16.98
18065.49,-17.48
18246.14,-17.90
18428.60,-18.23
18612.89,-18.50
18799.02,-18.72
18987.01,-18.89
19176.88,-18.97
19368.65,-18.99
19562.33,-18.94
19757.96,-18.81
19955.54,-18.57
