frequency,raw
20.00,-9.88
20.20,-9.86
20.40,-9.81
20.61,-9.75
20.81,-9.70
21.02,-9.65
21.23,-9.61
21.44,-9.56
21.66,-9.51
21.87,-9.45
22.09,-9.42
22.31,-9.37
22.54,-9.34
22.76,-9.28
22.99,-9.25
23.22,-9.20
23.45,-9.16
23.69,-9.11
23.92,-9.08
24.16,-9.03
24.40,-9.02
24.65,-8.98
24.89,-8.93
25.14,-8.92
25.39,-8.89
25.65,-8.84
25.91,-8.81
26.16,-8.79
26.43,-8.75
26.69,-8.71
26.96,-8.68
27.23,-8.65
27.50,-8.62
27.77,-8.61
28.05,-8.56
28.33,-8.55
28.62,-8.51
28.90,-8.51
29.19,-8.47
29.48,-8.47
29.78,-8.42
30.08,-8.42
30.38,-8.42
30.68,-8.42
30.99,-8.42
31.30,-8.42
31.61,-8.42
31.93,-8.42
32.24,-8.42
32.57,-8.37
32.89,-8.37
33.22,-8.36
33.55,-8.32
33.89,-8.28
34.23,-8.24
34.57,-8.21
34.92,-8.15
35.27,-8.08
35.62,-8.02
35.97,-7.98
36.33,-7.91
36.70,-7.84
37.06,-7.78
37.43,-7.68
37.81,-7.58
38.19,-7.51
38.57,-7.40
38.95,-7.32
39.34,-7.23
39.74,-7.12
40.14,-7.02
40.54,-6.88
40.94,-6.73
41.35,-6.59
41.76,-6.43
42.18,-6.29
42.60,-6.15
43.03,-6.00
43.46,-5.87
43.90,-5.73
44.33,-5.64
44.78,-5.54
45.23,-5.46
45.68,-5.38
46.13,-5.32
46.60,-5.27
47.06,-5.22
47.53,-5.16
48.01,-5.13
48.49,-5.08
48.97,-5.02
49.46,-4.99
49.96,-4.95
50.46,-4.91
50.96,-4.88
51.47,-4.87
51.99,-4.88
52.51,-4.88
53.03,-4.88
53.56,-4.93
54.10,-4.93
54.64,-4.96
55.18,-4.98
55.74,-4.99
56.29,-4.99
56.86,-4.98
57.42,-4.93
58.00,-4.89
58.58,-4.88
59.16,-4.84
59.76,-4.80
60.35,-4.77
60.96,-4.71
61.57,-4.64
62.18,-4.58
62.80,-4.53
63.43,-4.49
64.07,-4.44
64.71,-4.41
65.35,-4.37
66.01,-4.37
66.67,-4.35
67.33,-4.36
68.01,-4.37
68.69,-4.37
69.37,-4.37
70.07,-4.42
70.77,-4.42
71.48,-4.45
72.19,-4.49
72.91,-4.52
73.64,-4.56
74.38,-4.58
75.12,-4.60
75.87,-4.64
76.63,-4.65
77.40,-4.70
78.17,-4.70
78.95,-4.70
79.74,-4.70
80.54,-4.70
81.35,-4.70
82.16,-4.70
82.98,-4.73
83.81,-4.74
84.65,-4.74
85.50,-4.74
86.35,-4.74
87.22,-4.79
88.09,-4.79
88.97,-4.79
89.86,-4.79
90.76,-4.83
91.66,-4.84
92.58,-4.84
93.51,-4.84
94.44,-4.84
95.39,-4.84
96.34,-4.88
97.30,-4.88
98.28,-4.88
99.26,-4.88
100.25,-4.88
101.25,-4.88
102.27,-4.88
103.29,-4.88
104.32,-4.88
105.37,-4.88
106.42,-4.88
107.48,-4.89
108.56,-4.92
109.64,-4.93
110.74,-4.93
111.85,-4.93
112.97,-4.93
114.10,-4.93
115.24,-4.93
116.39,-4.91
117.55,-4.88
118.73,-4.88
119.92,-4.88
121.12,-4.88
122.33,-4.88
123.55,-4.88
124.79,-4.88
126.03,-4.88
127.29,-4.88
128.57,-4.88
129.85,-4.88
131.15,-4.88
132.46,-4.88
133.79,-4.88
135.12,-4.88
136.48,-4.88
137.84,-4.88
139.22,-4.88
140.61,-4.88
142.02,-4.88
143.44,-4.88
144.87,-4.88
146.32,-4.88
147.78,-4.88
149.26,-4.88
150.75,-4.86
152.26,-4.86
153.78,-4.84
155.32,-4.84
156.88,-4.84
158.44,-4.84
160.03,-4.84
161.63,-4.84
163.24,-4.84
164.88,-4.82
166.53,-4.79
168.19,-4.79
169.87,-4.79
171.57,-4.79
173.29,-4.79
175.02,-4.79
176.77,-4.79
178.54,-4.79
180.32,-4.79
182.13,-4.79
183.95,-4.81
185.79,-4.81
187.65,-4.81
189.52,-4.81
191.42,-4.81
193.33,-4.81
195.27,-4.81
197.22,-4.79
199.19,-4.79
201.18,-4.79
203.19,-4.79
205.23,-4.79
207.28,-4.79
209.35,-4.79
211.44,-4.79
213.56,-4.78
215.69,-4.74
217.85,-4.74
220.03,-4.74
222.23,-4.74
224.45,-4.74
226.70,-4.74
228.96,-4.74
231.25,-4.74
233.57,-4.73
235.90,-4.72
238.26,-4.72
240.64,-4.70
243.05,-4.70
245.48,-4.70
247.93,-4.70
250.41,-4.70
252.92,-4.65
255.45,-4.65
258.00,-4.65
260.58,-4.60
263.19,-4.60
265.82,-4.60
268.48,-4.60
271.16,-4.59
273.87,-4.56
276.61,-4.56
279.38,-4.56
282.17,-4.56
284.99,-4.55
287.84,-4.51
290.72,-4.51
293.63,-4.51
296.57,-4.51
299.53,-4.49
302.53,-4.46
305.55,-4.46
308.61,-4.46
311.69,-4.46
314.81,-4.44
317.96,-4.42
321.14,-4.42
324.35,-4.38
327.59,-4.37
330.87,-4.36
334.18,-4.32
337.52,-4.32
340.90,-4.29
344.30,-4.28
347.75,-4.25
351.23,-4.23
354.74,-4.22
358.28,-4.18
361.87,-4.15
365.49,-4.14
369.14,-4.09
372.83,-4.08
376.56,-4.04
380.33,-4.02
384.13,-4.00
387.97,-3.96
391.85,-3.95
395.77,-3.90
399.73,-3.89
403.72,-3.86
407.76,-3.84
411.84,-3.81
415.96,-3.81
420.12,-3.77
424.32,-3.77
428.56,-3.72
432.85,-3.72
437.18,-3.67
441.55,-3.67
445.96,-3.63
450.42,-3.63
454.93,-3.58
459.48,-3.57
464.07,-3.53
468.71,-3.51
473.40,-3.46
478.13,-3.42
482.91,-3.39
487.74,-3.36
492.62,-3.33
497.55,-3.30
502.52,-3.25
507.55,-3.24
512.62,-3.18
517.75,-3.15
522.93,-3.12
528.16,-3.09
533.44,-3.04
538.77,-3.00
544.16,-2.97
549.60,-2.93
555.10,-2.89
560.65,-2.86
566.25,-2.80
571.92,-2.76
577.64,-2.71
583.41,-2.65
589.25,-2.61
595.14,-2.55
601.09,-2.52
607.10,-2.48
613.17,-2.44
619.30,-2.39
625.50,-2.35
631.75,-2.29
638.07,-2.24
644.45,-2.19
650.89,-2.18
657.40,-2.14
663.98,-2.12
670.62,-2.09
677.32,-2.09
684.10,-2.14
690.94,-2.14
697.85,-2.16
704.83,-2.18
711.87,-2.18
718.99,-2.22
726.18,-2.23
733.44,-2.23
740.78,-2.23
748.19,-2.23
755.67,-2.23
763.23,-2.17
770.86,-2.12
778.57,-2.07
786.35,-2.02
794.22,-1.95
802.16,-1.90
810.18,-1.82
818.28,-1.75
826.46,-1.69
834.73,-1.67
843.08,-1.61
851.51,-1.55
860.02,-1.46
868.62,-1.35
877.31,-1.24
886.08,-1.18
894.94,-1.09
903.89,-1.03
912.93,-0.97
922.06,-0.91
931.28,-0.82
940.59,-0.70
950.00,-0.59
959.50,-0.48
969.09,-0.35
978.78,-0.23
988.57,-0.10
998.46,-0.02
1008.44,0.09
1018.53,0.15
1028.71,0.26
1039.00,0.33
1049.39,0.43
1059.88,0.51
1070.48,0.58
1081.19,0.66
1092.00,0.74
1102.92,0.81
1113.95,0.88
1125.09,0.93
1136.34,0.98
1147.70,1.01
1159.18,1.04
1170.77,1.10
1182.48,1.13
1194.30,1.17
1206.25,1.17
1218.31,1.17
1230.49,1.17
1242.80,1.17
1255.22,1.18
1267.78,1.22
1280.45,1.24
1293.26,1.26
1306.19,1.31
1319.25,1.31
1332.45,1.31
1345.77,1.36
1359.23,1.40
1372.82,1.43
1386.55,1.49
1400.41,1.56
1414.42,1.65
1428.56,1.76
1442.85,1.82
1457.28,1.90
1471.85,1.95
1486.57,2.01
1501.43,2.01
1516.45,1.99
1531.61,1.96
1546.93,2.01
1562.40,2.01
1578.02,1.96
1593.80,1.95
1609.74,1.90
1625.84,1.87
1642.10,1.82
1658.52,1.78
1675.10,1.75
1691.85,1.72
1708.77,1.66
1725.86,1.61
1743.12,1.54
1760.55,1.47
1778.15,1.43
1795.94,1.37
1813.90,1.30
1832.03,1.24
1850.36,1.19
1868.86,1.15
1887.55,1.10
1906.42,1.04
1925.49,0.97
1944.74,0.89
1964.19,0.84
1983.83,0.77
2003.67,0.73
2023.71,0.70
2043.94,0.67
2064.38,0.63
2085.03,0.59
2105.88,0.55
2126.94,0.52
2148.20,0.50
2169.69,0.47
2191.38,0.42
2213.30,0.44
2235.43,0.49
2257.78,0.57
2280.36,0.65
2303.17,0.78
2326.20,0.94
2349.46,1.12
2372.95,1.31
2396.68,1.52
2420.65,1.73
2444.86,1.91
2469.31,2.10
2494.00,2.30
2518.94,2.52
2544.13,2.71
2569.57,2.90
2595.27,3.12
2621.22,3.31
2647.43,3.49
2673.90,3.66
2700.64,3.83
2727.65,3.99
2754.93,4.15
2782.48,4.29
2810.30,4.47
2838.40,4.64
2866.79,4.81
2895.46,4.96
2924.41,5.07
2953.65,5.15
2983.19,5.21
3013.02,5.26
3043.15,5.27
3073.58,5.27
3104.32,5.27
3135.36,5.22
3166.72,5.22
3198.38,5.18
3230.37,5.18
3262.67,5.23
3295.30,5.30
3328.25,5.36
3361.53,5.47
3395.15,5.56
3429.10,5.69
3463.39,5.82
3498.03,5.95
3533.01,6.06
3568.34,6.15
3604.02,6.22
3640.06,6.24
3676.46,6.23
3713.22,6.20
3750.36,6.15
3787.86,6.11
3825.74,6.04
3864.00,5.99
3902.64,5.94
3941.66,5.90
3981.08,5.85
4020.89,5.79
4061.10,5.76
4101.71,5.73
4142.73,5.71
4184.15,5.69
4226.00,5.69
4268.26,5.70
4310.94,5.73
4354.05,5.74
4397.59,5.79
4441.56,5.84
4485.98,5.92
4530.84,5.99
4576.15,6.10
4621.91,6.16
4668.13,6.20
4714.81,6.20
4761.96,6.17
4809.58,6.05
4857.67,5.89
4906.25,5.66
4955.31,5.37
5004.87,5.03
5054.91,4.65
5105.46,4.24
5156.52,3.78
5208.08,3.32
5260.16,2.83
5312.77,2.30
5365.89,1.77
5419.55,1.25
5473.75,0.73
5528.49,0.17
5583.77,-0.38
5639.61,-0.94
5696.00,-1.54
5752.96,-2.23
5810.49,-2.94
5868.60,-3.69
5927.28,-4.38
5986.56,-4.88
6046.42,-5.30
6106.89,-5.48
6167.96,-5.44
6229.64,-5.30
6291.93,-5.10
6354.85,-4.87
6418.40,-4.59
6482.58,-4.30
6547.41,-4.05
6612.88,-3.84
6679.01,-3.68
6745.80,-3.58
6813.26,-3.50
6881.39,-3.49
6950.21,-3.49
7019.71,-3.52
7089.91,-3.56
7160.81,-3.60
7232.41,-3.68
7304.74,-3.78
7377.79,-3.90
7451.56,-4.03
7526.08,-4.19
7601.34,-4.32
7677.35,-4.45
7754.13,-4.52
7831.67,-4.56
7909.98,-4.56
7989.08,-4.56
8068.98,-4.51
8149.67,-4.59
8231.16,-4.67
8313.47,-4.88
8396.61,-5.20
8480.57,-5.58
8565.38,-6.11
8651.03,-6.78
8737.54,-7.53
8824.92,-8.36
8913.17,-9.21
9002.30,-10.12
9092.32,-10.84
9183.25,-11.31
9275.08,-11.69
9367.83,-11.47
9461.51,-10.99
9556.12,-10.27
9651.68,-9.36
9748.20,-8.34
9845.68,-7.24
9944.14,-6.16
10043.58,-5.15
10144.02,-4.33
10245.46,-3.67
10347.91,-3.16
10451.39,-2.87
10555.91,-2.76
10661.46,-2.93
10768.08,-3.12
10875.76,-3.35
10984.52,-3.56
11094.36,-3.77
11205.31,-3.91
11317.36,-4.01
11430.53,-4.08
11544.84,-4.09
11660.29,-4.00
11776.89,-3.86
11894.66,-3.62
12013.60,-3.33
12133.74,-3.04
12255.08,-2.78
12377.63,-2.57
12501.41,-2.56
12626.42,-2.77
12752.68,-3.11
12880.21,-3.60
13009.01,-4.25
13139.10,-5.02
13270.49,-5.87
13403.20,-6.79
13537.23,-7.72
13672.60,-8.58
13809.33,-9.35
13947.42,-9.98
14086.90,-10.49
14227.77,-10.85
14370.04,-11.07
14513.74,-11.18
14658.88,-11.21
14805.47,-11.13
14953.52,-11.02
15103.06,-10.83
15254.09,-10.62
15406.63,-10.30
15560.70,-9.87
15716.30,-9.31
15873.47,-8.69
16032.20,-8.10
16192.52,-7.59
16354.45,-7.26
16517.99,-7.29
16683.17,-7.61
16850.01,-8.07
17018.51,-8.68
17188.69,-9.40
17360.58,-10.21
17534.18,-11.00
17709.53,-11.70
17886.62,-12.25
18065.49,-12.60
18246.14,-12.75
18428.60,-12.66
18612.89,-12.53
18799.02,-12.40
18987.01,-12.34
19176.88,-12.26
19368.65,-12.33
19562.33,-12.50
19757.96,-12.74
19955.54,-12.87
