frequency,raw,smoothed,error,error_smoothed,equalization,parametric_eq,fixed_band_eq,equalized_raw,equalized_smoothed,target
20.00,5.86,5.87,-0.59,-0.58,0.58,0.12,-0.26,6.45,6.45,6.45
20.20,5.91,5.91,-0.53,-0.54,0.54,0.10,-0.27,6.45,6.45,6.45
20.40,5.95,5.96,-0.49,-0.49,0.50,0.08,-0.28,6.45,6.45,6.45
20.61,6.00,6.00,-0.44,-0.45,0.45,0.06,-0.29,6.46,6.45,6.45
20.81,6.03,6.04,-0.41,-0.41,0.41,0.04,-0.29,6.44,6.44,6.45
21.02,6.07,6.08,-0.37,-0.37,0.37,0.02,-0.30,6.44,6.44,6.45
21.23,6.11,6.12,-0.33,-0.33,0.32,0.00,-0.31,6.44,6.44,6.45
21.44,6.16,6.16,-0.28,-0.28,0.28,-0.02,-0.32,6.44,6.44,6.44
21.66,6.20,6.21,-0.24,-0.24,0.24,-0.04,-0.33,6.44,6.44,6.44
21.87,6.25,6.25,-0.19,-0.19,0.19,-0.06,-0.34,6.45,6.44,6.44
22.09,6.29,6.29,-0.15,-0.15,0.15,-0.07,-0.35,6.44,6.44,6.44
22.31,6.33,6.34,-0.11,-0.11,0.11,-0.09,-0.35,6.44,6.44,6.44
22.54,6.37,6.37,-0.07,-0.07,0.07,-0.11,-0.36,6.44,6.44,6.44
22.76,6.41,6.41,-0.03,-0.03,0.03,-0.13,-0.37,6.44,6.44,6.44
22.99,6.45,6.45,0.02,0.01,-0.01,-0.15,-0.38,6.44,6.44,6.44
23.22,6.48,6.48,0.05,0.05,-0.05,-0.17,-0.40,6.44,6.44,6.44
23.45,6.51,6.52,0.08,0.08,-0.08,-0.19,-0.41,6.43,6.43,6.44
23.69,6.54,6.55,0.11,0.11,-0.11,-0.21,-0.42,6.43,6.43,6.44
23.92,6.58,6.58,0.15,0.15,-0.15,-0.23,-0.43,6.44,6.43,6.43
24.16,6.61,6.61,0.18,0.18,-0.18,-0.25,-0.44,6.44,6.44,6.43
24.40,6.64,6.64,0.21,0.21,-0.21,-0.26,-0.45,6.44,6.44,6.43
24.65,6.67,6.67,0.24,0.24,-0.24,-0.28,-0.46,6.43,6.43,6.43
24.89,6.69,6.70,0.27,0.27,-0.27,-0.30,-0.47,6.42,6.43,6.43
25.14,6.72,6.72,0.30,0.30,-0.30,-0.32,-0.49,6.42,6.42,6.43
25.39,6.75,6.75,0.33,0.33,-0.33,-0.34,-0.50,6.42,6.42,6.43
25.65,6.78,6.79,0.36,0.36,-0.36,-0.35,-0.51,6.42,6.42,6.42
25.91,6.82,6.82,0.40,0.40,-0.40,-0.37,-0.52,6.43,6.42,6.42
26.16,6.85,6.85,0.43,0.43,-0.43,-0.39,-0.54,6.42,6.42,6.42
26.43,6.88,6.89,0.46,0.47,-0.46,-0.41,-0.55,6.42,6.42,6.42
26.69,6.91,6.92,0.50,0.50,-0.50,-0.42,-0.56,6.42,6.42,6.42
26.96,6.95,6.95,0.54,0.53,-0.53,-0.44,-0.57,6.42,6.42,6.42
27.23,6.97,6.98,0.56,0.56,-0.56,-0.46,-0.59,6.42,6.42,6.41
27.50,7.00,7.00,0.59,0.59,-0.59,-0.48,-0.60,6.42,6.42,6.41
27.77,7.02,7.02,0.61,0.61,-0.61,-0.49,-0.61,6.41,6.41,6.41
28.05,7.04,7.04,0.63,0.64,-0.64,-0.51,-0.62,6.41,6.41,6.41
28.33,7.06,7.06,0.66,0.66,-0.66,-0.53,-0.63,6.40,6.40,6.41
28.62,7.08,7.08,0.68,0.68,-0.68,-0.54,-0.64,6.40,6.40,6.40
28.90,7.10,7.10,0.70,0.70,-0.70,-0.56,-0.66,6.40,6.40,6.40
29.19,7.12,7.12,0.72,0.72,-0.72,-0.57,-0.67,6.40,6.40,6.40
29.48,7.14,7.14,0.75,0.75,-0.74,-0.59,-0.68,6.40,6.40,6.40
29.78,7.16,7.16,0.77,0.77,-0.77,-0.61,-0.69,6.40,6.40,6.40
30.08,7.18,7.18,0.79,0.79,-0.79,-0.62,-0.70,6.40,6.39,6.39
30.38,7.19,7.20,0.80,0.81,-0.81,-0.64,-0.70,6.38,6.39,6.39
30.68,7.21,7.21,0.83,0.83,-0.83,-0.65,-0.71,6.38,6.38,6.39
30.99,7.23,7.23,0.85,0.85,-0.85,-0.67,-0.72,6.38,6.38,6.38
31.30,7.25,7.25,0.87,0.87,-0.87,-0.68,-0.73,6.38,6.38,6.38
31.61,7.27,7.27,0.90,0.89,-0.89,-0.70,-0.74,6.38,6.38,6.38
31.93,7.28,7.29,0.91,0.91,-0.91,-0.71,-0.74,6.37,6.38,6.37
32.24,7.30,7.30,0.93,0.93,-0.93,-0.73,-0.75,6.38,6.37,6.37
32.57,7.31,7.31,0.95,0.94,-0.95,-0.74,-0.75,6.37,6.37,6.37
32.89,7.32,7.33,0.96,0.96,-0.96,-0.76,-0.76,6.36,6.36,6.36
33.22,7.33,7.34,0.97,0.98,-0.98,-0.77,-0.76,6.35,6.36,6.36
33.55,7.35,7.35,1.00,0.99,-1.00,-0.78,-0.77,6.36,6.35,6.36
33.89,7.36,7.36,1.01,1.01,-1.01,-0.80,-0.77,6.35,6.35,6.35
34.23,7.37,7.38,1.03,1.03,-1.03,-0.81,-0.78,6.34,6.35,6.35
34.57,7.39,7.39,1.05,1.05,-1.05,-0.83,-0.78,6.35,6.35,6.34
34.92,7.40,7.40,1.06,1.06,-1.06,-0.84,-0.79,6.34,6.34,6.34
35.27,7.41,7.41,1.08,1.08,-1.07,-0.85,-0.79,6.34,6.34,6.33
35.62,7.41,7.42,1.08,1.09,-1.09,-0.87,-0.79,6.33,6.33,6.33
35.97,7.42,7.42,1.10,1.10,-1.10,-0.88,-0.80,6.32,6.32,6.32
36.33,7.43,7.43,1.11,1.11,-1.11,-0.89,-0.80,6.32,6.32,6.32
36.70,7.43,7.44,1.12,1.12,-1.12,-0.91,-0.81,6.31,6.31,6.31
37.06,7.44,7.44,1.14,1.13,-1.13,-0.92,-0.81,6.31,6.31,6.31
37.43,7.44,7.45,1.14,1.14,-1.14,-0.93,-0.81,6.30,6.30,6.30
37.81,7.45,7.45,1.16,1.15,-1.15,-0.94,-0.82,6.30,6.30,6.30
38.19,7.45,7.45,1.16,1.16,-1.16,-0.96,-0.82,6.29,6.29,6.29
38.57,7.45,7.46,1.17,1.17,-1.17,-0.97,-0.83,6.28,6.28,6.28
38.95,7.46,7.46,1.19,1.18,-1.18,-0.98,-0.84,6.28,6.28,6.28
39.34,7.46,7.46,1.19,1.19,-1.19,-0.99,-0.84,6.27,6.27,6.27
39.74,7.46,7.46,1.20,1.20,-1.20,-1.00,-0.85,6.26,6.26,6.26
40.14,7.46,7.46,1.21,1.21,-1.21,-1.02,-0.86,6.25,6.25,6.25
40.54,7.46,7.46,1.22,1.22,-1.22,-1.03,-0.87,6.25,6.25,6.25
40.94,7.46,7.46,1.23,1.22,-1.22,-1.04,-0.87,6.24,6.24,6.24
41.35,7.46,7.46,1.23,1.23,-1.23,-1.05,-0.88,6.23,6.23,6.23
41.76,7.45,7.46,1.23,1.24,-1.24,-1.06,-0.89,6.22,6.22,6.22
42.18,7.45,7.46,1.24,1.24,-1.24,-1.07,-0.90,6.21,6.21,6.21
42.60,7.45,7.45,1.25,1.25,-1.25,-1.08,-0.92,6.20,6.20,6.20
43.03,7.45,7.45,1.26,1.26,-1.26,-1.10,-0.93,6.20,6.19,6.19
43.46,7.44,7.45,1.26,1.26,-1.26,-1.11,-0.94,6.18,6.19,6.18
43.90,7.44,7.44,1.27,1.27,-1.27,-1.12,-0.95,6.18,6.18,6.17
44.33,7.43,7.43,1.27,1.27,-1.27,-1.13,-0.97,6.16,6.16,6.16
44.78,7.42,7.42,1.27,1.27,-1.27,-1.14,-0.98,6.15,6.15,6.15
45.23,7.41,7.41,1.27,1.27,-1.28,-1.15,-1.00,6.14,6.13,6.14
45.68,7.40,7.40,1.28,1.28,-1.28,-1.16,-1.01,6.12,6.12,6.13
46.13,7.39,7.40,1.28,1.28,-1.28,-1.17,-1.03,6.11,6.11,6.11
46.60,7.39,7.39,1.29,1.29,-1.29,-1.18,-1.05,6.11,6.10,6.10
47.06,7.38,7.38,1.30,1.29,-1.29,-1.19,-1.07,6.09,6.09,6.09
47.53,7.37,7.37,1.30,1.30,-1.29,-1.20,-1.09,6.08,6.08,6.07
48.01,7.35,7.36,1.29,1.30,-1.30,-1.21,-1.11,6.06,6.06,6.06
48.49,7.34,7.35,1.30,1.30,-1.30,-1.22,-1.13,6.04,6.04,6.05
48.97,7.33,7.33,1.30,1.30,-1.30,-1.23,-1.15,6.03,6.03,6.03
49.46,7.32,7.32,1.31,1.31,-1.31,-1.24,-1.17,6.02,6.02,6.01
49.96,7.30,7.31,1.31,1.31,-1.31,-1.25,-1.19,6.00,6.00,6.00
50.46,7.29,7.29,1.31,1.31,-1.31,-1.27,-1.21,5.98,5.98,5.98
50.96,7.27,7.28,1.31,1.31,-1.31,-1.28,-1.24,5.96,5.96,5.96
51.47,7.26,7.26,1.32,1.32,-1.32,-1.29,-1.26,5.95,5.95,5.95
51.99,7.24,7.24,1.32,1.32,-1.32,-1.30,-1.28,5.93,5.93,5.93
52.51,7.22,7.23,1.32,1.32,-1.32,-1.31,-1.31,5.90,5.90,5.91
53.03,7.21,7.21,1.33,1.32,-1.33,-1.32,-1.33,5.89,5.88,5.89
53.56,7.19,7.20,1.33,1.33,-1.33,-1.33,-1.35,5.86,5.87,5.87
54.10,7.18,7.18,1.34,1.34,-1.33,-1.34,-1.38,5.85,5.85,5.85
54.64,7.16,7.16,1.34,1.34,-1.34,-1.35,-1.40,5.83,5.83,5.82
55.18,7.14,7.14,1.34,1.34,-1.34,-1.36,-1.42,5.81,5.81,5.80
55.74,7.12,7.12,1.35,1.34,-1.34,-1.37,-1.45,5.78,5.78,5.78
56.29,7.09,7.10,1.34,1.34,-1.34,-1.38,-1.47,5.75,5.75,5.75
56.86,7.07,7.07,1.35,1.34,-1.35,-1.39,-1.49,5.73,5.72,5.73
57.42,7.04,7.05,1.34,1.34,-1.35,-1.40,-1.51,5.69,5.69,5.70
58.00,7.02,7.02,1.35,1.35,-1.36,-1.41,-1.53,5.67,5.67,5.68
58.58,7.00,7.01,1.35,1.36,-1.36,-1.42,-1.55,5.64,5.64,5.65
59.16,6.99,6.99,1.37,1.37,-1.37,-1.43,-1.57,5.63,5.62,5.62
59.76,6.97,6.97,1.38,1.38,-1.37,-1.44,-1.58,5.60,5.60,5.59
60.35,6.95,6.95,1.39,1.39,-1.38,-1.45,-1.60,5.58,5.58,5.56
60.96,6.92,6.92,1.39,1.39,-1.38,-1.46,-1.61,5.54,5.54,5.53
61.57,6.88,6.88,1.38,1.38,-1.38,-1.48,-1.63,5.50,5.50,5.50
62.18,6.84,6.85,1.38,1.38,-1.39,-1.49,-1.64,5.46,5.46,5.47
62.80,6.81,6.81,1.38,1.38,-1.39,-1.50,-1.65,5.43,5.43,5.43
63.43,6.78,6.79,1.38,1.39,-1.39,-1.51,-1.66,5.39,5.40,5.40
64.07,6.76,6.76,1.40,1.39,-1.39,-1.52,-1.67,5.37,5.37,5.37
64.71,6.73,6.73,1.40,1.40,-1.40,-1.53,-1.67,5.34,5.33,5.33
65.35,6.69,6.70,1.40,1.41,-1.40,-1.55,-1.68,5.29,5.29,5.29
66.01,6.66,6.67,1.41,1.41,-1.41,-1.56,-1.68,5.25,5.25,5.25
66.67,6.63,6.63,1.42,1.42,-1.42,-1.57,-1.69,5.22,5.21,5.22
67.33,6.60,6.60,1.43,1.43,-1.42,-1.58,-1.69,5.18,5.18,5.18
68.01,6.56,6.57,1.43,1.43,-1.43,-1.59,-1.69,5.13,5.13,5.13
68.69,6.53,6.53,1.44,1.44,-1.44,-1.61,-1.69,5.09,5.09,5.09
69.37,6.49,6.50,1.44,1.45,-1.45,-1.62,-1.70,5.05,5.05,5.05
70.07,6.46,6.46,1.46,1.46,-1.46,-1.63,-1.70,5.01,5.00,5.01
70.77,6.42,6.43,1.46,1.47,-1.47,-1.65,-1.70,4.96,4.96,4.96
71.48,6.39,6.39,1.48,1.48,-1.48,-1.66,-1.70,4.92,4.91,4.91
72.19,6.35,6.36,1.49,1.49,-1.49,-1.67,-1.70,4.86,4.87,4.87
72.91,6.32,6.32,1.51,1.50,-1.50,-1.69,-1.70,4.82,4.82,4.82
73.64,6.28,6.28,1.51,1.51,-1.51,-1.70,-1.70,4.77,4.77,4.77
74.38,6.24,6.24,1.52,1.53,-1.52,-1.72,-1.70,4.72,4.72,4.72
75.12,6.20,6.20,1.54,1.54,-1.54,-1.73,-1.70,4.67,4.67,4.67
75.87,6.16,6.16,1.55,1.55,-1.55,-1.74,-1.71,4.61,4.61,4.62
76.63,6.12,6.12,1.56,1.56,-1.56,-1.76,-1.71,4.56,4.56,4.56
77.40,6.08,6.08,1.58,1.58,-1.58,-1.77,-1.71,4.51,4.51,4.51
78.17,6.04,6.04,1.59,1.59,-1.59,-1.79,-1.72,4.45,4.45,4.45
78.95,6.00,6.00,1.61,1.61,-1.61,-1.80,-1.72,4.40,4.40,4.40
79.74,5.96,5.96,1.62,1.62,-1.62,-1.82,-1.73,4.34,4.34,4.34
80.54,5.91,5.92,1.63,1.64,-1.64,-1.83,-1.74,4.28,4.28,4.28
81.35,5.87,5.87,1.65,1.65,-1.65,-1.85,-1.75,4.22,4.22,4.22
82.16,5.83,5.83,1.67,1.67,-1.67,-1.87,-1.76,4.16,4.16,4.16
82.98,5.78,5.79,1.68,1.69,-1.69,-1.88,-1.77,4.10,4.10,4.10
83.81,5.74,5.74,1.71,1.70,-1.70,-1.90,-1.78,4.04,4.04,4.04
84.65,5.69,5.69,1.72,1.72,-1.72,-1.91,-1.79,3.97,3.97,3.98
85.50,5.64,5.65,1.73,1.74,-1.74,-1.93,-1.81,3.91,3.91,3.91
86.35,5.60,5.60,1.76,1.75,-1.75,-1.95,-1.83,3.85,3.85,3.85
87.22,5.55,5.55,1.77,1.77,-1.77,-1.96,-1.84,3.78,3.78,3.78
88.09,5.50,5.51,1.79,1.79,-1.79,-1.98,-1.86,3.71,3.72,3.72
88.97,5.46,5.46,1.81,1.81,-1.81,-2.00,-1.88,3.65,3.65,3.65
89.86,5.41,5.41,1.83,1.83,-1.83,-2.02,-1.91,3.58,3.58,3.58
90.76,5.36,5.36,1.85,1.85,-1.85,-2.03,-1.93,3.51,3.52,3.51
91.66,5.31,5.31,1.87,1.87,-1.87,-2.05,-1.96,3.44,3.44,3.45
92.58,5.26,5.26,1.89,1.89,-1.89,-2.07,-1.98,3.37,3.37,3.38
93.51,5.21,5.21,1.91,1.91,-1.91,-2.08,-2.01,3.31,3.31,3.31
94.44,5.16,5.16,1.93,1.93,-1.93,-2.10,-2.04,3.24,3.24,3.24
95.39,5.11,5.11,1.95,1.95,-1.95,-2.12,-2.07,3.17,3.17,3.17
96.34,5.06,5.06,1.97,1.97,-1.97,-2.14,-2.10,3.10,3.10,3.09
97.30,5.01,5.01,1.99,1.99,-1.99,-2.15,-2.14,3.03,3.02,3.02
98.28,4.95,4.96,2.00,2.01,-2.01,-2.17,-2.17,2.95,2.95,2.95
99.26,4.90,4.90,2.03,2.02,-2.02,-2.19,-2.21,2.88,2.88,2.88
100.25,4.85,4.85,2.05,2.04,-2.04,-2.20,-2.24,2.81,2.81,2.81
101.25,4.79,4.80,2.06,2.06,-2.06,-2.22,-2.28,2.73,2.73,2.73
102.27,4.74,4.74,2.08,2.08,-2.09,-2.24,-2.31,2.66,2.66,2.66
103.29,4.69,4.69,2.11,2.10,-2.11,-2.25,-2.35,2.59,2.59,2.59
104.32,4.64,4.64,2.13,2.13,-2.13,-2.27,-2.39,2.51,2.51,2.51
105.37,4.59,4.60,2.15,2.15,-2.15,-2.29,-2.43,2.44,2.44,2.44
106.42,4.54,4.55,2.18,2.18,-2.18,-2.30,-2.46,2.37,2.37,2.37
107.48,4.50,4.50,2.21,2.20,-2.20,-2.32,-2.50,2.30,2.30,2.30
108.56,4.44,4.45,2.22,2.22,-2.22,-2.33,-2.54,2.22,2.22,2.22
109.64,4.39,4.40,2.24,2.25,-2.24,-2.35,-2.57,2.15,2.15,2.15
110.74,4.34,4.34,2.27,2.27,-2.27,-2.36,-2.61,2.08,2.08,2.08
111.85,4.29,4.29,2.29,2.29,-2.29,-2.38,-2.64,2.01,2.01,2.01
112.97,4.24,4.24,2.31,2.31,-2.31,-2.39,-2.67,1.93,1.93,1.93
114.10,4.19,4.19,2.33,2.33,-2.33,-2.41,-2.70,1.86,1.86,1.86
115.24,4.14,4.14,2.35,2.35,-2.36,-2.42,-2.73,1.79,1.79,1.79
116.39,4.09,4.09,2.37,2.37,-2.38,-2.44,-2.76,1.72,1.72,1.72
117.55,4.04,4.05,2.39,2.40,-2.40,-2.45,-2.78,1.65,1.65,1.65
118.73,4.01,4.01,2.43,2.43,-2.42,-2.46,-2.80,1.59,1.59,1.58
119.92,3.97,3.96,2.46,2.45,-2.45,-2.47,-2.82,1.53,1.52,1.51
121.12,3.91,3.91,2.47,2.47,-2.47,-2.49,-2.83,1.44,1.44,1.44
122.33,3.85,3.87,2.48,2.49,-2.51,-2.50,-2.85,1.35,1.36,1.37
123.55,3.83,3.83,2.53,2.53,-2.54,-2.51,-2.86,1.29,1.29,1.31
124.79,3.81,3.81,2.58,2.57,-2.58,-2.52,-2.86,1.23,1.23,1.24
126.03,3.79,3.80,2.62,2.63,-2.63,-2.53,-2.86,1.17,1.17,1.17
127.29,3.78,3.78,2.68,2.67,-2.67,-2.54,-2.86,1.11,1.11,1.11
128.57,3.76,3.76,2.72,2.72,-2.71,-2.55,-2.86,1.05,1.05,1.04
129.85,3.74,3.74,2.77,2.76,-2.76,-2.56,-2.85,0.99,0.99,0.98
131.15,3.71,3.71,2.80,2.80,-2.79,-2.57,-2.84,0.92,0.92,0.92
132.46,3.68,3.68,2.83,2.83,-2.83,-2.57,-2.82,0.86,0.86,0.85
133.79,3.64,3.64,2.85,2.85,-2.85,-2.58,-2.81,0.79,0.79,0.79
135.12,3.60,3.60,2.87,2.87,-2.87,-2.59,-2.79,0.74,0.74,0.73
136.48,3.55,3.55,2.88,2.88,-2.88,-2.59,-2.77,0.67,0.67,0.67
137.84,3.50,3.50,2.89,2.89,-2.89,-2.60,-2.75,0.62,0.61,0.61
139.22,3.44,3.45,2.89,2.89,-2.89,-2.61,-2.72,0.55,0.55,0.56
140.61,3.39,3.39,2.89,2.89,-2.90,-2.61,-2.69,0.50,0.50,0.50
142.02,3.33,3.34,2.89,2.89,-2.90,-2.61,-2.67,0.44,0.44,0.44
143.44,3.28,3.28,2.90,2.90,-2.90,-2.62,-2.64,0.39,0.39,0.39
144.87,3.23,3.23,2.90,2.89,-2.90,-2.62,-2.61,0.34,0.33,0.34
146.32,3.17,3.18,2.89,2.89,-2.89,-2.62,-2.58,0.28,0.28,0.28
147.78,3.12,3.13,2.89,2.89,-2.89,-2.63,-2.55,0.23,0.23,0.23
149.26,3.07,3.07,2.89,2.89,-2.89,-2.63,-2.52,0.18,0.18,0.18
150.75,3.02,3.02,2.89,2.89,-2.89,-2.63,-2.49,0.14,0.13,0.13
152.26,2.96,2.97,2.88,2.89,-2.89,-2.63,-2.46,0.08,0.08,0.08
153.78,2.91,2.92,2.88,2.88,-2.88,-2.63,-2.43,0.03,0.03,0.03
155.32,2.87,2.87,2.89,2.88,-2.88,-2.63,-2.40,-0.01,-0.01,-0.01
156.88,2.82,2.82,2.88,2.88,-2.88,-2.63,-2.37,-0.06,-0.06,-0.06
158.44,2.77,2.78,2.88,2.88,-2.88,-2.62,-2.34,-0.11,-0.10,-0.10
160.03,2.73,2.73,2.88,2.88,-2.88,-2.62,-2.32,-0.15,-0.15,-0.14
161.63,2.68,2.69,2.88,2.88,-2.88,-2.62,-2.29,-0.19,-0.19,-0.20
163.24,2.64,2.64,2.88,2.88,-2.88,-2.62,-2.27,-0.23,-0.23,-0.24
164.88,2.59,2.59,2.87,2.87,-2.87,-2.61,-2.25,-0.28,-0.28,-0.28
166.53,2.54,2.55,2.86,2.86,-2.86,-2.61,-2.23,-0.32,-0.32,-0.32
168.19,2.49,2.50,2.85,2.85,-2.85,-2.60,-2.21,-0.36,-0.36,-0.36
169.87,2.45,2.45,2.85,2.84,-2.84,-2.60,-2.19,-0.39,-0.39,-0.39
171.57,2.39,2.40,2.82,2.83,-2.83,-2.59,-2.17,-0.43,-0.43,-0.43
173.29,2.34,2.34,2.81,2.81,-2.81,-2.59,-2.16,-0.47,-0.47,-0.47
175.02,2.29,2.29,2.79,2.79,-2.79,-2.58,-2.14,-0.50,-0.50,-0.50
176.77,2.23,2.24,2.77,2.77,-2.77,-2.57,-2.13,-0.54,-0.53,-0.53
178.54,2.18,2.18,2.75,2.75,-2.75,-2.57,-2.12,-0.57,-0.57,-0.57
180.32,2.13,2.13,2.73,2.73,-2.73,-2.56,-2.11,-0.59,-0.60,-0.60
182.13,2.07,2.08,2.70,2.71,-2.71,-2.55,-2.11,-0.63,-0.63,-0.63
183.95,2.02,2.02,2.68,2.68,-2.68,-2.54,-2.10,-0.66,-0.66,-0.66
185.79,1.96,1.97,2.65,2.65,-2.66,-2.53,-2.10,-0.69,-0.69,-0.69
187.65,1.91,1.92,2.63,2.63,-2.63,-2.52,-2.10,-0.72,-0.72,-0.72
189.52,1.86,1.86,2.61,2.61,-2.61,-2.51,-2.10,-0.74,-0.74,-0.74
191.42,1.81,1.81,2.58,2.58,-2.58,-2.50,-2.10,-0.77,-0.77,-0.77
193.33,1.75,1.76,2.55,2.55,-2.55,-2.49,-2.10,-0.80,-0.80,-0.80
195.27,1.70,1.71,2.53,2.53,-2.53,-2.48,-2.11,-0.82,-0.82,-0.82
197.22,1.65,1.65,2.50,2.50,-2.50,-2.47,-2.11,-0.84,-0.85,-0.85
199.19,1.60,1.60,2.47,2.47,-2.47,-2.46,-2.12,-0.87,-0.87,-0.87
201.18,1.54,1.55,2.44,2.44,-2.44,-2.45,-2.12,-0.90,-0.89,-0.89
203.19,1.49,1.49,2.41,2.41,-2.41,-2.44,-2.13,-0.92,-0.92,-0.91
205.23,1.44,1.44,2.38,2.38,-2.38,-2.42,-2.14,-0.94,-0.94,-0.94
207.28,1.39,1.39,2.35,2.35,-2.35,-2.41,-2.15,-0.96,-0.96,-0.96
209.35,1.34,1.34,2.32,2.32,-2.32,-2.40,-2.16,-0.98,-0.98,-0.98
211.44,1.29,1.29,2.29,2.29,-2.29,-2.38,-2.17,-0.99,-0.99,-1.00
213.56,1.24,1.24,2.26,2.26,-2.26,-2.37,-2.18,-1.01,-1.01,-1.02
215.69,1.19,1.19,2.23,2.23,-2.22,-2.36,-2.19,-1.03,-1.03,-1.03
217.85,1.14,1.14,2.20,2.20,-2.19,-2.34,-2.21,-1.05,-1.05,-1.05
220.03,1.09,1.10,2.16,2.16,-2.16,-2.33,-2.22,-1.07,-1.06,-1.07
222.23,1.05,1.05,2.14,2.13,-2.13,-2.31,-2.23,-1.08,-1.08,-1.08
224.45,1.00,1.01,2.10,2.11,-2.11,-2.30,-2.24,-1.10,-1.10,-1.10
226.70,0.96,0.97,2.08,2.08,-2.09,-2.28,-2.25,-1.13,-1.13,-1.12
228.96,0.93,0.93,2.07,2.06,-2.08,-2.27,-2.25,-1.15,-1.15,-1.13
231.25,0.90,0.91,2.05,2.05,-2.07,-2.25,-2.26,-1.17,-1.17,-1.15
233.57,0.89,0.89,2.05,2.06,-2.07,-2.24,-2.27,-1.18,-1.18,-1.16
235.90,0.88,0.89,2.07,2.07,-2.07,-2.22,-2.27,-1.18,-1.17,-1.18
238.26,0.89,0.89,2.09,2.09,-2.06,-2.20,-2.27,-1.17,-1.17,-1.20
240.64,0.89,0.87,2.10,2.08,-2.06,-2.19,-2.27,-1.16,-1.19,-1.21
243.05,0.82,0.84,2.04,2.06,-2.05,-2.17,-2.27,-1.22,-1.21,-1.22
245.48,0.79,0.80,2.03,2.03,-2.03,-2.16,-2.27,-1.24,-1.23,-1.23
247.93,0.76,0.76,2.01,2.00,-2.01,-2.14,-2.26,-1.25,-1.25,-1.24
250.41,0.72,0.73,1.98,1.98,-1.99,-2.12,-2.26,-1.26,-1.26,-1.25
252.92,0.69,0.69,1.96,1.96,-1.96,-2.10,-2.25,-1.27,-1.27,-1.27
255.45,0.65,0.65,1.93,1.93,-1.93,-2.09,-2.24,-1.28,-1.28,-1.28
258.00,0.61,0.62,1.90,1.90,-1.90,-2.07,-2.22,-1.29,-1.29,-1.29
260.58,0.58,0.58,1.88,1.88,-1.88,-2.05,-2.21,-1.29,-1.29,-1.30
263.19,0.54,0.55,1.85,1.85,-1.85,-2.04,-2.19,-1.31,-1.30,-1.30
265.82,0.51,0.51,1.83,1.82,-1.83,-2.02,-2.17,-1.31,-1.31,-1.31
268.48,0.47,0.48,1.80,1.80,-1.80,-2.00,-2.15,-1.33,-1.32,-1.32
271.16,0.44,0.44,1.77,1.77,-1.77,-1.98,-2.13,-1.33,-1.33,-1.33
273.87,0.41,0.41,1.75,1.75,-1.75,-1.97,-2.10,-1.34,-1.34,-1.34
276.61,0.37,0.38,1.72,1.73,-1.73,-1.95,-2.08,-1.35,-1.35,-1.35
279.38,0.35,0.35,1.71,1.70,-1.70,-1.93,-2.05,-1.35,-1.35,-1.35
282.17,0.32,0.32,1.68,1.68,-1.68,-1.91,-2.03,-1.35,-1.36,-1.36
284.99,0.29,0.29,1.65,1.65,-1.65,-1.89,-2.00,-1.36,-1.36,-1.36
287.84,0.26,0.27,1.62,1.63,-1.62,-1.88,-1.97,-1.36,-1.36,-1.35
290.72,0.24,0.24,1.60,1.60,-1.60,-1.86,-1.94,-1.35,-1.35,-1.36
293.63,0.22,0.21,1.59,1.57,-1.57,-1.84,-1.91,-1.35,-1.36,-1.37
296.57,0.18,0.18,1.55,1.55,-1.55,-1.82,-1.88,-1.37,-1.37,-1.36
299.53,0.14,0.16,1.50,1.52,-1.53,-1.81,-1.85,-1.38,-1.37,-1.36
302.53,0.14,0.14,1.51,1.50,-1.51,-1.79,-1.83,-1.36,-1.37,-1.36
305.55,0.13,0.13,1.49,1.49,-1.49,-1.77,-1.80,-1.35,-1.36,-1.36
308.61,0.11,0.11,1.48,1.48,-1.47,-1.75,-1.77,-1.36,-1.36,-1.36
311.69,0.09,0.10,1.45,1.46,-1.45,-1.73,-1.74,-1.36,-1.36,-1.36
314.81,0.07,0.08,1.44,1.44,-1.44,-1.72,-1.71,-1.36,-1.36,-1.36
317.96,0.06,0.06,1.42,1.42,-1.42,-1.70,-1.69,-1.35,-1.36,-1.36
321.14,0.04,0.04,1.41,1.40,-1.40,-1.68,-1.66,-1.36,-1.36,-1.36
324.35,0.02,0.03,1.38,1.38,-1.39,-1.66,-1.64,-1.36,-1.36,-1.36
327.59,0.01,0.01,1.36,1.36,-1.37,-1.65,-1.61,-1.35,-1.36,-1.35
330.87,-0.01,-0.00,1.35,1.35,-1.35,-1.63,-1.59,-1.36,-1.36,-1.35
334.18,-0.02,-0.02,1.33,1.34,-1.34,-1.61,-1.57,-1.35,-1.35,-1.35
337.52,-0.03,-0.03,1.33,1.32,-1.32,-1.59,-1.55,-1.35,-1.35,-1.35
340.90,-0.04,-0.04,1.31,1.31,-1.31,-1.58,-1.53,-1.34,-1.34,-1.35
344.30,-0.05,-0.05,1.29,1.30,-1.29,-1.56,-1.51,-1.34,-1.34,-1.34
347.75,-0.06,-0.06,1.28,1.28,-1.28,-1.54,-1.49,-1.33,-1.34,-1.33
351.23,-0.07,-0.07,1.27,1.26,-1.27,-1.53,-1.47,-1.33,-1.33,-1.34
354.74,-0.08,-0.07,1.24,1.25,-1.25,-1.51,-1.46,-1.33,-1.32,-1.32
358.28,-0.08,-0.08,1.25,1.24,-1.24,-1.49,-1.44,-1.31,-1.32,-1.32
361.87,-0.09,-0.09,1.23,1.23,-1.23,-1.48,-1.43,-1.31,-1.31,-1.31
365.49,-0.10,-0.09,1.21,1.22,-1.22,-1.46,-1.42,-1.31,-1.31,-1.31
369.14,-0.10,-0.10,1.21,1.20,-1.21,-1.45,-1.41,-1.30,-1.31,-1.31
372.83,-0.11,-0.10,1.19,1.19,-1.20,-1.43,-1.40,-1.30,-1.30,-1.29
376.56,-0.11,-0.11,1.19,1.19,-1.19,-1.41,-1.39,-1.30,-1.30,-1.29
380.33,-0.11,-0.11,1.18,1.18,-1.18,-1.40,-1.38,-1.29,-1.29,-1.29
384.13,-0.11,-0.11,1.18,1.18,-1.17,-1.38,-1.37,-1.28,-1.28,-1.29
387.97,-0.11,-0.11,1.18,1.17,-1.17,-1.37,-1.37,-1.27,-1.27,-1.28
391.85,-0.11,-0.11,1.16,1.17,-1.16,-1.35,-1.36,-1.27,-1.27,-1.26
395.77,-0.11,-0.11,1.16,1.15,-1.16,-1.34,-1.36,-1.27,-1.27,-1.27
399.73,-0.11,-0.11,1.15,1.15,-1.16,-1.32,-1.35,-1.26,-1.26,-1.26
403.72,-0.11,-0.10,1.14,1.15,-1.15,-1.31,-1.35,-1.26,-1.26,-1.25
407.76,-0.10,-0.10,1.16,1.15,-1.15,-1.30,-1.35,-1.25,-1.25,-1.25
411.84,-0.10,-0.09,1.15,1.15,-1.15,-1.28,-1.35,-1.24,-1.24,-1.24
415.96,-0.09,-0.09,1.15,1.15,-1.15,-1.27,-1.35,-1.23,-1.24,-1.24
420.12,-0.09,-0.08,1.15,1.15,-1.15,-1.26,-1.35,-1.24,-1.23,-1.24
424.32,-0.08,-0.08,1.15,1.15,-1.15,-1.25,-1.34,-1.23,-1.23,-1.23
428.56,-0.07,-0.07,1.15,1.15,-1.15,-1.23,-1.34,-1.22,-1.22,-1.22
432.85,-0.07,-0.06,1.15,1.15,-1.15,-1.22,-1.34,-1.22,-1.21,-1.21
437.18,-0.06,-0.06,1.16,1.15,-1.15,-1.21,-1.34,-1.21,-1.21,-1.21
441.55,-0.05,-0.05,1.16,1.16,-1.15,-1.20,-1.34,-1.20,-1.20,-1.20
445.96,-0.04,-0.04,1.16,1.16,-1.15,-1.19,-1.34,-1.19,-1.19,-1.20
450.42,-0.03,-0.03,1.15,1.15,-1.16,-1.18,-1.34,-1.18,-1.18,-1.18
454.93,-0.02,-0.02,1.15,1.15,-1.16,-1.17,-1.34,-1.17,-1.18,-1.17
459.48,-0.01,-0.01,1.15,1.16,-1.16,-1.16,-1.34,-1.17,-1.17,-1.16
464.07,0.00,0.01,1.16,1.16,-1.16,-1.15,-1.34,-1.16,-1.16,-1.16
468.71,0.02,0.02,1.18,1.17,-1.17,-1.15,-1.33,-1.14,-1.15,-1.15
473.40,0.03,0.03,1.18,1.18,-1.17,-1.14,-1.33,-1.14,-1.14,-1.14
478.13,0.04,0.04,1.18,1.18,-1.18,-1.13,-1.33,-1.13,-1.13,-1.13
482.91,0.05,0.05,1.18,1.18,-1.18,-1.13,-1.32,-1.12,-1.12,-1.12
487.74,0.06,0.06,1.18,1.18,-1.18,-1.12,-1.31,-1.12,-1.12,-1.12
492.62,0.07,0.07,1.18,1.18,-1.18,-1.12,-1.30,-1.11,-1.11,-1.11
497.55,0.08,0.08,1.18,1.18,-1.18,-1.11,-1.30,-1.10,-1.10,-1.10
502.52,0.09,0.09,1.18,1.18,-1.18,-1.11,-1.29,-1.09,-1.09,-1.09
507.55,0.10,0.10,1.17,1.18,-1.18,-1.11,-1.27,-1.08,-1.08,-1.07
