frequency,raw,error,smoothed,error_smoothed,equalization,parametric_eq,equalized_raw,equalized_smoothed,target
20.00,9.40,4.86,9.36,4.83,-4.83,-2.76,4.57,4.53,4.54
20.20,9.43,4.89,9.41,4.88,-4.88,-2.83,4.55,4.53,4.54
20.40,9.47,4.93,9.46,4.93,-4.93,-2.91,4.54,4.53,4.54
20.61,9.50,4.96,9.51,4.98,-4.98,-2.99,4.52,4.53,4.54
20.81,9.53,4.99,9.56,5.03,-5.03,-3.07,4.50,4.53,4.54
21.02,9.57,5.03,9.61,5.07,-5.07,-3.16,4.49,4.53,4.54
21.23,9.62,5.08,9.65,5.12,-5.12,-3.25,4.50,4.53,4.54
21.44,9.67,5.13,9.69,5.16,-5.16,-3.34,4.51,4.53,4.54
21.66,9.73,5.19,9.74,5.20,-5.20,-3.43,4.52,4.53,4.54
21.87,9.78,5.24,9.77,5.25,-5.25,-3.53,4.53,4.53,4.54
22.09,9.83,5.29,9.81,5.28,-5.28,-3.62,4.54,4.53,4.53
22.31,9.87,5.34,9.85,5.32,-5.32,-3.72,4.55,4.53,4.53
22.54,9.91,5.38,9.88,5.36,-5.36,-3.83,4.55,4.52,4.53
22.76,9.96,5.43,9.91,5.39,-5.39,-3.93,4.57,4.52,4.53
22.99,10.00,5.47,9.94,5.42,-5.42,-4.04,4.58,4.52,4.53
23.22,10.00,5.47,9.97,5.46,-5.46,-4.15,4.54,4.51,4.53
23.45,10.00,5.47,10.00,5.49,-5.49,-4.26,4.51,4.51,4.53
23.69,10.00,5.47,10.03,5.52,-5.52,-4.38,4.48,4.51,4.53
23.92,10.00,5.47,10.06,5.56,-5.56,-4.49,4.44,4.51,4.52
24.16,10.03,5.51,10.10,5.59,-5.59,-4.61,4.44,4.51,4.52
24.40,10.08,5.56,10.13,5.62,-5.62,-4.74,4.46,4.51,4.52
24.65,10.12,5.60,10.16,5.66,-5.66,-4.86,4.46,4.50,4.52
24.89,10.17,5.65,10.19,5.69,-5.69,-4.98,4.48,4.50,4.52
25.14,10.23,5.71,10.22,5.72,-5.72,-5.11,4.51,4.49,4.52
25.39,10.29,5.77,10.25,5.76,-5.76,-5.24,4.53,4.49,4.52
25.65,10.36,5.84,10.29,5.80,-5.80,-5.37,4.56,4.50,4.51
25.91,10.43,5.91,10.33,5.83,-5.83,-5.49,4.60,4.50,4.51
26.16,10.43,5.92,10.37,5.87,-5.87,-5.62,4.56,4.51,4.51
26.43,10.41,5.90,10.41,5.90,-5.90,-5.75,4.51,4.51,4.51
26.69,10.39,5.88,10.44,5.93,-5.93,-5.88,4.46,4.51,4.51
26.96,10.36,5.85,10.46,5.96,-5.96,-6.01,4.40,4.50,4.51
27.23,10.43,5.92,10.49,5.99,-5.99,-6.13,4.44,4.50,4.50
27.50,10.51,6.01,10.51,6.02,-6.02,-6.25,4.49,4.49,4.50
27.77,10.59,6.09,10.54,6.05,-6.05,-6.37,4.54,4.49,4.50
28.05,10.65,6.15,10.57,6.08,-6.08,-6.49,4.57,4.49,4.50
28.33,10.62,6.12,10.60,6.11,-6.11,-6.60,4.51,4.49,4.50
28.62,10.60,6.10,10.63,6.14,-6.14,-6.70,4.46,4.49,4.49
28.90,10.58,6.09,10.66,6.17,-6.17,-6.80,4.41,4.49,4.49
29.19,10.62,6.13,10.68,6.20,-6.20,-6.90,4.42,4.49,4.49
29.48,10.71,6.22,10.71,6.22,-6.22,-6.98,4.48,4.48,4.49
29.78,10.79,6.30,10.73,6.25,-6.25,-7.06,4.54,4.48,4.49
30.08,10.85,6.37,10.75,6.28,-6.28,-7.13,4.57,4.47,4.48
30.38,10.83,6.35,10.77,6.30,-6.30,-7.20,4.53,4.47,4.48
30.68,10.82,6.34,10.79,6.33,-6.33,-7.25,4.49,4.46,4.48
30.99,10.81,6.33,10.81,6.35,-6.35,-7.30,4.46,4.46,4.47
31.30,10.80,6.33,10.84,6.38,-6.38,-7.33,4.42,4.46,4.47
31.61,10.79,6.32,10.87,6.40,-6.40,-7.36,4.39,4.47,4.47
31.93,10.77,6.30,10.88,6.42,-6.42,-7.38,4.35,4.46,4.47
32.24,10.84,6.38,10.90,6.45,-6.45,-7.39,4.39,4.45,4.46
32.57,10.93,6.47,10.91,6.47,-6.47,-7.39,4.46,4.44,4.46
32.89,11.02,6.56,10.92,6.49,-6.49,-7.38,4.53,4.43,4.46
33.22,11.04,6.58,10.94,6.52,-6.52,-7.37,4.52,4.43,4.45
33.55,11.03,6.58,10.97,6.54,-6.54,-7.35,4.48,4.43,4.45
33.89,11.01,6.56,11.00,6.57,-6.57,-7.32,4.43,4.43,4.45
34.23,11.00,6.56,11.03,6.60,-6.60,-7.29,4.39,4.43,4.44
34.57,10.99,6.55,11.06,6.63,-6.63,-7.26,4.36,4.43,4.44
34.92,10.98,6.54,11.09,6.66,-6.66,-7.22,4.32,4.43,4.44
35.27,11.05,6.62,11.12,6.69,-6.69,-7.17,4.36,4.43,4.43
35.62,11.15,6.72,11.14,6.71,-6.71,-7.13,4.44,4.43,4.43
35.97,11.24,6.81,11.15,6.73,-6.73,-7.08,4.51,4.42,4.42
36.33,11.24,6.82,11.15,6.75,-6.75,-7.03,4.48,4.40,4.42
36.70,11.22,6.80,11.16,6.77,-6.77,-6.98,4.45,4.39,4.42
37.06,11.21,6.80,11.17,6.79,-6.79,-6.93,4.42,4.38,4.41
37.43,11.21,6.80,11.19,6.81,-6.81,-6.88,4.40,4.38,4.41
37.81,11.21,6.81,11.21,6.83,-6.83,-6.83,4.38,4.38,4.40
38.19,11.21,6.81,11.23,6.84,-6.84,-6.78,4.36,4.38,4.40
38.57,11.21,6.82,11.24,6.86,-6.86,-6.74,4.34,4.38,4.39
38.95,11.21,6.82,11.26,6.88,-6.88,-6.70,4.32,4.37,4.39
39.34,11.20,6.82,11.27,6.90,-6.90,-6.66,4.29,4.36,4.38
39.74,11.19,6.81,11.28,6.93,-6.93,-6.62,4.26,4.35,4.38
40.14,11.22,6.85,11.29,6.95,-6.95,-6.59,4.27,4.34,4.37
40.54,11.33,6.96,11.31,6.97,-6.97,-6.56,4.36,4.34,4.37
40.94,11.43,7.07,11.33,6.99,-6.99,-6.54,4.44,4.34,4.36
41.35,11.44,7.09,11.35,7.01,-7.01,-6.52,4.43,4.34,4.35
41.76,11.42,7.07,11.37,7.04,-7.04,-6.50,4.38,4.34,4.35
42.18,11.41,7.07,11.39,7.06,-7.06,-6.49,4.35,4.33,4.34
42.60,11.41,7.07,11.40,7.07,-7.07,-6.48,4.34,4.33,4.33
43.03,11.41,7.08,11.41,7.08,-7.08,-6.48,4.32,4.33,4.33
43.46,11.41,7.09,11.42,7.10,-7.10,-6.48,4.31,4.33,4.32
43.90,11.41,7.10,11.43,7.11,-7.11,-6.48,4.30,4.32,4.31
44.33,11.41,7.10,11.42,7.12,-7.12,-6.49,4.29,4.31,4.31
44.78,11.41,7.11,11.41,7.12,-7.12,-6.51,4.29,4.29,4.30
45.23,11.41,7.12,11.39,7.13,-7.13,-6.53,4.28,4.27,4.29
45.68,11.41,7.13,11.39,7.13,-7.13,-6.55,4.27,4.26,4.28
46.13,11.41,7.13,11.39,7.14,-7.14,-6.58,4.27,4.25,4.27
46.60,11.41,7.14,11.41,7.16,-7.16,-6.62,4.25,4.25,4.27
47.06,11.41,7.15,11.42,7.18,-7.18,-6.66,4.23,4.24,4.26
47.53,11.41,7.16,11.43,7.20,-7.20,-6.70,4.21,4.23,4.25
48.01,11.41,7.17,11.45,7.23,-7.23,-6.75,4.18,4.22,4.24
48.49,11.39,7.16,11.47,7.25,-7.25,-6.80,4.14,4.21,4.23
48.97,11.37,7.15,11.49,7.28,-7.28,-6.86,4.09,4.21,4.22
49.46,11.50,7.29,11.51,7.31,-7.31,-6.92,4.19,4.20,4.21
49.96,11.63,7.43,11.53,7.34,-7.34,-6.98,4.29,4.19,4.20
50.46,11.63,7.44,11.55,7.37,-7.37,-7.05,4.26,4.18,4.19
50.96,11.61,7.43,11.56,7.40,-7.40,-7.11,4.21,4.17,4.18
51.47,11.61,7.44,11.58,7.42,-7.42,-7.19,4.19,4.16,4.17
51.99,11.61,7.45,11.60,7.44,-7.44,-7.26,4.16,4.15,4.15
52.51,11.61,7.47,11.61,7.47,-7.47,-7.34,4.14,4.14,4.14
53.03,11.61,7.48,11.61,7.48,-7.48,-7.41,4.13,4.13,4.13
53.56,11.61,7.49,11.62,7.50,-7.50,-7.49,4.11,4.12,4.12
54.10,11.61,7.50,11.62,7.52,-7.52,-7.57,4.09,4.10,4.10
54.64,11.61,7.52,11.62,7.53,-7.53,-7.65,4.08,4.09,4.09
55.18,11.61,7.53,11.61,7.55,-7.55,-7.73,4.06,4.06,4.08
55.74,11.61,7.54,11.61,7.56,-7.56,-7.80,4.05,4.05,4.06
56.29,11.61,7.56,11.62,7.58,-7.58,-7.88,4.03,4.04,4.05
56.86,11.61,7.57,11.62,7.60,-7.60,-7.95,4.01,4.03,4.04
57.42,11.59,7.57,11.63,7.62,-7.62,-8.02,3.97,4.01,4.02
58.00,11.57,7.56,11.64,7.64,-7.64,-8.08,3.93,4.00,4.01
58.58,11.65,7.66,11.65,7.67,-7.67,-8.15,3.98,3.98,3.99
59.16,11.71,7.74,11.66,7.69,-7.69,-8.20,4.02,3.97,3.97
59.76,11.71,7.75,11.67,7.72,-7.72,-8.25,3.99,3.95,3.96
60.35,11.71,7.77,11.67,7.74,-7.74,-8.30,3.96,3.93,3.94
60.96,11.71,7.79,11.68,7.77,-7.77,-8.34,3.94,3.91,3.92
61.57,11.71,7.80,11.69,7.80,-7.80,-8.37,3.91,3.89,3.91
62.18,11.71,7.82,11.70,7.82,-7.82,-8.39,3.89,3.88,3.89
62.80,11.71,7.84,11.71,7.85,-7.85,-8.41,3.86,3.86,3.87
63.43,11.71,7.86,11.72,7.88,-7.88,-8.43,3.83,3.84,3.85
64.07,11.71,7.88,11.73,7.91,-7.91,-8.43,3.80,3.82,3.83
64.71,11.71,7.90,11.74,7.93,-7.93,-8.43,3.78,3.80,3.81
65.35,11.70,7.91,11.74,7.96,-7.96,-8.42,3.74,3.78,3.79
66.01,11.69,7.92,11.75,7.99,-7.99,-8.41,3.70,3.76,3.77
66.67,11.77,8.02,11.76,8.02,-8.02,-8.39,3.75,3.74,3.75
67.33,11.81,8.08,11.77,8.05,-8.05,-8.37,3.76,3.72,3.73
68.01,11.81,8.10,11.78,8.08,-8.08,-8.35,3.73,3.70,3.71
68.69,11.81,8.13,11.79,8.11,-8.11,-8.32,3.70,3.68,3.68
69.37,11.81,8.15,11.80,8.14,-8.14,-8.28,3.67,3.66,3.66
70.07,11.81,8.17,11.81,8.17,-8.17,-8.25,3.64,3.64,3.64
70.77,11.81,8.19,11.81,8.19,-8.19,-8.21,3.62,3.62,3.61
71.48,11.81,8.22,11.81,8.22,-8.22,-8.17,3.59,3.59,3.59
72.19,11.81,8.24,11.81,8.24,-8.24,-8.14,3.57,3.57,3.57
72.91,11.81,8.27,11.80,8.26,-8.26,-8.10,3.55,3.54,3.54
73.64,11.81,8.29,11.79,8.28,-8.28,-8.06,3.53,3.51,3.52
74.38,11.81,8.32,11.77,8.29,-8.29,-8.02,3.52,3.48,3.49
75.12,11.80,8.33,11.76,8.31,-8.31,-7.99,3.49,3.45,3.46
75.87,11.71,8.27,11.75,8.32,-8.32,-7.96,3.39,3.43,3.44
76.63,11.70,8.29,11.74,8.34,-8.34,-7.93,3.36,3.40,3.41
77.40,11.71,8.33,11.73,8.36,-8.36,-7.90,3.35,3.38,3.38
78.17,11.71,8.35,11.72,8.38,-8.38,-7.88,3.33,3.35,3.36
78.95,11.71,8.38,11.72,8.40,-8.40,-7.86,3.31,3.32,3.33
79.74,11.71,8.41,11.71,8.42,-8.42,-7.85,3.29,3.29,3.30
80.54,11.71,8.44,11.70,8.44,-8.44,-7.84,3.27,3.26,3.27
81.35,11.71,8.47,11.70,8.47,-8.47,-7.83,3.24,3.23,3.24
82.16,11.71,8.50,11.70,8.49,-8.49,-7.83,3.22,3.21,3.21
82.98,11.71,8.53,11.70,8.52,-8.52,-7.84,3.19,3.18,3.18
83.81,11.71,8.56,11.70,8.55,-8.55,-7.85,3.16,3.15,3.15
84.65,11.71,8.59,11.70,8.58,-8.58,-7.86,3.13,3.12,3.12
85.50,11.71,8.62,11.70,8.62,-8.62,-7.88,3.09,3.09,3.09
86.35,11.71,8.65,11.71,8.65,-8.65,-7.91,3.06,3.06,3.06
87.22,11.71,8.68,11.71,8.69,-8.69,-7.94,3.02,3.02,3.03
88.09,11.71,8.71,11.72,8.72,-8.72,-7.98,2.98,2.99,3.00
88.97,11.71,8.74,11.72,8.76,-8.76,-8.02,2.94,2.96,2.96
89.86,11.72,8.79,11.73,8.81,-8.81,-8.07,2.91,2.92,2.93
90.76,11.72,8.82,11.75,8.85,-8.85,-8.13,2.87,2.90,2.90
91.66,11.72,8.85,11.76,8.90,-8.90,-8.19,2.82,2.86,2.87
92.58,11.75,8.91,11.77,8.94,-8.94,-8.26,2.81,2.83,2.84
93.51,11.82,9.02,11.78,8.99,-8.99,-8.33,2.83,2.79,2.80
94.44,11.85,9.08,11.80,9.04,-9.04,-8.41,2.81,2.76,2.77
95.39,11.83,9.09,11.82,9.09,-9.09,-8.49,2.74,2.73,2.74
96.34,11.82,9.12,11.84,9.14,-9.14,-8.58,2.68,2.70,2.70
97.30,11.83,9.16,11.86,9.19,-9.19,-8.67,2.64,2.67,2.67
98.28,11.88,9.24,11.87,9.24,-9.24,-8.77,2.64,2.64,2.64
99.26,11.93,9.32,11.89,9.28,-9.28,-8.88,2.65,2.61,2.60
100.25,11.88,9.31,11.90,9.32,-9.32,-8.98,2.56,2.58,2.57
101.25,11.85,9.31,11.89,9.35,-9.35,-9.10,2.50,2.54,2.54
102.27,11.86,9.35,11.89,9.39,-9.39,-9.21,2.47,2.50,2.50
103.29,11.94,9.47,11.88,9.42,-9.42,-9.33,2.52,2.46,2.47
104.32,11.98,9.54,11.86,9.44,-9.44,-9.45,2.54,2.42,2.44
105.37,11.92,9.51,11.85,9.47,-9.47,-9.58,2.45,2.38,2.41
106.42,11.86,9.49,11.84,9.49,-9.49,-9.70,2.37,2.35,2.37
107.48,11.83,9.49,11.84,9.52,-9.52,-9.83,2.31,2.32,2.34
108.56,11.81,9.50,11.83,9.55,-9.55,-9.95,2.26,2.28,2.30
109.64,11.76,9.49,11.83,9.58,-9.58,-10.07,2.17,2.25,2.27
110.74,11.70,9.46,11.83,9.62,-9.62,-10.20,2.08,2.21,2.24
111.85,11.76,9.55,11.84,9.66,-9.66,-10.31,2.10,2.18,2.21
112.97,11.84,9.66,11.86,9.70,-9.70,-10.43,2.14,2.16,2.18
114.10,11.84,9.69,11.87,9.74,-9.74,-10.54,2.10,2.13,2.15
115.24,11.86,9.74,11.88,9.78,-9.78,-10.64,2.08,2.10,2.12
116.39,11.97,9.87,11.90,9.82,-9.82,-10.74,2.15,2.08,2.10
117.55,12.02,9.95,11.92,9.86,-9.86,-10.82,2.15,2.06,2.07
118.73,11.97,9.92,11.94,9.90,-9.90,-10.90,2.07,2.04,2.05
119.92,11.94,9.92,11.96,9.94,-9.94,-10.97,2.00,2.02,2.02
121.12,12.04,10.04,11.97,9.97,-9.97,-11.02,2.07,2.00,2.00
122.33,12.00,10.02,11.98,9.99,-9.99,-11.06,2.00,1.98,1.98
123.55,12.02,10.06,11.98,10.02,-10.02,-11.09,2.00,1.96,1.96
124.79,12.04,10.10,11.97,10.04,-10.04,-11.11,2.00,1.94,1.94
126.03,11.91,9.99,11.96,10.05,-10.05,-11.11,1.86,1.91,1.92
127.29,11.90,9.99,11.95,10.07,-10.07,-11.10,1.83,1.89,1.91
128.57,11.90,10.01,11.94,10.08,-10.08,-11.08,1.82,1.86,1.89
129.85,11.91,10.04,11.93,10.09,-10.09,-11.04,1.82,1.84,1.87
131.15,11.91,10.06,11.93,10.10,-10.10,-11.00,1.81,1.83,1.85
132.46,11.92,10.09,11.94,10.12,-10.12,-10.94,1.80,1.82,1.83
133.79,11.92,10.11,11.93,10.14,-10.14,-10.87,1.78,1.80,1.81
135.12,11.93,10.14,11.93,10.15,-10.15,-10.79,1.77,1.77,1.79
136.48,11.93,10.16,11.93,10.17,-10.17,-10.71,1.75,1.75,1.77
137.84,11.93,10.18,11.93,10.20,-10.20,-10.61,1.73,1.73,1.75
139.22,11.94,10.21,11.93,10.21,-10.21,-10.52,1.73,1.72,1.73
140.61,11.94,10.23,11.94,10.23,-10.23,-10.41,1.71,1.71,1.71
142.02,11.98,10.29,11.93,10.25,-10.25,-10.31,1.73,1.69,1.69
143.44,11.99,10.32,11.92,10.26,-10.26,-10.20,1.73,1.66,1.67
144.87,11.90,10.25,11.91,10.27,-10.27,-10.09,1.63,1.64,1.64
146.32,11.86,10.23,11.90,10.27,-10.27,-9.98,1.58,1.62,1.62
147.78,11.84,10.23,11.88,10.27,-10.27,-9.88,1.57,1.61,1.60
149.26,11.84,10.25,11.86,10.27,-10.27,-9.77,1.57,1.59,1.59
150.75,11.86,10.29,11.83,10.25,-10.25,-9.66,1.61,1.58,1.57
152.26,11.83,10.28,11.79,10.23,-10.23,-9.56,1.60,1.56,1.55
153.78,11.76,10.23,11.74,10.20,-10.20,-9.46,1.56,1.54,1.53
155.32,11.66,10.14,11.69,10.17,-10.17,-9.37,1.49,1.52,1.52
156.88,11.62,10.12,11.62,10.14,-10.14,-9.28,1.48,1.49,1.50
158.44,11.65,10.17,11.56,10.10,-10.10,-9.19,1.55,1.46,1.48
160.03,11.57,10.10,11.50,10.06,-10.06,-9.11,1.51,1.44,1.47
161.63,11.50,10.05,11.45,10.02,-10.02,-9.03,1.48,1.42,1.45
163.24,11.42,9.99,11.39,9.99,-9.99,-8.96,1.43,1.40,1.43
164.88,11.30,9.89,11.33,9.96,-9.96,-8.89,1.34,1.38,1.41
166.53,11.21,9.82,11.28,9.93,-9.93,-8.83,1.28,1.35,1.39
168.19,11.15,9.78,11.24,9.91,-9.91,-8.78,1.24,1.33,1.37
169.87,11.11,9.75,11.21,9.90,-9.90,-8.73,1.21,1.32,1.35
171.57,11.09,9.75,11.19,9.89,-9.89,-8.69,1.20,1.31,1.34
173.29,11.14,9.82,11.18,9.88,-9.88,-8.66,1.26,1.30,1.32
175.02,11.19,9.88,11.17,9.88,-9.88,-8.63,1.31,1.28,1.31
176.77,11.19,9.90,11.15,9.89,-9.89,-8.61,1.30,1.27,1.29
178.54,11.19,9.91,11.15,9.89,-9.89,-8.59,1.30,1.26,1.28
180.32,11.19,9.92,11.15,9.89,-9.89,-8.58,1.30,1.26,1.27
182.13,11.20,9.93,11.15,9.89,-9.89,-8.58,1.31,1.26,1.27
183.95,11.21,9.94,11.16,9.89,-9.89,-8.58,1.32,1.27,1.27
185.79,11.20,9.93,11.15,9.88,-9.88,-8.59,1.32,1.28,1.27
187.65,11.14,9.87,11.14,9.86,-9.86,-8.60,1.28,1.28,1.27
189.52,11.15,9.87,11.13,9.84,-9.84,-8.62,1.31,1.28,1.28
191.42,11.09,9.81,11.10,9.82,-9.82,-8.65,1.27,1.29,1.28
193.33,11.01,9.72,11.06,9.78,-9.78,-8.68,1.23,1.28,1.29
195.27,10.99,9.70,11.02,9.75,-9.75,-8.71,1.24,1.28,1.29
197.22,10.99,9.70,10.98,9.70,-9.70,-8.76,1.29,1.28,1.29
199.19,10.95,9.65,10.94,9.66,-9.66,-8.80,1.29,1.28,1.30
201.18,10.92,9.62,10.90,9.61,-9.61,-8.85,1.31,1.28,1.30
203.19,10.87,9.57,10.85,9.56,-9.56,-8.91,1.31,1.28,1.29
205.23,10.80,9.51,10.79,9.52,-9.52,-8.96,1.28,1.28,1.29
207.28,10.75,9.46,10.74,9.47,-9.47,-9.02,1.28,1.27,1.29
209.35,10.68,9.40,10.69,9.42,-9.42,-9.09,1.26,1.27,1.28
211.44,10.61,9.34,10.63,9.37,-9.37,-9.15,1.24,1.26,1.27
213.56,10.54,9.28,10.58,9.32,-9.32,-9.22,1.22,1.26,1.26
215.69,10.51,9.26,10.52,9.27,-9.27,-9.28,1.24,1.25,1.25
217.85,10.51,9.27,10.46,9.22,-9.22,-9.35,1.29,1.24,1.24
220.03,10.43,9.20,10.40,9.16,-9.16,-9.41,1.27,1.23,1.23
222.23,10.33,9.11,10.33,9.11,-9.11,-9.47,1.22,1.22,1.22
224.45,10.23,9.01,10.27,9.05,-9.05,-9.53,1.18,1.22,1.22
226.70,10.20,8.98,10.21,8.99,-8.99,-9.59,1.20,1.21,1.21
228.96,10.16,8.94,10.15,8.94,-8.94,-9.64,1.22,1.22,1.21
231.25,10.12,8.90,10.10,8.88,-8.88,-9.68,1.24,1.22,1.22
233.57,10.06,8.84,10.04,8.82,-8.82,-9.71,1.24,1.22,1.22
235.90,9.95,8.72,9.99,8.76,-8.76,-9.74,1.19,1.23,1.23
238.26,9.90,8.66,9.93,8.69,-8.69,-9.76,1.20,1.24,1.24
240.64,9.87,8.62,9.88,8.63,-8.63,-9.76,1.24,1.25,1.25
243.05,9.83,8.57,9.83,8.57,-8.57,-9.76,1.26,1.26,1.26
245.48,9.73,8.45,9.77,8.50,-8.50,-9.74,1.22,1.27,1.27
247.93,9.72,8.43,9.72,8.44,-8.44,-9.71,1.28,1.28,1.29
250.41,9.71,8.41,9.66,8.37,-8.37,-9.67,1.34,1.29,1.30
252.92,9.65,8.34,9.60,8.31,-8.31,-9.62,1.34,1.29,1.31
255.45,9.53,8.21,9.54,8.24,-8.24,-9.55,1.29,1.30,1.32
258.00,9.48,8.15,9.48,8.17,-8.17,-9.48,1.31,1.31,1.33
260.58,9.49,8.16,9.42,8.10,-8.10,-9.39,1.39,1.32,1.33
263.19,9.38,8.04,9.36,8.03,-8.03,-9.29,1.35,1.33,1.33
265.82,9.26,7.92,9.28,7.96,-7.96,-9.17,1.30,1.33,1.34
268.48,9.14,7.80,9.21,7.88,-7.88,-9.05,1.26,1.33,1.33
271.16,9.08,7.75,9.14,7.81,-7.81,-8.92,1.27,1.33,1.33
273.87,9.06,7.73,9.07,7.73,-7.73,-8.79,1.33,1.34,1.33
276.61,9.06,7.73,8.98,7.65,-7.65,-8.64,1.41,1.33,1.33
279.38,8.92,7.59,8.90,7.57,-7.57,-8.49,1.35,1.33,1.33
282.17,8.87,7.54,8.83,7.49,-7.49,-8.34,1.38,1.34,1.33
284.99,8.77,7.43,8.76,7.40,-7.40,-8.18,1.36,1.35,1.34
287.84,8.59,7.25,8.68,7.32,-7.32,-8.02,1.27,1.35,1.34
290.72,8.60,7.25,8.58,7.24,-7.24,-7.85,1.36,1.34,1.35
293.63,8.52,7.16,8.51,7.16,-7.16,-7.69,1.36,1.34,1.36
296.57,8.48,7.11,8.44,7.08,-7.08,-7.52,1.39,1.35,1.37
299.53,8.39,7.01,8.37,7.01,-7.01,-7.35,1.38,1.36,1.38
302.53,8.22,6.83,8.30,6.94,-6.94,-7.19,1.28,1.37,1.38
305.55,8.21,6.82,8.25,6.87,-6.87,-7.02,1.34,1.38,1.39
308.61,8.27,6.87,8.19,6.80,-6.80,-6.86,1.47,1.39,1.40
311.69,8.13,6.72,8.13,6.74,-6.74,-6.70,1.39,1.39,1.41
314.81,7.98,6.57,8.07,6.67,-6.67,-6.54,1.30,1.39,1.41
317.96,7.87,6.45,8.01,6.62,-6.62,-6.38,1.25,1.40,1.42
321.14,7.92,6.50,7.97,6.56,-6.56,-6.23,1.35,1.40,1.42
324.35,8.07,6.65,7.91,6.51,-6.51,-6.08,1.56,1.40,1.42
327.59,8.01,6.59,7.87,6.46,-6.46,-5.93,1.55,1.40,1.42
330.87,7.90,6.48,7.82,6.42,-6.42,-5.79,1.48,1.40,1.42
334.18,7.79,6.37,7.78,6.37,-6.37,-5.65,1.42,1.41,1.42
337.52,7.74,6.32,7.73,6.32,-6.32,-5.51,1.42,1.41,1.42
340.90,7.53,6.11,7.68,6.27,-6.27,-5.37,1.25,1.41,1.42
344.30,7.47,6.05,7.64,6.23,-6.23,-5.24,1.24,1.42,1.42
347.75,7.61,6.19,7.60,6.18,-6.18,-5.12,1.43,1.42,1.42
351.23,7.65,6.23,7.55,6.12,-6.12,-4.99,1.52,1.43,1.42
354.74,7.52,6.09,7.50,6.07,-6.07,-4.87,1.45,1.43,1.43
358.28,7.42,5.99,7.43,6.01,-6.01,-4.76,1.41,1.43,1.43
361.87,7.37,5.93,7.37,5.94,-5.94,-4.65,1.42,1.43,1.44
365.49,7.34,5.90,7.31,5.88,-5.88,-4.54,1.46,1.43,1.44
369.14,7.30,5.85,7.25,5.81,-5.81,-4.43,1.49,1.44,1.45
372.83,7.19,5.73,7.19,5.74,-5.74,-4.33,1.45,1.45,1.46
376.56,7.21,5.74,7.12,5.66,-5.66,-4.23,1.55,1.46,1.46
380.33,7.04,5.57,7.05,5.58,-5.58,-4.13,1.46,1.47,1.47
384.13,6.88,5.40,6.97,5.50,-5.50,-4.04,1.38,1.47,1.48
387.97,6.92,5.44,6.88,5.42,-5.42,-3.95,1.50,1.46,1.48
391.85,6.84,5.36,6.79,5.34,-5.34,-3.86,1.50,1.45,1.48
395.77,6.71,5.23,6.72,5.26,-5.26,-3.78,1.45,1.46,1.48
399.73,6.53,5.05,6.64,5.17,-5.17,-3.70,1.35,1.46,1.48
403.72,6.48,5.00,6.56,5.09,-5.09,-3.62,1.39,1.47,1.48
407.76,6.58,5.10,6.49,5.01,-5.01,-3.54,1.57,1.47,1.48
411.84,6.41,4.93,6.41,4.93,-4.93,-3.47,1.48,1.47,1.48
415.96,6.31,4.82,6.33,4.85,-4.85,-3.39,1.46,1.48,1.48
420.12,6.34,4.85,6.26,4.77,-4.77,-3.32,1.57,1.48,1.49
424.32,6.19,4.69,6.20,4.69,-4.69,-3.25,1.50,1.50,1.50
428.56,6.10,4.58,6.14,4.61,-4.61,-3.19,1.48,1.52,1.52
432.85,6.09,4.54,6.08,4.54,-4.54,-3.12,1.55,1.54,1.54
437.18,6.05,4.47,6.03,4.46,-4.46,-3.05,1.59,1.57,1.57
441.55,6.00,4.39,5.99,4.38,-4.38,-2.99,1.62,1.62,1.61
445.96,5.95,4.30,5.96,4.30,-4.30,-2.93,1.65,1.67,1.65
450.42,5.78,4.08,5.92,4.21,-4.21,-2.86,1.57,1.71,1.70
454.93,5.78,4.03,5.88,4.12,-4.12,-2.80,1.66,1.75,1.75
459.48,5.81,4.00,5.84,4.03,-4.03,-2.74,1.78,1.80,1.81
464.07,5.80,3.93,5.79,3.94,-3.94,-2.68,1.86,1.85,1.86
468.71,5.81,3.89,5.75,3.84,-3.84,-2.62,1.97,1.90,1.92
473.40,5.79,3.81,5.71,3.74,-3.74,-2.55,2.05,1.96,1.98
478.13,5.73,3.70,5.66,3.64,-3.64,-2.49,2.09,2.02,2.03
482.91,5.68,3.59,5.59,3.53,-3.53,-2.43,2.15,2.06,2.08
487.74,5.59,3.46,5.53,3.42,-3.42,-2.37,2.17,2.11,2.13
492.62,5.44,3.27,5.45,3.30,-3.30,-2.30,2.13,2.15,2.17
497.55,5.28,3.07,5.37,3.19,-3.19,-2.24,2.09,2.18,2.21
502.52,5.16,2.92,5.28,3.06,-3.06,-2.17,2.09,2.22,2.24
507.55,5.12,2.86,5.17,2.94,-2.94,-2.11,2.18,2.23,2.26
512.62,5.10,2.83,5.05,2.81,-2.81,-2.04,2.29,2.24,2.27
517.75,4.99,2.72,4.92,2.68,-2.68,-1.97,2.31,2.24,2.27
522.93,4.81,2.54,4.77,2.54,-2.54,-1.90,2.27,2.24,2.26
528.16,4.61,2.36,4.62,2.39,-2.39,-1.83,2.22,2.23,2.25
533.44,4.46,2.23,4.46,2.24,-2.24,-1.76,2.22,2.21,2.23
538.77,4.31,2.10,4.28,2.09,-2.09,-1.69,2.22,2.19,2.21
544.16,4.13,1.95,4.10,1.93,-1.93,-1.62,2.20,2.17,2.18
549.60,3.96,1.81,3.91,1.76,-1.76,-1.54,2.20,2.15,2.15
555.10,3.77,1.65,3.72,1.59,-1.59,-1.47,2.18,2.13,2.12
560.65,3.52,1.43,3.51,1.41,-1.41,-1.39,2.11,2.10,2.09
566.25,3.28,1.22,3.29,1.23,-1.23,-1.31,2.05,2.06,2.06
571.92,3.04,1.01,3.07,1.04,-1.04,-1.24,2.00,2.03,2.03
577.64,2.82,0.81,2.86,0.84,-0.84,-1.16,1.98,2.01,2.01
583.41,2.61,0.61,2.65,0.65,-0.65,-1.08,1.96,2.00,2.00
589.25,2.42,0.43,2.44,0.44,-0.44,-1.00,1.97,2.00,1.99
595.14,2.19,0.20,2.24,0.24,-0.24,-0.92,1.95,2.00,1.99
601.09,2.00,0.00,2.04,0.04,-0.04,-0.84,1.96,2.00,2.00
607.10,1.86,-0.15,1.84,-0.17,0.17,-0.76,2.03,2.01,2.01
613.17,1.65,-0.38,1.65,-0.38,0.38,-0.68,2.03,2.03,2.03
619.30,1.47,-0.59,1.47,-0.59,0.59,-0.60,2.06,2.06,2.06
625.50,1.30,-0.79,1.30,-0.80,0.80,-0.51,2.10,2.10,2.09
631.75,1.13,-1.00,1.13,-1.01,1.01,-0.43,2.14,2.14,2.13
638.07,0.97,-1.21,0.96,-1.22,1.22,-0.35,2.19,2.18,2.18
644.45,0.82,-1.41,0.79,-1.44,1.44,-0.26,2.26,2.23,2.22
650.89,0.62,-1.65,0.62,-1.65,1.65,-0.18,2.27,2.28,2.27
657.40,0.43,-1.90,0.46,-1.86,1.86,-0.09,2.29,2.32,2.32
663.98,0.28,-2.10,0.29,-2.08,2.08,-0.01,2.36,2.37,2.37
670.62,0.10,-2.32,0.12,-2.29,2.29,0.08,2.39,2.41,2.42
677.32,-0.05,-2.52,-0.05,-2.50,2.50,0.16,2.45,2.46,2.47
684.10,-0.16,-2.67,-0.21,-2.71,2.71,0.25,2.55,2.50,2.51
690.94,-0.32,-2.87,-0.39,-2.93,2.93,0.34,2.60,2.54,2.55
697.85,-0.58,-3.16,-0.57,-3.14,3.14,0.43,2.55,2.56,2.58
704.83,-0.78,-3.38,-0.76,-3.34,3.34,0.52,2.56,2.58,2.60
711.87,-0.93,-3.55,-0.95,-3.55,3.55,0.61,2.62,2.60,2.62
