frequency,raw,error,smoothed,error_smoothed,equalization,equalized_raw,equalized_smoothed,target
20,-3.6450719354954084,-4.430958136341276,-3.6556457884033087,-4.441516642023038,4.441516642023038,0.7964447065276299,0.7858708536197296,0.785886200845868
21,-3.421047096521334,-4.206914345129615,-3.4210051976650444,-4.206874800524936,4.206874800524935,0.785827704003601,0.7858696028598908,0.7858672486082812
22,-3.1967630886230407,-3.982605545259474,-3.188971143581353,-3.9748259146226457,3.9748259146226452,0.7780628259996045,0.7858547710412922,0.7858424566364333
23,-2.972219911800526,-3.7580303305019847,-2.959543626152234,-3.7453699843161674,3.745369984316167,0.7731500725156408,0.7858263581639329,0.7858104187014585
24,-2.7476069720456127,-3.5333764476997453,-2.7327226453776854,-3.518507009605496,3.518507009605495,0.7709000375598825,0.7857843642278097,0.7857694756541327
25,-2.522448403911095,-3.308166087889761,-2.507168077186207,-3.292898342753853,3.292898342753854,0.7704499388427588,0.785730265567647,0.7857176839786661
26,-2.2965164833590905,-3.0821692654081985,-2.2845324076148876,-3.070195015232418,3.070195015232418,0.7736785318733275,0.7856626076175304,0.7856527820491079
27,-2.069975893508441,-2.855548047545981,-2.066250972831698,-2.8518307945599215,2.851830794559921,0.7818549010514801,0.785579821728223,0.7855721540375402
28,-1.8436408271139426,-2.629113618542654,-1.854203482284486,-2.639682806560054,2.639682806560053,0.7960419794461104,0.7854793242755671,0.785472791428711
29,-1.6185275199009277,-2.40387877200238,-1.6504279054915045,-2.4357854011281184,2.435785401128119,0.8172578812271911,0.7853574956366143,0.7853512521014525
30,-1.4173343377153893,-2.2025379546604014,-1.456301135335808,-2.2415113922012724,2.2415113922012724,0.8241770544858831,0.7852102568654644,0.7852036169450121
31,-1.244544809956676,-2.029570253943495,-1.2727096985637294,-2.0577425610785243,2.0577425610785234,0.8131977511218473,0.785032862514794,0.785025443986819
32,-1.1823478431201309,-1.9671595631387169,-1.0998868536830846,-1.88470691265552,1.88470691265552,0.7023590695353892,0.7848200589724355,0.784811720018586
33,-0.9633787482261416,-1.7479355579459228,-0.9374651306648032,-1.7220312138476868,1.722031213847687,0.7586524656215454,0.7845660831828838,0.7845568097197813
34,-0.7447214818395476,-1.5289758841313614,-0.7846219080639193,-1.5688864667852922,1.5688864667852918,0.8241649849457442,0.7842645587213725,0.7842544022918139
35,-0.5923481680199956,-1.3762456236530758,-0.640122200325943,-1.4240306466273127,1.4240306466273132,0.8316824786073176,0.7839084463013701,0.7838974556330802
36,-0.5357207890797018,-1.3191989271843345,-0.5024244640895508,-1.2859144051566451,1.2859144051566451,0.7501936160769433,0.7834899410670944,0.7834781381046327
37,-0.31693145679853146,-1.0999192247575953,-0.3698120410230895,-1.1528124286692205,1.1528124286692205,0.835880971870689,0.783000387646131,0.7829877679590638
38,-0.27709597310856887,-1.0595127236402448,-0.24058775023321638,-1.0230179604694614,1.0230179604694616,0.7459219873608927,0.7824302102362453,0.7824167505316759
39,-0.10250180340818865,-0.8842563167316468,-0.1133373152717578,-0.89510615723079,0.8951061572307901,0.7926043538226015,0.7817688419590323,0.7817545133234582
40,-0.07432023662008597,-0.8553096757605223,0.012815627377336393,-0.76818903547509,0.7681890354750898,0.6938687988550039,0.7810046628524262,0.7809894391404364
41,0.12373448079270305,-0.6563743167011664,0.13803598449120957,-0.642088951309798,0.6420889513097978,0.7658234321025008,0.7801249358010074,0.7801087974938694
42,0.30267268473500636,-0.47642598977618705,0.26175316418673,-0.5173625749749855,0.5173625749749857,0.820035259709992,0.7791157391617157,0.7790986745111934
43,0.359771170182479,-0.41817273147644324,0.3828071589557661,-0.39515473823943686,0.3951547382394369,0.754925908421916,0.777961897195203,0.7779439016589222
44,0.5926237257227738,-0.18400425791362474,0.49972510730376607,-0.2769218003820756,0.27692180038207553,0.8695455261048493,0.7766469076858415,0.7766279836363985
45,0.5969169035382857,-0.17821612232555495,0.6110562768459287,-0.16409659192365994,0.16409659192365994,0.7610134954619456,0.7751528687695886,0.7751330258638407
46,0.6638472931635271,-0.10959236889631607,0.715689463537238,-0.05777094239723926,0.05777094239723926,0.7216182355607663,0.7734604059344772,0.7734396620598432
47,0.8309178907834665,0.05939090830066007,0.813100502568344,0.04155190271617366,-0.041551902716173664,0.7893659880672927,0.7715485998521703,0.7715269824828064
48,0.8775607838916242,0.10818832039380477,0.9035084096681171,0.13411349383535723,-0.13411349383535726,0.743447290056267,0.7693949158327598,0.7693724634978194
49,1.0629032500010012,0.2959513507754896,0.9879344230954432,0.22095928765232764,-0.22095928765232759,0.8419439623486735,0.7669751354431156,0.7669518992255115
50,1.0641931500764967,0.2999538139443161,1.0681546334787548,0.30389134241033183,-0.30389134241033183,0.760301807666165,0.7642632910684231,0.7642393361321806
51,1.1097324024506583,0.3485253909197503,1.1465263128153098,0.38529470844586505,-0.38529470844586505,0.7244376940047932,0.7612316043694447,0.761207011530908
52,1.292062915196737,0.534237618115871,1.2256705923762197,0.4678201626594116,-0.4678201626594116,0.8242427525373255,0.757850429716808,0.7578252970808661
53,1.290805424363429,0.5367427758676602,1.3080254120337824,0.5539372081850192,-0.5539372081850195,0.7368682161784096,0.754088203848763,0.7540626484957689
54,1.2892892715108433,0.5394037087095604,1.395337220487609,0.6454258173796026,-0.6454258173796027,0.6438634541312406,0.7499114031080064,0.7498855628012828
55,1.515972460400166,0.7707139157865406,1.4882141595154188,0.7429296497775895,-0.7429296497775895,0.7730428106225766,0.7452845097378293,0.7452585446136255
56,1.515308319232073,0.775164236186703,1.5858841332295193,0.845714144378026,-0.8457141443780263,0.6695941748540468,0.740169988851493,0.74014408304537
57,1.7430454908982354,1.0085428499210898,1.6862624757180547,0.9517341978998713,-0.951734197899871,0.7913112929983643,0.7345282778181836,0.7345026409771456
58,1.7429714427125025,1.0146787841503881,1.7863379086929188,1.0580201187518976,-1.0580201187518978,0.6849513239606047,0.7283177899410209,0.7282926585621143
59,1.97056881960467,1.2490982466546678,1.8827637154686854,1.1612687810446878,-1.161268781044688,0.809300038559982,0.7214949344239974,0.7214705729500022
60,1.969950418365674,1.2559595620413089,1.9724439668916571,1.258429812160295,-1.2584298121602948,0.7115206062053792,0.7140141547313623,0.7139908563243651
61,1.9694017754805846,1.2635957010452308,2.0528841020656974,1.34705611453448,-1.3470561145344804,0.6223456609461042,0.705827987531217,0.7058060744353538
62,2.197444121852619,1.5005771539782682,2.1221562417611537,1.4252690972832611,-1.4252690972832611,0.7721750245693579,0.6968871444778926,0.6968669678743509
63,2.1987069051232573,1.5115843467536028,2.1784952507926647,1.4913546316758972,-1.4913546316758979,0.7073522734473594,0.6871406191167668,0.6871225583696545
64,2.2010951294673,1.5245748470910296,2.2197290897516213,1.543193268531891,-1.5431932685318912,0.6579018609354088,0.6765358212197301,0.6765202823762704
65,2.2039618964007013,1.5389557422208933,2.242871816344086,1.5778530757058222,-1.5778530757058218,0.6261088206948795,0.6650187406382644,0.665006154179808
66,2.2061589620640536,1.5536340014381849,2.244201286817262,1.5916671438466805,-1.591667143846681,0.6144918182173726,0.6525341429705809,0.6525249606258687
67,2.2063652619256593,1.5673447725121732,2.219985182129812,1.5809593829032274,-1.5809593829032267,0.6254058790224326,0.6390257992265853,0.6390204894134861
68,2.203459096632956,1.579023303987491,2.1677556598130847,1.5433189091816977,-1.5433189091816981,0.6601401874512578,0.6244367506313866,0.6244357926454649
69,2.196804037161043,1.5880905501592424,2.0877698713070734,1.479060262326501,-1.479060262326501,0.7177437748345419,0.6087096089805724,0.6087134870018005
70,2.186401627917357,1.594605536429917,1.9841484511385838,1.3923615570699899,-1.3923615570699903,0.7940400708473665,0.5917868940685935,0.5917960914874398
71,1.945006375079021,1.3713799718822077,1.8652322637195276,1.2916208521125263,-1.2916208521125265,0.6533855229664944,0.573611411607001,0.5736264031968132
72,1.694699676827034,1.1405517658960824,1.7429309539747821,1.1888042798856264,-1.1888042798856264,0.5058953969414075,0.5541266740891557,0.5541479109309515
73,1.4585268084202643,0.9252215626224987,1.6311654529279784,1.0978880932796664,-1.0978880932796664,0.36063871514059787,0.533277359648312,0.5333052457977656
74,1.4448138072603567,0.933769140136059,1.543797017778405,1.0327872197637906,-1.0327872197637906,0.41202658749656607,0.5110097980146144,0.5110446671242976
75,1.4341196025734435,0.9468050214554604,1.4925704260158095,1.0052979580639672,-1.005297958063967,0.4288216445094766,0.48727246795184254,0.4873145811179831
76,1.42693065967179,0.9648645709287524,1.485536944916034,1.0235204477215174,-1.0235204477215176,0.40341021195027227,0.46201649719451643,0.46206608874303745
77,1.6018580108671117,1.1666044526229093,1.526213957760072,1.0910177675685961,-1.0910177675685964,0.5108402432985153,0.4351961901914756,0.4352535582442023
78,1.647124638854185,1.2402894221793774,1.6134923968271249,1.2067227371434237,-1.2067227371434237,0.4404019017107612,0.40676965968370116,0.4068352166748075
79,1.642324443789211,1.2655506900923816,1.7421291102818337,1.3654294652156835,-1.365429465215684,0.2768949785735271,0.3766996450661497,0.3767737536968294
80,1.861676968058378,1.5166400382083869,1.903611736477279,1.5586572454802963,-1.5586572454802963,0.30301972257808174,0.34495449099698283,0.3450369298499911
81,1.993090932609737,1.681492752136855,2.0872370290373405,1.7757280005466547,-1.7757280005466547,0.21736293206308233,0.31150902849068585,0.311598180472882
82,2.2974719915271584,2.0210347859837414,2.281324086000354,2.004979200164866,-2.004979200164866,0.29249279136229234,0.276344885835488,0.276437205543417
83,2.5946394313527423,2.355098896419255,2.474513715260768,2.2350639593831976,-2.2350639593831976,0.35957547196954476,0.23944975587757034,0.23954053493348715
84,2.6963939229680367,2.4954918649787587,2.6570564633788276,2.456240848589229,-2.4562408485892293,0.2401530743788074,0.2008156147895983,0.20090205798927796
85,2.903588849586118,2.743065343586827,2.821901676985152,2.6614647736448345,-2.661464773644835,0.24212407594128305,0.16043690334031702,0.16052350599929088
86,3.013180559538234,2.8947656835000486,2.965344601387083,2.8470337515895636,-2.8470337515895627,0.16614680794867143,0.11831084979752005,0.11841487603818557
87,3.1015146513048544,3.0269198663933605,3.087034058391433,3.0125915404503125,-3.012591540450312,0.0889231108545423,0.074442517941121,0.07459478491149385
88,3.140044452966564,3.110953710465595,3.1893020296943657,3.160446218152733,-3.160446218152733,-0.020401765186169207,0.028855811541632637,0.02909074250096877
89,3.312058699291929,3.330119364553759,3.2759939719853906,3.2943857397944925,-3.2943857397944933,0.01767295949743586,-0.018391767809102788,-0.01806066526182981
90,3.3045361041947174,3.371349796477867,3.351156977615295,3.4183543461412316,-3.4183543461412325,-0.11381824194651502,-0.0671973685259375,-0.0668136922831497
91,3.314939379031093,3.432052832951502,3.417992596295377,3.535406870937802,-3.5354068709378015,-0.22046749190670845,-0.11741427464242449,-0.11711345392040906
92,3.513107731408085,3.6820037906567666,3.4783699800524635,3.64724624792938,-3.64724624792938,-0.13413851652129516,-0.16887626787691667,-0.16889605924868167
93,3.4996900386828798,3.721778895386604,3.532966047997017,3.7544138375575695,-3.754413837557571,-0.2547237988746911,-0.22144778956055378,-0.22208885670372425
94,3.672549560753168,3.949160354168849,3.581851834101661,3.8569425680545715,-3.856942568054572,-0.18439300730140396,-0.27509073395291095,-0.27661079341568096
95,3.692182451306778,4.02455533731389,3.6251868361352457,3.9551123899518537,-3.9551123899518528,-0.26292993864507475,-0.32992555381660704,-0.33237288600711246
96,3.6711902531084686,4.06046905115107,3.6636818414748067,4.049938550434151,-4.049938550434149,-0.3787482973256804,-0.3862567089593423,-0.38927879804260135
97,3.6494915127889382,4.096717029565015,3.6986379900989603,4.143174231296161,-4.143174231296161,-0.4936827185072228,-0.4445362411972007,-0.447225516776077
98,3.6283751359891947,4.134479255429007,3.731589860261602,4.236846281329347,-4.236846281329347,-0.6084711453401526,-0.5052564210677453,-0.5061041194398124
99,3.7948408576501893,4.360641474796761,3.763767365909195,4.332556419121625,-4.332556419121624,-0.5377155614714346,-0.5687890532124289,-0.5658006171465715
100,3.8184832356200427,4.444680098236635,3.7956602670253643,4.430875587869947,-4.430875587869947,-0.6123923522499042,-0.6352153208445825,-0.6261968626165926
101,3.8010501903767593,4.488221696841361,3.8268962213099202,4.531100364006818,-4.531100364006818,-0.7300501736300586,-0.7042041426968977,-0.6871715064646011
102,3.7829555452313883,4.531556530975131,3.856474744014297,4.631465265227126,-4.631465265227125,-0.8485097199957368,-0.7749905212128283,-0.7486009857437428
104,3.9907147635512152,4.863039916591505,3.883225895684628,4.7297037467472265,-4.729703746747226,-0.7389889831960104,-0.8464778510625974,-0.8723251530402893
105,3.9676139023036128,4.9019845607324335,3.906270585391524,4.823718576823255,-4.8237185768232544,-0.8561046745196417,-0.9174479914317306,-0.9343706584288203
106,3.9415897181598676,4.937964286930484,3.925289141819815,4.912113608637243,-4.912113608637242,-0.9705238904773741,-0.9868244668174269,-0.9963745687706158
107,3.913578358396053,4.97179539702104,3.9405300307567224,4.994442402642084,-4.994442402642085,-1.0808640442460322,-1.053912371885363,-1.0582170386249867
108,3.8851409388453146,5.004922632536962,3.952635816473731,5.071178463397808,-5.071178463397809,-1.1860375245524941,-1.1185426469240776,-1.1197816936916474
109,3.857977541173718,5.038933941381077,3.962446113146349,5.143523629623285,-5.143523629623285,-1.2855460884495673,-1.181077516476936,-1.1809564002073594
110,4.058443290752765,5.300077244353439,3.970914201195516,5.213191802019109,-5.213191802019109,-1.1547485112663436,-1.2422776008235932,-1.2416339536006729
111,4.040297214204093,5.342009893973309,3.9791642406839802,5.282238097767646,-5.282238097767648,-1.2419408835635544,-1.3030738570836675,-1.301712679769215
112,4.022900452877765,5.38399739744802,3.988589373185512,5.352903850401805,-5.352903850401807,-1.3300033975240417,-1.3643144772162952,-1.3610969445702543
113,4.0091557693540345,5.4288533386510505,4.000827598580483,5.427387177398563,-5.427387177398561,-1.4182314080445266,-1.426559578818078,-1.419697569297016
114,3.9990122758270927,5.476444427809341,4.0174981077099465,5.5074735167180044,-5.5074735167180044,-1.5084612408909117,-1.489975409008058,-1.4774321519822475
115,3.992499356259517,5.526724652530795,4.039717552698058,5.594061427847265,-5.594061427847267,-1.6015620715877499,-1.5543438751492085,-1.5342252962712783
117,3.9896126267720455,5.6343340941797795,4.067570927848108,5.686737168347297,-5.686737168347294,-1.6971245415752487,-1.6191662404991867,-1.644721467407734
118,4.0121266968433575,5.71043627070636,4.099796766772387,5.783611379952004,-5.783611379952003,-1.7714846831086453,-1.6838146131796154,-1.698309573863003
119,4.221331864098535,5.972058149449245,4.133904612059007,5.8815832108840995,-5.881583210884099,-1.6602513467855635,-1.7476785988250914,-1.750726285350709
120,4.226593617384962,6.028525362423948,4.166780497746333,5.977047345417446,-5.9770473454174455,-1.7504537280324834,-1.8102668476711123,-1.8019317450389858
121,4.232944715219159,6.084837527311693,4.195622402762546,6.066869695102936,-6.066869695102936,-1.8339249798837765,-1.8712472923403896,-1.8518928120925344
123,4.23968459489232,6.187665781527244,4.218881200839799,6.149316027954814,-6.149316027954814,-1.9096314330624944,-1.9304348271150156,-1.947981186634924
124,4.246343852859232,6.240417118336378,4.236844604862124,6.22459570428987,-6.224595704289871,-1.978251851430639,-1.9877510994277463,-1.9940732654771458
125,4.252601254229697,6.291451063837794,4.251614082743144,6.294797246891395,-6.294797246891395,-2.042195992661698,-2.0431831641482514,-2.038849809608097
126,4.258166962830245,6.340473654232125,4.266444413153222,6.363202283432103,-6.363202283432103,-2.105035320601858,-2.096757870278881,-2.0823066914018797
128,4.262745964979222,6.428014134381819,4.28465409404221,6.433188066852907,-6.433188066852909,-2.1704421018736877,-2.148533972810699,-2.1652681694025966
129,4.266109602240777,6.47089616691558,4.308477071235837,6.507079008034131,-6.507079008034131,-2.2409694057933534,-2.198601936798294,-2.204786564674803
130,4.2682057596203675,6.51121788955192,4.338250586461564,6.585328395487856,-6.585328395487858,-2.3171226358674906,-2.247077809026294,-2.2430121299315524
131,4.307752439693628,6.5877129424330345,4.372215982578846,6.6662992711251405,-6.66629927112514,-2.3585468314315117,-2.294083288546294,-2.279960502739406
133,4.497352039247326,6.8474541007429846,4.406999087412347,6.746714013113802,-6.746714013113803,-2.2493619738664776,-2.3397149257014567,-2.3501020614956585
134,4.497129339251196,6.880468684859586,4.438613343604251,6.822627822477019,-6.822627822477018,-2.3254984832258216,-2.384014478872767,-2.38333934560839
135,4.496641533039913,6.912028528946866,4.463667202824672,6.8906217926761615,-6.8906217926761615,-2.3939802596362485,-2.4269545898514897,-2.4153869959069536
137,4.495900840813334,6.97192172946739,4.480405506582419,6.94885358316591,-6.94885358316591,-2.4529527423525757,-2.468448076583491,-2.476020888654055
138,4.494851887281833,6.999515748125292,4.489279699265222,6.997658382424554,-6.997658382424555,-2.502806495142722,-2.508378683159332,-2.5046638608434595
140,4.493545202107887,7.052295340703224,4.492891862205722,7.039533114483721,-7.039533114483721,-2.5459879123758338,-2.5466412522779986,-2.558750138595337
141,4.492247180103921,7.076501634125074,4.49533953586229,7.078514603539933,-7.078514603539934,-2.586267423436013,-2.5831750676776437,-2.5842544540211527
142,4.491374917914286,7.100148988486408,4.501148154718434,7.119125867217527,-7.1191258672175275,-2.627750949303241,-2.6179777124990933,-2.6087740705721214
144,4.491257636999407,7.146240901626669,4.514076058869966,7.16517219686439,-7.16517219686439,-2.6739145598649827,-2.651096137994424,-2.6549832646272615
145,4.49186835315744,7.168602960179877,4.53609526135791,7.218697116706817,-7.218697116706817,-2.726828763549377,-2.6826018553489073,-2.6767346070224365
147,4.492729089286312,7.210412310096363,4.566793733176224,7.279357073232868,-7.279357073232869,-2.7866279839465564,-2.7125633400566445,-2.7176832208100508
148,4.553132151418127,7.290072434871426,4.603334531523469,7.344362958478929,-7.344362958478928,-2.791230807060801,-2.7410284269554586,-2.7369402834532996
150,4.720287651007583,7.4934531884333655,4.6409740612862445,7.408997578124661,-7.408997578124661,-2.6887099271170785,-2.768023516838417,-2.773165537425782
151,4.718298227466916,7.508488413115357,4.674015651381126,7.467583427048989,-7.467583427048991,-2.749285199582075,-2.7935677756678654,-2.79019018564844
153,4.715410737696203,7.537610402282395,4.696980749585119,7.514674260357569,-7.514674260357568,-2.7992635226613647,-2.8176935107724486,-2.8221996645861918
154,4.712204530905353,7.549441348483542,4.705736171030825,7.546197875172874,-7.546197875172875,-2.8339933442675216,-2.84046170414205,-2.837236817578189
156,4.70903678872689,7.574537960652151,4.698329684475285,7.560294482368549,-7.560294482368549,-2.851257693641659,-2.8619647978932647,-2.8655011719252608
157,4.705744196468209,7.58452037346235,4.675354536838059,7.557669791439988,-7.557669791439986,-2.8519255949717772,-2.8823152546019273,-2.878776176994142
159,4.701694435202587,7.605420021648398,4.639772678633959,7.541397601535177,-7.541397601535177,-2.8397031663325905,-2.9016249229012185,-2.9037255864458116
160,4.634869539438488,7.550312727181238,4.596253288661808,7.516237314197641,-7.516237314197641,-2.881367774759153,-2.9199840255358325,-2.9154431877427496
