frequency,raw,error,smoothed,error_smoothed,equalization,parametric_eq,equalized_raw,equalized_smoothed,target
20,-16.43,-18.62,-16.37,-18.56,6.00,5.76,-10.43,-10.37,2.19
21,-15.23,-17.38,-15.27,-17.42,6.00,5.92,-9.23,-9.27,2.15
22,-14.18,-16.29,-14.22,-16.33,6.00,6.04,-8.18,-8.22,2.11
23,-13.18,-15.25,-13.22,-15.29,6.00,6.14,-7.18,-7.22,2.07
24,-12.20,-14.23,-12.26,-14.29,6.00,6.21,-6.20,-6.26,2.03
25,-11.37,-13.36,-11.36,-13.35,6.00,6.25,-5.37,-5.36,1.99
26,-10.51,-12.47,-10.50,-12.45,6.00,6.27,-4.51,-4.50,1.95
27,-9.72,-11.64,-9.69,-11.60,6.00,6.26,-3.72,-3.69,1.91
28,-8.99,-10.87,-8.92,-10.80,6.00,6.22,-2.99,-2.92,1.88
29,-8.22,-10.06,-8.21,-10.05,6.00,6.17,-2.22,-2.21,1.84
30,-7.53,-9.34,-7.55,-9.35,6.00,6.09,-1.53,-1.55,1.80
31,-6.90,-8.67,-6.94,-8.71,6.00,5.99,-0.90,-0.94,1.77
32,-6.29,-8.02,-6.39,-8.12,6.00,5.87,-0.29,-0.39,1.73
33,-5.83,-7.53,-5.89,-7.59,6.00,5.74,0.17,0.11,1.69
34,-5.42,-7.08,-5.45,-7.11,6.00,5.59,0.58,0.55,1.66
35,-5.08,-6.71,-5.06,-6.68,5.95,5.42,0.87,0.89,1.62
36,-4.76,-6.35,-4.71,-6.29,5.85,5.24,1.09,1.14,1.59
37,-4.41,-5.97,-4.39,-5.94,5.70,5.05,1.29,1.31,1.55
38,-4.03,-5.55,-4.09,-5.61,5.50,4.85,1.47,1.41,1.52
39,-3.74,-5.23,-3.80,-5.29,5.26,4.64,1.52,1.46,1.48
40,-3.53,-4.98,-3.52,-4.97,4.97,4.42,1.44,1.45,1.45
41,-3.33,-4.75,-3.23,-4.65,4.65,4.20,1.31,1.42,1.42
42,-2.95,-4.34,-2.92,-4.31,4.31,3.97,1.36,1.38,1.38
43,-2.59,-3.95,-2.60,-3.95,3.95,3.73,1.35,1.35,1.35
44,-2.32,-3.64,-2.24,-3.57,3.57,3.49,1.24,1.32,1.32
45,-1.96,-3.25,-1.87,-3.16,3.16,3.25,1.20,1.29,1.29
46,-1.51,-2.77,-1.49,-2.75,2.75,3.01,1.24,1.26,1.26
47,-1.11,-2.34,-1.10,-2.33,2.33,2.76,1.22,1.23,1.23
48,-0.69,-1.90,-0.72,-1.92,1.92,2.51,1.23,1.20,1.20
49,-0.22,-1.40,-0.34,-1.52,1.52,2.26,1.30,1.18,1.18
50,0.13,-1.02,0.01,-1.14,1.14,2.01,1.26,1.15,1.15
51,0.45,-0.68,0.35,-0.77,0.77,1.77,1.22,1.13,1.13
52,0.68,-0.43,0.68,-0.42,0.42,1.52,1.09,1.10,1.10
53,0.92,-0.16,1.00,-0.08,0.08,1.27,0.99,1.08,1.08
54,1.07,0.01,1.31,0.25,-0.25,1.02,0.82,1.06,1.06
55,1.34,0.30,1.59,0.55,-0.55,0.78,0.79,1.04,1.04
56,1.66,0.64,1.82,0.80,-0.80,0.53,0.86,1.02,1.02
57,1.82,0.81,1.99,0.99,-0.99,0.29,0.83,1.00,1.00
58,2.86,1.87,2.09,1.10,-1.10,0.05,1.76,0.99,0.99
59,2.85,1.87,2.08,1.11,-1.11,-0.19,1.74,0.97,0.97
60,1.87,0.91,1.98,1.02,-1.02,-0.42,0.84,0.96,0.96
61,1.59,0.64,1.81,0.86,-0.86,-0.66,0.73,0.95,0.95
62,1.56,0.62,1.58,0.65,-0.65,-0.89,0.91,0.94,0.94
63,1.27,0.34,1.34,0.42,-0.42,-1.12,0.85,0.92,0.92
64,1.12,0.20,1.13,0.21,-0.21,-1.34,0.90,0.91,0.91
65,0.90,-0.01,0.98,0.07,-0.07,-1.57,0.82,0.91,0.91
66,0.80,-0.10,0.92,0.02,-0.02,-1.79,0.78,0.90,0.90
67,0.76,-0.13,0.96,0.07,-0.07,-2.01,0.68,0.89,0.89
68,0.83,-0.05,1.12,0.24,-0.24,-2.22,0.59,0.88,0.88
69,1.35,0.48,1.37,0.50,-0.50,-2.43,0.85,0.87,0.87
70,1.75,0.88,1.70,0.84,-0.84,-2.64,0.91,0.86,0.86
71,2.12,1.26,2.09,1.24,-1.24,-2.85,0.88,0.85,0.85
72,2.61,1.76,2.51,1.67,-1.67,-3.05,0.94,0.84,0.84
73,3.10,2.26,2.95,2.11,-2.11,-3.25,0.98,0.84,0.84
74,3.45,2.62,3.38,2.55,-2.55,-3.45,0.89,0.82,0.83
75,3.84,3.02,3.79,2.98,-2.98,-3.64,0.86,0.81,0.81
76,4.16,3.35,4.18,3.38,-3.38,-3.83,0.78,0.80,0.80
77,4.51,3.72,4.55,3.76,-3.76,-4.02,0.75,0.79,0.79
78,4.87,4.09,4.88,4.11,-4.11,-4.20,0.76,0.77,0.78
79,5.22,4.46,5.20,4.44,-4.44,-4.38,0.78,0.76,0.76
80,5.50,4.75,5.49,4.74,-4.74,-4.56,0.75,0.74,0.74
81,5.77,5.04,5.75,5.03,-5.03,-4.73,0.74,0.73,0.73
82,6.02,5.31,6.00,5.29,-5.29,-4.90,0.73,0.71,0.71
83,6.24,5.55,6.22,5.53,-5.53,-5.07,0.70,0.69,0.69
84,6.42,5.75,6.42,5.76,-5.76,-5.23,0.66,0.66,0.66
85,6.56,5.92,6.60,5.96,-5.96,-5.39,0.60,0.64,0.64
86,6.75,6.13,6.76,6.14,-6.14,-5.55,0.61,0.62,0.62
87,6.92,6.33,6.90,6.31,-6.31,-5.70,0.61,0.59,0.59
88,7.06,6.49,7.03,6.46,-6.46,-5.85,0.60,0.56,0.56
89,7.16,6.62,7.14,6.60,-6.60,-5.99,0.56,0.54,0.54
90,7.23,6.72,7.23,6.73,-6.73,-6.13,0.50,0.51,0.51
91,7.30,6.82,7.32,6.84,-6.84,-6.26,0.45,0.48,0.48
92,7.38,6.93,7.40,6.96,-6.96,-6.40,0.42,0.45,0.45
93,7.48,7.06,7.48,7.06,-7.06,-6.52,0.42,0.42,0.42
94,7.53,7.14,7.54,7.16,-7.16,-6.65,0.37,0.38,0.38
95,7.64,7.29,7.61,7.25,-7.25,-6.77,0.38,0.35,0.35
96,7.65,7.33,7.66,7.35,-7.35,-6.88,0.30,0.32,0.32
97,7.72,7.43,7.72,7.43,-7.43,-7.00,0.28,0.28,0.28
98,7.78,7.53,7.77,7.52,-7.52,-7.11,0.26,0.25,0.25
99,7.82,7.60,7.81,7.60,-7.60,-7.21,0.22,0.21,0.21
100,7.84,7.66,7.85,7.68,-7.68,-7.31,0.16,0.17,0.18
101,7.89,7.74,7.89,7.75,-7.75,-7.41,0.13,0.14,0.15
102,7.91,7.80,7.92,7.83,-7.83,-7.50,0.08,0.10,0.11
104,7.98,7.94,7.95,7.89,-7.89,-7.67,0.08,0.06,0.04
105,7.97,7.96,7.98,7.96,-7.96,-7.75,0.01,0.02,0.01
106,8.00,8.02,8.00,8.01,-8.01,-7.83,-0.02,-0.02,-0.02
107,8.02,8.07,8.01,8.07,-8.07,-7.90,-0.05,-0.05,-0.06
108,8.04,8.13,8.02,8.11,-8.11,-7.97,-0.07,-0.09,-0.09
109,8.03,8.15,8.03,8.15,-8.15,-8.04,-0.12,-0.12,-0.12
110,8.03,8.18,8.04,8.19,-8.19,-8.10,-0.16,-0.15,-0.15
111,8.03,8.21,8.04,8.22,-8.22,-8.16,-0.19,-0.18,-0.18
112,8.04,8.25,8.04,8.25,-8.25,-8.21,-0.22,-0.21,-0.21
113,8.04,8.28,8.04,8.28,-8.28,-8.26,-0.25,-0.24,-0.24
114,8.04,8.31,8.03,8.31,-8.31,-8.31,-0.27,-0.28,-0.27
115,8.05,8.34,8.03,8.34,-8.34,-8.36,-0.29,-0.31,-0.30
117,8.02,8.37,8.02,8.36,-8.36,-8.44,-0.34,-0.34,-0.36
118,8.02,8.40,8.01,8.38,-8.38,-8.47,-0.36,-0.38,-0.38
119,7.98,8.39,7.99,8.40,-8.40,-8.50,-0.42,-0.41,-0.41
120,7.97,8.40,7.97,8.42,-8.42,-8.53,-0.45,-0.44,-0.44
121,7.93,8.39,7.95,8.43,-8.43,-8.56,-0.50,-0.47,-0.46
123,7.95,8.46,7.93,8.44,-8.44,-8.60,-0.49,-0.51,-0.52
124,7.93,8.47,7.91,8.44,-8.44,-8.62,-0.52,-0.54,-0.54
125,7.89,8.45,7.88,8.45,-8.45,-8.64,-0.56,-0.57,-0.57
126,7.85,8.44,7.85,8.45,-8.45,-8.65,-0.60,-0.60,-0.59
128,7.82,8.45,7.82,8.44,-8.44,-8.67,-0.63,-0.63,-0.64
129,7.78,8.44,7.78,8.44,-8.44,-8.67,-0.66,-0.66,-0.66
130,7.74,8.42,7.74,8.43,-8.43,-8.68,-0.69,-0.68,-0.68
131,7.70,8.40,7.70,8.41,-8.41,-8.68,-0.72,-0.71,-0.70
133,7.66,8.40,7.66,8.40,-8.40,-8.68,-0.74,-0.74,-0.74
134,7.62,8.38,7.62,8.38,-8.38,-8.67,-0.76,-0.76,-0.76
135,7.58,8.36,7.57,8.36,-8.36,-8.67,-0.78,-0.79,-0.78
137,7.54,8.36,7.52,8.33,-8.33,-8.65,-0.79,-0.81,-0.82
138,7.49,8.32,7.47,8.30,-8.30,-8.64,-0.82,-0.84,-0.83
140,7.41,8.27,7.41,8.27,-8.27,-8.62,-0.87,-0.86,-0.87
141,7.35,8.23,7.36,8.24,-8.24,-8.61,-0.90,-0.88,-0.88
142,7.31,8.20,7.32,8.22,-8.22,-8.59,-0.91,-0.90,-0.89
144,7.27,8.19,7.27,8.19,-8.19,-8.56,-0.93,-0.92,-0.92
145,7.23,8.16,7.24,8.18,-8.18,-8.54,-0.95,-0.94,-0.93
147,7.19,8.14,7.21,8.16,-8.16,-8.50,-0.98,-0.95,-0.96
148,7.18,8.14,7.19,8.16,-8.16,-8.47,-0.98,-0.97,-0.97
150,7.19,8.17,7.17,8.15,-8.15,-8.43,-0.96,-0.98,-0.99
151,7.15,8.14,7.15,8.15,-8.15,-8.40,-1.00,-1.00,-0.99
153,7.15,8.16,7.13,8.14,-8.14,-8.35,-1.00,-1.01,-1.02
154,7.14,8.16,7.12,8.14,-8.14,-8.33,-1.00,-1.02,-1.02
156,7.08,8.12,7.10,8.13,-8.13,-8.27,-1.06,-1.04,-1.04
157,7.07,8.11,7.07,8.12,-8.12,-8.25,-1.06,-1.05,-1.05
159,7.04,8.10,7.05,8.11,-8.11,-8.19,-1.07,-1.06,-1.07
160,7.02,8.09,7.01,8.09,-8.09,-8.16,-1.07,-1.08,-1.07
162,7.02,8.11,6.98,8.07,-8.07,-8.10,-1.05,-1.09,-1.09
164,6.92,8.03,6.93,8.04,-8.04,-8.04,-1.12,-1.10,-1.11
165,6.89,8.00,6.89,8.00,-8.00,-8.01,-1.12,-1.12,-1.12
167,6.85,7.98,6.83,7.97,-7.97,-7.95,-1.12,-1.14,-1.14
169,6.76,7.91,6.78,7.93,-7.93,-7.88,-1.17,-1.15,-1.15
170,6.70,7.86,6.72,7.89,-7.89,-7.85,-1.19,-1.17,-1.16
172,6.66,7.84,6.65,7.84,-7.84,-7.79,-1.18,-1.18,-1.18
174,6.60,7.80,6.59,7.79,-7.79,-7.72,-1.19,-1.20,-1.20
175,6.53,7.74,6.52,7.74,-7.74,-7.69,-1.21,-1.22,-1.22
177,6.45,7.68,6.44,7.68,-7.68,-7.63,-1.23,-1.24,-1.24
179,6.39,7.64,6.36,7.62,-7.62,-7.56,-1.23,-1.26,-1.26
181,6.27,7.54,6.28,7.56,-7.56,-7.50,-1.29,-1.28,-1.28
183,6.19,7.48,6.20,7.49,-7.49,-7.43,-1.30,-1.29,-1.30
184,6.12,7.43,6.11,7.43,-7.43,-7.40,-1.31,-1.31,-1.31
186,6.04,7.37,6.03,7.36,-7.36,-7.34,-1.32,-1.33,-1.33
188,5.94,7.29,5.95,7.30,-7.30,-7.27,-1.36,-1.35,-1.35
190,5.87,7.24,5.87,7.24,-7.24,-7.21,-1.37,-1.37,-1.37
192,5.78,7.17,5.80,7.19,-7.19,-7.14,-1.41,-1.39,-1.39
194,5.72,7.13,5.73,7.14,-7.14,-7.08,-1.42,-1.41,-1.41
196,5.67,7.10,5.66,7.09,-7.09,-7.02,-1.43,-1.43,-1.43
198,5.60,7.04,5.60,7.05,-7.05,-6.95,-1.45,-1.45,-1.45
200,5.56,7.02,5.55,7.01,-7.01,-6.89,-1.45,-1.46,-1.46
202,5.50,6.98,5.49,6.97,-6.97,-6.83,-1.47,-1.48,-1.48
204,5.46,6.95,5.43,6.93,-6.93,-6.77,-1.48,-1.50,-1.50
206,5.35,6.86,5.38,6.89,-6.89,-6.71,-1.55,-1.51,-1.51
208,5.31,6.83,5.32,6.85,-6.85,-6.65,-1.54,-1.53,-1.53
210,5.29,6.83,5.27,6.81,-6.81,-6.59,-1.52,-1.54,-1.54
212,5.24,6.79,5.21,6.76,-6.76,-6.53,-1.52,-1.55,-1.55
214,5.12,6.68,5.15,6.71,-6.71,-6.47,-1.60,-1.57,-1.56
216,5.10,6.67,5.09,6.66,-6.66,-6.41,-1.56,-1.58,-1.58
218,5.05,6.63,5.02,6.61,-6.61,-6.36,-1.56,-1.59,-1.58
221,4.93,6.52,4.96,6.55,-6.55,-6.27,-1.62,-1.59,-1.60
223,4.90,6.50,4.89,6.49,-6.49,-6.22,-1.59,-1.60,-1.60
225,4.81,6.41,4.82,6.43,-6.43,-6.16,-1.62,-1.61,-1.61
227,4.75,6.36,4.75,6.36,-6.36,-6.11,-1.61,-1.61,-1.61
229,4.72,6.33,4.68,6.29,-6.29,-6.05,-1.58,-1.61,-1.61
232,4.59,6.20,4.61,6.23,-6.23,-5.97,-1.64,-1.62,-1.62
234,4.55,6.16,4.54,6.16,-6.16,-5.92,-1.61,-1.62,-1.62
236,4.47,6.08,4.47,6.09,-6.09,-5.87,-1.62,-1.61,-1.61
239,4.39,6.00,4.41,6.02,-6.02,-5.80,-1.63,-1.61,-1.61
241,4.38,5.99,4.34,5.95,-5.95,-5.75,-1.57,-1.61,-1.61
244,4.24,5.84,4.28,5.88,-5.88,-5.67,-1.65,-1.60,-1.60
246,4.23,5.82,4.22,5.82,-5.82,-5.63,-1.59,-1.60,-1.60
248,4.20,5.79,4.16,5.75,-5.75,-5.58,-1.55,-1.59,-1.59
251,4.08,5.66,4.10,5.68,-5.68,-5.51,-1.61,-1.58,-1.58
253,4.05,5.62,4.04,5.62,-5.62,-5.46,-1.57,-1.57,-1.57
256,4.00,5.56,3.99,5.55,-5.55,-5.40,-1.55,-1.56,-1.56
259,3.92,5.47,3.93,5.49,-5.49,-5.33,-1.57,-1.55,-1.55
261,3.87,5.41,3.88,5.42,-5.42,-5.29,-1.56,-1.54,-1.54
264,3.84,5.37,3.83,5.36,-5.36,-5.22,-1.52,-1.53,-1.53
266,3.78,5.30,3.78,5.30,-5.30,-5.18,-1.52,-1.52,-1.52
269,3.73,5.23,3.73,5.23,-5.23,-5.12,-1.51,-1.51,-1.51
272,3.68,5.17,3.68,5.17,-5.17,-5.06,-1.49,-1.50,-1.50
274,3.63,5.11,3.62,5.11,-5.11,-5.02,-1.48,-1.48,-1.48
277,3.58,5.05,3.57,5.04,-5.04,-4.96,-1.47,-1.47,-1.47
280,3.53,4.99,3.52,4.98,-4.98,-4.91,-1.45,-1.46,-1.46
283,3.45,4.89,3.47,4.92,-4.92,-4.85,-1.47,-1.45,-1.45
286,3.44,4.87,3.42,4.85,-4.85,-4.80,-1.41,-1.43,-1.43
288,3.36,4.78,3.36,4.78,-4.78,-4.76,-1.43,-1.42,-1.42
291,3.30,4.71,3.31,4.72,-4.72,-4.71,-1.42,-1.41,-1.41
294,3.29,4.68,3.25,4.65,-4.65,-4.66,-1.36,-1.40,-1.40
297,3.18,4.56,3.20,4.58,-4.58,-4.61,-1.40,-1.38,-1.38
300,3.14,4.51,3.14,4.51,-4.51,-4.56,-1.38,-1.37,-1.37
303,3.10,4.46,3.09,4.45,-4.45,-4.51,-1.35,-1.36,-1.36
306,3.03,4.38,3.03,4.38,-4.38,-4.47,-1.36,-1.35,-1.35
309,2.98,4.32,2.98,4.32,-4.32,-4.42,-1.34,-1.34,-1.34
312,2.93,4.26,2.93,4.26,-4.26,-4.38,-1.33,-1.33,-1.33
316,2.88,4.20,2.88,4.20,-4.20,-4.32,-1.32,-1.32,-1.32
319,2.81,4.12,2.83,4.14,-4.14,-4.28,-1.33,-1.31,-1.31
322,2.79,4.09,2.78,4.08,-4.08,-4.24,-1.29,-1.30,-1.30
325,2.76,4.05,2.74,4.03,-4.03,-4.20,-1.27,-1.29,-1.29
328,2.68,3.96,2.69,3.97,-3.97,-4.16,-1.30,-1.28,-1.28
332,2.63,3.90,2.65,3.92,-3.92,-4.11,-1.30,-1.27,-1.27
335,2.64,3.90,2.61,3.87,-3.87,-4.08,-1.24,-1.26,-1.26
338,2.58,3.83,2.57,3.82,-3.82,-4.04,-1.25,-1.26,-1.26
342,2.50,3.75,2.53,3.78,-3.78,-4.00,-1.28,-1.25,-1.25
345,2.50,3.74,2.49,3.73,-3.73,-3.96,-1.23,-1.24,-1.24
349,2.48,3.71,2.45,3.68,-3.68,-3.92,-1.21,-1.23,-1.23
352,2.42,3.64,2.41,3.64,-3.64,-3.89,-1.22,-1.23,-1.23
356,2.37,3.59,2.38,3.60,-3.60,-3.85,-1.23,-1.22,-1.22
359,2.35,3.56,2.35,3.56,-3.56,-3.83,-1.21,-1.22,-1.22
363,2.31,3.52,2.32,3.53,-3.53,-3.79,-1.22,-1.21,-1.21
366,2.27,3.47,2.30,3.50,-3.50,-3.77,-1.23,-1.21,-1.20
370,2.27,3.47,2.28,3.48,-3.48,-3.73,-1.21,-1.20,-1.20
374,2.27,3.46,2.26,3.46,-3.46,-3.70,-1.19,-1.20,-1.20
377,2.27,3.46,2.25,3.45,-3.45,-3.68,-1.18,-1.19,-1.19
381,2.27,3.46,2.24,3.43,-3.43,-3.65,-1.17,-1.19,-1.19
385,2.24,3.42,2.23,3.42,-3.42,-3.63,-1.18,-1.19,-1.19
389,2.24,3.42,2.22,3.41,-3.41,-3.60,-1.17,-1.18,-1.18
393,2.20,3.38,2.22,3.40,-3.40,-3.58,-1.20,-1.18,-1.18
397,2.20,3.38,2.21,3.39,-3.39,-3.56,-1.19,-1.18,-1.18
401,2.20,3.37,2.20,3.38,-3.38,-3.54,-1.18,-1.18,-1.18
405,2.20,3.37,2.19,3.37,-3.37,-3.53,-1.17,-1.18,-1.18
409,2.20,3.37,2.19,3.36,-3.36,-3.51,-1.16,-1.17,-1.17
413,2.20,3.37,2.19,3.36,-3.36,-3.50,-1.16,-1.17,-1.17
417,2.19,3.35,2.19,3.35,-3.35,-3.49,-1.17,-1.16,-1.16
421,2.19,3.35,2.20,3.36,-3.36,-3.48,-1.17,-1.16,-1.16
425,2.19,3.34,2.21,3.36,-3.36,-3.47,-1.17,-1.15,-1.15
430,2.22,3.36,2.22,3.37,-3.37,-3.46,-1.15,-1.14,-1.14
434,2.25,3.38,2.24,3.38,-3.38,-3.46,-1.13,-1.14,-1.14
438,2.29,3.41,2.26,3.39,-3.39,-3.46,-1.10,-1.12,-1.13
443,2.29,3.40,2.29,3.40,-3.40,-3.46,-1.11,-1.11,-1.11
447,2.32,3.42,2.31,3.41,-3.41,-3.46,-1.09,-1.10,-1.10
451,2.33,3.41,2.34,3.43,-3.43,-3.47,-1.10,-1.09,-1.09
456,2.40,3.47,2.37,3.44,-3.44,-3.48,-1.05,-1.07,-1.07
460,2.41,3.46,2.41,3.46,-3.46,-3.49,-1.06,-1.05,-1.05
465,2.42,3.45,2.45,3.49,-3.49,-3.50,-1.07,-1.04,-1.04
470,2.48,3.50,2.50,3.52,-3.52,-3.52,-1.04,-1.02,-1.02
474,2.59,3.59,2.55,3.55,-3.55,-3.54,-0.97,-1.00,-1.00
479,2.61,3.59,2.61,3.59,-3.59,-3.57,-0.99,-0.98,-0.98
484,2.67,3.63,2.68,3.64,-3.64,-3.60,-0.97,-0.96,-0.96
489,2.75,3.69,2.75,3.69,-3.69,-3.63,-0.94,-0.95,-0.94
494,2.84,3.76,2.82,3.75,-3.75,-3.67,-0.91,-0.93,-0.93
499,2.90,3.81,2.90,3.81,-3.81,-3.71,-0.91,-0.91,-0.91
504,2.99,3.88,2.98,3.87,-3.87,-3.76,-0.88,-0.89,-0.89
509,3.07,3.94,3.06,3.94,-3.94,-3.81,-0.87,-0.88,-0.88
514,3.12,3.98,3.15,4.02,-4.02,-3.86,-0.90,-0.86,-0.86
519,3.27,4.12,3.25,4.10,-4.10,-3.92,-0.83,-0.85,-0.85
524,3.34,4.17,3.35,4.19,-4.19,-3.99,-0.85,-0.84,-0.84
529,3.46,4.28,3.46,4.28,-4.28,-4.05,-0.82,-0.82,-0.82
535,3.57,4.38,3.57,4.38,-4.38,-4.14,-0.81,-0.81,-0.81
540,3.68,4.47,3.68,4.48,-4.48,-4.22,-0.80,-0.80,-0.80
545,3.80,4.58,3.80,4.58,-4.58,-4.31,-0.79,-0.78,-0.78
551,3.92,4.69,3.92,4.69,-4.69,-4.41,-0.77,-0.77,-0.77
556,4.07,4.82,4.04,4.80,-4.80,-4.51,-0.73,-0.76,-0.76
562,4.17,4.91,4.16,4.90,-4.90,-4.63,-0.74,-0.74,-0.74
568,4.28,5.00,4.29,5.01,-5.01,-4.75,-0.73,-0.73,-0.73
573,4.40,5.11,4.41,5.12,-5.12,-4.86,-0.72,-0.71,-0.71
579,4.54,5.23,4.54,5.23,-5.23,-5.00,-0.69,-0.69,-0.69
585,4.65,5.32,4.67,5.34,-5.34,-5.14,-0.69,-0.67,-0.67
591,4.80,5.45,4.80,5.45,-5.45,-5.28,-0.65,-0.65,-0.65
596,4.97,5.59,4.93,5.55,-5.55,-5.41,-0.59,-0.62,-0.62
602,5.05,5.65,5.06,5.66,-5.66,-5.55,-0.61,-0.60,-0.60
608,5.20,5.77,5.19,5.77,-5.77,-5.70,-0.57,-0.57,-0.57
615,5.33,5.87,5.33,5.87,-5.87,-5.87,-0.54,-0.55,-0.55
621,5.43,5.95,5.45,5.97,-5.97,-6.01,-0.54,-0.52,-0.52
627,5.54,6.03,5.58,6.07,-6.07,-6.15,-0.53,-0.49,-0.49
633,5.70,6.16,5.69,6.15,-6.15,-6.27,-0.46,-0.46,-0.46
639,5.81,6.24,5.80,6.23,-6.23,-6.39,-0.42,-0.43,-0.43
646,5.93,6.33,5.89,6.30,-6.30,-6.50,-0.37,-0.41,-0.41
652,6.01,6.39,5.96,6.35,-6.35,-6.59,-0.34,-0.38,-0.38
659,6.01,6.36,6.02,6.38,-6.38,-6.66,-0.37,-0.36,-0.36
665,6.05,6.38,6.06,6.40,-6.40,-6.70,-0.35,-0.33,-0.33
672,6.09,6.40,6.08,6.40,-6.40,-6.72,-0.31,-0.31,-0.31
679,6.11,6.40,6.09,6.38,-6.38,-6.70,-0.27,-0.29,-0.29
686,6.08,6.35,6.08,6.35,-6.35,-6.66,-0.28,-0.28,-0.28
692,6.05,6.31,6.05,6.32,-6.32,-6.61,-0.27,-0.26,-0.26
699,6.07,6.32,6.02,6.27,-6.27,-6.51,-0.20,-0.25,-0.25
706,5.90,6.14,5.97,6.22,-6.22,-6.40,-0.32,-0.24,-0.24
713,5.88,6.11,5.92,6.15,-6.15,-6.26,-0.28,-0.24,-0.24
721,5.85,6.08,5.85,6.08,-6.08,-6.09,-0.23,-0.23,-0.23
728,5.81,6.04,5.77,6.00,-6.00,-5.92,-0.19,-0.23,-0.23
735,5.70,5.93,5.68,5.91,-5.91,-5.74,-0.21,-0.23,-0.23
742,5.60,5.83,5.57,5.80,-5.80,-5.56,-0.20,-0.23,-0.23
750,5.47,5.70,5.45,5.68,-5.68,-5.34,-0.21,-0.23,-0.23
757,5.33,5.56,5.32,5.55,-5.55,-5.16,-0.22,-0.23,-0.23
765,5.15,5.39,5.17,5.41,-5.41,-4.94,-0.26,-0.24,-0.24
773,4.99,5.23,5.01,5.25,-5.25,-4.73,-0.27,-0.24,-0.24
780,4.85,5.09,4.85,5.10,-5.10,-4.55,-0.25,-0.25,-0.25
788,4.65,4.90,4.68,4.93,-4.93,-4.35,-0.28,-0.25,-0.25
796,4.48,4.73,4.50,4.75,-4.75,-4.15,-0.28,-0.25,-0.25
804,4.32,4.57,4.31,4.57,-4.57,-3.97,-0.25,-0.26,-0.26
812,4.11,4.37,4.11,4.37,-4.37,-3.79,-0.26,-0.26,-0.26
820,3.93,4.19,3.89,4.15,-4.15,-3.61,-0.23,-0.26,-0.26
828,3.71,3.97,3.66,3.92,-3.92,-3.45,-0.22,-0.26,-0.26
837,3.45,3.71,3.41,3.67,-3.67,-3.27,-0.22,-0.26,-0.26
845,3.15,3.40,3.15,3.40,-3.40,-3.12,-0.26,-0.26,-0.26
853,2.90,3.15,2.87,3.13,-3.13,-2.98,-0.23,-0.25,-0.25
862,2.66,2.91,2.59,2.84,-2.84,-2.83,-0.19,-0.25,-0.25
871,2.25,2.49,2.32,2.56,-2.56,-2.69,-0.31,-0.24,-0.24
879,2.01,2.24,2.05,2.29,-2.29,-2.57,-0.28,-0.23,-0.23
888,1.77,1.99,1.80,2.03,-2.03,-2.44,-0.26,-0.23,-0.22
897,1.54,1.75,1.57,1.79,-1.79,-2.31,-0.25,-0.21,-0.21
906,1.33,1.53,1.36,1.56,-1.56,-2.20,-0.23,-0.20,-0.20
915,1.16,1.35,1.16,1.35,-1.35,-2.08,-0.20,-0.19,-0.19
924,0.99,1.16,0.98,1.16,-1.16,-1.98,-0.17,-0.17,-0.17
933,0.86,1.01,0.81,0.97,-0.97,-1.88,-0.11,-0.16,-0.16
943,0.71,0.84,0.65,0.78,-0.78,-1.77,-0.08,-0.14,-0.14
952,0.60,0.71,0.49,0.61,-0.61,-1.68,-0.01,-0.12,-0.12
962,0.36,0.45,0.35,0.44,-0.44,-1.58,-0.08,-0.09,-0.09
971,0.20,0.27,0.22,0.29,-0.29,-1.50,-0.09,-0.07,-0.07
981,0.08,0.12,0.12,0.16,-0.16,-1.41,-0.08,-0.04,-0.04
991,0.03,0.04,0.06,0.07,-0.07,-1.32,-0.04,-0.01,-0.01
1001,-0.00,-0.02,0.04,0.02,-0.02,-1.24,-0.02,0.02,0.02
1011,0.08,0.03,0.07,0.02,-0.02,-1.16,0.06,0.05,0.05
1021,0.10,0.01,0.16,0.07,-0.07,-1.09,0.03,0.08,0.08
1031,0.21,0.09,0.30,0.18,-0.18,-1.01,0.03,0.12,0.12
1041,0.43,0.27,0.49,0.33,-0.33,-0.94,0.09,0.16,0.16
1052,0.72,0.52,0.73,0.53,-0.53,-0.86,0.19,0.20,0.20
1062,0.98,0.73,1.00,0.75,-0.75,-0.80,0.22,0.24,0.24
1073,1.26,0.97,1.27,0.99,-0.99,-0.73,0.27,0.29,0.29
1084,1.57,1.24,1.54,1.21,-1.21,-0.66,0.36,0.33,0.33
1094,1.79,1.41,1.78,1.40,-1.40,-0.59,0.39,0.38,0.38
1105,2.05,1.62,1.98,1.55,-1.55,-0.53,0.50,0.42,0.42
1116,2.25,1.78,2.12,1.65,-1.65,-0.46,0.60,0.47,0.47
1128,2.41,1.89,2.22,1.70,-1.70,-0.39,0.71,0.52,0.52
1139,2.45,1.88,2.28,1.71,-1.71,-0.33,0.74,0.57,0.57
1150,2.41,1.79,2.31,1.70,-1.70,-0.27,0.71,0.61,0.61
1162,2.14,1.48,2.33,1.67,-1.67,-0.20,0.46,0.66,0.66
1173,1.91,1.20,2.35,1.65,-1.65,-0.14,0.26,0.70,0.70
1185,1.89,1.14,2.35,1.61,-1.61,-0.07,0.28,0.75,0.75
1197,2.11,1.32,2.32,1.53,-1.53,-0.01,0.57,0.79,0.79
1209,2.43,1.60,2.23,1.40,-1.40,0.06,1.02,0.82,0.82
1221,2.57,1.71,2.04,1.18,-1.18,0.13,1.39,0.86,0.86
1233,2.30,1.40,1.74,0.85,-0.85,0.19,1.45,0.89,0.89
1246,1.65,0.73,1.32,0.40,-0.40,0.26,1.25,0.92,0.92
1258,1.01,0.06,0.81,-0.14,0.14,0.33,1.14,0.95,0.95
1271,0.34,-0.63,0.26,-0.71,0.71,0.40,1.05,0.97,0.97
1283,-0.34,-1.33,-0.28,-1.27,1.27,0.47,0.92,0.99,0.99
1296,-1.07,-2.08,-0.73,-1.74,1.74,0.55,0.66,1.00,1.00
1309,-1.64,-2.66,-1.06,-2.07,2.07,0.62,0.43,1.01,1.02
1322,-1.99,-3.02,-1.23,-2.26,2.26,0.70,0.27,1.02,1.02
1335,-1.89,-2.92,-1.27,-2.30,2.30,0.78,0.41,1.03,1.03
1349,-1.33,-2.37,-1.21,-2.24,2.24,0.87,0.91,1.03,1.03
1362,-0.64,-1.68,-1.10,-2.13,2.13,0.95,1.49,1.03,1.03
1376,-0.12,-1.16,-1.01,-2.04,2.04,1.05,1.92,1.03,1.03
1390,-0.18,-1.21,-0.97,-2.00,2.00,1.14,1.82,1.03,1.03
1404,-0.62,-1.65,-1.01,-2.04,2.04,1.24,1.42,1.03,1.03
1418,-1.29,-2.32,-1.12,-2.14,2.14,1.34,0.85,1.03,1.03
1432,-1.67,-2.70,-1.27,-2.29,2.29,1.45,0.62,1.02,1.02
1446,-1.79,-2.82,-1.41,-2.44,2.44,1.56,0.64,1.02,1.02
1461,-1.96,-2.99,-1.53,-2.56,2.56,1.68,0.59,1.02,1.02
1475,-1.82,-2.85,-1.60,-2.63,2.63,1.80,0.80,1.03,1.03
1490,-1.55,-2.58,-1.62,-2.65,2.65,1.94,1.09,1.03,1.03
1505,-1.31,-2.35,-1.58,-2.62,2.62,2.08,1.31,1.04,1.04
1520,-1.25,-2.31,-1.53,-2.58,2.58,2.22,1.33,1.05,1.05
1535,-1.43,-2.50,-1.47,-2.54,2.54,2.38,1.11,1.07,1.07
1550,-1.45,-2.55,-1.43,-2.52,2.52,2.53,1.07,1.09,1.09
1566,-1.47,-2.59,-1.41,-2.53,2.53,2.71,1.06,1.12,1.12
1582,-1.57,-2.73,-1.42,-2.58,2.58,2.90,1.00,1.16,1.15
1597,-1.48,-2.68,-1.47,-2.66,2.66,3.08,1.18,1.19,1.19
1613,-1.37,-2.61,-1.55,-2.79,2.79,3.28,1.41,1.24,1.24
1629,-1.56,-2.85,-1.66,-2.95,2.95,3.49,1.39,1.29,1.29
1646,-1.77,-3.12,-1.80,-3.15,3.15,3.71,1.37,1.35,1.35
1662,-1.96,-3.38,-1.96,-3.38,3.38,3.93,1.41,1.41,1.41
1679,-2.18,-3.67,-2.15,-3.64,3.64,4.17,1.45,1.48,1.48
1696,-2.36,-3.92,-2.36,-3.92,3.92,4.40,1.56,1.56,1.56
1713,-2.57,-4.21,-2.58,-4.22,4.22,4.64,1.64,1.64,1.64
1730,-2.76,-4.49,-2.79,-4.52,4.52,4.86,1.76,1.73,1.73
1747,-3.00,-4.82,-3.01,-4.82,4.82,5.08,1.82,1.82,1.82
1764,-3.19,-5.11,-3.20,-5.11,5.11,5.28,1.92,1.91,1.91
1782,-3.37,-5.38,-3.36,-5.37,5.37,5.47,2.00,2.01,2.01
1800,-3.51,-5.63,-3.49,-5.60,5.60,5.63,2.09,2.11,2.11
1818,-3.61,-5.83,-3.57,-5.79,5.78,5.76,2.17,2.21,2.22
1836,-3.67,-6.00,-3.60,-5.93,5.91,5.86,2.24,2.31,2.32
