frequency,raw
20.00,-6.46
20.20,-6.38
20.40,-6.30
20.61,-6.22
20.81,-6.14
21.02,-6.06
21.23,-5.98
21.44,-5.90
21.66,-5.81
21.87,-5.73
22.09,-5.65
22.31,-5.57
22.54,-5.48
22.76,-5.40
22.99,-5.32
23.22,-5.24
23.45,-5.16
23.69,-5.08
23.92,-5.00
24.16,-4.92
24.40,-4.84
24.65,-4.75
24.89,-4.67
25.14,-4.59
25.39,-4.52
25.65,-4.44
25.91,-4.36
26.16,-4.28
26.43,-4.20
26.69,-4.12
26.96,-4.04
27.23,-3.97
27.50,-3.89
27.77,-3.81
28.05,-3.74
28.33,-3.66
28.62,-3.59
28.90,-3.52
29.19,-3.44
29.48,-3.37
29.78,-3.29
30.08,-3.22
30.38,-3.15
30.68,-3.08
30.99,-3.01
31.30,-2.95
31.61,-2.89
31.93,-2.82
32.24,-2.77
32.57,-2.71
32.89,-2.65
33.22,-2.60
33.55,-2.55
33.89,-2.50
34.23,-2.45
34.57,-2.39
34.92,-2.34
35.27,-2.29
35.62,-2.23
35.97,-2.17
36.33,-2.12
36.70,-2.06
37.06,-2.01
37.43,-1.95
37.81,-1.89
38.19,-1.83
38.57,-1.77
38.95,-1.72
39.34,-1.66
39.74,-1.61
40.14,-1.55
40.54,-1.49
40.94,-1.43
41.35,-1.37
41.76,-1.31
42.18,-1.25
42.60,-1.19
43.03,-1.14
43.46,-1.08
43.90,-1.02
44.33,-0.96
44.78,-0.90
45.23,-0.84
45.68,-0.79
46.13,-0.73
46.60,-0.67
47.06,-0.61
47.53,-0.57
48.01,-0.52
48.49,-0.48
48.97,-0.43
49.46,-0.38
49.96,-0.33
50.46,-0.28
50.96,-0.23
51.47,-0.19
51.99,-0.15
52.51,-0.10
53.03,-0.06
53.56,-0.01
54.10,0.03
54.64,0.07
55.18,0.11
55.74,0.14
56.29,0.17
56.86,0.19
57.42,0.22
58.00,0.25
58.58,0.28
59.16,0.31
59.76,0.34
60.35,0.37
60.96,0.41
61.57,0.44
62.18,0.47
62.80,0.49
63.43,0.51
64.07,0.53
64.71,0.56
65.35,0.58
66.01,0.61
66.67,0.64
67.33,0.66
68.01,0.68
68.69,0.71
69.37,0.74
70.07,0.77
70.77,0.81
71.48,0.84
72.19,0.87
72.91,0.90
73.64,0.92
74.38,0.95
75.12,0.97
75.87,1.00
76.63,1.03
77.40,1.07
78.17,1.11
78.95,1.15
79.74,1.19
80.54,1.23
81.35,1.26
82.16,1.29
82.98,1.32
83.81,1.34
84.65,1.35
85.50,1.37
86.35,1.39
87.22,1.40
88.09,1.41
88.97,1.41
89.86,1.42
90.76,1.42
91.66,1.43
92.58,1.44
93.51,1.46
94.44,1.49
95.39,1.52
96.34,1.55
97.30,1.58
98.28,1.62
99.26,1.65
100.25,1.68
101.25,1.71
102.27,1.72
103.29,1.73
104.32,1.75
105.37,1.76
106.42,1.76
107.48,1.75
108.56,1.73
109.64,1.72
110.74,1.72
111.85,1.74
112.97,1.76
114.10,1.78
115.24,1.81
116.39,1.83
117.55,1.86
118.73,1.90
119.92,1.94
121.12,1.98
122.33,2.00
123.55,2.02
124.79,2.05
126.03,2.07
127.29,2.08
128.57,2.08
129.85,2.08
131.15,2.07
132.46,2.06
133.79,2.06
135.12,2.06
136.48,2.06
137.84,2.06
139.22,2.06
140.61,2.06
142.02,2.06
143.44,2.06
144.87,2.06
146.32,2.06
147.78,2.06
149.26,2.06
150.75,2.06
152.26,2.07
153.78,2.07
155.32,2.08
156.88,2.08
158.44,2.08
160.03,2.06
161.63,2.04
163.24,2.03
164.88,1.99
166.53,1.97
168.19,1.94
169.87,1.90
171.57,1.87
173.29,1.85
175.02,1.82
176.77,1.79
178.54,1.77
180.32,1.73
182.13,1.70
183.95,1.66
185.79,1.64
187.65,1.62
189.52,1.59
191.42,1.56
193.33,1.53
195.27,1.50
197.22,1.47
199.19,1.44
201.18,1.42
203.19,1.40
205.23,1.39
207.28,1.39
209.35,1.40
211.44,1.41
213.56,1.41
215.69,1.41
217.85,1.41
220.03,1.41
222.23,1.41
224.45,1.41
226.70,1.39
228.96,1.39
231.25,1.38
233.57,1.38
235.90,1.39
238.26,1.41
240.64,1.44
243.05,1.48
245.48,1.52
247.93,1.59
250.41,1.65
252.92,1.75
255.45,1.83
258.00,1.92
260.58,2.05
263.19,2.16
265.82,2.31
268.48,2.41
271.16,2.52
273.87,2.66
276.61,2.77
279.38,2.89
282.17,2.99
284.99,3.10
287.84,3.26
290.72,3.37
293.63,3.48
296.57,3.57
299.53,3.66
302.53,3.75
305.55,3.82
308.61,3.87
311.69,3.92
314.81,3.96
317.96,3.99
321.14,4.01
324.35,4.03
327.59,4.04
330.87,4.05
334.18,4.05
337.52,4.04
340.90,4.03
344.30,4.01
347.75,4.00
351.23,3.98
354.74,3.96
358.28,3.92
361.87,3.88
365.49,3.82
369.14,3.77
372.83,3.72
376.56,3.66
380.33,3.61
384.13,3.55
387.97,3.50
391.85,3.45
395.77,3.39
399.73,3.34
403.72,3.30
407.76,3.26
411.84,3.22
415.96,3.18
420.12,3.15
424.32,3.11
428.56,3.07
432.85,3.03
437.18,2.98
441.55,2.94
445.96,2.91
450.42,2.87
454.93,2.85
459.48,2.82
464.07,2.78
468.71,2.73
473.40,2.69
478.13,2.64
482.91,2.59
487.74,2.56
492.62,2.54
497.55,2.52
502.52,2.50
507.55,2.46
512.62,2.42
517.75,2.38
522.93,2.34
528.16,2.30
533.44,2.27
538.77,2.24
544.16,2.22
549.60,2.20
555.10,2.18
560.65,2.15
566.25,2.11
571.92,2.06
577.64,2.02
583.41,1.98
589.25,1.95
595.14,1.92
601.09,1.90
607.10,1.88
613.17,1.86
619.30,1.82
625.50,1.77
631.75,1.73
638.07,1.68
644.45,1.65
650.89,1.62
657.40,1.59
663.98,1.57
670.62,1.53
677.32,1.49
684.10,1.44
690.94,1.39
697.85,1.34
704.83,1.30
711.87,1.26
718.99,1.24
726.18,1.20
733.44,1.16
740.78,1.12
748.19,1.07
755.67,1.03
763.23,0.98
770.86,0.95
778.57,0.92
786.35,0.90
794.22,0.88
802.16,0.84
810.18,0.80
818.28,0.75
826.46,0.71
834.73,0.68
843.08,0.65
851.51,0.62
860.02,0.59
868.62,0.56
877.31,0.51
886.08,0.46
894.94,0.41
903.89,0.36
912.93,0.31
922.06,0.28
931.28,0.25
940.59,0.23
950.00,0.21
959.50,0.17
969.09,0.12
978.78,0.07
988.57,0.04
998.46,0.01
1008.44,-0.02
1018.53,-0.05
1028.71,-0.08
1039.00,-0.12
1049.39,-0.17
1059.88,-0.23
1070.48,-0.28
1081.19,-0.32
1092.00,-0.35
1102.92,-0.38
1113.95,-0.41
1125.09,-0.44
1136.34,-0.48
1147.70,-0.53
1159.18,-0.58
1170.77,-0.63
1182.48,-0.67
1194.30,-0.70
1206.25,-0.73
1218.31,-0.75
1230.49,-0.77
1242.80,-0.79
1255.22,-0.82
1267.78,-0.85
1280.45,-0.88
1293.26,-0.91
1306.19,-0.94
1319.25,-0.97
1332.45,-0.99
1345.77,-1.02
1359.23,-1.05
1372.82,-1.08
1386.55,-1.11
1400.41,-1.12
1414.42,-1.14
1428.56,-1.17
1442.85,-1.20
1457.28,-1.22
1471.85,-1.24
1486.57,-1.26
1501.43,-1.28
1516.45,-1.31
1531.61,-1.35
1546.93,-1.38
1562.40,-1.41
1578.02,-1.44
1593.80,-1.47
1609.74,-1.50
1625.84,-1.52
1642.10,-1.53
1658.52,-1.53
1675.10,-1.52
1691.85,-1.52
1708.77,-1.52
1725.86,-1.52
1743.12,-1.52
1760.55,-1.52
1778.15,-1.50
1795.94,-1.48
1813.90,-1.46
1832.03,-1.44
1850.36,-1.41
1868.86,-1.38
1887.55,-1.35
1906.42,-1.33
1925.49,-1.29
1944.74,-1.25
1964.19,-1.21
1983.83,-1.18
2003.67,-1.14
2023.71,-1.10
2043.94,-1.06
2064.38,-1.02
2085.03,-0.98
2105.88,-0.92
2126.94,-0.87
2148.20,-0.81
2169.69,-0.73
2191.38,-0.65
2213.30,-0.57
2235.43,-0.49
2257.78,-0.40
2280.36,-0.30
2303.17,-0.20
2326.20,-0.09
2349.46,0.01
2372.95,0.14
2396.68,0.26
2420.65,0.40
2444.86,0.56
2469.31,0.72
2494.00,0.88
2518.94,1.05
2544.13,1.24
2569.57,1.45
2595.27,1.66
2621.22,1.90
2647.43,2.13
2673.90,2.37
2700.64,2.64
2727.65,2.91
2754.93,3.20
2782.48,3.48
2810.30,3.75
2838.40,4.02
2866.79,4.29
2895.46,4.54
2924.41,4.79
2953.65,5.03
2983.19,5.23
3013.02,5.41
3043.15,5.56
3073.58,5.68
3104.32,5.76
3135.36,5.83
3166.72,5.86
3198.38,5.87
3230.37,5.85
3262.67,5.80
3295.30,5.73
3328.25,5.63
3361.53,5.49
3395.15,5.32
3429.10,5.12
3463.39,4.89
3498.03,4.63
3533.01,4.34
3568.34,4.00
3604.02,3.64
3640.06,3.23
3676.46,2.79
3713.22,2.32
3750.36,1.84
3787.86,1.34
3825.74,0.85
3864.00,0.37
3902.64,-0.11
3941.66,-0.57
3981.08,-1.00
4020.89,-1.42
4061.10,-1.81
4101.71,-2.17
4142.73,-2.49
4184.15,-2.77
4226.00,-3.02
4268.26,-3.26
4310.94,-3.47
4354.05,-3.67
4397.59,-3.87
4441.56,-4.05
4485.98,-4.24
4530.84,-4.42
4576.15,-4.60
4621.91,-4.79
4668.13,-4.98
4714.81,-5.19
4761.96,-5.39
4809.58,-5.61
4857.67,-5.83
4906.25,-6.07
4955.31,-6.31
5004.87,-6.55
5054.91,-6.79
5105.46,-7.04
5156.52,-7.29
5208.08,-7.55
5260.16,-7.80
5312.77,-8.06
5365.89,-8.32
5419.55,-8.58
5473.75,-8.83
5528.49,-9.08
5583.77,-9.33
5639.61,-9.57
5696.00,-9.81
5752.96,-10.05
5810.49,-10.28
5868.60,-10.51
5927.28,-10.72
5986.56,-10.93
6046.42,-11.13
6106.89,-11.34
6167.96,-11.51
6229.64,-11.68
6291.93,-11.85
6354.85,-12.01
6418.40,-12.13
6482.58,-12.25
6547.41,-12.37
6612.88,-12.48
6679.01,-12.58
6745.80,-12.67
6813.26,-12.76
6881.39,-12.86
6950.21,-12.95
7019.71,-13.02
7089.91,-13.08
7160.81,-13.14
7232.41,-13.17
7304.74,-13.16
7377.79,-13.14
7451.56,-13.10
7526.08,-13.04
7601.34,-12.97
7677.35,-12.87
7754.13,-12.75
7831.67,-12.61
7909.98,-12.47
7989.08,-12.33
8068.98,-12.19
8149.67,-12.06
8231.16,-11.94
8313.47,-11.82
8396.61,-11.74
8480.57,-11.65
8565.38,-11.58
8651.03,-11.54
8737.54,-11.51
8824.92,-11.51
8913.17,-11.53
9002.30,-11.58
9092.32,-11.64
9183.25,-11.73
9275.08,-11.85
9367.83,-11.99
9461.51,-12.15
9556.12,-12.35
9651.68,-12.59
9748.20,-12.84
9845.68,-13.12
9944.14,-13.42
10043.58,-13.75
10144.02,-14.12
10245.46,-14.50
10347.91,-14.91
10451.39,-15.33
10555.91,-15.76
10661.46,-16.21
10768.08,-16.66
10875.76,-17.11
10984.52,-17.54
11094.36,-17.96
11205.31,-18.36
11317.36,-18.73
11430.53,-19.07
11544.84,-19.35
11660.29,-19.59
11776.89,-19.76
11894.66,-19.88
12013.60,-19.91
12133.74,-19.88
12255.08,-19.80
12377.63,-19.67
12501.41,-19.50
12626.42,-19.30
12752.68,-19.09
12880.21,-18.88
13009.01,-18.67
13139.10,-18.47
13270.49,-18.31
13403.20,-18.16
13537.23,-18.05
13672.60,-17.98
13809.33,-17.94
13947.42,-17.94
14086.90,-17.96
14227.77,-18.02
14370.04,-18.11
14513.74,-18.22
14658.88,-18.33
14805.47,-18.48
14953.52,-18.68
15103.06,-18.93
15254.09,-19.26
15406.63,-19.67
15560.70,-20.16
15716.30,-20.73
15873.47,-21.36
16032.20,-22.07
16192.52,-22.82
16354.45,-23.61
16517.99,-24.41
16683.17,-25.23
16850.01,-26.03
17018.51,-26.80
17188.69,-27.51
17360.58,-28.15
17534.18,-28.70
17709.53,-29.18
17886.62,-29.58
18065.49,-29.91
18246.14,-30.21
18428.60,-30.48
18612.89,-30.70
18799.02,-30.86
18987.01,-30.97
19176.88,-31.02
19368.65,-31.02
19562.33,-30.97
19757.96,-30.87
19955.54,-30.72
