frequency,raw,smoothed,error,error_smoothed,equalization,parametric_eq,fixed_band_eq,equalized_raw,equalized_smoothed,target
20.00,0.97,0.97,-2.28,-2.29,2.26,1.59,0.13,3.24,3.24,3.26
20.20,1.05,1.05,-2.23,-2.24,2.23,1.55,0.14,3.28,3.28,3.29
20.40,1.13,1.13,-2.19,-2.18,2.19,1.52,0.14,3.32,3.32,3.32
20.61,1.20,1.21,-2.13,-2.14,2.15,1.48,0.15,3.35,3.36,3.34
20.81,1.29,1.28,-2.08,-2.09,2.11,1.44,0.15,3.39,3.39,3.37
21.02,1.35,1.35,-2.04,-2.04,2.06,1.41,0.16,3.42,3.41,3.40
21.23,1.40,1.41,-2.00,-2.00,2.01,1.37,0.17,3.42,3.42,3.41
21.44,1.46,1.46,-1.96,-1.96,1.96,1.33,0.18,3.42,3.42,3.42
21.66,1.50,1.50,-1.92,-1.92,1.91,1.29,0.18,3.42,3.42,3.43
21.87,1.56,1.56,-1.87,-1.87,1.86,1.26,0.19,3.42,3.42,3.43
22.09,1.62,1.62,-1.82,-1.81,1.80,1.22,0.20,3.42,3.42,3.43
22.31,1.69,1.69,-1.75,-1.75,1.74,1.18,0.21,3.42,3.42,3.43
22.54,1.76,1.76,-1.67,-1.67,1.67,1.14,0.21,3.43,3.43,3.43
22.76,1.84,1.84,-1.60,-1.59,1.59,1.11,0.22,3.43,3.43,3.43
22.99,1.91,1.91,-1.51,-1.51,1.52,1.07,0.23,3.43,3.43,3.42
23.22,1.98,1.98,-1.44,-1.44,1.44,1.03,0.24,3.43,3.42,3.42
23.45,2.05,2.06,-1.37,-1.36,1.37,0.99,0.25,3.42,3.43,3.42
23.69,2.12,2.13,-1.30,-1.29,1.30,0.95,0.26,3.42,3.43,3.42
23.92,2.21,2.20,-1.21,-1.23,1.24,0.92,0.27,3.44,3.43,3.42
24.16,2.25,2.25,-1.17,-1.17,1.18,0.88,0.28,3.43,3.43,3.43
24.40,2.30,2.30,-1.13,-1.12,1.12,0.84,0.29,3.42,3.43,3.43
24.65,2.34,2.34,-1.07,-1.08,1.07,0.80,0.30,3.42,3.42,3.42
24.89,2.39,2.39,-1.03,-1.03,1.03,0.76,0.30,3.41,3.41,3.42
25.14,2.44,2.43,-0.98,-0.98,0.98,0.72,0.31,3.41,3.41,3.41
25.39,2.48,2.48,-0.94,-0.94,0.93,0.68,0.32,3.41,3.41,3.41
25.65,2.52,2.52,-0.89,-0.89,0.88,0.65,0.33,3.41,3.40,3.41
25.91,2.56,2.57,-0.84,-0.84,0.83,0.61,0.34,3.40,3.40,3.40
26.16,2.63,2.62,-0.77,-0.78,0.78,0.57,0.35,3.40,3.40,3.40
26.43,2.67,2.68,-0.73,-0.72,0.73,0.53,0.35,3.40,3.40,3.40
26.69,2.73,2.73,-0.66,-0.67,0.67,0.49,0.36,3.40,3.40,3.40
26.96,2.78,2.79,-0.61,-0.61,0.61,0.45,0.37,3.40,3.40,3.40
27.23,2.84,2.84,-0.55,-0.55,0.55,0.41,0.37,3.40,3.39,3.40
27.50,2.89,2.90,-0.50,-0.50,0.49,0.37,0.38,3.39,3.39,3.39
27.77,2.96,2.95,-0.43,-0.43,0.43,0.33,0.38,3.38,3.38,3.38
28.05,3.00,3.01,-0.38,-0.37,0.36,0.29,0.38,3.37,3.37,3.38
28.33,3.07,3.07,-0.29,-0.30,0.30,0.25,0.38,3.37,3.37,3.37
28.62,3.13,3.14,-0.23,-0.23,0.23,0.22,0.38,3.36,3.36,3.37
28.90,3.20,3.20,-0.16,-0.16,0.16,0.18,0.38,3.36,3.36,3.37
29.19,3.26,3.26,-0.09,-0.10,0.09,0.14,0.38,3.36,3.36,3.35
29.48,3.33,3.33,-0.04,-0.03,0.03,0.10,0.37,3.36,3.36,3.36
29.78,3.38,3.39,0.03,0.03,-0.02,0.06,0.37,3.36,3.37,3.35
30.08,3.44,3.43,0.09,0.08,-0.07,0.02,0.36,3.37,3.36,3.35
30.38,3.46,3.47,0.13,0.13,-0.11,-0.02,0.35,3.35,3.35,3.34
30.68,3.48,3.49,0.15,0.16,-0.15,-0.06,0.34,3.33,3.34,3.34
30.99,3.51,3.51,0.19,0.19,-0.19,-0.10,0.32,3.32,3.32,3.32
31.30,3.54,3.54,0.22,0.22,-0.23,-0.14,0.31,3.31,3.31,3.32
31.61,3.57,3.57,0.26,0.26,-0.28,-0.17,0.29,3.29,3.29,3.32
31.93,3.59,3.61,0.29,0.30,-0.33,-0.21,0.27,3.26,3.28,3.31
32.24,3.67,3.67,0.37,0.37,-0.38,-0.25,0.25,3.28,3.29,3.29
32.57,3.73,3.74,0.44,0.45,-0.44,-0.29,0.22,3.30,3.30,3.29
32.89,3.81,3.80,0.53,0.52,-0.49,-0.33,0.20,3.32,3.31,3.29
33.22,3.85,3.85,0.58,0.57,-0.55,-0.37,0.17,3.31,3.30,3.28
33.55,3.87,3.88,0.60,0.61,-0.60,-0.41,0.14,3.28,3.28,3.27
33.89,3.90,3.91,0.64,0.64,-0.65,-0.44,0.10,3.26,3.26,3.26
34.23,3.93,3.94,0.68,0.68,-0.69,-0.48,0.07,3.24,3.24,3.26
34.57,3.97,3.97,0.73,0.73,-0.74,-0.52,0.04,3.24,3.23,3.24
34.92,4.00,4.01,0.77,0.77,-0.78,-0.56,-0.00,3.22,3.22,3.23
35.27,4.04,4.05,0.82,0.82,-0.83,-0.60,-0.04,3.22,3.22,3.23
35.62,4.08,4.08,0.87,0.87,-0.87,-0.63,-0.08,3.21,3.21,3.21
35.97,4.12,4.12,0.92,0.92,-0.91,-0.67,-0.12,3.21,3.21,3.20
36.33,4.15,4.16,0.96,0.97,-0.95,-0.71,-0.16,3.20,3.21,3.20
36.70,4.18,4.19,1.00,1.00,-0.99,-0.75,-0.21,3.20,3.20,3.18
37.06,4.21,4.20,1.05,1.03,-1.02,-0.78,-0.25,3.20,3.18,3.17
37.43,4.21,4.21,1.05,1.05,-1.05,-0.82,-0.30,3.16,3.16,3.16
37.81,4.21,4.22,1.06,1.07,-1.08,-0.86,-0.35,3.13,3.14,3.15
38.19,4.23,4.24,1.10,1.10,-1.12,-0.89,-0.39,3.12,3.12,3.14
38.57,4.27,4.27,1.14,1.14,-1.16,-0.93,-0.44,3.11,3.11,3.13
38.95,4.31,4.31,1.20,1.19,-1.21,-0.97,-0.49,3.11,3.10,3.12
39.34,4.34,4.35,1.24,1.24,-1.26,-1.00,-0.55,3.09,3.09,3.10
39.74,4.38,4.39,1.30,1.30,-1.30,-1.04,-0.60,3.08,3.08,3.09
40.14,4.43,4.44,1.35,1.36,-1.35,-1.08,-0.65,3.09,3.09,3.08
40.54,4.49,4.49,1.43,1.43,-1.39,-1.11,-0.71,3.10,3.10,3.07
40.94,4.54,4.52,1.49,1.46,-1.43,-1.15,-0.76,3.11,3.09,3.06
41.35,4.52,4.52,1.48,1.47,-1.46,-1.18,-0.82,3.06,3.06,3.04
41.76,4.49,4.51,1.46,1.47,-1.49,-1.22,-0.87,3.00,3.02,3.04
42.18,4.50,4.52,1.47,1.50,-1.53,-1.25,-0.93,2.98,3.00,3.03
42.60,4.57,4.56,1.55,1.54,-1.56,-1.29,-0.99,3.01,3.00,3.01
43.03,4.61,4.59,1.61,1.59,-1.59,-1.32,-1.05,3.02,3.00,3.01
43.46,4.61,4.61,1.62,1.63,-1.63,-1.36,-1.11,2.98,2.98,2.99
43.90,4.61,4.63,1.65,1.67,-1.67,-1.39,-1.17,2.94,2.96,2.96
44.33,4.66,4.66,1.71,1.72,-1.71,-1.43,-1.23,2.94,2.95,2.94
44.78,4.71,4.70,1.79,1.77,-1.76,-1.46,-1.30,2.96,2.94,2.93
45.23,4.73,4.72,1.83,1.82,-1.79,-1.50,-1.36,2.94,2.93,2.91
45.68,4.72,4.73,1.84,1.84,-1.83,-1.53,-1.42,2.89,2.90,2.89
46.13,4.72,4.73,1.85,1.85,-1.86,-1.57,-1.49,2.86,2.86,2.87
46.60,4.73,4.74,1.87,1.88,-1.90,-1.60,-1.56,2.84,2.84,2.86
47.06,4.75,4.76,1.91,1.92,-1.93,-1.63,-1.62,2.83,2.83,2.84
47.53,4.78,4.78,1.96,1.96,-1.95,-1.67,-1.69,2.83,2.83,2.82
48.01,4.81,4.81,2.00,2.00,-1.99,-1.70,-1.76,2.83,2.82,2.81
48.49,4.81,4.82,2.03,2.04,-2.03,-1.74,-1.83,2.79,2.79,2.78
48.97,4.81,4.81,2.07,2.06,-2.07,-1.77,-1.90,2.74,2.74,2.75
49.46,4.81,4.81,2.10,2.09,-2.12,-1.80,-1.97,2.69,2.69,2.72
49.96,4.81,4.84,2.13,2.15,-2.17,-1.84,-2.04,2.65,2.67,2.69
50.46,4.88,4.89,2.21,2.22,-2.21,-1.87,-2.11,2.67,2.67,2.67
50.96,4.95,4.92,2.30,2.28,-2.25,-1.90,-2.18,2.70,2.67,2.65
51.47,4.94,4.94,2.33,2.32,-2.29,-1.93,-2.25,2.66,2.66,2.62
51.99,4.92,4.94,2.33,2.34,-2.32,-1.97,-2.32,2.60,2.61,2.60
52.51,4.92,4.92,2.34,2.35,-2.36,-2.00,-2.39,2.57,2.57,2.58
53.03,4.92,4.92,2.37,2.37,-2.38,-2.03,-2.46,2.54,2.54,2.56
53.56,4.92,4.92,2.39,2.39,-2.41,-2.07,-2.53,2.52,2.52,2.53
54.10,4.92,4.92,2.42,2.42,-2.43,-2.10,-2.60,2.50,2.50,2.51
54.64,4.92,4.92,2.44,2.45,-2.44,-2.13,-2.67,2.48,2.48,2.48
55.18,4.92,4.92,2.47,2.47,-2.46,-2.16,-2.73,2.46,2.46,2.45
55.74,4.92,4.93,2.50,2.50,-2.48,-2.20,-2.80,2.44,2.45,2.43
56.29,4.92,4.93,2.52,2.52,-2.51,-2.23,-2.86,2.42,2.42,2.41
56.86,4.92,4.91,2.54,2.53,-2.53,-2.26,-2.92,2.39,2.38,2.38
57.42,4.90,4.90,2.55,2.54,-2.56,-2.29,-2.98,2.34,2.34,2.35
58.00,4.87,4.90,2.54,2.57,-2.60,-2.33,-3.03,2.28,2.30,2.33
58.58,4.92,4.92,2.61,2.61,-2.63,-2.36,-3.08,2.29,2.29,2.31
59.16,4.97,4.97,2.68,2.67,-2.67,-2.39,-3.13,2.30,2.29,2.29
59.76,5.01,5.01,2.74,2.74,-2.72,-2.42,-3.18,2.30,2.29,2.27
60.35,5.02,5.02,2.78,2.78,-2.76,-2.46,-3.22,2.26,2.26,2.24
60.96,5.02,5.03,2.81,2.82,-2.81,-2.49,-3.26,2.21,2.22,2.22
61.57,5.02,5.03,2.85,2.85,-2.85,-2.52,-3.29,2.17,2.17,2.17
62.18,5.02,5.02,2.88,2.88,-2.89,-2.55,-3.32,2.14,2.14,2.14
62.80,5.02,5.03,2.91,2.91,-2.91,-2.59,-3.35,2.11,2.11,2.12
63.43,5.02,5.03,2.94,2.95,-2.93,-2.62,-3.37,2.10,2.10,2.08
64.07,5.02,5.03,2.97,2.97,-2.94,-2.65,-3.39,2.08,2.09,2.05
64.71,5.01,4.99,2.99,2.97,-2.95,-2.69,-3.41,2.06,2.04,2.03
65.35,4.96,4.96,2.96,2.95,-2.97,-2.72,-3.42,2.00,1.99,2.00
66.01,4.88,4.92,2.91,2.95,-2.98,-2.75,-3.43,1.91,1.94,1.97
66.67,4.91,4.91,2.97,2.96,-2.99,-2.78,-3.43,1.92,1.91,1.94
67.33,4.92,4.91,3.01,3.00,-3.01,-2.82,-3.44,1.91,1.90,1.91
68.01,4.92,4.93,3.04,3.04,-3.03,-2.85,-3.44,1.89,1.89,1.88
68.69,4.92,4.93,3.07,3.07,-3.06,-2.89,-3.44,1.86,1.86,1.85
69.37,4.92,4.92,3.10,3.10,-3.09,-2.92,-3.43,1.83,1.83,1.82
70.07,4.92,4.92,3.14,3.13,-3.13,-2.95,-3.43,1.79,1.79,1.79
70.77,4.92,4.92,3.16,3.16,-3.17,-2.99,-3.42,1.76,1.76,1.76
71.48,4.92,4.92,3.20,3.20,-3.20,-3.02,-3.41,1.72,1.72,1.73
72.19,4.92,4.92,3.23,3.23,-3.23,-3.06,-3.40,1.69,1.69,1.69
72.91,4.92,4.92,3.27,3.27,-3.27,-3.09,-3.40,1.66,1.66,1.66
73.64,4.92,4.92,3.30,3.30,-3.30,-3.12,-3.39,1.63,1.63,1.62
74.38,4.92,4.92,3.33,3.33,-3.33,-3.16,-3.38,1.59,1.59,1.59
75.12,4.92,4.92,3.37,3.37,-3.37,-3.19,-3.37,1.56,1.56,1.56
75.87,4.92,4.92,3.40,3.40,-3.40,-3.23,-3.36,1.53,1.53,1.53
76.63,4.92,4.92,3.43,3.43,-3.43,-3.26,-3.36,1.49,1.49,1.50
77.40,4.92,4.93,3.46,3.46,-3.47,-3.30,-3.35,1.46,1.46,1.46
78.17,4.92,4.92,3.50,3.49,-3.50,-3.33,-3.35,1.42,1.42,1.42
78.95,4.92,4.92,3.52,3.52,-3.53,-3.37,-3.35,1.39,1.39,1.40
79.74,4.91,4.92,3.55,3.55,-3.56,-3.41,-3.35,1.36,1.36,1.37
80.54,4.91,4.92,3.58,3.58,-3.58,-3.44,-3.35,1.34,1.34,1.33
81.35,4.91,4.93,3.62,3.63,-3.60,-3.48,-3.35,1.32,1.33,1.30
82.16,4.91,4.91,3.65,3.64,-3.61,-3.51,-3.36,1.30,1.30,1.26
82.98,4.91,4.87,3.68,3.64,-3.63,-3.55,-3.36,1.28,1.24,1.24
83.81,4.78,4.82,3.60,3.63,-3.65,-3.59,-3.38,1.13,1.17,1.19
84.65,4.77,4.79,3.62,3.64,-3.68,-3.62,-3.39,1.10,1.12,1.15
85.50,4.79,4.78,3.67,3.66,-3.70,-3.66,-3.40,1.09,1.08,1.12
86.35,4.81,4.81,3.73,3.72,-3.73,-3.69,-3.42,1.08,1.07,1.08
87.22,4.81,4.82,3.77,3.77,-3.76,-3.73,-3.44,1.05,1.05,1.04
88.09,4.82,4.83,3.82,3.82,-3.80,-3.77,-3.46,1.03,1.03,1.00
88.97,4.82,4.83,3.85,3.86,-3.83,-3.80,-3.49,0.99,1.00,0.97
89.86,4.82,4.80,3.89,3.88,-3.86,-3.84,-3.52,0.96,0.94,0.93
90.76,4.78,4.78,3.91,3.89,-3.89,-3.88,-3.55,0.89,0.89,0.88
91.66,4.70,4.75,3.86,3.91,-3.91,-3.91,-3.58,0.79,0.84,0.85
92.58,4.74,4.72,3.95,3.92,-3.93,-3.95,-3.62,0.81,0.79,0.79
93.51,4.71,4.69,3.96,3.93,-3.95,-3.98,-3.66,0.77,0.74,0.76
94.44,4.63,4.66,3.92,3.95,-3.96,-4.02,-3.70,0.68,0.71,0.72
95.39,4.62,4.63,3.95,3.97,-3.97,-4.06,-3.74,0.66,0.67,0.67
96.34,4.62,4.62,4.01,4.01,-3.98,-4.09,-3.79,0.64,0.64,0.62
97.30,4.61,4.59,4.04,4.02,-4.00,-4.13,-3.84,0.62,0.59,0.57
98.28,4.55,4.53,4.03,4.00,-4.02,-4.16,-3.89,0.54,0.51,0.53
99.26,4.41,4.47,3.93,3.99,-4.03,-4.20,-3.94,0.39,0.45,0.48
100.25,4.42,4.44,3.99,4.00,-4.03,-4.23,-4.00,0.40,0.41,0.43
101.25,4.45,4.42,4.07,4.03,-4.02,-4.26,-4.05,0.43,0.40,0.39
102.27,4.40,4.40,4.06,4.06,-4.00,-4.30,-4.11,0.40,0.40,0.34
103.29,4.32,4.34,4.04,4.05,-3.99,-4.33,-4.16,0.33,0.35,0.29
104.32,4.24,4.22,4.00,3.98,-3.98,-4.36,-4.22,0.27,0.24,0.25
105.37,4.12,4.12,3.92,3.91,-3.96,-4.40,-4.28,0.16,0.16,0.20
106.42,3.98,4.04,3.83,3.88,-3.93,-4.43,-4.34,0.05,0.11,0.16
107.48,3.99,3.99,3.88,3.88,-3.90,-4.46,-4.40,0.10,0.09,0.11
108.56,3.98,3.95,3.93,3.89,-3.86,-4.49,-4.46,0.12,0.09,0.05
109.64,3.90,3.92,3.90,3.91,-3.84,-4.52,-4.52,0.06,0.08,0.01
110.74,3.81,3.81,3.85,3.85,-3.83,-4.55,-4.57,-0.02,-0.02,-0.04
111.85,3.73,3.68,3.82,3.77,-3.83,-4.58,-4.63,-0.10,-0.15,-0.08
112.97,3.54,3.62,3.68,3.77,-3.83,-4.61,-4.68,-0.29,-0.20,-0.15
114.10,3.56,3.61,3.76,3.80,-3.82,-4.63,-4.73,-0.26,-0.21,-0.19
115.24,3.70,3.60,3.95,3.85,-3.82,-4.66,-4.77,-0.12,-0.22,-0.25
116.39,3.59,3.59,3.90,3.90,-3.83,-4.69,-4.82,-0.24,-0.24,-0.30
117.55,3.48,3.51,3.84,3.86,-3.85,-4.71,-4.85,-0.37,-0.34,-0.36
118.73,3.41,3.42,3.83,3.83,-3.87,-4.74,-4.89,-0.46,-0.46,-0.41
119.92,3.35,3.39,3.81,3.85,-3.89,-4.76,-4.92,-0.54,-0.50,-0.45
121.12,3.42,3.40,3.93,3.90,-3.90,-4.78,-4.94,-0.48,-0.50,-0.51
122.33,3.40,3.40,3.96,3.95,-3.90,-4.80,-4.96,-0.50,-0.50,-0.56
123.55,3.37,3.37,3.98,3.97,-3.91,-4.82,-4.98,-0.53,-0.54,-0.60
124.79,3.29,3.29,3.95,3.94,-3.92,-4.84,-4.99,-0.63,-0.63,-0.65
126.03,3.20,3.22,3.91,3.92,-3.95,-4.86,-5.00,-0.75,-0.73,-0.70
127.29,3.16,3.17,3.92,3.93,-3.99,-4.88,-4.99,-0.82,-0.82,-0.75
128.57,3.16,3.17,3.98,3.98,-4.03,-4.90,-4.99,-0.87,-0.86,-0.81
129.85,3.20,3.21,4.07,4.07,-4.09,-4.92,-4.98,-0.88,-0.88,-0.86
131.15,3.26,3.25,4.17,4.16,-4.15,-4.93,-4.97,-0.89,-0.90,-0.91
132.46,3.30,3.30,4.26,4.26,-4.23,-4.95,-4.95,-0.93,-0.93,-0.96
133.79,3.32,3.35,4.32,4.35,-4.33,-4.96,-4.92,-1.00,-0.97,-0.99
135.12,3.42,3.39,4.47,4.43,-4.43,-4.97,-4.90,-1.00,-1.03,-1.05
136.48,3.42,3.42,4.51,4.51,-4.52,-4.98,-4.87,-1.10,-1.10,-1.08
137.84,3.44,3.46,4.57,4.60,-4.61,-4.99,-4.83,-1.17,-1.15,-1.13
139.22,3.49,3.51,4.68,4.68,-4.70,-5.00,-4.80,-1.20,-1.19,-1.18
140.61,3.57,3.57,4.80,4.79,-4.77,-5.01,-4.76,-1.20,-1.20,-1.23
142.02,3.63,3.62,4.88,4.87,-4.84,-5.02,-4.72,-1.21,-1.23,-1.25
143.44,3.63,3.64,4.92,4.93,-4.90,-5.03,-4.68,-1.27,-1.27,-1.29
144.87,3.63,3.64,4.96,4.97,-4.96,-5.03,-4.63,-1.33,-1.32,-1.33
146.32,3.63,3.63,5.00,5.00,-5.01,-5.04,-4.59,-1.38,-1.38,-1.37
147.78,3.63,3.63,5.03,5.04,-5.05,-5.04,-4.55,-1.42,-1.42,-1.40
149.26,3.63,3.63,5.07,5.07,-5.09,-5.04,-4.50,-1.45,-1.45,-1.44
150.75,3.63,3.64,5.12,5.12,-5.11,-5.04,-4.46,-1.47,-1.47,-1.48
152.26,3.63,3.64,5.15,5.15,-5.13,-5.04,-4.42,-1.50,-1.50,-1.52
153.78,3.63,3.60,5.19,5.16,-5.16,-5.04,-4.38,-1.53,-1.56,-1.55
155.32,3.55,3.57,5.15,5.16,-5.18,-5.04,-4.34,-1.63,-1.62,-1.60
156.88,3.49,3.53,5.13,5.17,-5.20,-5.04,-4.30,-1.70,-1.66,-1.63
158.44,3.52,3.50,5.20,5.18,-5.20,-5.03,-4.27,-1.67,-1.70,-1.68
160.03,3.49,3.49,5.21,5.20,-5.18,-5.03,-4.23,-1.69,-1.70,-1.72
161.63,3.42,3.45,5.18,5.21,-5.15,-5.02,-4.20,-1.72,-1.70,-1.76
163.24,3.39,3.36,5.19,5.16,-5.10,-5.02,-4.17,-1.71,-1.74,-1.80
164.88,3.25,3.24,5.08,5.07,-5.05,-5.01,-4.15,-1.79,-1.81,-1.83
166.53,3.08,3.12,4.95,4.99,-4.98,-5.00,-4.13,-1.90,-1.86,-1.87
168.19,2.97,2.98,4.88,4.89,-4.91,-4.99,-4.11,-1.94,-1.93,-1.91
169.87,2.90,2.88,4.85,4.82,-4.85,-4.98,-4.09,-1.95,-1.98,-1.95
171.57,2.78,2.80,4.77,4.78,-4.81,-4.97,-4.07,-2.02,-2.01,-1.98
173.29,2.71,2.72,4.73,4.74,-4.78,-4.96,-4.06,-2.07,-2.06,-2.02
175.02,2.69,2.67,4.75,4.73,-4.79,-4.95,-4.06,-2.09,-2.11,-2.05
176.77,2.65,2.68,4.75,4.78,-4.81,-4.93,-4.05,-2.16,-2.13,-2.10
178.54,2.69,2.72,4.84,4.85,-4.85,-4.92,-4.05,-2.15,-2.13,-2.14
180.32,2.78,2.74,4.96,4.92,-4.89,-4.91,-4.05,-2.11,-2.15,-2.18
182.13,2.77,2.76,4.98,4.97,-4.93,-4.89,-4.05,-2.15,-2.17,-2.21
183.95,2.70,2.75,4.95,5.00,-4.95,-4.87,-4.06,-2.25,-2.20,-2.25
185.79,2.72,2.72,5.01,5.00,-4.97,-4.86,-4.07,-2.25,-2.25,-2.28
187.65,2.71,2.67,5.04,4.99,-4.97,-4.84,-4.08,-2.26,-2.30,-2.32
189.52,2.60,2.62,4.96,4.97,-4.97,-4.82,-4.10,-2.36,-2.35,-2.35
191.42,2.53,2.55,4.92,4.93,-4.96,-4.80,-4.12,-2.42,-2.41,-2.38
193.33,2.48,2.49,4.90,4.90,-4.95,-4.78,-4.14,-2.46,-2.46,-2.41
195.27,2.47,2.47,4.91,4.91,-4.94,-4.76,-4.16,-2.46,-2.47,-2.44
197.22,2.45,2.45,4.92,4.92,-4.94,-4.74,-4.19,-2.48,-2.48,-2.47
199.19,2.44,2.45,4.95,4.94,-4.94,-4.71,-4.22,-2.49,-2.49,-2.50
201.18,2.43,2.44,4.95,4.96,-4.94,-4.69,-4.25,-2.50,-2.50,-2.52
203.19,2.42,2.42,4.96,4.96,-4.93,-4.67,-4.28,-2.51,-2.52,-2.54
205.23,2.39,2.38,4.96,4.94,-4.93,-4.65,-4.31,-2.53,-2.54,-2.56
207.28,2.33,2.36,4.90,4.93,-4.92,-4.62,-4.35,-2.58,-2.56,-2.57
209.35,2.31,2.31,4.91,4.91,-4.90,-4.60,-4.38,-2.58,-2.58,-2.59
211.44,2.30,2.27,4.92,4.87,-4.88,-4.57,-4.42,-2.58,-2.61,-2.62
213.56,2.20,2.23,4.82,4.85,-4.87,-4.55,-4.46,-2.66,-2.64,-2.62
215.69,2.18,2.20,4.81,4.83,-4.86,-4.52,-4.49,-2.68,-2.66,-2.62
217.85,2.20,2.19,4.84,4.83,-4.86,-4.49,-4.53,-2.65,-2.67,-2.64
220.03,2.20,2.20,4.85,4.85,-4.85,-4.47,-4.56,-2.65,-2.65,-2.65
222.23,2.20,2.21,4.86,4.86,-4.85,-4.44,-4.60,-2.65,-2.64,-2.66
224.45,2.20,2.22,4.86,4.88,-4.85,-4.41,-4.63,-2.65,-2.63,-2.65
226.70,2.23,2.22,4.89,4.88,-4.85,-4.38,-4.66,-2.62,-2.63,-2.65
228.96,2.23,2.20,4.89,4.85,-4.85,-4.35,-4.68,-2.62,-2.65,-2.65
231.25,2.14,2.17,4.79,4.82,-4.83,-4.32,-4.71,-2.69,-2.66,-2.64
233.57,2.12,2.15,4.77,4.80,-4.80,-4.29,-4.73,-2.68,-2.65,-2.64
235.90,2.15,2.14,4.80,4.78,-4.76,-4.26,-4.74,-2.61,-2.62,-2.64
238.26,2.15,2.12,4.80,4.76,-4.72,-4.23,-4.76,-2.57,-2.60,-2.64
240.64,2.05,2.06,4.69,4.69,-4.68,-4.20,-4.77,-2.63,-2.62,-2.63
243.05,1.97,1.99,4.59,4.61,-4.64,-4.17,-4.77,-2.66,-2.65,-2.62
245.48,1.92,1.94,4.53,4.55,-4.60,-4.14,-4.77,-2.67,-2.65,-2.61
247.93,1.93,1.93,4.53,4.53,-4.55,-4.11,-4.76,-2.62,-2.62,-2.60
250.41,1.94,1.92,4.54,4.51,-4.51,-4.08,-4.75,-2.57,-2.59,-2.59
252.92,1.90,1.92,4.48,4.49,-4.47,-4.05,-4.74,-2.57,-2.55,-2.57
255.45,1.88,1.88,4.43,4.44,-4.43,-4.02,-4.72,-2.55,-2.54,-2.55
258.00,1.86,1.84,4.40,4.38,-4.39,-3.99,-4.69,-2.52,-2.54,-2.54
260.58,1.79,1.83,4.32,4.35,-4.34,-3.95,-4.66,-2.54,-2.51,-2.52
263.19,1.78,1.79,4.28,4.30,-4.28,-3.92,-4.62,-2.49,-2.48,-2.50
265.82,1.79,1.74,4.28,4.23,-4.20,-3.89,-4.58,-2.41,-2.46,-2.49
268.48,1.67,1.69,4.14,4.16,-4.13,-3.86,-4.54,-2.45,-2.44,-2.46
271.16,1.59,1.62,4.03,4.06,-4.06,-3.82,-4.49,-2.47,-2.44,-2.44
273.87,1.57,1.55,4.00,3.97,-4.00,-3.79,-4.44,-2.43,-2.46,-2.42
276.61,1.49,1.50,3.89,3.91,-3.95,-3.76,-4.39,-2.46,-2.45,-2.40
279.38,1.46,1.47,3.85,3.86,-3.90,-3.73,-4.33,-2.44,-2.43,-2.38
282.17,1.46,1.47,3.83,3.83,-3.86,-3.69,-4.27,-2.40,-2.40,-2.37
284.99,1.48,1.50,3.83,3.84,-3.82,-3.66,-4.21,-2.34,-2.33,-2.34
287.84,1.51,1.51,3.84,3.83,-3.78,-3.63,-4.15,-2.27,-2.28,-2.33
290.72,1.52,1.49,3.83,3.80,-3.74,-3.59,-4.08,-2.22,-2.25,-2.30
293.63,1.42,1.45,3.71,3.74,-3.70,-3.56,-4.02,-2.28,-2.25,-2.29
296.57,1.38,1.39,3.65,3.65,-3.66,-3.53,-3.95,-2.27,-2.27,-2.26
299.53,1.34,1.33,3.59,3.57,-3.61,-3.50,-3.89,-2.26,-2.28,-2.25
302.53,1.27,1.29,3.51,3.52,-3.56,-3.46,-3.82,-2.28,-2.27,-2.23
305.55,1.26,1.27,3.46,3.47,-3.50,-3.43,-3.76,-2.24,-2.24,-2.19
308.61,1.26,1.27,3.44,3.44,-3.45,-3.40,-3.70,-2.19,-2.18,-2.18
311.69,1.27,1.28,3.43,3.42,-3.40,-3.36,-3.63,-2.13,-2.12,-2.15
314.81,1.28,1.27,3.40,3.39,-3.35,-3.33,-3.57,-2.07,-2.08,-2.12
317.96,1.23,1.23,3.33,3.33,-3.30,-3.30,-3.51,-2.06,-2.07,-2.10
321.14,1.17,1.18,3.26,3.26,-3.25,-3.27,-3.45,-2.07,-2.07,-2.08
324.35,1.10,1.12,3.17,3.18,-3.19,-3.23,-3.40,-2.09,-2.07,-2.06
327.59,1.08,1.07,3.12,3.11,-3.14,-3.20,-3.34,-2.05,-2.06,-2.04
330.87,1.03,1.03,3.05,3.05,-3.08,-3.17,-3.29,-2.04,-2.05,-2.02
334.18,0.98,1.00,2.99,3.00,-3.02,-3.14,-3.24,-2.04,-2.02,-2.00
337.52,0.97,0.98,2.96,2.96,-2.97,-3.11,-3.19,-1.99,-1.98,-1.99
340.90,0.97,0.97,2.93,2.93,-2.91,-3.08,-3.14,-1.94,-1.94,-1.96
344.30,0.97,0.96,2.92,2.90,-2.86,-3.04,-3.10,-1.89,-1.91,-1.94
347.75,0.91,0.92,2.84,2.84,-2.82,-3.01,-3.05,-1.90,-1.90,-1.92
351.23,0.86,0.86,2.77,2.77,-2.78,-2.98,-3.02,-1.91,-1.92,-1.91
354.74,0.80,0.81,2.69,2.70,-2.73,-2.95,-2.98,-1.93,-1.92,-1.89
358.28,0.77,0.79,2.64,2.66,-2.69,-2.92,-2.94,-1.91,-1.90,-1.87
361.87,0.78,0.78,2.64,2.64,-2.64,-2.89,-2.91,-1.86,-1.86,-1.85
365.49,0.79,0.78,2.64,2.62,-2.60,-2.86,-2.88,-1.80,-1.81,-1.84
369.14,0.76,0.76,2.60,2.59,-2.56,-2.83,-2.85,-1.79,-1.80,-1.84
372.83,0.71,0.71,2.53,2.53,-2.52,-2.80,-2.82,-1.80,-1.81,-1.82
376.56,0.64,0.66,2.45,2.46,-2.48,-2.77,-2.80,-1.84,-1.82,-1.81
380.33,0.62,0.63,2.41,2.42,-2.44,-2.75,-2.78,-1.82,-1.81,-1.78
384.13,0.62,0.62,2.40,2.40,-2.40,-2.72,-2.75,-1.78,-1.78,-1.77
387.97,0.63,0.61,2.40,2.37,-2.36,-2.69,-2.74,-1.73,-1.75,-1.76
391.85,0.58,0.59,2.34,2.34,-2.33,-2.66,-2.72,-1.74,-1.74,-1.76
395.77,0.54,0.56,2.28,2.30,-2.30,-2.64,-2.70,-1.75,-1.74,-1.74
399.73,0.53,0.53,2.26,2.26,-2.27,-2.61,-2.69,-1.73,-1.73,-1.73
403.72,0.53,0.53,2.25,2.25,-2.25,-2.58,-2.68,-1.71,-1.72,-1.72
407.76,0.52,0.53,2.24,2.23,-2.23,-2.56,-2.67,-1.70,-1.70,-1.71
411.84,0.52,0.52,2.22,2.22,-2.22,-2.53,-2.66,-1.69,-1.70,-1.69
415.96,0.52,0.52,2.21,2.20,-2.22,-2.51,-2.65,-1.69,-1.70,-1.68
420.12,0.52,0.53,2.20,2.20,-2.22,-2.48,-2.65,-1.70,-1.69,-1.67
424.32,0.54,0.56,2.21,2.23,-2.24,-2.46,-2.64,-1.69,-1.68,-1.67
428.56,0.61,0.60,2.27,2.26,-2.25,-2.43,-2.64,-1.64,-1.65,-1.66
432.85,0.65,0.65,2.30,2.29,-2.28,-2.41,-2.63,-1.63,-1.63,-1.65
437.18,0.68,0.69,2.32,2.32,-2.31,-2.39,-2.63,-1.63,-1.63,-1.64
441.55,0.71,0.72,2.33,2.34,-2.35,-2.37,-2.62,-1.64,-1.63,-1.62
445.96,0.76,0.76,2.38,2.37,-2.39,-2.34,-2.62,-1.62,-1.63,-1.61
450.42,0.81,0.82,2.42,2.41,-2.43,-2.32,-2.61,-1.61,-1.61,-1.60
454.93,0.87,0.88,2.46,2.46,-2.46,-2.30,-2.61,-1.58,-1.58,-1.58
459.48,0.93,0.94,2.51,2.51,-2.49,-2.28,-2.60,-1.55,-1.55,-1.57
464.07,0.99,0.98,2.55,2.54,-2.52,-2.27,-2.60,-1.52,-1.53,-1.55
468.71,1.02,1.01,2.56,2.55,-2.55,-2.25,-2.59,-1.52,-1.53,-1.54
473.40,1.02,1.04,2.55,2.56,-2.57,-2.23,-2.58,-1.55,-1.53,-1.53
478.13,1.06,1.07,2.57,2.58,-2.60,-2.21,-2.57,-1.53,-1.53,-1.51
482.91,1.11,1.11,2.61,2.60,-2.61,-2.20,-2.56,-1.50,-1.51,-1.50
487.74,1.15,1.15,2.63,2.63,-2.63,-2.18,-2.55,-1.48,-1.48,-1.48
492.62,1.18,1.19,2.64,2.65,-2.65,-2.17,-2.54,-1.46,-1.46,-1.46
497.55,1.21,1.22,2.66,2.66,-2.66,-2.15,-2.52,-1.45,-1.44,-1.45
502.52,1.24,1.24,2.67,2.67,-2.67,-2.14,-2.50,-1.43,-1.43,-1.43
507.55,1.26,1.26,2.68,2.68,-2.68,-2.13,-2.49,-1.41,-1.41,-1.42
512.62,1.27,1.28,2.68,2.68,-2.68,-2.12,-2.47,-1.40,-1.40,-1.40
