frequency,raw,error,smoothed,error_smoothed,equalization,parametric_eq,fixed_band_eq,equalized_raw,equalized_smoothed,target
20.00,-6.80,-15.46,-6.81,-15.46,6.00,6.00,2.69,-0.80,-0.81,8.66
20.20,-6.70,-15.34,-6.70,-15.34,6.00,6.00,2.77,-0.70,-0.70,8.64
20.40,-6.60,-15.22,-6.60,-15.21,6.00,6.00,2.85,-0.60,-0.60,8.61
20.61,-6.50,-15.11,-6.50,-15.10,6.00,6.00,2.93,-0.50,-0.50,8.60
20.81,-6.40,-14.98,-6.40,-14.99,6.00,6.00,3.01,-0.40,-0.40,8.58
21.02,-6.30,-14.87,-6.32,-14.89,6.00,6.00,3.10,-0.30,-0.32,8.57
21.23,-6.25,-14.80,-6.25,-14.80,6.00,6.00,3.19,-0.25,-0.25,8.55
21.44,-6.20,-14.74,-6.20,-14.74,6.00,6.00,3.28,-0.20,-0.20,8.54
21.66,-6.14,-14.67,-6.15,-14.67,6.00,6.00,3.37,-0.14,-0.15,8.53
21.87,-6.09,-14.60,-6.09,-14.60,6.00,6.00,3.47,-0.09,-0.09,8.51
22.09,-6.03,-14.53,-6.03,-14.53,6.00,6.00,3.56,-0.03,-0.03,8.50
22.31,-5.97,-14.46,-5.97,-14.46,6.00,5.99,3.67,0.03,0.03,8.49
22.54,-5.91,-14.39,-5.91,-14.39,6.00,5.99,3.77,0.09,0.09,8.48
22.76,-5.85,-14.32,-5.85,-14.31,6.00,5.99,3.88,0.15,0.15,8.46
22.99,-5.78,-14.24,-5.78,-14.24,6.00,5.99,3.98,0.22,0.22,8.45
23.22,-5.71,-14.15,-5.71,-14.16,6.00,5.99,4.10,0.29,0.29,8.44
23.45,-5.64,-14.08,-5.64,-14.08,6.00,5.99,4.21,0.36,0.36,8.44
23.69,-5.57,-14.00,-5.57,-14.00,6.00,5.99,4.33,0.43,0.43,8.43
23.92,-5.49,-13.92,-5.49,-13.92,6.00,5.99,4.44,0.51,0.51,8.43
24.16,-5.41,-13.84,-5.41,-13.83,6.00,5.99,4.57,0.59,0.59,8.43
24.40,-5.31,-13.74,-5.31,-13.74,6.00,5.99,4.69,0.69,0.69,8.42
24.65,-5.22,-13.65,-5.22,-13.64,6.00,5.99,4.81,0.78,0.78,8.42
24.89,-5.13,-13.55,-5.14,-13.56,6.00,5.99,4.94,0.87,0.86,8.42
25.14,-5.06,-13.48,-5.07,-13.49,6.00,5.99,5.07,0.94,0.93,8.42
25.39,-5.01,-13.43,-5.01,-13.43,6.00,5.99,5.20,0.99,0.99,8.42
25.65,-4.96,-13.38,-4.96,-13.38,6.00,5.99,5.33,1.04,1.04,8.42
25.91,-4.91,-13.34,-4.91,-13.33,6.00,5.98,5.46,1.09,1.09,8.42
26.16,-4.86,-13.28,-4.86,-13.28,6.00,5.98,5.59,1.14,1.14,8.42
26.43,-4.80,-13.22,-4.81,-13.23,6.00,5.98,5.72,1.20,1.19,8.42
26.69,-4.75,-13.17,-4.75,-13.17,6.00,5.98,5.85,1.25,1.25,8.42
26.96,-4.70,-13.12,-4.70,-13.12,6.00,5.98,5.98,1.30,1.30,8.42
27.23,-4.64,-13.06,-4.65,-13.06,6.00,5.98,6.11,1.36,1.35,8.41
27.50,-4.59,-13.00,-4.59,-13.00,6.00,5.98,6.23,1.41,1.41,8.41
27.77,-4.53,-12.94,-4.54,-12.94,6.00,5.98,6.35,1.47,1.46,8.41
28.05,-4.48,-12.89,-4.48,-12.88,6.00,5.98,6.47,1.52,1.52,8.41
28.33,-4.41,-12.81,-4.41,-12.81,6.00,5.98,6.58,1.59,1.59,8.39
28.62,-4.34,-12.73,-4.35,-12.74,6.00,5.98,6.69,1.66,1.65,8.39
28.90,-4.27,-12.66,-4.27,-12.66,6.00,5.98,6.79,1.73,1.73,8.39
29.19,-4.20,-12.59,-4.20,-12.58,6.00,5.98,6.88,1.80,1.80,8.39
29.48,-4.12,-12.50,-4.12,-12.50,6.00,5.98,6.97,1.88,1.88,8.38
29.78,-4.04,-12.42,-4.04,-12.42,6.00,5.97,7.05,1.96,1.96,8.38
30.08,-3.96,-12.34,-3.97,-12.34,6.00,5.97,7.11,2.04,2.03,8.38
30.38,-3.90,-12.28,-3.90,-12.27,6.00,5.97,7.18,2.10,2.10,8.37
30.68,-3.83,-12.19,-3.83,-12.19,6.00,5.97,7.22,2.17,2.17,8.36
30.99,-3.76,-12.12,-3.77,-12.12,6.00,5.97,7.27,2.24,2.23,8.36
31.30,-3.70,-12.04,-3.70,-12.05,6.00,5.97,7.30,2.30,2.30,8.34
31.61,-3.64,-11.98,-3.64,-11.98,6.00,5.97,7.32,2.36,2.36,8.34
31.93,-3.57,-11.91,-3.58,-11.91,6.00,5.97,7.33,2.43,2.42,8.33
32.24,-3.51,-11.83,-3.51,-11.84,6.00,5.97,7.34,2.49,2.49,8.32
32.57,-3.45,-11.77,-3.45,-11.77,6.00,5.97,7.33,2.55,2.55,8.32
32.89,-3.38,-11.69,-3.38,-11.69,6.00,5.97,7.31,2.62,2.62,8.31
33.22,-3.30,-11.61,-3.29,-11.60,6.00,5.97,7.29,2.70,2.71,8.31
33.55,-3.20,-11.50,-3.20,-11.51,6.00,5.96,7.26,2.80,2.80,8.30
33.89,-3.11,-11.42,-3.12,-11.43,6.00,5.96,7.22,2.89,2.88,8.31
34.23,-3.06,-11.36,-3.06,-11.37,6.00,5.96,7.18,2.94,2.94,8.30
34.57,-3.02,-11.32,-3.02,-11.32,6.00,5.96,7.13,2.98,2.98,8.30
34.92,-2.99,-11.29,-2.98,-11.28,6.00,5.96,7.07,3.01,3.02,8.30
35.27,-2.93,-11.23,-2.93,-11.22,6.00,5.96,7.01,3.07,3.07,8.29
35.62,-2.86,-11.16,-2.86,-11.16,6.00,5.96,6.95,3.14,3.14,8.30
35.97,-2.79,-11.08,-2.80,-11.09,6.00,5.96,6.89,3.21,3.20,8.29
36.33,-2.75,-11.04,-2.75,-11.04,6.00,5.96,6.83,3.25,3.25,8.28
36.70,-2.71,-10.99,-2.71,-10.99,6.00,5.96,6.76,3.29,3.29,8.28
37.06,-2.67,-10.94,-2.66,-10.93,6.00,5.96,6.70,3.33,3.34,8.27
37.43,-2.61,-10.87,-2.61,-10.87,6.00,5.96,6.63,3.39,3.39,8.25
37.81,-2.54,-10.79,-2.55,-10.79,6.00,5.96,6.57,3.46,3.45,8.25
38.19,-2.49,-10.72,-2.49,-10.72,6.00,5.96,6.50,3.51,3.51,8.23
38.57,-2.44,-10.65,-2.44,-10.65,6.00,5.96,6.44,3.56,3.56,8.21
38.95,-2.39,-10.58,-2.39,-10.58,6.00,5.96,6.38,3.61,3.61,8.19
39.34,-2.32,-10.49,-2.32,-10.50,6.00,5.96,6.33,3.68,3.68,8.17
39.74,-2.25,-10.42,-2.26,-10.42,6.00,5.96,6.27,3.75,3.74,8.16
40.14,-2.18,-10.33,-2.17,-10.31,6.00,5.96,6.22,3.82,3.83,8.14
40.54,-2.09,-10.22,-2.09,-10.22,6.00,5.96,6.18,3.91,3.91,8.12
40.94,-1.99,-10.11,-2.02,-10.14,6.00,5.96,6.13,4.01,3.98,8.11
41.35,-1.98,-10.09,-1.99,-10.09,6.00,5.96,6.09,4.02,4.01,8.10
41.76,-1.98,-10.07,-1.96,-10.05,6.00,5.96,6.06,4.02,4.04,8.08
42.18,-1.94,-10.01,-1.93,-10.00,6.00,5.96,6.03,4.06,4.07,8.07
42.60,-1.86,-9.93,-1.86,-9.93,6.00,5.96,6.00,4.14,4.14,8.07
43.03,-1.78,-9.84,-1.80,-9.86,6.00,5.96,5.98,4.22,4.20,8.06
43.46,-1.74,-9.79,-1.75,-9.80,6.00,5.96,5.96,4.26,4.25,8.05
43.90,-1.71,-9.76,-1.70,-9.74,6.00,5.96,5.95,4.29,4.30,8.04
44.33,-1.66,-9.69,-1.66,-9.69,6.00,5.96,5.94,4.34,4.34,8.03
44.78,-1.60,-9.62,-1.61,-9.63,6.00,5.97,5.94,4.40,4.39,8.02
45.23,-1.55,-9.56,-1.55,-9.56,6.00,5.97,5.94,4.45,4.45,8.01
45.68,-1.50,-9.50,-1.51,-9.50,6.00,5.97,5.94,4.50,4.49,8.00
46.13,-1.46,-9.44,-1.46,-9.44,6.00,5.97,5.95,4.54,4.54,7.98
46.60,-1.41,-9.38,-1.41,-9.38,6.00,5.97,5.97,4.59,4.59,7.97
47.06,-1.36,-9.31,-1.37,-9.32,6.00,5.98,5.99,4.64,4.63,7.95
47.53,-1.32,-9.25,-1.32,-9.25,6.00,5.98,6.01,4.68,4.68,7.93
48.01,-1.27,-9.19,-1.27,-9.18,6.00,5.98,6.03,4.73,4.73,7.91
48.49,-1.22,-9.11,-1.22,-9.11,6.00,5.99,6.06,4.78,4.78,7.89
48.97,-1.17,-9.04,-1.17,-9.04,6.00,5.99,6.10,4.83,4.83,7.87
49.46,-1.12,-8.97,-1.12,-8.97,6.00,5.99,6.14,4.88,4.88,7.85
49.96,-1.07,-8.89,-1.07,-8.89,6.00,6.00,6.17,4.93,4.93,7.82
50.46,-1.02,-8.82,-1.02,-8.82,6.00,6.00,6.22,4.98,4.98,7.80
50.96,-0.97,-8.75,-0.97,-8.75,6.00,6.01,6.26,5.03,5.03,7.78
51.47,-0.92,-8.68,-0.92,-8.67,6.00,6.01,6.31,5.08,5.08,7.75
51.99,-0.87,-8.60,-0.88,-8.61,6.00,6.02,6.36,5.13,5.12,7.73
52.51,-0.83,-8.54,-0.84,-8.54,6.00,6.02,6.41,5.17,5.16,7.71
53.03,-0.80,-8.48,-0.78,-8.47,6.00,6.03,6.46,5.20,5.22,7.68
53.56,-0.73,-8.39,-0.74,-8.39,6.00,6.04,6.51,5.27,5.26,7.66
54.10,-0.67,-8.30,-0.70,-8.33,6.00,6.04,6.56,5.33,5.30,7.63
54.64,-0.67,-8.28,-0.65,-8.26,6.00,6.05,6.61,5.33,5.35,7.60
55.18,-0.63,-8.21,-0.60,-8.18,6.00,6.06,6.65,5.37,5.40,7.58
55.74,-0.52,-8.07,-0.55,-8.10,6.00,6.06,6.70,5.48,5.45,7.55
56.29,-0.47,-7.99,-0.49,-8.01,6.00,6.07,6.74,5.53,5.51,7.52
56.86,-0.47,-7.96,-0.45,-7.94,6.00,6.08,6.78,5.53,5.55,7.49
57.42,-0.43,-7.89,-0.42,-7.88,6.00,6.08,6.81,5.57,5.58,7.46
58.00,-0.37,-7.81,-0.37,-7.80,6.00,6.09,6.84,5.63,5.63,7.43
58.58,-0.31,-7.71,-0.32,-7.73,6.00,6.09,6.86,5.69,5.68,7.40
59.16,-0.27,-7.64,-0.29,-7.66,6.00,6.10,6.87,5.73,5.71,7.37
59.76,-0.27,-7.61,-0.24,-7.57,6.00,6.10,6.88,5.73,5.76,7.33
60.35,-0.20,-7.50,-0.18,-7.48,6.00,6.11,6.88,5.80,5.82,7.30
60.96,-0.08,-7.34,-0.12,-7.38,6.00,6.11,6.87,5.92,5.88,7.26
61.57,-0.07,-7.29,-0.08,-7.30,6.00,6.11,6.86,5.93,5.92,7.22
62.18,-0.07,-7.25,-0.07,-7.25,6.00,6.11,6.83,5.93,5.93,7.18
62.80,-0.07,-7.20,-0.06,-7.20,6.00,6.10,6.79,5.93,5.94,7.13
63.43,-0.03,-7.12,-0.02,-7.11,6.00,6.10,6.75,5.97,5.98,7.09
64.07,0.04,-7.01,0.04,-7.01,6.00,6.09,6.70,6.04,6.04,7.05
64.71,0.11,-6.89,0.09,-6.91,6.00,6.08,6.64,6.11,6.09,7.00
65.35,0.14,-6.81,0.13,-6.82,6.00,6.07,6.57,6.14,6.13,6.95
66.01,0.14,-6.76,0.16,-6.73,6.00,6.06,6.49,6.14,6.16,6.89
66.67,0.20,-6.65,0.19,-6.65,6.00,6.04,6.40,6.20,6.20,6.85
67.33,0.25,-6.54,0.23,-6.56,6.01,6.02,6.31,6.26,6.24,6.79
68.01,0.28,-6.46,0.28,-6.46,6.01,5.99,6.21,6.29,6.30,6.74
68.69,0.32,-6.36,0.33,-6.35,6.02,5.96,6.10,6.33,6.35,6.68
69.37,0.38,-6.25,0.37,-6.25,6.01,5.92,5.99,6.39,6.39,6.63
70.07,0.44,-6.13,0.42,-6.15,5.99,5.89,5.88,6.43,6.41,6.57
70.77,0.44,-6.08,0.45,-6.06,5.97,5.84,5.76,6.40,6.42,6.51
71.48,0.48,-5.98,0.48,-5.97,5.93,5.79,5.63,6.40,6.41,6.46
72.19,0.52,-5.87,0.51,-5.89,5.87,5.74,5.51,6.39,6.38,6.39
72.91,0.54,-5.80,0.53,-5.81,5.81,5.68,5.38,6.35,6.34,6.33
73.64,0.54,-5.74,0.56,-5.72,5.73,5.62,5.25,6.27,6.29,6.28
74.38,0.58,-5.64,0.59,-5.63,5.65,5.56,5.12,6.23,6.23,6.22
75.12,0.64,-5.51,0.61,-5.54,5.55,5.49,4.99,6.19,6.16,6.15
75.87,0.64,-5.45,0.63,-5.45,5.45,5.41,4.86,6.09,6.08,6.08
76.63,0.64,-5.38,0.66,-5.36,5.35,5.33,4.73,5.99,6.00,6.02
77.40,0.68,-5.28,0.69,-5.27,5.25,5.25,4.60,5.93,5.94,5.96
78.17,0.75,-5.14,0.74,-5.15,5.15,5.17,4.47,5.90,5.89,5.89
78.95,0.79,-5.04,0.79,-5.04,5.06,5.08,4.34,5.85,5.85,5.82
79.74,0.83,-4.93,0.82,-4.94,4.96,4.98,4.21,5.79,5.79,5.76
80.54,0.84,-4.85,0.83,-4.86,4.87,4.89,4.08,5.71,5.70,5.69
81.35,0.84,-4.78,0.84,-4.78,4.77,4.79,3.96,5.61,5.61,5.62
82.16,0.85,-4.70,0.86,-4.69,4.67,4.69,3.84,5.52,5.53,5.55
82.98,0.89,-4.59,0.89,-4.59,4.57,4.59,3.72,5.46,5.46,5.48
83.81,0.93,-4.48,0.93,-4.48,4.47,4.49,3.60,5.40,5.39,5.40
84.65,0.97,-4.36,0.97,-4.36,4.36,4.38,3.48,5.33,5.33,5.33
85.50,1.01,-4.24,1.00,-4.25,4.25,4.28,3.37,5.26,5.25,5.25
86.35,1.04,-4.13,1.04,-4.13,4.14,4.17,3.25,5.18,5.18,5.17
87.22,1.06,-4.04,1.08,-4.02,4.03,4.06,3.15,5.09,5.11,5.10
88.09,1.14,-3.88,1.11,-3.90,3.92,3.95,3.04,5.06,5.03,5.02
88.97,1.14,-3.80,1.13,-3.80,3.81,3.84,2.93,4.95,4.95,4.94
89.86,1.15,-3.70,1.15,-3.70,3.70,3.73,2.83,4.85,4.85,4.85
90.76,1.15,-3.63,1.16,-3.61,3.59,3.62,2.73,4.74,4.75,4.77
91.66,1.20,-3.49,1.19,-3.49,3.48,3.51,2.63,4.67,4.67,4.68
92.58,1.24,-3.37,1.22,-3.38,3.36,3.40,2.53,4.60,4.58,4.60
93.51,1.25,-3.26,1.26,-3.25,3.25,3.29,2.44,4.50,4.51,4.51
94.44,1.29,-3.13,1.30,-3.12,3.14,3.18,2.35,4.42,4.44,4.42
95.39,1.35,-2.98,1.33,-3.00,3.03,3.07,2.26,4.37,4.35,4.33
96.34,1.35,-2.89,1.35,-2.89,2.92,2.96,2.17,4.26,4.26,4.24
97.30,1.34,-2.79,1.34,-2.79,2.80,2.85,2.08,4.14,4.15,4.13
98.28,1.33,-2.71,1.32,-2.71,2.69,2.74,2.00,4.02,4.02,4.04
99.26,1.32,-2.62,1.33,-2.61,2.58,2.63,1.92,3.90,3.91,3.94
100.25,1.33,-2.50,1.34,-2.50,2.47,2.53,1.84,3.79,3.80,3.83
101.25,1.38,-2.35,1.36,-2.37,2.35,2.42,1.76,3.73,3.71,3.73
102.27,1.38,-2.25,1.39,-2.23,2.24,2.31,1.68,3.62,3.63,3.62
103.29,1.42,-2.10,1.42,-2.10,2.13,2.20,1.60,3.54,3.54,3.52
104.32,1.44,-1.98,1.42,-1.99,2.02,2.10,1.53,3.45,3.44,3.41
105.37,1.41,-1.90,1.41,-1.89,1.91,1.99,1.46,3.32,3.33,3.31
106.42,1.39,-1.81,1.39,-1.81,1.82,1.88,1.39,3.21,3.21,3.19
107.48,1.36,-1.73,1.36,-1.73,1.74,1.78,1.32,3.09,3.10,3.09
108.56,1.34,-1.66,1.34,-1.65,1.66,1.67,1.25,2.99,2.99,3.00
109.64,1.32,-1.57,1.32,-1.57,1.57,1.57,1.18,2.89,2.89,2.89
110.74,1.30,-1.49,1.29,-1.50,1.48,1.47,1.12,2.78,2.77,2.79
111.85,1.28,-1.42,1.28,-1.42,1.38,1.36,1.05,2.66,2.66,2.69
112.97,1.27,-1.33,1.29,-1.31,1.28,1.26,0.99,2.54,2.56,2.60
114.10,1.33,-1.18,1.32,-1.18,1.16,1.16,0.92,2.49,2.48,2.51
115.24,1.38,-1.04,1.38,-1.04,1.04,1.06,0.86,2.42,2.42,2.41
116.39,1.44,-0.88,1.43,-0.89,0.92,0.96,0.80,2.36,2.36,2.32
117.55,1.47,-0.77,1.46,-0.77,0.81,0.86,0.75,2.28,2.27,2.24
118.73,1.48,-0.67,1.48,-0.67,0.69,0.76,0.69,2.17,2.17,2.15
119.92,1.48,-0.59,1.48,-0.59,0.59,0.66,0.63,2.07,2.07,2.07
121.12,1.49,-0.50,1.49,-0.50,0.49,0.56,0.57,1.98,1.98,1.99
122.33,1.50,-0.41,1.50,-0.41,0.40,0.47,0.52,1.90,1.90,1.91
123.55,1.51,-0.32,1.50,-0.33,0.32,0.37,0.46,1.83,1.82,1.83
124.79,1.51,-0.24,1.51,-0.24,0.24,0.28,0.41,1.75,1.75,1.75
126.03,1.52,-0.16,1.52,-0.16,0.16,0.18,0.36,1.68,1.68,1.68
127.29,1.53,-0.07,1.52,-0.07,0.09,0.09,0.31,1.61,1.61,1.60
128.57,1.53,0.00,1.53,0.01,0.00,-0.00,0.25,1.53,1.53,1.52
129.85,1.54,0.09,1.53,0.09,-0.09,-0.09,0.20,1.45,1.45,1.45
131.15,1.54,0.16,1.53,0.16,-0.18,-0.18,0.15,1.35,1.35,1.37
132.46,1.55,0.25,1.55,0.25,-0.29,-0.27,0.10,1.26,1.27,1.30
133.79,1.57,0.34,1.59,0.36,-0.39,-0.36,0.05,1.18,1.20,1.23
135.12,1.67,0.51,1.65,0.49,-0.50,-0.45,0.00,1.17,1.16,1.16
136.48,1.73,0.64,1.72,0.63,-0.60,-0.53,-0.05,1.13,1.12,1.09
137.84,1.76,0.74,1.76,0.74,-0.70,-0.62,-0.09,1.06,1.06,1.02
139.22,1.77,0.82,1.77,0.82,-0.80,-0.70,-0.14,0.97,0.97,0.94
140.61,1.77,0.89,1.77,0.90,-0.89,-0.78,-0.19,0.88,0.88,0.88
142.02,1.77,0.97,1.77,0.97,-0.98,-0.87,-0.24,0.79,0.79,0.80
143.44,1.77,1.04,1.77,1.04,-1.05,-0.95,-0.29,0.72,0.72,0.73
144.87,1.77,1.11,1.77,1.11,-1.12,-1.03,-0.34,0.65,0.65,0.65
146.32,1.77,1.18,1.77,1.18,-1.18,-1.10,-0.39,0.58,0.58,0.59
147.78,1.77,1.25,1.77,1.25,-1.25,-1.18,-0.44,0.52,0.52,0.52
149.26,1.77,1.32,1.77,1.32,-1.32,-1.26,-0.49,0.45,0.45,0.45
150.75,1.77,1.39,1.77,1.39,-1.38,-1.33,-0.54,0.38,0.38,0.38
152.26,1.77,1.45,1.77,1.45,-1.45,-1.41,-0.59,0.32,0.32,0.31
153.78,1.77,1.51,1.77,1.51,-1.51,-1.48,-0.64,0.25,0.25,0.26
155.32,1.77,1.58,1.77,1.58,-1.58,-1.55,-0.70,0.19,0.19,0.19
156.88,1.77,1.64,1.77,1.64,-1.64,-1.62,-0.75,0.12,0.12,0.13
158.44,1.77,1.70,1.77,1.70,-1.71,-1.69,-0.81,0.06,0.06,0.06
160.03,1.77,1.77,1.77,1.77,-1.77,-1.76,-0.86,-0.00,-0.00,0.00
161.63,1.77,1.84,1.77,1.83,-1.83,-1.82,-0.92,-0.06,-0.06,-0.07
163.24,1.77,1.90,1.77,1.89,-1.89,-1.89,-0.97,-0.12,-0.12,-0.13
164.88,1.76,1.94,1.76,1.95,-1.94,-1.95,-1.03,-0.19,-0.18,-0.19
166.53,1.76,2.00,1.76,2.00,-2.00,-2.01,-1.09,-0.24,-0.24,-0.24
168.19,1.75,2.05,1.75,2.05,-2.05,-2.07,-1.15,-0.30,-0.30,-0.30
169.87,1.75,2.10,1.74,2.10,-2.10,-2.13,-1.21,-0.35,-0.35,-0.35
171.57,1.74,2.15,1.74,2.15,-2.14,-2.19,-1.27,-0.41,-0.41,-0.41
173.29,1.73,2.19,1.73,2.19,-2.19,-2.25,-1.34,-0.46,-0.46,-0.46
175.02,1.73,2.23,1.72,2.23,-2.23,-2.30,-1.40,-0.50,-0.51,-0.50
176.77,1.72,2.27,1.72,2.27,-2.28,-2.35,-1.47,-0.56,-0.56,-0.55
178.54,1.72,2.32,1.72,2.32,-2.32,-2.40,-1.54,-0.60,-0.60,-0.60
180.32,1.73,2.37,1.72,2.36,-2.36,-2.46,-1.61,-0.64,-0.64,-0.64
182.13,1.73,2.41,1.73,2.41,-2.41,-2.50,-1.68,-0.68,-0.68,-0.68
183.95,1.74,2.45,1.74,2.45,-2.46,-2.55,-1.75,-0.72,-0.72,-0.71
185.79,1.75,2.50,1.75,2.50,-2.50,-2.60,-1.82,-0.75,-0.75,-0.75
187.65,1.77,2.55,1.77,2.55,-2.55,-2.64,-1.89,-0.78,-0.78,-0.78
189.52,1.79,2.61,1.78,2.60,-2.60,-2.69,-1.97,-0.81,-0.81,-0.82
191.42,1.80,2.64,1.80,2.64,-2.64,-2.73,-2.04,-0.85,-0.85,-0.84
193.33,1.81,2.68,1.81,2.68,-2.69,-2.77,-2.12,-0.88,-0.88,-0.87
195.27,1.83,2.73,1.82,2.73,-2.73,-2.81,-2.20,-0.91,-0.91,-0.90
197.22,1.84,2.77,1.84,2.77,-2.77,-2.84,-2.27,-0.93,-0.93,-0.93
199.19,1.85,2.81,1.85,2.81,-2.80,-2.88,-2.35,-0.95,-0.95,-0.96
201.18,1.86,2.85,1.86,2.85,-2.82,-2.91,-2.43,-0.97,-0.97,-0.99
203.19,1.86,2.87,1.85,2.87,-2.84,-2.94,-2.51,-0.99,-0.99,-1.02
205.23,1.84,2.88,1.83,2.87,-2.86,-2.97,-2.59,-1.02,-1.03,-1.04
207.28,1.79,2.85,1.80,2.86,-2.88,-3.00,-2.67,-1.09,-1.08,-1.07
209.35,1.76,2.85,1.77,2.86,-2.89,-3.03,-2.75,-1.13,-1.12,-1.09
211.44,1.76,2.88,1.75,2.88,-2.90,-3.06,-2.83,-1.15,-1.15,-1.13
213.56,1.76,2.91,1.75,2.90,-2.91,-3.08,-2.90,-1.16,-1.16,-1.15
215.69,1.75,2.93,1.75,2.93,-2.92,-3.10,-2.98,-1.17,-1.17,-1.18
217.85,1.75,2.95,1.75,2.96,-2.93,-3.12,-3.05,-1.18,-1.18,-1.20
220.03,1.75,2.98,1.73,2.96,-2.94,-3.14,-3.12,-1.19,-1.20,-1.23
222.23,1.71,2.96,1.70,2.95,-2.94,-3.16,-3.19,-1.24,-1.24,-1.25
224.45,1.65,2.92,1.67,2.94,-2.95,-3.18,-3.26,-1.30,-1.29,-1.27
226.70,1.64,2.93,1.64,2.93,-2.96,-3.19,-3.32,-1.32,-1.32,-1.29
228.96,1.65,2.96,1.64,2.95,-2.97,-3.21,-3.38,-1.32,-1.33,-1.31
231.25,1.65,2.97,1.65,2.97,-2.98,-3.22,-3.44,-1.33,-1.33,-1.32
233.57,1.66,2.99,1.66,3.00,-2.99,-3.23,-3.49,-1.34,-1.33,-1.34
235.90,1.68,3.03,1.67,3.02,-3.01,-3.24,-3.53,-1.34,-1.34,-1.35
238.26,1.69,3.05,1.69,3.05,-3.04,-3.24,-3.58,-1.35,-1.35,-1.36
240.64,1.71,3.07,1.70,3.07,-3.07,-3.25,-3.61,-1.37,-1.37,-1.36
243.05,1.72,3.09,1.72,3.09,-3.11,-3.25,-3.64,-1.39,-1.38,-1.37
245.48,1.74,3.11,1.74,3.12,-3.13,-3.26,-3.67,-1.39,-1.39,-1.37
247.93,1.77,3.15,1.77,3.14,-3.15,-3.26,-3.69,-1.38,-1.38,-1.38
250.41,1.79,3.17,1.79,3.17,-3.15,-3.26,-3.70,-1.36,-1.36,-1.38
252.92,1.81,3.19,1.80,3.19,-3.15,-3.26,-3.71,-1.34,-1.35,-1.38
255.45,1.80,3.19,1.79,3.18,-3.14,-3.25,-3.71,-1.35,-1.36,-1.40
258.00,1.75,3.15,1.74,3.14,-3.13,-3.25,-3.70,-1.39,-1.39,-1.40
260.58,1.68,3.09,1.69,3.10,-3.12,-3.25,-3.69,-1.44,-1.43,-1.41
263.19,1.64,3.06,1.65,3.07,-3.11,-3.24,-3.68,-1.47,-1.46,-1.42
265.82,1.63,3.07,1.63,3.07,-3.10,-3.23,-3.65,-1.47,-1.47,-1.44
268.48,1.63,3.08,1.62,3.08,-3.10,-3.22,-3.63,-1.47,-1.48,-1.45
271.16,1.62,3.09,1.62,3.09,-3.10,-3.21,-3.60,-1.48,-1.48,-1.47
273.87,1.62,3.10,1.62,3.11,-3.11,-3.20,-3.56,-1.49,-1.49,-1.48
276.61,1.62,3.12,1.62,3.12,-3.11,-3.19,-3.53,-1.49,-1.49,-1.50
279.38,1.62,3.14,1.63,3.15,-3.10,-3.18,-3.49,-1.49,-1.48,-1.52
282.17,1.62,3.15,1.61,3.14,-3.10,-3.17,-3.44,-1.48,-1.49,-1.53
284.99,1.60,3.14,1.57,3.11,-3.08,-3.15,-3.39,-1.49,-1.52,-1.54
287.84,1.50,3.04,1.51,3.06,-3.07,-3.14,-3.34,-1.57,-1.56,-1.54
290.72,1.45,2.99,1.47,3.02,-3.06,-3.12,-3.29,-1.61,-1.59,-1.55
293.63,1.46,3.01,1.45,3.00,-3.05,-3.10,-3.24,-1.59,-1.60,-1.55
296.57,1.47,3.02,1.46,3.01,-3.04,-3.08,-3.19,-1.57,-1.57,-1.55
299.53,1.48,3.03,1.48,3.03,-3.03,-3.07,-3.14,-1.55,-1.55,-1.55
302.53,1.50,3.05,1.50,3.05,-3.03,-3.05,-3.08,-1.53,-1.53,-1.56
305.55,1.51,3.06,1.50,3.06,-3.03,-3.03,-3.03,-1.53,-1.53,-1.55
308.61,1.51,3.07,1.49,3.05,-3.04,-3.01,-2.98,-1.53,-1.55,-1.56
311.69,1.46,3.02,1.47,3.03,-3.04,-2.99,-2.92,-1.58,-1.57,-1.56
314.81,1.43,3.00,1.44,3.01,-3.03,-2.96,-2.87,-1.60,-1.59,-1.57
317.96,1.43,3.00,1.43,3.01,-3.00,-2.94,-2.82,-1.58,-1.57,-1.58
321.14,1.43,3.01,1.42,3.00,-2.98,-2.92,-2.77,-1.55,-1.55,-1.58
324.35,1.42,2.99,1.40,2.98,-2.95,-2.90,-2.72,-1.53,-1.55,-1.58
327.59,1.34,2.92,1.34,2.93,-2.92,-2.87,-2.67,-1.58,-1.58,-1.58
330.87,1.28,2.86,1.28,2.87,-2.89,-2.85,-2.63,-1.61,-1.61,-1.59
334.18,1.23,2.82,1.24,2.83,-2.87,-2.82,-2.58,-1.64,-1.63,-1.59
337.52,1.22,2.81,1.22,2.81,-2.84,-2.80,-2.54,-1.62,-1.62,-1.60
340.90,1.22,2.82,1.22,2.81,-2.82,-2.78,-2.50,-1.60,-1.60,-1.60
344.30,1.22,2.81,1.22,2.82,-2.80,-2.75,-2.46,-1.58,-1.58,-1.59
347.75,1.22,2.81,1.20,2.80,-2.78,-2.73,-2.42,-1.56,-1.58,-1.59
351.23,1.17,2.77,1.17,2.76,-2.75,-2.70,-2.39,-1.59,-1.58,-1.60
354.74,1.13,2.71,1.15,2.74,-2.73,-2.67,-2.35,-1.60,-1.58,-1.59
358.28,1.12,2.71,1.12,2.70,-2.70,-2.65,-2.32,-1.58,-1.58,-1.59
361.87,1.11,2.69,1.09,2.67,-2.67,-2.62,-2.29,-1.56,-1.58,-1.58
365.49,1.05,2.63,1.05,2.63,-2.64,-2.60,-2.26,-1.59,-1.58,-1.58
369.14,1.01,2.59,1.01,2.58,-2.60,-2.57,-2.24,-1.60,-1.60,-1.58
372.83,0.96,2.52,0.97,2.54,-2.57,-2.55,-2.21,-1.61,-1.60,-1.56
376.56,0.96,2.52,0.96,2.53,-2.54,-2.52,-2.19,-1.58,-1.57,-1.57
380.33,0.97,2.54,0.96,2.53,-2.50,-2.49,-2.17,-1.54,-1.55,-1.57
384.13,0.95,2.52,0.94,2.51,-2.48,-2.47,-2.15,-1.53,-1.54,-1.57
387.97,0.90,2.47,0.89,2.46,-2.45,-2.44,-2.13,-1.55,-1.56,-1.58
391.85,0.82,2.39,0.83,2.41,-2.42,-2.41,-2.12,-1.61,-1.59,-1.57
395.77,0.79,2.37,0.79,2.37,-2.40,-2.39,-2.10,-1.62,-1.61,-1.58
399.73,0.78,2.36,0.78,2.36,-2.38,-2.36,-2.09,-1.60,-1.60,-1.58
403.72,0.78,2.36,0.77,2.36,-2.36,-2.33,-2.08,-1.58,-1.59,-1.59
407.76,0.77,2.38,0.75,2.35,-2.34,-2.30,-2.07,-1.57,-1.59,-1.61
411.84,0.70,2.31,0.71,2.32,-2.32,-2.28,-2.06,-1.62,-1.61,-1.61
415.96,0.67,2.28,0.69,2.31,-2.29,-2.25,-2.05,-1.62,-1.60,-1.61
420.12,0.67,2.29,0.67,2.29,-2.27,-2.22,-2.04,-1.60,-1.60,-1.62
424.32,0.68,2.29,0.64,2.26,-2.24,-2.19,-2.04,-1.56,-1.60,-1.62
428.56,0.60,2.21,0.60,2.21,-2.21,-2.16,-2.03,-1.61,-1.61,-1.61
432.85,0.53,2.12,0.55,2.15,-2.18,-2.13,-2.02,-1.65,-1.62,-1.59
437.18,0.53,2.11,0.53,2.11,-2.15,-2.10,-2.02,-1.62,-1.61,-1.58
441.55,0.56,2.10,0.56,2.10,-2.12,-2.07,-2.01,-1.56,-1.56,-1.54
445.96,0.61,2.11,0.59,2.10,-2.09,-2.04,-2.00,-1.48,-1.50,-1.50
450.42,0.63,2.08,0.62,2.08,-2.06,-2.01,-1.99,-1.43,-1.44,-1.46
454.93,0.62,2.03,0.64,2.05,-2.03,-1.98,-1.99,-1.41,-1.38,-1.41
459.48,0.68,2.03,0.66,2.01,-2.00,-1.94,-1.98,-1.32,-1.34,-1.35
464.07,0.67,1.97,0.66,1.96,-1.97,-1.91,-1.97,-1.30,-1.30,-1.30
468.71,0.67,1.92,0.67,1.92,-1.93,-1.87,-1.96,-1.26,-1.26,-1.25
473.40,0.66,1.85,0.68,1.87,-1.89,-1.84,-1.95,-1.23,-1.21,-1.19
478.13,0.70,1.83,0.70,1.84,-1.85,-1.80,-1.93,-1.15,-1.15,-1.13
482.91,0.75,1.83,0.72,1.80,-1.80,-1.77,-1.92,-1.05,-1.09,-1.09
487.74,0.71,1.75,0.73,1.78,-1.75,-1.73,-1.90,-1.05,-1.02,-1.05
492.62,0.73,1.74,0.73,1.74,-1.71,-1.69,-1.88,-0.98,-0.98,-1.01
497.55,0.73,1.70,0.71,1.68,-1.68,-1.66,-1.87,-0.95,-0.96,-0.97
