frequency,raw,smoothed,error,error_smoothed,equalization,parametric_eq,fixed_band_eq,equalized_raw,equalized_smoothed,target
20.00,8.21,8.21,2.35,2.34,-2.34,-1.42,-1.03,5.87,5.87,5.87
20.20,8.22,8.22,2.33,2.33,-2.33,-1.42,-1.06,5.89,5.90,5.90
20.40,8.24,8.24,2.32,2.31,-2.31,-1.42,-1.10,5.93,5.93,5.93
20.61,8.25,8.25,2.31,2.30,-2.30,-1.42,-1.13,5.95,5.95,5.94
20.81,8.26,8.26,2.29,2.29,-2.29,-1.42,-1.16,5.97,5.97,5.97
21.02,8.27,8.27,2.27,2.27,-2.28,-1.41,-1.20,5.99,5.99,6.00
21.23,8.28,8.28,2.27,2.27,-2.27,-1.41,-1.23,6.01,6.01,6.01
21.44,8.29,8.29,2.27,2.27,-2.27,-1.41,-1.27,6.02,6.02,6.02
21.66,8.30,8.30,2.27,2.27,-2.27,-1.41,-1.31,6.03,6.03,6.03
21.87,8.31,8.31,2.28,2.28,-2.27,-1.41,-1.35,6.04,6.04,6.03
22.09,8.32,8.32,2.28,2.28,-2.28,-1.41,-1.39,6.04,6.04,6.04
22.31,8.33,8.33,2.29,2.29,-2.29,-1.41,-1.43,6.04,6.04,6.04
22.54,8.33,8.33,2.29,2.29,-2.29,-1.41,-1.47,6.04,6.04,6.04
22.76,8.33,8.34,2.29,2.30,-2.30,-1.41,-1.52,6.03,6.03,6.04
22.99,8.34,8.34,2.31,2.31,-2.30,-1.41,-1.56,6.04,6.03,6.03
23.22,8.34,8.34,2.31,2.31,-2.31,-1.41,-1.61,6.03,6.03,6.03
23.45,8.34,8.34,2.31,2.32,-2.31,-1.41,-1.66,6.03,6.03,6.03
23.69,8.34,8.34,2.32,2.31,-2.31,-1.41,-1.70,6.03,6.03,6.03
23.92,8.33,8.33,2.31,2.30,-2.31,-1.40,-1.75,6.02,6.02,6.03
24.16,8.33,8.33,2.30,2.30,-2.31,-1.40,-1.80,6.02,6.02,6.03
24.40,8.33,8.33,2.30,2.30,-2.31,-1.40,-1.85,6.03,6.02,6.03
24.65,8.33,8.33,2.31,2.30,-2.30,-1.40,-1.90,6.03,6.03,6.02
24.89,8.32,8.32,2.30,2.30,-2.30,-1.40,-1.95,6.02,6.03,6.02
25.14,8.32,8.32,2.30,2.30,-2.30,-1.40,-2.01,6.03,6.02,6.02
25.39,8.31,8.31,2.29,2.29,-2.29,-1.40,-2.06,6.02,6.02,6.02
25.65,8.30,8.30,2.28,2.29,-2.29,-1.40,-2.11,6.01,6.01,6.02
25.91,8.29,8.29,2.28,2.28,-2.28,-1.40,-2.16,6.01,6.01,6.01
26.16,8.28,8.28,2.27,2.27,-2.27,-1.39,-2.21,6.01,6.01,6.01
26.43,8.27,8.27,2.27,2.27,-2.26,-1.39,-2.26,6.01,6.01,6.01
26.69,8.26,8.26,2.26,2.26,-2.25,-1.39,-2.31,6.01,6.01,6.00
26.96,8.25,8.25,2.25,2.25,-2.25,-1.39,-2.36,6.01,6.00,6.00
27.23,8.23,8.23,2.23,2.23,-2.24,-1.39,-2.41,6.00,6.00,6.00
27.50,8.22,8.22,2.22,2.22,-2.22,-1.39,-2.45,6.00,5.99,6.00
27.77,8.20,8.20,2.21,2.21,-2.21,-1.39,-2.50,5.99,5.99,5.99
28.05,8.19,8.19,2.20,2.20,-2.20,-1.39,-2.54,5.99,5.99,5.99
28.33,8.17,8.17,2.20,2.19,-2.19,-1.38,-2.58,5.98,5.98,5.98
28.62,8.15,8.15,2.18,2.18,-2.18,-1.38,-2.61,5.97,5.97,5.97
28.90,8.14,8.14,2.17,2.17,-2.17,-1.38,-2.65,5.97,5.97,5.97
29.19,8.12,8.12,2.16,2.16,-2.16,-1.38,-2.68,5.96,5.97,5.96
29.48,8.11,8.11,2.14,2.15,-2.15,-1.38,-2.70,5.96,5.96,5.97
29.78,8.10,8.10,2.14,2.14,-2.14,-1.38,-2.72,5.96,5.96,5.96
30.08,8.08,8.08,2.13,2.13,-2.13,-1.37,-2.74,5.95,5.95,5.96
30.38,8.07,8.07,2.13,2.12,-2.12,-1.37,-2.76,5.95,5.95,5.94
30.68,8.05,8.05,2.11,2.11,-2.11,-1.37,-2.76,5.94,5.94,5.94
30.99,8.04,8.04,2.11,2.11,-2.11,-1.37,-2.77,5.94,5.93,5.93
31.30,8.02,8.02,2.09,2.09,-2.10,-1.37,-2.77,5.92,5.93,5.93
31.61,8.01,8.01,2.09,2.09,-2.09,-1.36,-2.77,5.92,5.92,5.93
31.93,7.99,7.99,2.08,2.08,-2.08,-1.36,-2.76,5.91,5.91,5.91
32.24,7.98,7.98,2.08,2.07,-2.07,-1.36,-2.74,5.91,5.91,5.90
32.57,7.96,7.96,2.06,2.06,-2.06,-1.36,-2.73,5.90,5.90,5.90
32.89,7.94,7.95,2.05,2.05,-2.05,-1.35,-2.71,5.89,5.89,5.90
33.22,7.93,7.93,2.05,2.04,-2.04,-1.35,-2.68,5.89,5.88,5.88
33.55,7.91,7.91,2.03,2.03,-2.04,-1.35,-2.65,5.87,5.87,5.88
33.89,7.89,7.90,2.02,2.03,-2.03,-1.35,-2.62,5.86,5.87,5.87
34.23,7.88,7.88,2.02,2.02,-2.02,-1.34,-2.58,5.86,5.86,5.86
34.57,7.86,7.86,2.01,2.01,-2.01,-1.34,-2.54,5.85,5.85,5.85
34.92,7.84,7.84,2.00,2.00,-2.00,-1.34,-2.50,5.84,5.84,5.84
35.27,7.82,7.82,1.99,1.99,-1.99,-1.33,-2.45,5.83,5.83,5.83
35.62,7.80,7.80,1.98,1.98,-1.98,-1.33,-2.41,5.82,5.82,5.82
35.97,7.77,7.77,1.96,1.96,-1.96,-1.33,-2.36,5.81,5.81,5.81
36.33,7.75,7.75,1.95,1.95,-1.95,-1.32,-2.31,5.80,5.80,5.80
36.70,7.72,7.72,1.93,1.93,-1.93,-1.32,-2.25,5.79,5.79,5.79
37.06,7.69,7.69,1.92,1.92,-1.92,-1.32,-2.20,5.77,5.78,5.78
37.43,7.67,7.67,1.90,1.90,-1.90,-1.31,-2.15,5.77,5.77,5.77
37.81,7.64,7.64,1.88,1.88,-1.88,-1.31,-2.09,5.76,5.76,5.76
38.19,7.61,7.61,1.87,1.87,-1.87,-1.30,-2.04,5.75,5.75,5.74
38.57,7.58,7.58,1.84,1.85,-1.85,-1.30,-1.98,5.73,5.73,5.74
38.95,7.55,7.55,1.83,1.83,-1.83,-1.30,-1.93,5.72,5.72,5.72
39.34,7.52,7.52,1.81,1.81,-1.81,-1.29,-1.87,5.71,5.71,5.71
39.74,7.49,7.49,1.80,1.80,-1.80,-1.29,-1.82,5.70,5.70,5.69
40.14,7.46,7.46,1.77,1.78,-1.77,-1.28,-1.77,5.69,5.69,5.69
40.54,7.43,7.43,1.76,1.76,-1.75,-1.28,-1.71,5.68,5.68,5.67
40.94,7.39,7.39,1.73,1.73,-1.73,-1.27,-1.66,5.66,5.67,5.67
41.35,7.36,7.36,1.71,1.71,-1.70,-1.27,-1.61,5.66,5.66,5.65
41.76,7.32,7.32,1.68,1.68,-1.68,-1.26,-1.56,5.64,5.64,5.64
42.18,7.28,7.28,1.64,1.65,-1.65,-1.25,-1.50,5.63,5.63,5.64
42.60,7.24,7.24,1.62,1.62,-1.62,-1.25,-1.46,5.62,5.62,5.62
43.03,7.20,7.20,1.59,1.59,-1.60,-1.24,-1.41,5.60,5.60,5.61
43.46,7.16,7.16,1.57,1.57,-1.57,-1.24,-1.36,5.59,5.59,5.60
43.90,7.12,7.12,1.55,1.55,-1.55,-1.23,-1.31,5.58,5.57,5.57
44.33,7.07,7.07,1.52,1.52,-1.52,-1.22,-1.27,5.55,5.56,5.55
44.78,7.03,7.03,1.50,1.50,-1.49,-1.21,-1.22,5.54,5.53,5.53
45.23,6.98,6.98,1.47,1.47,-1.47,-1.21,-1.18,5.52,5.52,5.51
45.68,6.93,6.94,1.44,1.44,-1.44,-1.20,-1.13,5.49,5.50,5.50
46.13,6.89,6.89,1.41,1.41,-1.41,-1.19,-1.09,5.48,5.48,5.48
46.60,6.84,6.84,1.37,1.38,-1.38,-1.18,-1.05,5.47,5.46,5.47
47.06,6.79,6.79,1.34,1.34,-1.35,-1.17,-1.01,5.45,5.45,5.45
47.53,6.74,6.74,1.31,1.31,-1.32,-1.16,-0.97,5.42,5.42,5.43
48.01,6.69,6.69,1.27,1.28,-1.29,-1.15,-0.93,5.40,5.40,5.42
48.49,6.64,6.64,1.25,1.25,-1.26,-1.14,-0.90,5.38,5.38,5.39
48.97,6.59,6.59,1.23,1.23,-1.23,-1.13,-0.86,5.36,5.36,5.36
49.46,6.53,6.53,1.21,1.21,-1.20,-1.12,-0.83,5.33,5.33,5.32
49.96,6.48,6.48,1.19,1.18,-1.17,-1.11,-0.79,5.31,5.31,5.29
50.46,6.42,6.42,1.14,1.14,-1.14,-1.10,-0.76,5.28,5.28,5.28
50.96,6.36,6.36,1.10,1.11,-1.11,-1.08,-0.73,5.25,5.25,5.26
51.47,6.30,6.31,1.08,1.08,-1.08,-1.07,-0.69,5.23,5.23,5.22
51.99,6.25,6.25,1.05,1.04,-1.04,-1.06,-0.66,5.21,5.21,5.20
52.51,6.19,6.19,1.00,1.00,-1.00,-1.04,-0.63,5.19,5.19,5.19
53.03,6.12,6.13,0.96,0.96,-0.96,-1.03,-0.61,5.16,5.16,5.16
53.56,6.06,6.06,0.92,0.92,-0.93,-1.01,-0.58,5.13,5.13,5.14
54.10,6.00,6.00,0.89,0.89,-0.89,-1.00,-0.55,5.11,5.11,5.11
54.64,5.94,5.94,0.85,0.85,-0.86,-0.98,-0.53,5.08,5.08,5.09
55.18,5.88,5.88,0.82,0.82,-0.82,-0.96,-0.50,5.06,5.06,5.06
55.74,5.82,5.82,0.79,0.79,-0.79,-0.94,-0.48,5.03,5.04,5.03
56.29,5.77,5.77,0.76,0.76,-0.75,-0.92,-0.45,5.02,5.01,5.02
56.86,5.71,5.71,0.72,0.72,-0.72,-0.90,-0.43,4.99,4.99,4.99
57.42,5.65,5.65,0.69,0.69,-0.68,-0.88,-0.41,4.97,4.97,4.96
58.00,5.59,5.59,0.65,0.65,-0.65,-0.86,-0.39,4.94,4.94,4.94
58.58,5.53,5.53,0.61,0.61,-0.61,-0.84,-0.37,4.92,4.92,4.92
59.16,5.47,5.47,0.57,0.57,-0.58,-0.81,-0.35,4.89,4.89,4.90
59.76,5.41,5.41,0.53,0.53,-0.54,-0.79,-0.34,4.87,4.87,4.88
60.35,5.35,5.35,0.50,0.50,-0.51,-0.76,-0.32,4.84,4.84,4.85
60.96,5.29,5.29,0.47,0.47,-0.48,-0.74,-0.31,4.81,4.81,4.82
61.57,5.23,5.23,0.45,0.45,-0.45,-0.71,-0.29,4.79,4.79,4.78
62.18,5.17,5.17,0.42,0.42,-0.42,-0.68,-0.28,4.75,4.75,4.75
62.80,5.11,5.11,0.39,0.39,-0.39,-0.65,-0.27,4.72,4.72,4.72
63.43,5.05,5.05,0.36,0.36,-0.36,-0.61,-0.26,4.69,4.69,4.69
64.07,4.99,4.99,0.33,0.33,-0.33,-0.58,-0.25,4.66,4.66,4.66
64.71,4.93,4.93,0.30,0.30,-0.30,-0.55,-0.24,4.63,4.63,4.63
65.35,4.87,4.87,0.26,0.27,-0.27,-0.51,-0.23,4.60,4.61,4.61
66.01,4.82,4.82,0.24,0.24,-0.24,-0.48,-0.23,4.58,4.58,4.58
66.67,4.76,4.76,0.21,0.21,-0.21,-0.44,-0.22,4.55,4.55,4.55
67.33,4.70,4.70,0.18,0.18,-0.18,-0.40,-0.21,4.52,4.52,4.52
68.01,4.64,4.64,0.15,0.15,-0.15,-0.36,-0.21,4.49,4.49,4.49
68.69,4.59,4.59,0.13,0.13,-0.13,-0.32,-0.21,4.46,4.46,4.46
69.37,4.53,4.53,0.10,0.10,-0.10,-0.28,-0.20,4.43,4.43,4.43
70.07,4.47,4.47,0.08,0.08,-0.08,-0.24,-0.20,4.39,4.40,4.39
70.77,4.42,4.42,0.05,0.05,-0.05,-0.19,-0.20,4.37,4.36,4.37
71.48,4.36,4.36,0.03,0.03,-0.03,-0.15,-0.20,4.33,4.33,4.34
72.19,4.31,4.31,0.01,0.01,-0.01,-0.11,-0.20,4.30,4.30,4.30
72.91,4.25,4.25,-0.01,-0.01,0.01,-0.07,-0.20,4.26,4.27,4.26
73.64,4.20,4.20,-0.03,-0.03,0.03,-0.02,-0.20,4.23,4.23,4.23
74.38,4.14,4.14,-0.06,-0.05,0.05,0.02,-0.20,4.19,4.20,4.20
75.12,4.09,4.09,-0.07,-0.07,0.07,0.05,-0.21,4.16,4.16,4.16
75.87,4.04,4.04,-0.09,-0.09,0.09,0.09,-0.21,4.13,4.13,4.13
76.63,3.99,3.99,-0.11,-0.11,0.11,0.13,-0.21,4.10,4.10,4.10
77.40,3.94,3.94,-0.13,-0.13,0.13,0.16,-0.21,4.07,4.07,4.07
78.17,3.89,3.89,-0.14,-0.15,0.15,0.19,-0.22,4.04,4.04,4.03
78.95,3.84,3.84,-0.17,-0.16,0.16,0.21,-0.22,4.00,4.00,4.01
79.74,3.79,3.79,-0.18,-0.18,0.18,0.24,-0.23,3.97,3.97,3.97
80.54,3.74,3.74,-0.20,-0.20,0.19,0.26,-0.23,3.93,3.94,3.94
81.35,3.70,3.70,-0.20,-0.21,0.21,0.27,-0.24,3.91,3.90,3.90
82.16,3.65,3.65,-0.22,-0.22,0.22,0.28,-0.24,3.87,3.87,3.87
82.98,3.61,3.61,-0.23,-0.23,0.23,0.29,-0.25,3.84,3.84,3.84
83.81,3.56,3.56,-0.23,-0.24,0.23,0.29,-0.25,3.80,3.80,3.80
84.65,3.52,3.52,-0.24,-0.24,0.24,0.29,-0.26,3.76,3.76,3.76
85.50,3.48,3.48,-0.25,-0.24,0.24,0.29,-0.26,3.72,3.72,3.73
86.35,3.44,3.44,-0.25,-0.24,0.25,0.28,-0.27,3.69,3.69,3.69
87.22,3.41,3.41,-0.24,-0.24,0.25,0.27,-0.27,3.66,3.65,3.65
88.09,3.37,3.37,-0.24,-0.24,0.24,0.26,-0.28,3.61,3.61,3.61
88.97,3.33,3.33,-0.25,-0.24,0.24,0.24,-0.29,3.57,3.57,3.58
89.86,3.30,3.30,-0.24,-0.24,0.23,0.22,-0.29,3.53,3.53,3.54
90.76,3.26,3.26,-0.22,-0.23,0.23,0.20,-0.30,3.49,3.49,3.48
91.66,3.23,3.23,-0.22,-0.21,0.22,0.18,-0.31,3.45,3.45,3.45
92.58,3.20,3.20,-0.20,-0.20,0.21,0.16,-0.32,3.41,3.41,3.40
93.51,3.17,3.17,-0.19,-0.19,0.19,0.13,-0.32,3.36,3.36,3.37
94.44,3.14,3.14,-0.18,-0.18,0.18,0.11,-0.33,3.32,3.32,3.32
95.39,3.11,3.11,-0.17,-0.16,0.16,0.08,-0.34,3.27,3.27,3.28
96.34,3.08,3.08,-0.14,-0.14,0.14,0.06,-0.35,3.22,3.22,3.22
97.30,3.06,3.06,-0.12,-0.12,0.12,0.04,-0.35,3.18,3.18,3.18
98.28,3.03,3.03,-0.10,-0.10,0.10,0.01,-0.36,3.13,3.13,3.13
99.26,3.01,3.01,-0.08,-0.08,0.08,-0.01,-0.37,3.09,3.09,3.09
100.25,2.99,2.99,-0.05,-0.05,0.05,-0.03,-0.38,3.04,3.04,3.04
101.25,2.96,2.96,-0.03,-0.03,0.03,-0.06,-0.39,2.99,2.99,2.99
102.27,2.94,2.94,-0.01,-0.00,0.00,-0.08,-0.39,2.95,2.95,2.95
103.29,2.92,2.92,0.03,0.02,-0.02,-0.10,-0.40,2.90,2.90,2.89
104.32,2.90,2.90,0.05,0.05,-0.04,-0.12,-0.41,2.86,2.86,2.86
105.37,2.87,2.87,0.06,0.07,-0.07,-0.14,-0.42,2.80,2.81,2.81
106.42,2.85,2.85,0.09,0.09,-0.09,-0.16,-0.43,2.76,2.76,2.76
107.48,2.82,2.82,0.10,0.11,-0.11,-0.17,-0.43,2.71,2.71,2.72
108.56,2.80,2.80,0.14,0.13,-0.13,-0.19,-0.44,2.67,2.67,2.66
109.64,2.77,2.77,0.16,0.15,-0.15,-0.20,-0.45,2.62,2.62,2.61
110.74,2.74,2.74,0.17,0.17,-0.17,-0.22,-0.46,2.57,2.57,2.57
111.85,2.71,2.71,0.19,0.19,-0.19,-0.23,-0.46,2.52,2.52,2.52
112.97,2.67,2.67,0.21,0.21,-0.21,-0.25,-0.47,2.46,2.46,2.46
114.10,2.64,2.64,0.23,0.23,-0.23,-0.26,-0.48,2.41,2.41,2.41
115.24,2.60,2.60,0.24,0.24,-0.24,-0.27,-0.48,2.36,2.36,2.36
116.39,2.56,2.56,0.26,0.26,-0.26,-0.29,-0.49,2.30,2.30,2.30
117.55,2.52,2.52,0.27,0.27,-0.27,-0.30,-0.49,2.25,2.25,2.25
118.73,2.48,2.48,0.29,0.28,-0.28,-0.31,-0.49,2.20,2.20,2.19
119.92,2.44,2.44,0.29,0.29,-0.29,-0.32,-0.50,2.15,2.15,2.15
121.12,2.39,2.39,0.29,0.30,-0.30,-0.33,-0.50,2.10,2.10,2.10
122.33,2.35,2.35,0.30,0.30,-0.30,-0.34,-0.50,2.05,2.05,2.05
123.55,2.31,2.31,0.31,0.31,-0.31,-0.35,-0.51,2.00,2.00,2.00
124.79,2.27,2.27,0.32,0.32,-0.32,-0.36,-0.51,1.95,1.95,1.95
126.03,2.23,2.23,0.33,0.33,-0.33,-0.38,-0.51,1.90,1.90,1.90
127.29,2.19,2.19,0.34,0.34,-0.34,-0.39,-0.51,1.85,1.85,1.85
128.57,2.15,2.15,0.36,0.35,-0.35,-0.40,-0.51,1.80,1.80,1.79
129.85,2.11,2.11,0.37,0.37,-0.37,-0.41,-0.50,1.74,1.75,1.74
131.15,2.08,2.08,0.38,0.38,-0.38,-0.42,-0.50,1.70,1.70,1.70
132.46,2.05,2.05,0.40,0.40,-0.40,-0.43,-0.50,1.65,1.65,1.65
133.79,2.03,2.03,0.42,0.42,-0.43,-0.45,-0.50,1.60,1.60,1.61
135.12,2.01,2.01,0.45,0.45,-0.45,-0.46,-0.49,1.56,1.56,1.56
136.48,1.99,1.99,0.47,0.47,-0.48,-0.47,-0.49,1.51,1.52,1.52
137.84,1.98,1.98,0.50,0.51,-0.50,-0.49,-0.49,1.48,1.48,1.48
139.22,1.96,1.96,0.54,0.53,-0.53,-0.50,-0.48,1.43,1.43,1.42
140.61,1.95,1.95,0.57,0.56,-0.55,-0.52,-0.48,1.40,1.39,1.38
142.02,1.93,1.93,0.57,0.58,-0.58,-0.53,-0.47,1.35,1.35,1.36
143.44,1.92,1.92,0.60,0.60,-0.60,-0.55,-0.46,1.32,1.32,1.32
144.87,1.90,1.90,0.62,0.62,-0.62,-0.57,-0.46,1.28,1.28,1.28
146.32,1.88,1.89,0.64,0.64,-0.64,-0.59,-0.45,1.24,1.24,1.24
147.78,1.87,1.87,0.66,0.66,-0.66,-0.61,-0.45,1.21,1.20,1.21
149.26,1.85,1.85,0.68,0.68,-0.68,-0.63,-0.44,1.17,1.17,1.17
150.75,1.82,1.83,0.70,0.70,-0.70,-0.65,-0.43,1.12,1.13,1.12
152.26,1.80,1.80,0.71,0.71,-0.71,-0.67,-0.43,1.09,1.09,1.09
153.78,1.78,1.78,0.73,0.73,-0.73,-0.69,-0.42,1.05,1.05,1.05
155.32,1.75,1.75,0.74,0.74,-0.74,-0.71,-0.42,1.01,1.01,1.01
156.88,1.72,1.72,0.75,0.75,-0.75,-0.73,-0.41,0.97,0.97,0.97
158.44,1.69,1.69,0.76,0.76,-0.76,-0.75,-0.40,0.93,0.93,0.93
160.03,1.66,1.66,0.77,0.77,-0.77,-0.77,-0.40,0.89,0.89,0.89
161.63,1.63,1.63,0.78,0.78,-0.78,-0.79,-0.39,0.85,0.85,0.85
163.24,1.60,1.60,0.79,0.79,-0.79,-0.81,-0.39,0.81,0.81,0.81
164.88,1.57,1.57,0.79,0.80,-0.80,-0.83,-0.38,0.77,0.77,0.78
166.53,1.54,1.54,0.80,0.80,-0.80,-0.85,-0.38,0.74,0.74,0.74
168.19,1.51,1.51,0.81,0.81,-0.81,-0.87,-0.37,0.70,0.70,0.70
169.87,1.48,1.48,0.82,0.82,-0.82,-0.88,-0.37,0.66,0.66,0.66
171.57,1.45,1.45,0.83,0.83,-0.83,-0.89,-0.36,0.62,0.62,0.62
173.29,1.42,1.42,0.83,0.83,-0.84,-0.91,-0.36,0.58,0.58,0.59
175.02,1.40,1.40,0.85,0.85,-0.85,-0.91,-0.35,0.55,0.54,0.55
176.77,1.37,1.37,0.86,0.87,-0.87,-0.92,-0.35,0.50,0.51,0.51
178.54,1.35,1.35,0.89,0.88,-0.88,-0.92,-0.35,0.47,0.47,0.46
180.32,1.33,1.33,0.90,0.90,-0.90,-0.92,-0.34,0.44,0.43,0.43
182.13,1.30,1.30,0.90,0.91,-0.91,-0.92,-0.34,0.39,0.39,0.40
183.95,1.28,1.28,0.92,0.92,-0.92,-0.91,-0.34,0.36,0.36,0.36
185.79,1.25,1.25,0.93,0.93,-0.93,-0.90,-0.33,0.32,0.32,0.32
187.65,1.23,1.23,0.95,0.94,-0.94,-0.89,-0.33,0.29,0.29,0.28
189.52,1.20,1.20,0.95,0.95,-0.94,-0.88,-0.33,0.26,0.26,0.25
191.42,1.17,1.17,0.95,0.95,-0.95,-0.86,-0.33,0.23,0.23,0.22
193.33,1.14,1.14,0.95,0.94,-0.94,-0.84,-0.33,0.20,0.19,0.20
195.27,1.10,1.10,0.93,0.94,-0.94,-0.83,-0.33,0.16,0.16,0.17
197.22,1.06,1.07,0.92,0.93,-0.93,-0.80,-0.33,0.13,0.14,0.14
199.19,1.03,1.03,0.93,0.92,-0.92,-0.78,-0.32,0.11,0.11,0.10
201.18,0.99,0.99,0.90,0.91,-0.90,-0.76,-0.32,0.09,0.09,0.09
203.19,0.95,0.95,0.88,0.89,-0.88,-0.73,-0.32,0.07,0.07,0.07
205.23,0.91,0.91,0.87,0.86,-0.86,-0.71,-0.32,0.05,0.05,0.04
207.28,0.87,0.87,0.83,0.84,-0.84,-0.68,-0.33,0.03,0.03,0.04
209.35,0.82,0.82,0.81,0.81,-0.81,-0.66,-0.33,0.01,0.01,0.01
211.44,0.78,0.78,0.79,0.78,-0.78,-0.63,-0.33,-0.00,-0.00,-0.01
213.56,0.74,0.74,0.75,0.75,-0.76,-0.61,-0.33,-0.01,-0.02,-0.01
215.69,0.70,0.70,0.72,0.72,-0.72,-0.58,-0.33,-0.02,-0.02,-0.02
217.85,0.66,0.66,0.69,0.69,-0.69,-0.56,-0.33,-0.03,-0.03,-0.03
220.03,0.62,0.62,0.66,0.66,-0.66,-0.54,-0.34,-0.04,-0.04,-0.04
222.23,0.58,0.58,0.63,0.63,-0.62,-0.52,-0.34,-0.04,-0.04,-0.05
224.45,0.54,0.54,0.59,0.59,-0.58,-0.50,-0.34,-0.04,-0.04,-0.04
226.70,0.50,0.50,0.55,0.55,-0.55,-0.48,-0.35,-0.05,-0.05,-0.05
228.96,0.46,0.46,0.51,0.50,-0.51,-0.46,-0.35,-0.05,-0.05,-0.05
231.25,0.42,0.42,0.46,0.46,-0.47,-0.44,-0.35,-0.05,-0.05,-0.04
233.57,0.39,0.39,0.43,0.43,-0.43,-0.42,-0.36,-0.04,-0.04,-0.04
235.90,0.35,0.35,0.39,0.39,-0.39,-0.41,-0.36,-0.04,-0.04,-0.04
238.26,0.32,0.32,0.36,0.35,-0.35,-0.39,-0.37,-0.03,-0.03,-0.04
240.64,0.29,0.29,0.32,0.32,-0.31,-0.38,-0.38,-0.02,-0.02,-0.03
243.05,0.26,0.26,0.28,0.27,-0.27,-0.36,-0.38,-0.01,-0.01,-0.01
245.48,0.23,0.23,0.23,0.23,-0.23,-0.35,-0.39,-0.00,-0.00,-0.00
247.93,0.20,0.20,0.19,0.20,-0.19,-0.34,-0.40,0.01,0.01,0.01
250.41,0.18,0.18,0.17,0.16,-0.16,-0.33,-0.41,0.02,0.02,0.01
252.92,0.16,0.16,0.13,0.13,-0.13,-0.32,-0.41,0.04,0.04,0.03
255.45,0.15,0.15,0.09,0.10,-0.10,-0.32,-0.42,0.05,0.05,0.06
258.00,0.14,0.14,0.07,0.07,-0.08,-0.31,-0.43,0.06,0.06,0.07
260.58,0.15,0.15,0.07,0.07,-0.08,-0.30,-0.44,0.07,0.07,0.08
263.19,0.17,0.17,0.06,0.07,-0.08,-0.30,-0.45,0.09,0.09,0.11
265.82,0.21,0.21,0.09,0.08,-0.09,-0.30,-0.46,0.12,0.11,0.12
268.48,0.25,0.25,0.11,0.11,-0.12,-0.29,-0.47,0.13,0.14,0.14
271.16,0.30,0.30,0.13,0.14,-0.14,-0.29,-0.49,0.16,0.16,0.17
273.87,0.36,0.36,0.18,0.17,-0.17,-0.29,-0.50,0.19,0.18,0.18
276.61,0.41,0.41,0.20,0.21,-0.20,-0.29,-0.51,0.21,0.21,0.21
279.38,0.46,0.46,0.24,0.24,-0.22,-0.29,-0.53,0.24,0.23,0.22
282.17,0.49,0.49,0.25,0.25,-0.24,-0.29,-0.54,0.25,0.25,0.24
284.99,0.52,0.52,0.26,0.26,-0.24,-0.29,-0.56,0.28,0.27,0.26
287.84,0.53,0.53,0.25,0.25,-0.24,-0.30,-0.57,0.29,0.29,0.28
290.72,0.53,0.53,0.23,0.23,-0.22,-0.30,-0.59,0.31,0.31,0.30
293.63,0.52,0.52,0.20,0.20,-0.20,-0.31,-0.61,0.32,0.32,0.32
296.57,0.51,0.51,0.17,0.17,-0.17,-0.32,-0.62,0.34,0.34,0.34
299.53,0.49,0.50,0.13,0.14,-0.14,-0.32,-0.64,0.35,0.36,0.36
302.53,0.49,0.49,0.12,0.10,-0.11,-0.33,-0.66,0.38,0.38,0.38
305.55,0.48,0.48,0.07,0.08,-0.09,-0.34,-0.68,0.39,0.40,0.41
308.61,0.49,0.49,0.06,0.06,-0.07,-0.36,-0.70,0.42,0.42,0.43
311.69,0.51,0.51,0.06,0.05,-0.06,-0.37,-0.72,0.45,0.45,0.45
314.81,0.54,0.54,0.05,0.05,-0.06,-0.38,-0.74,0.48,0.48,0.49
317.96,0.57,0.57,0.06,0.07,-0.07,-0.40,-0.77,0.50,0.50,0.51
321.14,0.61,0.61,0.09,0.09,-0.09,-0.41,-0.79,0.52,0.53,0.52
324.35,0.66,0.66,0.12,0.11,-0.11,-0.43,-0.81,0.55,0.55,0.54
327.59,0.71,0.71,0.14,0.14,-0.14,-0.45,-0.84,0.57,0.57,0.57
330.87,0.76,0.76,0.18,0.18,-0.18,-0.47,-0.87,0.58,0.59,0.59
334.18,0.82,0.82,0.22,0.22,-0.21,-0.49,-0.89,0.61,0.61,0.60
337.52,0.88,0.88,0.26,0.26,-0.25,-0.52,-0.92,0.63,0.63,0.62
340.90,0.94,0.94,0.29,0.30,-0.29,-0.54,-0.95,0.65,0.65,0.65
344.30,1.00,1.00,0.34,0.34,-0.33,-0.57,-0.98,0.67,0.67,0.67
347.75,1.06,1.06,0.38,0.38,-0.37,-0.60,-1.01,0.69,0.69,0.68
351.23,1.12,1.12,0.42,0.42,-0.42,-0.63,-1.04,0.70,0.71,0.70
354.74,1.18,1.18,0.46,0.46,-0.46,-0.66,-1.07,0.72,0.72,0.72
358.28,1.24,1.24,0.50,0.50,-0.50,-0.70,-1.11,0.74,0.73,0.74
361.87,1.29,1.29,0.54,0.54,-0.55,-0.73,-1.14,0.74,0.75,0.75
365.49,1.35,1.35,0.59,0.59,-0.59,-0.77,-1.18,0.76,0.76,0.76
369.14,1.42,1.42,0.65,0.64,-0.64,-0.81,-1.21,0.78,0.77,0.77
372.83,1.48,1.48,0.69,0.70,-0.69,-0.85,-1.25,0.79,0.79,0.79
376.56,1.55,1.55,0.75,0.75,-0.75,-0.90,-1.29,0.80,0.80,0.80
380.33,1.62,1.62,0.80,0.80,-0.81,-0.94,-1.32,0.82,0.82,0.83
384.13,1.70,1.70,0.87,0.87,-0.87,-0.99,-1.36,0.83,0.83,0.83
387.97,1.77,1.77,0.93,0.93,-0.93,-1.04,-1.40,0.84,0.84,0.84
391.85,1.85,1.85,1.00,1.00,-1.00,-1.10,-1.44,0.85,0.85,0.85
395.77,1.93,1.93,1.06,1.06,-1.07,-1.15,-1.48,0.87,0.87,0.87
399.73,2.01,2.01,1.13,1.14,-1.14,-1.21,-1.52,0.87,0.88,0.88
403.72,2.10,2.10,1.21,1.21,-1.21,-1.27,-1.56,0.89,0.89,0.89
407.76,2.18,2.18,1.29,1.29,-1.29,-1.33,-1.60,0.90,0.90,0.90
411.84,2.27,2.27,1.36,1.36,-1.36,-1.39,-1.64,0.91,0.91,0.91
415.96,2.36,2.36,1.44,1.44,-1.44,-1.46,-1.68,0.92,0.92,0.92
420.12,2.44,2.44,1.51,1.51,-1.51,-1.53,-1.72,0.93,0.93,0.93
424.32,2.53,2.53,1.59,1.59,-1.59,-1.59,-1.75,0.94,0.94,0.94
428.56,2.61,2.61,1.66,1.66,-1.66,-1.66,-1.79,0.95,0.95,0.95
432.85,2.69,2.69,1.73,1.73,-1.73,-1.73,-1.82,0.96,0.96,0.96
437.18,2.76,2.77,1.79,1.79,-1.79,-1.80,-1.86,0.97,0.97,0.97
441.55,2.84,2.84,1.85,1.86,-1.85,-1.87,-1.89,0.99,0.98,0.99
445.96,2.91,2.91,1.92,1.91,-1.91,-1.93,-1.92,1.00,1.00,1.00
450.42,2.97,2.97,1.97,1.96,-1.96,-2.00,-1.94,1.01,1.01,1.00
454.93,3.03,3.03,2.01,2.01,-2.01,-2.06,-1.97,1.02,1.02,1.02
459.48,3.08,3.08,2.05,2.05,-2.05,-2.12,-1.99,1.03,1.03,1.03
464.07,3.13,3.13,2.08,2.08,-2.09,-2.18,-2.01,1.04,1.05,1.05
468.71,3.18,3.18,2.11,2.11,-2.12,-2.23,-2.02,1.06,1.06,1.07
473.40,3.23,3.23,2.15,2.15,-2.15,-2.28,-2.03,1.08,1.08,1.08
478.13,3.27,3.27,2.17,2.17,-2.17,-2.32,-2.04,1.10,1.10,1.10
482.91,3.30,3.30,2.19,2.19,-2.19,-2.36,-2.04,1.12,1.12,1.11
487.74,3.33,3.33,2.20,2.20,-2.20,-2.39,-2.04,1.13,1.13,1.13
492.62,3.35,3.35,2.20,2.21,-2.20,-2.41,-2.03,1.15,1.15,1.15
497.55,3.36,3.36,2.20,2.20,-2.20,-2.42,-2.02,1.16,1.16,1.16
502.52,3.37,3.37,2.19,2.20,-2.20,-2.42,-2.00,1.17,1.17,1.18
507.55,3.37,3.37,2.18,2.19,-2.19,-2.41,-1.98,1.18,1.19,1.19
512.62,3.38,3.38,2.18,2.17,-2.18,-2.40,-1.96,1.20,1.20,1.21
517.75,3.38,3.38,2.16,2.16,-2.16,-2.37,-1.92,1.22,1.22,1.22
522.93,3.38,3.38,2.14,2.14,-2.15,-2.33,-1.89,1.23,1.24,1.24
528.16,3.38,3.38,2.13,2.13,-2.13,-2.29,-1.85,1.25,1.26,1.25
533.44,3.38,3.38,2.11,2.11,-2.10,-2.23,-1.81,1.28,1.28,1.27
538.77,3.37,3.37,2.08,2.08,-2.07,-2.17,-1.76,1.30,1.30,1.29
544.16,3.35,3.35,2.04,2.04,-2.03,-2.10,-1.71,1.32,1.32,1.31
