frequency,raw,error,smoothed,error_smoothed,equalization,parametric_eq,equalized_raw,equalized_smoothed,target
20,6.58,3.09,6.60,3.13,-3.13,-1.85,3.45,3.46,3.49
21,6.69,3.21,6.74,3.29,-3.29,-2.13,3.40,3.46,3.48
22,6.88,3.41,6.88,3.43,-3.43,-2.43,3.45,3.45,3.47
23,7.02,3.56,7.01,3.57,-3.57,-2.76,3.45,3.45,3.46
24,7.16,3.71,7.13,3.70,-3.70,-3.10,3.46,3.44,3.45
25,7.28,3.84,7.25,3.82,-3.82,-3.46,3.46,3.43,3.43
26,7.39,3.97,7.35,3.93,-3.93,-3.82,3.46,3.42,3.42
27,7.47,4.06,7.44,4.03,-4.03,-4.16,3.44,3.40,3.41
28,7.56,4.17,7.52,4.13,-4.13,-4.46,3.43,3.39,3.39
29,7.60,4.22,7.59,4.22,-4.22,-4.72,3.38,3.37,3.38
30,7.65,4.29,7.65,4.30,-4.30,-4.91,3.35,3.36,3.36
31,7.69,4.35,7.70,4.36,-4.36,-5.03,3.33,3.34,3.34
32,7.73,4.41,7.73,4.42,-4.42,-5.08,3.31,3.31,3.32
33,7.73,4.43,7.76,4.46,-4.46,-5.07,3.27,3.29,3.30
34,7.78,4.50,7.78,4.51,-4.51,-5.02,3.27,3.27,3.28
35,7.78,4.53,7.79,4.54,-4.54,-4.93,3.24,3.25,3.25
36,7.80,4.57,7.80,4.58,-4.58,-4.83,3.22,3.22,3.23
37,7.80,4.60,7.80,4.60,-4.60,-4.72,3.19,3.20,3.20
38,7.80,4.62,7.80,4.63,-4.63,-4.61,3.17,3.17,3.18
39,7.80,4.65,7.80,4.65,-4.65,-4.52,3.15,3.15,3.15
40,7.78,4.66,7.79,4.67,-4.67,-4.44,3.11,3.12,3.12
41,7.78,4.69,7.77,4.69,-4.69,-4.38,3.09,3.08,3.09
42,7.77,4.71,7.75,4.70,-4.70,-4.33,3.07,3.05,3.06
43,7.73,4.71,7.73,4.71,-4.71,-4.31,3.02,3.02,3.02
44,7.72,4.73,7.71,4.72,-4.72,-4.30,3.00,2.99,2.99
45,7.69,4.74,7.68,4.73,-4.73,-4.31,2.96,2.95,2.95
46,7.65,4.73,7.65,4.74,-4.74,-4.34,2.91,2.91,2.92
47,7.60,4.72,7.62,4.74,-4.74,-4.38,2.86,2.88,2.88
48,7.56,4.72,7.58,4.74,-4.74,-4.43,2.82,2.84,2.84
49,7.52,4.72,7.54,4.74,-4.74,-4.50,2.78,2.80,2.80
50,7.52,4.76,7.50,4.74,-4.74,-4.57,2.78,2.76,2.76
51,7.47,4.75,7.46,4.74,-4.74,-4.65,2.73,2.72,2.72
52,7.42,4.74,7.41,4.74,-4.74,-4.74,2.68,2.67,2.68
53,7.37,4.74,7.37,4.74,-4.74,-4.83,2.63,2.63,2.63
54,7.33,4.74,7.32,4.73,-4.73,-4.91,2.59,2.58,2.59
55,7.28,4.74,7.27,4.73,-4.73,-5.00,2.55,2.54,2.54
56,7.23,4.73,7.22,4.73,-4.73,-5.08,2.50,2.49,2.50
57,7.17,4.72,7.17,4.72,-4.72,-5.15,2.45,2.45,2.45
58,7.12,4.72,7.12,4.72,-4.72,-5.21,2.40,2.40,2.40
59,7.05,4.70,7.06,4.72,-4.72,-5.26,2.33,2.35,2.35
60,7.00,4.70,7.01,4.71,-4.71,-5.30,2.28,2.30,2.30
61,6.94,4.69,6.96,4.71,-4.71,-5.32,2.23,2.25,2.25
62,6.90,4.70,6.91,4.71,-4.71,-5.33,2.19,2.20,2.20
63,6.86,4.71,6.86,4.72,-4.72,-5.33,2.14,2.15,2.15
64,6.82,4.72,6.81,4.72,-4.72,-5.32,2.10,2.10,2.10
65,6.77,4.72,6.76,4.72,-4.72,-5.29,2.05,2.04,2.05
66,6.73,4.73,6.72,4.72,-4.72,-5.26,2.00,1.99,2.00
67,6.67,4.73,6.67,4.73,-4.73,-5.21,1.94,1.94,1.94
68,6.63,4.74,6.62,4.73,-4.73,-5.16,1.90,1.89,1.89
69,6.59,4.75,6.57,4.73,-4.73,-5.10,1.85,1.84,1.84
70,6.52,4.74,6.52,4.74,-4.74,-5.04,1.78,1.79,1.78
71,6.46,4.73,6.47,4.74,-4.74,-4.97,1.72,1.73,1.73
72,6.41,4.73,6.41,4.74,-4.74,-4.90,1.67,1.67,1.67
73,6.36,4.74,6.36,4.74,-4.74,-4.84,1.62,1.62,1.62
74,6.31,4.74,6.30,4.74,-4.74,-4.77,1.57,1.56,1.57
75,6.26,4.75,6.24,4.74,-4.74,-4.70,1.52,1.51,1.51
76,6.19,4.73,6.19,4.74,-4.74,-4.64,1.45,1.45,1.46
77,6.14,4.74,6.14,4.74,-4.74,-4.58,1.39,1.39,1.40
78,6.08,4.73,6.09,4.75,-4.75,-4.52,1.33,1.34,1.35
79,6.02,4.72,6.04,4.76,-4.76,-4.47,1.26,1.29,1.29
80,5.97,4.73,6.00,4.76,-4.76,-4.42,1.20,1.23,1.24
81,5.93,4.74,5.95,4.77,-4.77,-4.38,1.16,1.18,1.19
82,5.91,4.78,5.91,4.78,-4.78,-4.34,1.13,1.13,1.13
83,5.87,4.79,5.86,4.79,-4.79,-4.31,1.08,1.07,1.08
84,5.83,4.80,5.82,4.79,-4.79,-4.28,1.03,1.02,1.03
85,5.79,4.81,5.77,4.80,-4.80,-4.25,0.99,0.97,0.98
86,5.76,4.84,5.72,4.80,-4.80,-4.23,0.95,0.92,0.92
87,5.70,4.83,5.67,4.81,-4.81,-4.22,0.89,0.87,0.87
88,5.63,4.81,5.62,4.81,-4.81,-4.20,0.82,0.82,0.82
89,5.55,4.78,5.57,4.80,-4.80,-4.20,0.75,0.77,0.77
90,5.50,4.78,5.52,4.80,-4.80,-4.19,0.70,0.72,0.72
91,5.45,4.78,5.46,4.80,-4.80,-4.20,0.65,0.66,0.67
92,5.40,4.78,5.40,4.79,-4.79,-4.20,0.61,0.61,0.62
93,5.34,4.77,5.35,4.78,-4.78,-4.21,0.56,0.57,0.57
94,5.29,4.77,5.29,4.78,-4.78,-4.22,0.51,0.52,0.52
95,5.24,4.77,5.24,4.77,-4.77,-4.24,0.47,0.47,0.47
96,5.20,4.77,5.19,4.76,-4.76,-4.25,0.43,0.42,0.42
97,5.14,4.76,5.13,4.76,-4.76,-4.27,0.38,0.37,0.38
98,5.07,4.74,5.08,4.76,-4.76,-4.30,0.31,0.33,0.33
99,5.03,4.74,5.03,4.75,-4.75,-4.32,0.28,0.28,0.29
100,4.98,4.74,4.98,4.75,-4.75,-4.35,0.23,0.23,0.24
101,4.94,4.74,4.92,4.74,-4.74,-4.38,0.20,0.18,0.20
102,4.89,4.74,4.87,4.73,-4.73,-4.41,0.15,0.13,0.15
104,4.80,4.73,4.81,4.73,-4.73,-4.47,0.07,0.08,0.06
105,4.75,4.73,4.76,4.72,-4.72,-4.50,0.03,0.03,0.02
106,4.69,4.71,4.70,4.71,-4.71,-4.54,-0.02,-0.01,-0.02
107,4.64,4.70,4.65,4.70,-4.70,-4.57,-0.06,-0.05,-0.06
108,4.59,4.69,4.60,4.69,-4.69,-4.60,-0.10,-0.09,-0.10
109,4.53,4.67,4.54,4.68,-4.68,-4.63,-0.15,-0.14,-0.14
110,4.48,4.66,4.48,4.66,-4.66,-4.66,-0.18,-0.18,-0.18
111,4.43,4.65,4.42,4.65,-4.65,-4.69,-0.22,-0.22,-0.22
112,4.38,4.64,4.36,4.63,-4.63,-4.72,-0.25,-0.27,-0.26
113,4.33,4.62,4.30,4.61,-4.61,-4.74,-0.28,-0.31,-0.29
114,4.27,4.60,4.24,4.59,-4.59,-4.77,-0.32,-0.35,-0.33
115,4.20,4.57,4.18,4.56,-4.56,-4.79,-0.36,-0.39,-0.37
117,4.08,4.52,4.12,4.54,-4.54,-4.82,-0.46,-0.43,-0.44
118,4.02,4.49,4.05,4.52,-4.52,-4.83,-0.50,-0.47,-0.47
119,3.97,4.47,3.99,4.50,-4.50,-4.84,-0.53,-0.51,-0.51
120,3.93,4.47,3.93,4.47,-4.47,-4.85,-0.54,-0.55,-0.54
121,3.88,4.45,3.86,4.45,-4.45,-4.85,-0.57,-0.59,-0.57
123,3.79,4.42,3.80,4.43,-4.43,-4.85,-0.64,-0.63,-0.64
124,3.73,4.40,3.74,4.41,-4.41,-4.84,-0.68,-0.67,-0.67
125,3.68,4.38,3.68,4.38,-4.38,-4.83,-0.70,-0.70,-0.70
126,3.64,4.37,3.62,4.36,-4.36,-4.81,-0.72,-0.74,-0.73
128,3.56,4.34,3.56,4.34,-4.34,-4.78,-0.78,-0.77,-0.78
129,3.50,4.31,3.50,4.31,-4.31,-4.75,-0.81,-0.81,-0.81
130,3.46,4.30,3.44,4.29,-4.29,-4.73,-0.83,-0.84,-0.84
131,3.41,4.28,3.38,4.26,-4.26,-4.70,-0.85,-0.88,-0.87
133,3.29,4.21,3.31,4.23,-4.23,-4.63,-0.94,-0.92,-0.92
134,3.25,4.20,3.25,4.20,-4.20,-4.60,-0.95,-0.95,-0.95
135,3.21,4.18,3.19,4.17,-4.17,-4.56,-0.96,-0.98,-0.97
137,3.10,4.12,3.12,4.14,-4.14,-4.48,-1.04,-1.02,-1.02
138,3.06,4.10,3.05,4.10,-4.10,-4.44,-1.04,-1.05,-1.05
140,2.96,4.05,2.98,4.07,-4.07,-4.35,-1.11,-1.08,-1.09
141,2.91,4.02,2.92,4.03,-4.03,-4.30,-1.12,-1.11,-1.11
142,2.87,4.01,2.85,4.00,-4.00,-4.26,-1.13,-1.15,-1.14
144,2.77,3.95,2.78,3.96,-3.96,-4.16,-1.19,-1.18,-1.18
145,2.72,3.92,2.71,3.92,-3.92,-4.12,-1.20,-1.21,-1.20
147,2.65,3.89,2.64,3.88,-3.88,-4.02,-1.23,-1.24,-1.24
148,2.59,3.85,2.57,3.84,-3.84,-3.97,-1.25,-1.27,-1.26
150,2.50,3.80,2.50,3.80,-3.80,-3.88,-1.30,-1.30,-1.30
151,2.43,3.75,2.43,3.75,-3.75,-3.83,-1.32,-1.32,-1.32
153,2.34,3.69,2.36,3.71,-3.71,-3.74,-1.37,-1.35,-1.36
154,2.30,3.67,2.29,3.67,-3.67,-3.70,-1.37,-1.38,-1.37
156,2.21,3.62,2.22,3.62,-3.62,-3.61,-1.41,-1.40,-1.41
157,2.15,3.57,2.15,3.58,-3.58,-3.57,-1.43,-1.43,-1.42
159,2.07,3.53,2.08,3.54,-3.54,-3.49,-1.47,-1.46,-1.46
160,2.03,3.50,2.01,3.50,-3.50,-3.45,-1.47,-1.49,-1.47
162,1.95,3.45,1.95,3.46,-3.46,-3.37,-1.51,-1.51,-1.50
164,1.88,3.41,1.89,3.42,-3.42,-3.29,-1.54,-1.53,-1.53
165,1.84,3.39,1.83,3.38,-3.38,-3.26,-1.54,-1.55,-1.55
167,1.75,3.32,1.77,3.34,-3.34,-3.19,-1.59,-1.58,-1.57
169,1.68,3.28,1.71,3.31,-3.31,-3.13,-1.63,-1.60,-1.60
170,1.65,3.26,1.65,3.27,-3.27,-3.10,-1.62,-1.62,-1.61
172,1.59,3.23,1.60,3.24,-3.24,-3.04,-1.65,-1.64,-1.64
174,1.55,3.21,1.54,3.20,-3.20,-2.98,-1.66,-1.66,-1.66
175,1.52,3.19,1.49,3.17,-3.17,-2.96,-1.65,-1.69,-1.68
177,1.46,3.16,1.43,3.14,-3.14,-2.91,-1.68,-1.71,-1.70
179,1.39,3.11,1.38,3.10,-3.10,-2.86,-1.72,-1.72,-1.72
181,1.31,3.05,1.33,3.07,-3.07,-2.82,-1.76,-1.74,-1.74
183,1.26,3.02,1.28,3.04,-3.04,-2.78,-1.78,-1.76,-1.76
184,1.23,3.00,1.23,3.01,-3.01,-2.76,-1.78,-1.78,-1.77
186,1.17,2.96,1.18,2.98,-2.98,-2.72,-1.81,-1.80,-1.79
188,1.13,2.94,1.13,2.95,-2.95,-2.69,-1.82,-1.82,-1.81
190,1.08,2.91,1.08,2.92,-2.92,-2.66,-1.84,-1.83,-1.83
192,1.04,2.89,1.04,2.89,-2.89,-2.63,-1.85,-1.85,-1.85
194,1.00,2.86,0.99,2.86,-2.86,-2.60,-1.86,-1.87,-1.86
196,0.95,2.83,0.95,2.83,-2.83,-2.58,-1.88,-1.88,-1.88
198,0.91,2.81,0.91,2.80,-2.80,-2.56,-1.90,-1.90,-1.90
200,0.88,2.79,0.87,2.78,-2.78,-2.54,-1.90,-1.91,-1.91
202,0.82,2.75,0.82,2.75,-2.75,-2.52,-1.93,-1.93,-1.93
204,0.78,2.72,0.78,2.73,-2.73,-2.51,-1.95,-1.94,-1.94
206,0.74,2.69,0.75,2.70,-2.70,-2.49,-1.96,-1.96,-1.96
208,0.69,2.66,0.71,2.68,-2.68,-2.48,-1.99,-1.97,-1.97
210,0.67,2.65,0.67,2.65,-2.65,-2.46,-1.98,-1.98,-1.98
212,0.63,2.62,0.63,2.62,-2.62,-2.45,-2.00,-2.00,-1.99
214,0.59,2.59,0.59,2.60,-2.60,-2.44,-2.01,-2.01,-2.01
216,0.56,2.58,0.55,2.57,-2.57,-2.43,-2.01,-2.02,-2.02
218,0.52,2.55,0.51,2.54,-2.54,-2.42,-2.02,-2.03,-2.03
221,0.48,2.52,0.47,2.51,-2.51,-2.40,-2.04,-2.04,-2.04
223,0.43,2.48,0.43,2.49,-2.49,-2.39,-2.06,-2.05,-2.06
225,0.39,2.45,0.39,2.45,-2.45,-2.38,-2.07,-2.06,-2.07
227,0.35,2.42,0.35,2.42,-2.42,-2.37,-2.07,-2.07,-2.07
229,0.30,2.38,0.31,2.39,-2.39,-2.36,-2.09,-2.08,-2.08
232,0.26,2.36,0.26,2.36,-2.36,-2.35,-2.10,-2.10,-2.10
234,0.22,2.33,0.21,2.33,-2.33,-2.33,-2.11,-2.11,-2.11
236,0.17,2.28,0.17,2.29,-2.29,-2.32,-2.12,-2.12,-2.12
239,0.13,2.26,0.13,2.26,-2.26,-2.30,-2.13,-2.13,-2.13
241,0.09,2.22,0.09,2.22,-2.22,-2.29,-2.13,-2.14,-2.13
244,0.04,2.19,0.04,2.19,-2.19,-2.26,-2.15,-2.15,-2.15
246,-0.00,2.15,-0.00,2.15,-2.15,-2.25,-2.15,-2.16,-2.15
248,-0.06,2.10,-0.05,2.12,-2.12,-2.23,-2.18,-2.17,-2.16
251,-0.13,2.04,-0.09,2.08,-2.08,-2.20,-2.21,-2.17,-2.17
253,-0.15,2.03,-0.14,2.04,-2.04,-2.18,-2.19,-2.18,-2.18
256,-0.15,2.04,-0.19,2.00,-2.00,-2.15,-2.15,-2.19,-2.19
259,-0.21,1.98,-0.23,1.96,-1.96,-2.12,-2.17,-2.19,-2.20
261,-0.26,1.94,-0.29,1.91,-1.91,-2.09,-2.17,-2.20,-2.20
264,-0.35,1.86,-0.34,1.87,-1.87,-2.06,-2.22,-2.21,-2.21
266,-0.41,1.80,-0.40,1.82,-1.82,-2.03,-2.23,-2.22,-2.21
269,-0.44,1.78,-0.46,1.77,-1.77,-1.99,-2.21,-2.23,-2.22
272,-0.50,1.73,-0.52,1.72,-1.72,-1.95,-2.22,-2.23,-2.23
274,-0.56,1.67,-0.58,1.66,-1.66,-1.93,-2.23,-2.24,-2.24
277,-0.64,1.60,-0.64,1.61,-1.61,-1.89,-2.25,-2.25,-2.24
280,-0.69,1.56,-0.70,1.56,-1.56,-1.84,-2.25,-2.26,-2.25
283,-0.78,1.48,-0.76,1.51,-1.51,-1.80,-2.29,-2.27,-2.26
286,-0.83,1.44,-0.81,1.46,-1.46,-1.76,-2.30,-2.27,-2.27
288,-0.86,1.41,-0.86,1.42,-1.42,-1.73,-2.28,-2.28,-2.27
291,-0.89,1.39,-0.90,1.38,-1.38,-1.69,-2.27,-2.28,-2.28
294,-0.93,1.35,-0.94,1.34,-1.34,-1.64,-2.28,-2.28,-2.28
297,-0.98,1.30,-0.97,1.31,-1.31,-1.60,-2.29,-2.28,-2.28
300,-1.01,1.26,-0.99,1.28,-1.28,-1.56,-2.29,-2.28,-2.27
303,-1.02,1.25,-1.01,1.26,-1.26,-1.52,-2.28,-2.27,-2.27
306,-1.02,1.23,-1.02,1.24,-1.24,-1.48,-2.26,-2.26,-2.26
309,-1.03,1.21,-1.02,1.22,-1.22,-1.44,-2.25,-2.24,-2.24
312,-1.02,1.21,-1.02,1.21,-1.21,-1.40,-2.23,-2.22,-2.23
316,-1.02,1.19,-1.01,1.19,-1.19,-1.34,-2.22,-2.21,-2.21
319,-1.02,1.17,-1.01,1.18,-1.18,-1.30,-2.20,-2.19,-2.19
322,-1.00,1.17,-1.00,1.17,-1.17,-1.27,-2.17,-2.17,-2.17
325,-0.98,1.17,-1.00,1.16,-1.16,-1.23,-2.14,-2.15,-2.15
328,-0.98,1.15,-0.99,1.14,-1.14,-1.19,-2.12,-2.14,-2.13
332,-0.95,1.16,-0.99,1.13,-1.13,-1.15,-2.08,-2.12,-2.11
335,-0.95,1.14,-1.00,1.11,-1.11,-1.11,-2.07,-2.11,-2.09
338,-0.98,1.10,-1.00,1.10,-1.10,-1.08,-2.08,-2.10,-2.08
342,-0.99,1.08,-1.00,1.08,-1.08,-1.03,-2.08,-2.09,-2.07
345,-1.02,1.05,-1.01,1.07,-1.07,-1.00,-2.09,-2.08,-2.07
349,-1.06,1.00,-1.02,1.06,-1.06,-0.96,-2.12,-2.07,-2.06
352,-1.06,1.00,-1.03,1.04,-1.04,-0.93,-2.10,-2.07,-2.06
356,-1.06,1.00,-1.04,1.03,-1.03,-0.89,-2.09,-2.07,-2.06
359,-1.06,1.00,-1.05,1.01,-1.01,-0.86,-2.08,-2.06,-2.06
363,-1.04,1.02,-1.06,1.00,-1.00,-0.83,-2.04,-2.06,-2.06
366,-1.06,1.00,-1.08,0.99,-0.99,-0.80,-2.05,-2.07,-2.06
370,-1.06,1.00,-1.09,0.98,-0.98,-0.77,-2.04,-2.07,-2.06
374,-1.11,0.95,-1.11,0.96,-0.96,-0.73,-2.08,-2.07,-2.07
377,-1.11,0.96,-1.12,0.95,-0.95,-0.71,-2.06,-2.07,-2.07
381,-1.11,0.96,-1.14,0.94,-0.94,-0.68,-2.05,-2.07,-2.07
385,-1.15,0.92,-1.15,0.92,-0.92,-0.65,-2.07,-2.07,-2.08
389,-1.18,0.90,-1.17,0.91,-0.91,-0.62,-2.09,-2.08,-2.08
393,-1.20,0.88,-1.20,0.89,-0.89,-0.59,-2.09,-2.08,-2.08
397,-1.24,0.84,-1.22,0.87,-0.87,-0.56,-2.11,-2.09,-2.08
401,-1.24,0.85,-1.24,0.85,-0.85,-0.53,-2.09,-2.09,-2.09
405,-1.28,0.81,-1.26,0.83,-0.83,-0.51,-2.11,-2.09,-2.09
409,-1.28,0.81,-1.28,0.81,-0.81,-0.48,-2.10,-2.10,-2.09
413,-1.28,0.81,-1.30,0.80,-0.80,-0.46,-2.08,-2.09,-2.09
417,-1.32,0.77,-1.32,0.78,-0.78,-0.43,-2.10,-2.09,-2.09
421,-1.32,0.77,-1.33,0.76,-0.76,-0.41,-2.08,-2.09,-2.09
425,-1.36,0.73,-1.35,0.74,-0.74,-0.39,-2.10,-2.09,-2.09
430,-1.37,0.71,-1.36,0.72,-0.72,-0.37,-2.09,-2.08,-2.09
434,-1.37,0.71,-1.37,0.70,-0.70,-0.35,-2.07,-2.07,-2.08
438,-1.37,0.70,-1.39,0.68,-0.68,-0.33,-2.05,-2.07,-2.07
443,-1.41,0.65,-1.40,0.66,-0.66,-0.31,-2.07,-2.06,-2.06
447,-1.41,0.64,-1.41,0.64,-0.64,-0.29,-2.05,-2.06,-2.06
451,-1.41,0.64,-1.43,0.62,-0.62,-0.27,-2.03,-2.05,-2.05
456,-1.45,0.59,-1.45,0.60,-0.60,-0.26,-2.05,-2.05,-2.04
460,-1.45,0.58,-1.46,0.58,-0.58,-0.24,-2.03,-2.04,-2.03
465,-1.47,0.56,-1.48,0.56,-0.56,-0.23,-2.03,-2.04,-2.03
470,-1.50,0.52,-1.49,0.54,-0.54,-0.21,-2.04,-2.03,-2.02
474,-1.50,0.52,-1.51,0.52,-0.52,-0.20,-2.02,-2.03,-2.02
479,-1.54,0.47,-1.52,0.50,-0.50,-0.19,-2.04,-2.02,-2.02
484,-1.54,0.47,-1.53,0.48,-0.48,-0.18,-2.02,-2.02,-2.01
489,-1.54,0.47,-1.55,0.46,-0.46,-0.17,-2.00,-2.01,-2.01
494,-1.57,0.43,-1.56,0.44,-0.44,-0.16,-2.01,-2.00,-2.01
499,-1.58,0.42,-1.57,0.42,-0.42,-0.16,-2.01,-2.00,-2.00
504,-1.58,0.41,-1.59,0.41,-0.41,-0.15,-1.99,-1.99,-1.99
509,-1.58,0.40,-1.60,0.39,-0.39,-0.15,-1.97,-1.99,-1.99
514,-1.58,0.40,-1.61,0.37,-0.37,-0.15,-1.95,-1.98,-1.98
519,-1.63,0.33,-1.62,0.35,-0.35,-0.14,-1.98,-1.97,-1.96
524,-1.63,0.32,-1.63,0.32,-0.32,-0.14,-1.96,-1.96,-1.95
529,-1.63,0.31,-1.64,0.30,-0.30,-0.14,-1.94,-1.94,-1.94
535,-1.67,0.25,-1.65,0.28,-0.28,-0.15,-1.95,-1.93,-1.92
540,-1.67,0.24,-1.65,0.26,-0.26,-0.15,-1.93,-1.92,-1.91
545,-1.67,0.22,-1.66,0.24,-0.24,-0.15,-1.91,-1.90,-1.90
551,-1.67,0.21,-1.66,0.22,-0.22,-0.16,-1.89,-1.88,-1.88
556,-1.67,0.20,-1.67,0.20,-0.20,-0.16,-1.87,-1.87,-1.87
562,-1.67,0.18,-1.68,0.18,-0.18,-0.17,-1.85,-1.86,-1.85
568,-1.67,0.17,-1.69,0.16,-0.16,-0.18,-1.83,-1.84,-1.84
573,-1.67,0.15,-1.69,0.14,-0.14,-0.19,-1.81,-1.83,-1.82
579,-1.67,0.14,-1.70,0.12,-0.12,-0.20,-1.79,-1.82,-1.81
585,-1.71,0.09,-1.71,0.10,-0.10,-0.21,-1.81,-1.81,-1.80
591,-1.71,0.07,-1.72,0.08,-0.08,-0.22,-1.79,-1.80,-1.79
596,-1.71,0.06,-1.73,0.06,-0.06,-0.23,-1.77,-1.79,-1.77
602,-1.76,0.01,-1.73,0.05,-0.05,-0.24,-1.81,-1.78,-1.77
608,-1.76,-0.00,-1.74,0.04,-0.04,-0.25,-1.80,-1.77,-1.76
615,-1.76,-0.00,-1.74,0.02,-0.02,-0.27,-1.79,-1.77,-1.76
621,-1.76,-0.01,-1.74,0.02,-0.02,-0.28,-1.78,-1.76,-1.75
627,-1.76,-0.01,-1.75,0.01,-0.01,-0.29,-1.77,-1.75,-1.75
633,-1.75,-0.01,-1.75,0.00,-0.00,-0.31,-1.75,-1.75,-1.74
639,-1.71,0.02,-1.74,-0.01,0.01,-0.32,-1.71,-1.74,-1.73
646,-1.71,0.02,-1.74,-0.01,0.01,-0.34,-1.70,-1.73,-1.73
652,-1.71,0.01,-1.73,-0.02,0.02,-0.35,-1.69,-1.72,-1.72
659,-1.71,-0.01,-1.72,-0.02,0.02,-0.37,-1.69,-1.70,-1.70
665,-1.71,-0.02,-1.71,-0.03,0.03,-0.39,-1.68,-1.68,-1.69
672,-1.71,-0.04,-1.70,-0.03,0.03,-0.40,-1.68,-1.67,-1.67
679,-1.71,-0.06,-1.69,-0.04,0.04,-0.42,-1.67,-1.65,-1.65
686,-1.68,-0.06,-1.67,-0.05,0.05,-0.44,-1.64,-1.62,-1.62
692,-1.67,-0.07,-1.65,-0.05,0.05,-0.46,-1.62,-1.60,-1.60
699,-1.65,-0.08,-1.63,-0.06,0.06,-0.48,-1.60,-1.57,-1.57
706,-1.60,-0.06,-1.61,-0.06,0.06,-0.50,-1.54,-1.55,-1.54
713,-1.57,-0.06,-1.58,-0.06,0.06,-0.52,-1.51,-1.52,-1.51
721,-1.53,-0.05,-1.55,-0.06,0.06,-0.54,-1.47,-1.48,-1.48
728,-1.51,-0.06,-1.52,-0.07,0.07,-0.56,-1.45,-1.45,-1.45
735,-1.48,-0.06,-1.48,-0.07,0.07,-0.58,-1.42,-1.42,-1.42
742,-1.45,-0.06,-1.45,-0.06,0.06,-0.60,-1.39,-1.39,-1.39
750,-1.41,-0.05,-1.42,-0.06,0.06,-0.62,-1.35,-1.36,-1.36
757,-1.39,-0.06,-1.39,-0.06,0.06,-0.64,-1.33,-1.33,-1.33
765,-1.36,-0.06,-1.36,-0.06,0.06,-0.66,-1.30,-1.30,-1.30
773,-1.32,-0.05,-1.33,-0.06,0.06,-0.69,-1.27,-1.28,-1.27
780,-1.30,-0.05,-1.31,-0.05,0.05,-0.71,-1.25,-1.25,-1.25
788,-1.28,-0.06,-1.28,-0.05,0.05,-0.73,-1.24,-1.23,-1.22
796,-1.24,-0.04,-1.25,-0.04,0.04,-0.75,-1.20,-1.21,-1.20
804,-1.23,-0.05,-1.22,-0.03,0.03,-0.78,-1.20,-1.19,-1.18
812,-1.19,-0.03,-1.18,-0.02,0.02,-0.80,-1.17,-1.16,-1.16
820,-1.15,-0.01,-1.15,-0.01,0.01,-0.82,-1.14,-1.14,-1.14
828,-1.12,-0.00,-1.11,0.01,-0.01,-0.84,-1.13,-1.12,-1.12
837,-1.08,0.02,-1.08,0.02,-0.02,-0.86,-1.10,-1.10,-1.10
845,-1.04,0.04,-1.04,0.04,-0.04,-0.88,-1.08,-1.08,-1.08
853,-1.00,0.06,-1.00,0.06,-0.06,-0.90,-1.06,-1.06,-1.06
862,-0.95,0.09,-0.96,0.08,-0.08,-0.92,-1.03,-1.04,-1.04
871,-0.90,0.12,-0.92,0.10,-0.10,-0.94,-1.00,-1.02,-1.02
879,-0.87,0.13,-0.88,0.13,-0.13,-0.96,-1.00,-1.00,-1.00
888,-0.82,0.16,-0.83,0.15,-0.15,-0.98,-0.98,-0.98,-0.98
897,-0.78,0.17,-0.78,0.18,-0.18,-0.99,-0.97,-0.96,-0.95
906,-0.74,0.19,-0.72,0.22,-0.22,-1.00,-0.96,-0.94,-0.93
915,-0.68,0.23,-0.66,0.26,-0.26,-1.02,-0.94,-0.92,-0.91
924,-0.62,0.26,-0.60,0.30,-0.30,-1.03,-0.92,-0.90,-0.89
933,-0.54,0.32,-0.54,0.34,-0.34,-1.03,-0.88,-0.88,-0.86
943,-0.47,0.37,-0.47,0.39,-0.39,-1.04,-0.86,-0.86,-0.84
952,-0.38,0.44,-0.39,0.44,-0.44,-1.04,-0.82,-0.83,-0.82
962,-0.32,0.48,-0.32,0.49,-0.49,-1.04,-0.82,-0.81,-0.80
971,-0.23,0.56,-0.24,0.55,-0.55,-1.04,-0.78,-0.79,-0.79
981,-0.16,0.61,-0.16,0.61,-0.61,-1.04,-0.77,-0.77,-0.77
991,-0.08,0.67,-0.08,0.66,-0.66,-1.03,-0.74,-0.75,-0.75
1001,0.01,0.74,-0.00,0.72,-0.72,-1.03,-0.71,-0.72,-0.73
1011,0.07,0.78,0.07,0.77,-0.77,-1.01,-0.71,-0.70,-0.71
1021,0.17,0.85,0.15,0.83,-0.83,-1.00,-0.66,-0.68,-0.68
1031,0.23,0.89,0.22,0.88,-0.88,-0.98,-0.65,-0.66,-0.66
1041,0.30,0.93,0.29,0.93,-0.93,-0.97,-0.63,-0.63,-0.63
1052,0.37,0.98,0.37,0.98,-0.98,-0.94,-0.61,-0.61,-0.61
1062,0.43,1.01,0.44,1.02,-1.02,-0.92,-0.59,-0.59,-0.58
1073,0.51,1.07,0.50,1.06,-1.06,-0.90,-0.55,-0.56,-0.56
1084,0.58,1.11,0.57,1.10,-1.10,-0.87,-0.52,-0.53,-0.53
1094,0.65,1.15,0.64,1.14,-1.14,-0.84,-0.49,-0.50,-0.50
1105,0.71,1.17,0.71,1.17,-1.17,-0.81,-0.47,-0.46,-0.46
1116,0.77,1.20,0.79,1.21,-1.21,-0.77,-0.44,-0.42,-0.43
1128,0.86,1.24,0.86,1.24,-1.24,-0.73,-0.38,-0.38,-0.38
1139,0.92,1.26,0.94,1.27,-1.27,-0.70,-0.35,-0.33,-0.34
1150,1.01,1.30,1.02,1.30,-1.30,-0.66,-0.29,-0.28,-0.29
1162,1.09,1.32,1.10,1.33,-1.33,-0.62,-0.24,-0.23,-0.23
1173,1.18,1.35,1.18,1.35,-1.35,-0.58,-0.18,-0.18,-0.17
1185,1.28,1.39,1.26,1.38,-1.38,-0.54,-0.10,-0.12,-0.11
1197,1.34,1.39,1.34,1.40,-1.40,-0.50,-0.06,-0.06,-0.05
1209,1.43,1.41,1.43,1.42,-1.42,-0.45,0.01,0.01,0.02
1221,1.50,1.42,1.51,1.44,-1.44,-0.41,0.06,0.07,0.08
1233,1.57,1.42,1.59,1.45,-1.45,-0.36,0.12,0.14,0.15
1246,1.65,1.44,1.66,1.45,-1.45,-0.31,0.19,0.20,0.21
1258,1.72,1.44,1.72,1.45,-1.45,-0.27,0.27,0.27,0.28
1271,1.79,1.45,1.78,1.44,-1.44,-0.22,0.35,0.34,0.34
1283,1.86,1.46,1.83,1.42,-1.42,-0.18,0.43,0.41,0.40
1296,1.89,1.42,1.87,1.40,-1.40,-0.13,0.49,0.48,0.47
1309,1.93,1.40,1.90,1.36,-1.36,-0.08,0.57,0.55,0.53
1322,1.95,1.35,1.92,1.31,-1.31,-0.03,0.64,0.62,0.60
1335,1.97,1.29,1.94,1.25,-1.25,0.01,0.72,0.69,0.68
1349,1.97,1.22,1.94,1.17,-1.17,0.07,0.79,0.77,0.75
1362,1.93,1.09,1.94,1.10,-1.10,0.11,0.83,0.85,0.83
1376,1.93,1.01,1.93,1.01,-1.01,0.16,0.92,0.93,0.92
1390,1.92,0.91,1.92,0.91,-0.91,0.21,1.00,1.01,1.01
1404,1.88,0.78,1.91,0.82,-0.82,0.26,1.06,1.10,1.10
1418,1.88,0.69,1.90,0.72,-0.72,0.31,1.16,1.19,1.19
1432,1.88,0.59,1.89,0.61,-0.61,0.36,1.26,1.28,1.29
1446,1.88,0.49,1.88,0.51,-0.51,0.41,1.37,1.37,1.39
1461,1.88,0.39,1.88,0.41,-0.41,0.47,1.46,1.46,1.48
1475,1.88,0.30,1.88,0.32,-0.32,0.51,1.56,1.56,1.58
1490,1.88,0.20,1.88,0.23,-0.23,0.57,1.65,1.65,1.68
1505,1.89,0.11,1.89,0.14,-0.14,0.62,1.75,1.75,1.78
1520,1.93,0.05,1.90,0.05,-0.05,0.67,1.88,1.85,1.88
1535,1.93,-0.05,1.92,-0.03,0.03,0.72,1.96,1.95,1.98
1550,1.93,-0.15,1.94,-0.11,0.11,0.77,2.04,2.05,2.08
1566,1.93,-0.25,1.97,-0.18,0.18,0.83,2.11,2.15,2.18
1582,1.98,-0.30,2.00,-0.25,0.25,0.88,2.23,2.25,2.28
1597,2.01,-0.37,2.03,-0.32,0.32,0.93,2.33,2.35,2.38
1613,2.07,-0.41,2.06,-0.39,0.39,0.98,2.46,2.45,2.48
1629,2.11,-0.47,2.10,-0.46,0.46,1.03,2.56,2.56,2.58
1646,2.16,-0.52,2.14,-0.52,0.52,1.08,2.68,2.66,2.68
1662,2.21,-0.57,2.18,-0.59,0.59,1.13,2.80,2.77,2.78
1679,2.24,-0.64,2.22,-0.65,0.65,1.19,2.89,2.88,2.88
1696,2.27,-0.72,2.26,-0.72,0.72,1.24,2.99,2.99,2.99
1713,2.30,-0.79,2.31,-0.79,0.79,1.29,3.09,3.10,3.09
1730,2.35,-0.85,2.35,-0.86,0.86,1.34,3.21,3.21,3.20
1747,2.38,-0.94,2.39,-0.93,0.93,1.38,3.31,3.33,3.32
1764,2.44,-1.00,2.43,-1.01,1.01,1.43,3.45,3.44,3.43
1782,2.48,-1.08,2.47,-1.09,1.09,1.48,3.56,3.56,3.56
