frequency,raw
20.00,5.16
20.20,5.14
20.40,5.11
20.61,5.09
20.81,5.06
21.02,5.04
21.23,5.03
21.44,5.02
21.66,5.01
21.87,5.00
22.09,4.99
22.31,4.98
22.54,4.98
22.76,4.97
22.99,4.97
23.22,4.94
23.45,4.92
23.69,4.89
23.92,4.86
24.16,4.83
24.40,4.79
24.65,4.76
24.89,4.72
25.14,4.71
25.39,4.70
25.65,4.69
25.91,4.68
26.16,4.67
26.43,4.67
26.69,4.66
26.96,4.65
27.23,4.63
27.50,4.61
27.77,4.59
28.05,4.56
28.33,4.54
28.62,4.51
28.90,4.48
29.19,4.44
29.48,4.41
29.78,4.37
30.08,4.33
30.38,4.28
30.68,4.24
30.99,4.19
31.30,4.15
31.61,4.12
31.93,4.08
32.24,4.04
32.57,4.00
32.89,3.95
33.22,3.91
33.55,3.86
33.89,3.81
34.23,3.76
34.57,3.71
34.92,3.66
35.27,3.61
35.62,3.56
35.97,3.51
36.33,3.47
36.70,3.43
37.06,3.38
37.43,3.34
37.81,3.29
38.19,3.25
38.57,3.21
38.95,3.16
39.34,3.13
39.74,3.09
40.14,3.05
40.54,3.01
40.94,2.97
41.35,2.93
41.76,2.89
42.18,2.86
42.60,2.84
43.03,2.82
43.46,2.81
43.90,2.79
44.33,2.78
44.78,2.77
45.23,2.76
45.68,2.75
46.13,2.74
46.60,2.73
47.06,2.73
47.53,2.74
48.01,2.74
48.49,2.74
48.97,2.74
49.46,2.74
49.96,2.74
50.46,2.74
50.96,2.75
51.47,2.75
51.99,2.76
52.51,2.76
53.03,2.76
53.56,2.77
54.10,2.77
54.64,2.77
55.18,2.77
55.74,2.76
56.29,2.76
56.86,2.76
57.42,2.76
58.00,2.75
58.58,2.74
59.16,2.74
59.76,2.73
60.35,2.72
60.96,2.71
61.57,2.70
62.18,2.70
62.80,2.68
63.43,2.67
64.07,2.66
64.71,2.63
65.35,2.60
66.01,2.57
66.67,2.53
67.33,2.49
68.01,2.44
68.69,2.38
69.37,2.33
70.07,2.29
70.77,2.24
71.48,2.19
72.19,2.15
72.91,2.11
73.64,2.06
74.38,2.01
75.12,1.96
75.87,1.91
76.63,1.84
77.40,1.78
78.17,1.72
78.95,1.65
79.74,1.60
80.54,1.54
81.35,1.49
82.16,1.43
82.98,1.36
83.81,1.29
84.65,1.22
85.50,1.15
86.35,1.07
87.22,1.00
88.09,0.93
88.97,0.86
89.86,0.79
90.76,0.71
91.66,0.64
92.58,0.56
93.51,0.47
94.44,0.39
95.39,0.31
96.34,0.22
97.30,0.14
98.28,0.04
99.26,-0.06
100.25,-0.16
101.25,-0.27
102.27,-0.38
103.29,-0.48
104.32,-0.58
105.37,-0.67
106.42,-0.75
107.48,-0.84
108.56,-0.92
109.64,-1.01
110.74,-1.09
111.85,-1.19
112.97,-1.28
114.10,-1.37
115.24,-1.46
116.39,-1.55
117.55,-1.64
118.73,-1.73
119.92,-1.80
121.12,-1.88
122.33,-1.95
123.55,-2.02
124.79,-2.10
126.03,-2.18
127.29,-2.28
128.57,-2.38
129.85,-2.50
131.15,-2.59
132.46,-2.68
133.79,-2.76
135.12,-2.83
136.48,-2.92
137.84,-3.01
139.22,-3.12
140.61,-3.23
142.02,-3.35
143.44,-3.46
144.87,-3.57
146.32,-3.67
147.78,-3.77
149.26,-3.86
150.75,-3.96
152.26,-4.07
153.78,-4.20
155.32,-4.33
156.88,-4.45
158.44,-4.55
160.03,-4.65
161.63,-4.72
163.24,-4.78
164.88,-4.85
166.53,-4.90
168.19,-4.95
169.87,-5.00
171.57,-5.05
173.29,-5.07
175.02,-5.09
176.77,-5.10
178.54,-5.11
180.32,-5.12
182.13,-5.13
183.95,-5.15
185.79,-5.17
187.65,-5.21
189.52,-5.27
191.42,-5.37
193.33,-5.47
195.27,-5.58
197.22,-5.69
199.19,-5.78
201.18,-5.87
203.19,-5.96
205.23,-6.04
207.28,-6.13
209.35,-6.21
211.44,-6.31
213.56,-6.41
215.69,-6.51
217.85,-6.62
220.03,-6.73
222.23,-6.85
224.45,-6.96
226.70,-7.06
228.96,-7.15
231.25,-7.23
233.57,-7.31
235.90,-7.38
238.26,-7.45
240.64,-7.52
243.05,-7.59
245.48,-7.66
247.93,-7.71
250.41,-7.75
252.92,-7.77
255.45,-7.76
258.00,-7.75
260.58,-7.72
263.19,-7.67
265.82,-7.62
268.48,-7.58
271.16,-7.54
273.87,-7.50
276.61,-7.47
279.38,-7.44
282.17,-7.40
284.99,-7.36
287.84,-7.32
290.72,-7.27
293.63,-7.23
296.57,-7.18
299.53,-7.13
302.53,-7.07
305.55,-7.02
308.61,-6.96
311.69,-6.91
314.81,-6.85
317.96,-6.80
321.14,-6.74
324.35,-6.69
327.59,-6.64
330.87,-6.59
334.18,-6.53
337.52,-6.48
340.90,-6.43
344.30,-6.37
347.75,-6.32
351.23,-6.26
354.74,-6.20
358.28,-6.13
361.87,-6.06
365.49,-5.99
369.14,-5.92
372.83,-5.84
376.56,-5.76
380.33,-5.68
384.13,-5.61
387.97,-5.53
391.85,-5.45
395.77,-5.38
399.73,-5.31
403.72,-5.23
407.76,-5.16
411.84,-5.10
415.96,-5.04
420.12,-4.98
424.32,-4.93
428.56,-4.88
432.85,-4.83
437.18,-4.78
441.55,-4.73
445.96,-4.67
450.42,-4.60
454.93,-4.49
459.48,-4.35
464.07,-4.17
468.71,-3.97
473.40,-3.76
478.13,-3.55
482.91,-3.35
487.74,-3.16
492.62,-2.96
497.55,-2.78
502.52,-2.61
507.55,-2.44
512.62,-2.27
517.75,-2.13
522.93,-2.01
528.16,-1.90
533.44,-1.80
538.77,-1.71
544.16,-1.64
549.60,-1.58
555.10,-1.51
560.65,-1.45
566.25,-1.40
571.92,-1.34
577.64,-1.29
583.41,-1.24
589.25,-1.18
595.14,-1.14
601.09,-1.10
607.10,-1.05
613.17,-1.00
619.30,-0.97
625.50,-0.93
631.75,-0.89
638.07,-0.85
644.45,-0.82
650.89,-0.78
657.40,-0.74
663.98,-0.71
670.62,-0.69
677.32,-0.66
684.10,-0.63
690.94,-0.60
697.85,-0.58
704.83,-0.56
711.87,-0.53
718.99,-0.51
726.18,-0.48
733.44,-0.44
740.78,-0.39
748.19,-0.35
755.67,-0.31
763.23,-0.28
770.86,-0.26
778.57,-0.24
786.35,-0.22
794.22,-0.21
802.16,-0.21
810.18,-0.20
818.28,-0.20
826.46,-0.21
834.73,-0.20
843.08,-0.17
851.51,-0.15
860.02,-0.12
868.62,-0.08
877.31,-0.06
886.08,-0.04
894.94,-0.04
903.89,-0.03
912.93,-0.03
922.06,-0.03
931.28,-0.03
940.59,-0.03
950.00,-0.03
959.50,-0.03
969.09,-0.02
978.78,0.00
988.57,0.00
998.46,0.00
1008.44,-0.00
1018.53,-0.02
1028.71,-0.04
1039.00,-0.06
1049.39,-0.09
1059.88,-0.12
1070.48,-0.14
1081.19,-0.15
1092.00,-0.17
1102.92,-0.19
1113.95,-0.21
1125.09,-0.23
1136.34,-0.25
1147.70,-0.27
1159.18,-0.29
1170.77,-0.31
1182.48,-0.31
1194.30,-0.32
1206.25,-0.32
1218.31,-0.33
1230.49,-0.33
1242.80,-0.33
1255.22,-0.34
1267.78,-0.33
1280.45,-0.32
1293.26,-0.32
1306.19,-0.32
1319.25,-0.32
1332.45,-0.32
1345.77,-0.30
1359.23,-0.29
1372.82,-0.27
1386.55,-0.21
1400.41,-0.15
1414.42,-0.06
1428.56,0.06
1442.85,0.18
1457.28,0.29
1471.85,0.40
1486.57,0.50
1501.43,0.57
1516.45,0.64
1531.61,0.68
1546.93,0.71
1562.40,0.74
1578.02,0.76
1593.80,0.77
1609.74,0.77
1625.84,0.77
1642.10,0.78
1658.52,0.78
1675.10,0.80
1691.85,0.81
1708.77,0.83
1725.86,0.85
1743.12,0.86
1760.55,0.88
1778.15,0.90
1795.94,0.92
1813.90,0.94
1832.03,0.94
1850.36,0.94
1868.86,0.96
1887.55,0.99
1906.42,1.01
1925.49,1.04
1944.74,1.07
1964.19,1.09
1983.83,1.11
2003.67,1.14
2023.71,1.18
2043.94,1.25
2064.38,1.32
2085.03,1.42
2105.88,1.52
2126.94,1.65
2148.20,1.78
2169.69,1.92
2191.38,2.08
2213.30,2.24
2235.43,2.40
2257.78,2.57
2280.36,2.74
2303.17,2.91
2326.20,3.07
2349.46,3.23
2372.95,3.41
2396.68,3.61
2420.65,3.82
2444.86,4.03
2469.31,4.27
2494.00,4.52
2518.94,4.76
2544.13,5.01
2569.57,5.26
2595.27,5.51
2621.22,5.75
2647.43,5.99
2673.90,6.23
2700.64,6.46
2727.65,6.70
2754.93,6.94
2782.48,7.18
2810.30,7.43
2838.40,7.67
2866.79,7.88
2895.46,8.10
2924.41,8.29
2953.65,8.46
2983.19,8.62
3013.02,8.77
3043.15,8.91
3073.58,9.01
3104.32,9.07
3135.36,9.09
3166.72,9.04
3198.38,8.93
3230.37,8.76
3262.67,8.56
3295.30,8.31
3328.25,8.06
3361.53,7.82
3395.15,7.62
3429.10,7.46
3463.39,7.30
3498.03,7.12
3533.01,6.89
3568.34,6.61
3604.02,6.25
3640.06,5.83
3676.46,5.37
3713.22,4.87
3750.36,4.36
3787.86,3.86
3825.74,3.36
3864.00,2.86
3902.64,2.33
3941.66,1.79
3981.08,1.23
4020.89,0.65
4061.10,0.07
4101.71,-0.52
4142.73,-1.10
4184.15,-1.67
4226.00,-2.22
4268.26,-2.75
4310.94,-3.25
4354.05,-3.71
4397.59,-4.15
4441.56,-4.59
4485.98,-5.03
4530.84,-5.52
4576.15,-6.04
4621.91,-6.58
4668.13,-7.14
4714.81,-7.66
4761.96,-8.12
4809.58,-8.44
4857.67,-8.55
4906.25,-8.52
4955.31,-8.35
5004.87,-8.12
5054.91,-7.91
5105.46,-7.76
5156.52,-7.65
5208.08,-7.49
5260.16,-7.25
5312.77,-6.77
5365.89,-6.11
5419.55,-5.36
5473.75,-4.59
5528.49,-3.93
5583.77,-3.38
5639.61,-3.04
5696.00,-2.84
5752.96,-2.69
5810.49,-2.55
5868.60,-2.33
5927.28,-2.05
5986.56,-1.69
6046.42,-1.25
6106.89,-0.81
6167.96,-0.39
6229.64,-0.05
6291.93,0.24
6354.85,0.50
6418.40,0.75
6482.58,1.00
6547.41,1.27
6612.88,1.54
6679.01,1.81
6745.80,2.06
6813.26,2.31
6881.39,2.45
6950.21,2.50
7019.71,2.49
7089.91,2.29
7160.81,2.00
7232.41,1.62
7304.74,1.17
7377.79,0.74
7451.56,0.34
7526.08,0.05
7601.34,-0.13
7677.35,-0.22
7754.13,-0.25
7831.67,-0.21
7909.98,-0.15
7989.08,-0.07
8068.98,0.03
8149.67,0.11
8231.16,0.18
8313.47,0.22
8396.61,0.18
8480.57,0.10
8565.38,-0.01
8651.03,-0.12
8737.54,-0.24
8824.92,-0.36
8913.17,-0.33
9002.30,-0.31
9092.32,-0.46
9183.25,-0.43
9275.08,-0.25
9367.83,-0.42
9461.51,-0.73
9556.12,-0.96
9651.68,-1.16
9748.20,-1.36
9845.68,-1.56
9944.14,-1.72
10043.58,-1.77
10144.02,-1.74
10245.46,-1.64
10347.91,-1.51
10451.39,-1.39
10555.91,-1.22
10661.46,-0.99
10768.08,-0.79
10875.76,-0.65
10984.52,-0.58
11094.36,-0.58
11205.31,-0.59
11317.36,-0.49
11430.53,-0.30
11544.84,-0.62
11660.29,-1.19
11776.89,-1.20
11894.66,-1.35
12013.60,-1.72
12133.74,-1.76
12255.08,-1.92
12377.63,-2.13
12501.41,-2.30
12626.42,-2.49
12752.68,-2.71
12880.21,-2.95
13009.01,-3.15
13139.10,-3.31
13270.49,-3.37
13403.20,-3.31
13537.23,-3.30
13672.60,-3.36
13809.33,-3.61
13947.42,-3.94
14086.90,-4.30
14227.77,-4.68
14370.04,-5.10
14513.74,-5.51
14658.88,-5.93
14805.47,-6.28
14953.52,-6.56
15103.06,-6.78
15254.09,-6.94
15406.63,-7.09
15560.70,-7.24
15716.30,-7.42
15873.47,-7.62
16032.20,-7.86
16192.52,-8.12
16354.45,-8.42
16517.99,-8.74
16683.17,-9.08
16850.01,-9.45
17018.51,-9.83
17188.69,-10.20
17360.58,-10.57
17534.18,-10.98
17709.53,-11.40
17886.62,-11.82
18065.49,-12.20
18246.14,-12.52
18428.60,-12.74
18612.89,-12.80
18799.02,-12.76
18987.01,-12.60
19176.88,-12.44
19368.65,-12.36
19562.33,-12.40
19757.96,-12.61
19955.54,-12.95
