frequency,raw,error,smoothed,error_smoothed,equalization,parametric_eq,equalized_raw,equalized_smoothed,target
20,-16.62,-19.55,-16.30,-19.20,6.00,3.05,-10.62,-10.30,2.92
21,-15.36,-18.28,-15.65,-18.55,6.00,3.50,-9.36,-9.65,2.92
22,-14.96,-17.88,-15.02,-17.92,6.00,3.99,-8.96,-9.02,2.91
23,-14.38,-17.29,-14.40,-17.30,6.00,4.52,-8.38,-8.40,2.91
24,-13.74,-16.65,-13.80,-16.69,6.00,5.08,-7.74,-7.80,2.90
25,-13.31,-16.21,-13.21,-16.10,6.00,5.66,-7.31,-7.21,2.90
26,-12.55,-15.45,-12.63,-15.52,6.00,6.24,-6.55,-6.63,2.89
27,-12.08,-14.97,-12.07,-14.95,6.00,6.80,-6.08,-6.07,2.88
28,-11.48,-14.36,-11.53,-14.40,6.00,7.29,-5.48,-5.53,2.88
29,-10.90,-13.77,-11.00,-13.87,6.00,7.69,-4.90,-5.00,2.87
30,-10.45,-13.32,-10.49,-13.35,6.00,7.96,-4.45,-4.49,2.86
31,-10.19,-13.05,-10.01,-12.84,6.00,8.08,-4.19,-4.01,2.85
32,-9.51,-12.36,-9.53,-12.36,6.00,8.05,-3.51,-3.53,2.84
33,-9.02,-11.86,-9.06,-11.88,6.00,7.89,-3.02,-3.06,2.83
34,-8.82,-11.65,-8.61,-11.42,6.00,7.62,-2.82,-2.61,2.82
35,-8.11,-10.93,-8.17,-10.97,6.00,7.29,-2.11,-2.17,2.81
36,-7.56,-10.37,-7.75,-10.54,6.00,6.93,-1.56,-1.75,2.80
37,-7.42,-10.22,-7.33,-10.11,6.00,6.55,-1.42,-1.33,2.79
38,-6.83,-9.61,-6.94,-9.71,6.00,6.18,-0.83,-0.94,2.78
39,-6.51,-9.28,-6.55,-9.31,6.00,5.83,-0.51,-0.55,2.77
40,-6.21,-8.97,-6.17,-8.93,6.00,5.49,-0.21,-0.17,2.75
41,-5.99,-8.73,-5.82,-8.56,6.00,5.19,0.01,0.18,2.74
42,-5.39,-8.12,-5.50,-8.21,6.00,4.90,0.61,0.50,2.72
43,-5.09,-7.80,-5.16,-7.86,6.00,4.64,0.91,0.84,2.71
44,-4.79,-7.48,-4.84,-7.53,6.00,4.41,1.21,1.16,2.69
45,-4.50,-7.18,-4.55,-7.20,6.00,4.20,1.50,1.45,2.67
46,-4.24,-6.90,-4.25,-6.87,6.00,4.01,1.76,1.75,2.65
47,-3.98,-6.62,-3.94,-6.55,5.95,3.84,1.97,2.01,2.64
48,-3.67,-6.29,-3.65,-6.23,5.85,3.69,2.17,2.20,2.62
49,-3.51,-6.11,-3.34,-5.92,5.69,3.55,2.18,2.35,2.60
50,-3.12,-5.70,-3.04,-5.60,5.49,3.42,2.37,2.45,2.58
51,-2.62,-5.18,-2.74,-5.28,5.25,3.31,2.63,2.51,2.55
52,-2.42,-4.96,-2.46,-4.97,4.97,3.21,2.55,2.51,2.53
53,-2.27,-4.78,-2.17,-4.66,4.66,3.11,2.39,2.49,2.51
54,-1.81,-4.30,-1.88,-4.35,4.35,3.02,2.54,2.47,2.49
55,-1.64,-4.11,-1.60,-4.04,4.04,2.94,2.40,2.45,2.46
56,-1.29,-3.73,-1.31,-3.74,3.74,2.86,2.45,2.43,2.44
57,-0.97,-3.38,-1.05,-3.45,3.45,2.78,2.48,2.40,2.41
58,-0.78,-3.17,-0.79,-3.17,3.17,2.70,2.38,2.38,2.38
59,-0.49,-2.85,-0.53,-2.89,2.89,2.62,2.40,2.36,2.36
60,-0.28,-2.61,-0.30,-2.63,2.63,2.54,2.34,2.32,2.33
61,-0.15,-2.45,-0.08,-2.37,2.37,2.46,2.22,2.29,2.30
62,0.13,-2.15,0.13,-2.13,2.13,2.38,2.26,2.27,2.27
63,0.28,-1.97,0.33,-1.91,1.91,2.29,2.18,2.24,2.24
64,0.46,-1.76,0.51,-1.70,1.70,2.21,2.15,2.21,2.21
65,0.76,-1.42,0.67,-1.50,1.50,2.12,2.26,2.17,2.18
66,0.80,-1.35,0.82,-1.32,1.32,2.03,2.11,2.14,2.15
67,1.16,-0.96,0.95,-1.15,1.15,1.93,2.30,2.10,2.12
68,1.08,-1.01,1.08,-0.99,0.99,1.84,2.07,2.07,2.08
69,1.21,-0.85,1.19,-0.84,0.84,1.74,2.05,2.04,2.05
70,1.24,-0.78,1.30,-0.71,0.71,1.65,1.95,2.01,2.02
71,1.34,-0.65,1.38,-0.58,0.58,1.55,1.92,1.97,1.98
72,1.49,-0.46,1.47,-0.47,0.47,1.45,1.95,1.93,1.95
73,1.52,-0.40,1.54,-0.36,0.36,1.35,1.88,1.90,1.92
74,1.52,-0.37,1.61,-0.26,0.26,1.26,1.78,1.87,1.88
75,1.69,-0.16,1.66,-0.17,0.17,1.16,1.86,1.83,1.85
76,1.64,-0.18,1.71,-0.09,0.09,1.06,1.72,1.80,1.81
77,1.85,0.07,1.75,-0.01,0.01,0.97,1.86,1.76,1.78
78,1.85,0.11,1.79,0.06,-0.06,0.87,1.79,1.74,1.74
79,1.78,0.07,1.83,0.12,-0.12,0.78,1.66,1.71,1.70
80,1.84,0.17,1.85,0.18,-0.18,0.69,1.66,1.68,1.67
81,2.01,0.37,1.86,0.22,-0.22,0.59,1.78,1.63,1.63
82,1.88,0.28,1.85,0.26,-0.26,0.50,1.61,1.59,1.60
83,1.84,0.28,1.86,0.30,-0.30,0.41,1.53,1.55,1.56
84,1.84,0.31,1.85,0.34,-0.34,0.32,1.50,1.51,1.52
85,1.84,0.35,1.85,0.38,-0.38,0.23,1.46,1.47,1.49
86,1.85,0.40,1.84,0.42,-0.42,0.15,1.43,1.43,1.45
87,1.85,0.43,1.84,0.46,-0.46,0.06,1.38,1.38,1.41
88,1.85,0.47,1.86,0.51,-0.51,-0.03,1.33,1.35,1.38
89,1.81,0.46,1.89,0.57,-0.57,-0.11,1.23,1.32,1.34
90,1.81,0.50,1.92,0.64,-0.64,-0.20,1.16,1.27,1.31
91,1.95,0.68,1.97,0.73,-0.73,-0.28,1.22,1.24,1.27
92,2.05,0.81,2.02,0.82,-0.82,-0.36,1.23,1.21,1.23
93,2.05,0.85,2.09,0.91,-0.91,-0.44,1.14,1.18,1.20
94,2.15,0.98,2.16,1.01,-1.01,-0.53,1.14,1.16,1.16
95,2.21,1.08,2.22,1.10,-1.10,-0.61,1.10,1.12,1.13
96,2.34,1.24,2.28,1.20,-1.20,-0.69,1.14,1.08,1.09
97,2.39,1.33,2.34,1.29,-1.29,-0.77,1.10,1.05,1.06
98,2.38,1.35,2.39,1.36,-1.36,-0.84,1.01,1.03,1.03
99,2.51,1.51,2.43,1.43,-1.43,-0.92,1.08,1.01,0.99
100,2.49,1.53,2.44,1.48,-1.48,-1.00,1.00,0.96,0.96
101,2.39,1.46,2.42,1.52,-1.52,-1.07,0.87,0.91,0.92
102,2.58,1.68,2.40,1.54,-1.54,-1.15,1.04,0.86,0.89
104,2.44,1.61,2.38,1.55,-1.55,-1.29,0.89,0.83,0.83
105,2.21,1.41,2.34,1.54,-1.54,-1.36,0.66,0.80,0.80
106,2.33,1.56,2.30,1.53,-1.53,-1.43,0.80,0.77,0.76
107,2.34,1.60,2.24,1.50,-1.50,-1.50,0.83,0.74,0.73
108,2.16,1.45,2.18,1.48,-1.48,-1.56,0.68,0.70,0.70
109,2.01,1.34,2.11,1.45,-1.45,-1.62,0.56,0.66,0.67
110,1.89,1.25,2.03,1.42,-1.42,-1.68,0.47,0.62,0.64
111,2.01,1.39,1.99,1.40,-1.40,-1.74,0.61,0.59,0.61
112,2.11,1.52,1.95,1.39,-1.39,-1.80,0.72,0.56,0.58
113,2.00,1.44,1.90,1.39,-1.39,-1.85,0.61,0.52,0.56
114,1.87,1.34,1.89,1.40,-1.40,-1.90,0.47,0.49,0.53
115,1.87,1.36,1.89,1.43,-1.43,-1.95,0.44,0.47,0.51
117,1.77,1.31,1.90,1.47,-1.47,-2.04,0.30,0.43,0.46
118,1.77,1.33,1.93,1.52,-1.52,-2.08,0.24,0.41,0.44
119,1.96,1.54,1.99,1.59,-1.59,-2.11,0.36,0.40,0.42
120,2.08,1.68,2.05,1.67,-1.67,-2.14,0.41,0.38,0.40
121,2.19,1.80,2.11,1.75,-1.75,-2.18,0.44,0.36,0.38
123,2.00,1.65,2.16,1.83,-1.83,-2.23,0.16,0.33,0.34
124,2.23,1.90,2.23,1.92,-1.92,-2.25,0.31,0.31,0.33
125,2.42,2.10,2.30,2.00,-2.00,-2.27,0.42,0.30,0.32
126,2.43,2.12,2.36,2.08,-2.08,-2.28,0.35,0.28,0.31
128,2.52,2.25,2.41,2.14,-2.14,-2.31,0.37,0.26,0.27
129,2.56,2.30,2.45,2.20,-2.20,-2.31,0.35,0.25,0.26
130,2.57,2.32,2.49,2.26,-2.26,-2.32,0.31,0.23,0.25
131,2.45,2.21,2.51,2.30,-2.30,-2.32,0.14,0.20,0.23
133,2.45,2.25,2.51,2.34,-2.34,-2.32,0.11,0.18,0.20
134,2.46,2.27,2.53,2.36,-2.36,-2.32,0.10,0.17,0.19
135,2.46,2.28,2.54,2.38,-2.38,-2.32,0.08,0.17,0.17
137,2.47,2.32,2.52,2.39,-2.39,-2.30,0.07,0.13,0.14
138,2.47,2.34,2.50,2.40,-2.40,-2.29,0.06,0.10,0.13
140,2.54,2.44,2.47,2.41,-2.41,-2.27,0.13,0.06,0.10
141,2.59,2.50,2.44,2.41,-2.41,-2.26,0.18,0.03,0.08
142,2.52,2.45,2.42,2.41,-2.41,-2.25,0.10,0.00,0.07
144,2.37,2.33,2.41,2.42,-2.42,-2.22,-0.05,-0.01,0.04
145,2.37,2.34,2.40,2.43,-2.43,-2.20,-0.06,-0.03,0.02
147,2.44,2.44,2.40,2.43,-2.43,-2.17,0.00,-0.03,-0.00
148,2.25,2.26,2.38,2.42,-2.42,-2.16,-0.18,-0.04,-0.02
150,2.12,2.16,2.34,2.40,-2.40,-2.13,-0.28,-0.06,-0.04
151,2.17,2.22,2.29,2.36,-2.36,-2.11,-0.19,-0.07,-0.06
153,2.17,2.25,2.22,2.30,-2.30,-2.08,-0.13,-0.08,-0.08
154,2.23,2.32,2.11,2.22,-2.22,-2.07,0.01,-0.11,-0.09
156,2.27,2.38,1.98,2.12,-2.12,-2.04,0.15,-0.14,-0.11
157,2.13,2.25,1.83,2.01,-2.01,-2.02,0.12,-0.17,-0.12
159,1.89,2.03,1.68,1.88,-1.88,-2.00,0.00,-0.20,-0.14
160,1.77,1.92,1.51,1.75,-1.75,-1.98,0.02,-0.24,-0.15
162,1.30,1.47,1.35,1.61,-1.61,-1.96,-0.31,-0.26,-0.18
164,1.09,1.28,1.20,1.48,-1.48,-1.94,-0.39,-0.28,-0.20
165,0.97,1.18,1.06,1.37,-1.37,-1.93,-0.40,-0.31,-0.21
167,0.66,0.89,0.93,1.27,-1.27,-1.91,-0.62,-0.35,-0.23
169,0.50,0.75,0.84,1.21,-1.21,-1.89,-0.71,-0.37,-0.25
170,0.55,0.81,0.78,1.17,-1.17,-1.88,-0.63,-0.39,-0.27
172,0.67,0.95,0.76,1.16,-1.16,-1.87,-0.50,-0.40,-0.29
174,0.79,1.09,0.79,1.19,-1.19,-1.86,-0.40,-0.40,-0.31
175,0.86,1.17,0.85,1.24,-1.24,-1.85,-0.39,-0.39,-0.32
177,1.01,1.34,0.92,1.32,-1.32,-1.85,-0.31,-0.40,-0.33
179,1.12,1.46,1.02,1.41,-1.41,-1.84,-0.29,-0.38,-0.34
181,1.28,1.63,1.13,1.50,-1.50,-1.84,-0.22,-0.37,-0.35
183,1.39,1.74,1.24,1.59,-1.59,-1.83,-0.20,-0.35,-0.36
184,1.44,1.79,1.34,1.67,-1.67,-1.83,-0.24,-0.33,-0.35
186,1.45,1.80,1.42,1.75,-1.75,-1.83,-0.30,-0.33,-0.35
188,1.47,1.81,1.48,1.81,-1.81,-1.84,-0.35,-0.34,-0.35
190,1.45,1.79,1.52,1.86,-1.86,-1.84,-0.41,-0.34,-0.34
192,1.42,1.75,1.55,1.89,-1.89,-1.84,-0.48,-0.34,-0.34
194,1.51,1.84,1.56,1.91,-1.91,-1.85,-0.40,-0.35,-0.33
196,1.68,2.00,1.56,1.92,-1.92,-1.86,-0.24,-0.35,-0.33
198,1.68,2.00,1.56,1.92,-1.92,-1.87,-0.24,-0.36,-0.33
200,1.55,1.87,1.56,1.92,-1.92,-1.88,-0.37,-0.35,-0.32
202,1.56,1.88,1.56,1.92,-1.92,-1.89,-0.36,-0.35,-0.32
204,1.59,1.91,1.56,1.92,-1.92,-1.90,-0.33,-0.35,-0.33
206,1.60,1.93,1.56,1.92,-1.92,-1.91,-0.32,-0.35,-0.33
208,1.47,1.80,1.56,1.91,-1.91,-1.92,-0.45,-0.35,-0.34
210,1.44,1.78,1.55,1.91,-1.91,-1.93,-0.47,-0.35,-0.34
212,1.52,1.87,1.54,1.90,-1.90,-1.94,-0.38,-0.36,-0.35
214,1.56,1.92,1.51,1.89,-1.89,-1.96,-0.34,-0.38,-0.36
216,1.55,1.92,1.49,1.89,-1.89,-1.97,-0.34,-0.39,-0.37
218,1.55,1.93,1.48,1.88,-1.88,-1.98,-0.33,-0.39,-0.38
221,1.48,1.87,1.47,1.87,-1.87,-2.00,-0.39,-0.40,-0.40
223,1.44,1.84,1.45,1.86,-1.86,-2.01,-0.42,-0.41,-0.40
225,1.44,1.84,1.43,1.85,-1.85,-2.01,-0.41,-0.42,-0.41
227,1.44,1.84,1.42,1.84,-1.84,-2.02,-0.40,-0.41,-0.41
229,1.44,1.84,1.42,1.82,-1.82,-2.03,-0.39,-0.40,-0.41
232,1.35,1.75,1.41,1.81,-1.81,-2.04,-0.47,-0.41,-0.41
234,1.36,1.76,1.39,1.81,-1.81,-2.04,-0.45,-0.41,-0.40
236,1.38,1.77,1.39,1.80,-1.80,-2.04,-0.42,-0.41,-0.39
239,1.38,1.76,1.39,1.79,-1.79,-2.04,-0.41,-0.39,-0.38
241,1.31,1.68,1.40,1.78,-1.78,-2.04,-0.47,-0.38,-0.37
244,1.43,1.78,1.41,1.77,-1.77,-2.04,-0.34,-0.36,-0.36
246,1.45,1.79,1.41,1.76,-1.76,-2.03,-0.31,-0.35,-0.34
248,1.47,1.79,1.41,1.75,-1.75,-2.03,-0.28,-0.34,-0.33
251,1.45,1.76,1.40,1.73,-1.73,-2.01,-0.29,-0.33,-0.32
253,1.40,1.70,1.39,1.72,-1.72,-2.00,-0.32,-0.32,-0.30
256,1.42,1.71,1.39,1.70,-1.70,-1.98,-0.28,-0.31,-0.30
259,1.43,1.72,1.38,1.68,-1.68,-1.96,-0.25,-0.30,-0.29
261,1.37,1.65,1.36,1.65,-1.65,-1.95,-0.29,-0.30,-0.28
264,1.31,1.59,1.33,1.62,-1.62,-1.92,-0.32,-0.29,-0.28
266,1.24,1.52,1.30,1.59,-1.59,-1.90,-0.36,-0.29,-0.28
269,1.23,1.51,1.26,1.56,-1.56,-1.87,-0.33,-0.29,-0.29
272,1.22,1.50,1.22,1.51,-1.51,-1.84,-0.30,-0.29,-0.29
274,1.22,1.50,1.19,1.47,-1.47,-1.81,-0.25,-0.28,-0.29
277,1.22,1.51,1.15,1.42,-1.42,-1.78,-0.20,-0.27,-0.29
280,1.19,1.48,1.11,1.38,-1.38,-1.74,-0.19,-0.27,-0.29
283,1.04,1.32,1.06,1.34,-1.34,-1.70,-0.30,-0.28,-0.29
286,1.02,1.30,1.00,1.31,-1.31,-1.66,-0.30,-0.31,-0.29
288,1.03,1.30,0.97,1.29,-1.29,-1.64,-0.26,-0.32,-0.28
291,1.04,1.31,0.96,1.29,-1.29,-1.60,-0.25,-0.33,-0.27
294,0.96,1.22,0.96,1.30,-1.30,-1.56,-0.35,-0.34,-0.26
297,0.97,1.22,1.00,1.34,-1.34,-1.52,-0.38,-0.34,-0.25
300,0.98,1.22,1.08,1.41,-1.41,-1.48,-0.43,-0.33,-0.24
303,0.98,1.21,1.17,1.50,-1.50,-1.44,-0.52,-0.33,-0.23
306,1.03,1.25,1.29,1.60,-1.60,-1.40,-0.58,-0.32,-0.22
309,1.14,1.35,1.42,1.72,-1.72,-1.36,-0.58,-0.29,-0.22
312,1.37,1.57,1.56,1.83,-1.83,-1.32,-0.47,-0.27,-0.21
316,1.85,2.05,1.69,1.94,-1.94,-1.27,-0.10,-0.26,-0.20
319,2.01,2.21,1.79,2.04,-2.04,-1.23,-0.04,-0.25,-0.20
322,2.12,2.31,1.88,2.12,-2.12,-1.19,-0.01,-0.25,-0.20
325,2.28,2.47,1.95,2.18,-2.18,-1.16,0.10,-0.23,-0.20
328,2.23,2.42,1.99,2.20,-2.20,-1.12,0.02,-0.21,-0.20
332,2.08,2.27,1.99,2.20,-2.20,-1.08,-0.12,-0.21,-0.20
335,2.01,2.21,1.96,2.16,-2.16,-1.04,-0.16,-0.20,-0.20
338,1.91,2.11,1.90,2.10,-2.10,-1.01,-0.20,-0.20,-0.20
342,1.68,1.88,1.79,2.02,-2.02,-0.97,-0.34,-0.22,-0.20
345,1.54,1.74,1.67,1.92,-1.92,-0.94,-0.38,-0.24,-0.20
349,1.42,1.62,1.55,1.80,-1.80,-0.90,-0.39,-0.25,-0.20
352,1.40,1.59,1.44,1.68,-1.68,-0.87,-0.29,-0.25,-0.20
356,1.34,1.53,1.32,1.57,-1.57,-0.83,-0.23,-0.25,-0.19
359,1.13,1.31,1.23,1.47,-1.47,-0.81,-0.34,-0.24,-0.19
363,1.07,1.25,1.16,1.38,-1.38,-0.77,-0.31,-0.22,-0.18
366,1.13,1.30,1.10,1.30,-1.30,-0.74,-0.17,-0.20,-0.18
370,1.05,1.21,1.04,1.23,-1.23,-0.71,-0.19,-0.19,-0.17
374,1.02,1.18,0.99,1.17,-1.17,-0.68,-0.16,-0.18,-0.16
377,1.12,1.27,0.97,1.12,-1.12,-0.66,-0.00,-0.15,-0.15
381,0.96,1.10,0.93,1.07,-1.07,-0.62,-0.12,-0.14,-0.15
385,0.79,0.93,0.89,1.03,-1.03,-0.60,-0.25,-0.14,-0.14
389,0.85,0.98,0.85,1.00,-1.00,-0.57,-0.15,-0.15,-0.14
393,0.88,1.01,0.82,0.97,-0.97,-0.54,-0.09,-0.15,-0.13
397,0.84,0.97,0.80,0.94,-0.94,-0.51,-0.10,-0.14,-0.13
401,0.68,0.81,0.76,0.91,-0.91,-0.49,-0.23,-0.14,-0.13
405,0.73,0.86,0.74,0.88,-0.88,-0.46,-0.16,-0.15,-0.13
409,0.77,0.90,0.71,0.86,-0.86,-0.44,-0.09,-0.15,-0.14
413,0.77,0.90,0.69,0.83,-0.83,-0.41,-0.07,-0.14,-0.14
417,0.57,0.70,0.68,0.81,-0.81,-0.39,-0.24,-0.13,-0.13
421,0.58,0.70,0.67,0.78,-0.78,-0.37,-0.21,-0.12,-0.13
425,0.68,0.79,0.64,0.76,-0.76,-0.34,-0.09,-0.12,-0.11
430,0.69,0.78,0.63,0.74,-0.74,-0.32,-0.05,-0.11,-0.10
434,0.71,0.78,0.63,0.71,-0.71,-0.29,-0.00,-0.08,-0.07
438,0.67,0.71,0.65,0.68,-0.68,-0.27,-0.01,-0.03,-0.04
443,0.65,0.65,0.66,0.65,-0.65,-0.25,-0.01,0.01,-0.01
447,0.62,0.58,0.65,0.62,-0.62,-0.23,-0.01,0.03,0.04
451,0.67,0.58,0.67,0.59,-0.59,-0.21,0.07,0.07,0.09
456,0.61,0.46,0.70,0.56,-0.56,-0.18,0.05,0.15,0.14
460,0.55,0.35,0.73,0.52,-0.52,-0.17,0.03,0.21,0.20
465,0.78,0.52,0.74,0.48,-0.48,-0.14,0.29,0.25,0.26
470,0.95,0.63,0.75,0.45,-0.45,-0.12,0.50,0.31,0.32
474,0.85,0.47,0.76,0.40,-0.40,-0.10,0.44,0.35,0.37
479,0.77,0.34,0.75,0.36,-0.36,-0.08,0.41,0.40,0.43
484,0.62,0.14,0.78,0.31,-0.31,-0.06,0.30,0.46,0.48
489,0.77,0.24,0.78,0.27,-0.27,-0.03,0.50,0.51,0.53
494,0.98,0.41,0.77,0.23,-0.23,-0.01,0.75,0.54,0.57
499,0.85,0.25,0.77,0.18,-0.18,0.01,0.66,0.58,0.60
504,0.55,-0.08,0.76,0.13,-0.13,0.03,0.41,0.62,0.63
509,0.62,-0.03,0.71,0.08,-0.08,0.05,0.53,0.63,0.65
514,0.72,0.06,0.65,0.03,-0.03,0.07,0.68,0.62,0.66
519,0.50,-0.16,0.59,-0.02,0.02,0.09,0.51,0.61,0.66
524,0.63,-0.02,0.55,-0.07,0.07,0.11,0.70,0.62,0.65
529,0.73,0.09,0.49,-0.13,0.13,0.14,0.86,0.62,0.64
535,0.29,-0.33,0.43,-0.19,0.19,0.16,0.48,0.62,0.61
540,0.33,-0.26,0.33,-0.25,0.25,0.18,0.58,0.59,0.59
545,0.47,-0.09,0.22,-0.32,0.32,0.20,0.79,0.54,0.55
551,0.01,-0.51,0.12,-0.39,0.39,0.23,0.40,0.51,0.52
556,-0.14,-0.63,0.04,-0.47,0.47,0.25,0.32,0.51,0.49
562,-0.04,-0.50,-0.09,-0.55,0.55,0.28,0.50,0.45,0.45
568,-0.13,-0.56,-0.21,-0.63,0.63,0.30,0.49,0.41,0.43
573,-0.22,-0.62,-0.30,-0.71,0.71,0.32,0.48,0.40,0.40
579,-0.37,-0.76,-0.42,-0.79,0.79,0.35,0.41,0.37,0.38
585,-0.55,-0.92,-0.52,-0.87,0.87,0.38,0.32,0.35,0.37
591,-0.79,-1.16,-0.58,-0.95,0.95,0.40,0.16,0.37,0.37
596,-0.86,-1.23,-0.66,-1.03,1.03,0.43,0.17,0.37,0.37
602,-0.62,-1.00,-0.74,-1.11,1.11,0.45,0.49,0.37,0.38
608,-0.64,-1.04,-0.79,-1.19,1.19,0.48,0.54,0.40,0.39
615,-1.04,-1.46,-0.85,-1.27,1.27,0.51,0.22,0.41,0.42
621,-0.77,-1.22,-0.91,-1.34,1.34,0.54,0.57,0.43,0.44
627,-0.76,-1.24,-0.95,-1.42,1.42,0.57,0.65,0.47,0.48
633,-1.14,-1.66,-0.98,-1.49,1.49,0.60,0.34,0.51,0.52
639,-0.97,-1.54,-0.99,-1.56,1.56,0.63,0.58,0.56,0.56
646,-0.83,-1.44,-1.00,-1.62,1.62,0.67,0.79,0.62,0.61
652,-1.18,-1.84,-1.02,-1.69,1.69,0.70,0.50,0.67,0.66
659,-1.19,-1.91,-1.04,-1.74,1.74,0.74,0.55,0.70,0.71
665,-0.99,-1.76,-1.06,-1.79,1.79,0.77,0.80,0.73,0.76
672,-1.00,-1.82,-1.05,-1.83,1.83,0.80,0.83,0.78,0.82
679,-1.00,-1.87,-1.02,-1.86,1.86,0.84,0.86,0.84,0.86
686,-1.04,-1.95,-1.02,-1.89,1.89,0.88,0.84,0.87,0.91
692,-1.01,-1.96,-0.99,-1.90,1.90,0.92,0.89,0.91,0.94
699,-0.98,-1.96,-0.96,-1.91,1.91,0.96,0.92,0.95,0.97
706,-0.96,-1.96,-0.95,-1.91,1.91,1.00,0.95,0.97,1.00
713,-0.94,-1.96,-0.92,-1.92,1.92,1.04,0.97,1.00,1.01
721,-0.87,-1.90,-0.88,-1.91,1.91,1.08,1.04,1.03,1.02
728,-0.81,-1.84,-0.89,-1.91,1.91,1.13,1.10,1.02,1.02
735,-0.81,-1.84,-0.90,-1.91,1.91,1.17,1.10,1.01,1.02
742,-0.84,-1.87,-0.90,-1.92,1.92,1.21,1.07,1.01,1.02
750,-0.87,-1.90,-0.90,-1.92,1.92,1.26,1.05,1.02,1.02
757,-0.89,-1.92,-0.90,-1.93,1.93,1.30,1.04,1.03,1.02
765,-0.92,-1.95,-0.90,-1.94,1.94,1.35,1.02,1.05,1.03
773,-0.93,-1.97,-0.92,-1.96,1.96,1.40,1.02,1.04,1.03
780,-0.94,-1.99,-0.92,-1.97,1.97,1.45,1.03,1.05,1.04
788,-1.10,-2.16,-0.93,-1.99,1.99,1.50,0.89,1.06,1.05
796,-1.06,-2.13,-0.95,-2.01,2.01,1.54,0.94,1.06,1.07
804,-0.85,-1.94,-0.96,-2.02,2.02,1.59,1.17,1.06,1.08
812,-0.84,-1.94,-0.96,-2.03,2.03,1.64,1.18,1.07,1.10
820,-0.84,-1.96,-0.95,-2.03,2.03,1.69,1.19,1.08,1.12
828,-0.85,-1.99,-0.92,-2.03,2.03,1.73,1.18,1.11,1.13
837,-0.99,-2.14,-0.89,-2.02,2.02,1.78,1.03,1.14,1.15
845,-0.99,-2.16,-0.86,-2.01,2.01,1.82,1.01,1.15,1.16
853,-0.74,-1.92,-0.84,-1.99,1.99,1.86,1.24,1.15,1.17
862,-0.88,-2.07,-0.81,-1.96,1.96,1.91,1.08,1.16,1.18
871,-0.89,-2.08,-0.75,-1.93,1.93,1.95,1.04,1.18,1.19
879,-0.66,-1.86,-0.71,-1.90,1.90,1.98,1.23,1.19,1.19
888,-0.56,-1.76,-0.68,-1.86,1.86,2.01,1.30,1.18,1.20
897,-0.57,-1.78,-0.63,-1.82,1.82,2.04,1.24,1.19,1.20
906,-0.48,-1.69,-0.58,-1.78,1.78,2.07,1.29,1.20,1.21
915,-0.60,-1.82,-0.52,-1.73,1.73,2.09,1.13,1.22,1.21
924,-0.61,-1.83,-0.45,-1.69,1.69,2.10,1.08,1.24,1.22
933,-0.41,-1.64,-0.40,-1.64,1.64,2.12,1.23,1.24,1.23
943,-0.18,-1.42,-0.37,-1.60,1.60,2.12,1.42,1.23,1.23
952,-0.16,-1.41,-0.31,-1.56,1.56,2.12,1.39,1.25,1.24
962,-0.36,-1.62,-0.25,-1.51,1.51,2.12,1.15,1.26,1.25
971,-0.34,-1.61,-0.20,-1.47,1.47,2.11,1.12,1.27,1.27
981,-0.11,-1.39,-0.15,-1.42,1.42,2.09,1.31,1.27,1.28
991,-0.05,-1.35,-0.09,-1.37,1.37,2.06,1.32,1.28,1.30
1001,0.01,-1.31,-0.02,-1.32,1.32,2.03,1.33,1.30,1.31
1011,0.06,-1.28,0.06,-1.27,1.27,1.99,1.33,1.33,1.33
1021,0.01,-1.35,0.14,-1.22,1.22,1.95,1.22,1.35,1.36
1031,0.15,-1.24,0.21,-1.16,1.16,1.90,1.30,1.37,1.38
1041,0.47,-0.94,0.29,-1.10,1.10,1.84,1.56,1.39,1.41
1052,0.41,-1.03,0.39,-1.04,1.04,1.77,1.45,1.43,1.43
1062,0.40,-1.07,0.49,-0.98,0.98,1.71,1.38,1.47,1.46
1073,0.39,-1.10,0.57,-0.92,0.92,1.63,1.31,1.49,1.49
1084,0.80,-0.72,0.65,-0.87,0.87,1.54,1.66,1.51,1.52
1094,0.89,-0.66,0.74,-0.82,0.82,1.46,1.70,1.56,1.55
1105,0.85,-0.74,0.83,-0.77,0.77,1.36,1.62,1.60,1.58
1116,0.91,-0.71,0.91,-0.73,0.73,1.27,1.63,1.63,1.62
1128,0.98,-0.68,0.98,-0.69,0.69,1.16,1.66,1.66,1.65
1139,1.05,-0.64,1.03,-0.65,0.65,1.05,1.69,1.68,1.69
1150,1.04,-0.69,1.10,-0.61,0.61,0.94,1.65,1.71,1.72
1162,1.17,-0.59,1.19,-0.58,0.58,0.82,1.75,1.77,1.76
1173,1.34,-0.46,1.26,-0.55,0.55,0.71,1.88,1.80,1.79
1185,1.36,-0.47,1.32,-0.51,0.51,0.59,1.87,1.83,1.83
1197,1.42,-0.45,1.38,-0.47,0.47,0.46,1.89,1.85,1.87
1209,1.35,-0.56,1.47,-0.42,0.42,0.34,1.77,1.90,1.90
1221,1.44,-0.50,1.56,-0.37,0.37,0.21,1.80,1.93,1.94
1233,1.68,-0.30,1.65,-0.30,0.30,0.08,1.98,1.96,1.97
1246,1.81,-0.20,1.75,-0.23,0.23,-0.06,2.04,1.97,2.00
1258,1.95,-0.08,1.83,-0.14,0.14,-0.19,2.09,1.98,2.03
1271,1.94,-0.11,1.95,-0.05,0.05,-0.33,1.98,1.99,2.05
1283,1.97,-0.09,2.08,0.06,-0.06,-0.46,1.90,2.01,2.06
1296,2.26,0.19,2.21,0.19,-0.19,-0.61,2.07,2.02,2.06
1309,2.43,0.36,2.34,0.33,-0.33,-0.75,2.10,2.02,2.06
1322,2.49,0.43,2.48,0.47,-0.47,-0.89,2.01,2.01,2.05
1335,2.45,0.40,2.64,0.63,-0.63,-1.03,1.82,2.01,2.04
1349,2.73,0.70,2.78,0.80,-0.80,-1.19,1.93,1.98,2.03
1362,2.93,0.92,2.94,0.97,-0.97,-1.33,1.96,1.97,2.01
1376,3.13,1.14,3.12,1.15,-1.15,-1.48,1.98,1.97,1.99
1390,3.53,1.56,3.30,1.33,-1.33,-1.63,2.20,1.97,1.97
1404,3.56,1.61,3.46,1.50,-1.50,-1.79,2.05,1.96,1.95
1418,3.41,1.48,3.63,1.68,-1.68,-1.94,1.73,1.95,1.93
1432,3.66,1.74,3.79,1.85,-1.85,-2.09,1.80,1.93,1.92
1446,4.05,2.14,3.95,2.03,-2.03,-2.25,2.02,1.92,1.91
1461,4.22,2.31,4.12,2.20,-2.20,-2.41,2.02,1.92,1.91
1475,4.39,2.48,4.28,2.37,-2.37,-2.56,2.02,1.91,1.91
1490,4.61,2.70,4.43,2.53,-2.53,-2.73,2.07,1.89,1.91
1505,4.62,2.70,4.58,2.70,-2.70,-2.89,1.92,1.88,1.92
1520,4.53,2.60,4.74,2.87,-2.87,-3.05,1.66,1.88,1.93
1535,4.81,2.87,4.92,3.04,-3.04,-3.21,1.76,1.87,1.94
1550,5.18,3.22,5.12,3.22,-3.22,-3.38,1.95,1.89,1.95
1566,5.27,3.29,5.33,3.41,-3.41,-3.55,1.86,1.92,1.97
1582,5.47,3.47,5.54,3.60,-3.60,-3.72,1.86,1.94,1.99
1597,5.72,3.70,5.76,3.81,-3.81,-3.88,1.91,1.95,2.02
1613,6.00,3.95,6.00,4.01,-4.01,-4.05,1.98,1.99,2.05
1629,6.22,4.13,6.27,4.23,-4.23,-4.21,1.99,2.04,2.08
1646,6.54,4.41,6.54,4.44,-4.44,-4.39,2.09,2.10,2.12
1662,6.82,4.65,6.82,4.65,-4.65,-4.55,2.16,2.17,2.17
1679,7.10,4.88,7.10,4.86,-4.86,-4.72,2.24,2.24,2.22
1696,7.41,5.13,7.35,5.06,-5.06,-4.89,2.35,2.29,2.27
1713,7.72,5.38,7.60,5.25,-5.25,-5.05,2.47,2.36,2.34
1730,7.89,5.47,7.86,5.42,-5.42,-5.20,2.47,2.44,2.41
1747,8.12,5.62,8.11,5.58,-5.58,-5.35,2.54,2.53,2.50
1764,8.39,5.80,8.34,5.72,-5.72,-5.50,2.66,2.61,2.59
1782,8.57,5.88,8.55,5.85,-5.85,-5.64,2.72,2.70,2.68
1800,8.67,5.88,8.75,5.95,-5.95,-5.78,2.71,2.79,2.78
1818,8.89,6.00,8.93,6.04,-6.04,-5.90,2.84,2.89,2.89
1836,9.10,6.10,9.11,6.11,-6.11,-6.01,2.98,3.00,3.00
1854,9.28,6.17,9.27,6.17,-6.17,-6.12,3.11,3.10,3.11
1873,9.45,6.23,9.41,6.21,-6.21,-6.21,3.24,3.21,3.22
1892,9.58,6.24,9.54,6.23,-6.23,-6.29,3.35,3.32,3.33
1911,9.66,6.21,9.67,6.24,-6.24,-6.35,3.42,3.43,3.45
