frequency,raw,error,smoothed,error_smoothed,equalization,parametric_eq,equalized_raw,equalized_smoothed,target
20.00,17.62,5.60,17.62,5.59,-5.59,-3.28,12.03,12.02,12.02
20.20,17.67,5.65,17.67,5.65,-5.65,-3.37,12.03,12.02,12.02
20.40,17.72,5.70,17.72,5.70,-5.70,-3.46,12.03,12.03,12.03
20.61,17.77,5.74,17.77,5.75,-5.75,-3.56,12.02,12.03,12.03
20.81,17.82,5.79,17.83,5.80,-5.80,-3.65,12.03,12.03,12.03
21.02,17.87,5.84,17.88,5.85,-5.85,-3.76,12.03,12.03,12.03
21.23,17.93,5.90,17.93,5.89,-5.89,-3.86,12.04,12.03,12.04
21.44,17.98,5.94,17.98,5.94,-5.94,-3.97,12.04,12.04,12.04
21.66,18.03,5.99,18.03,5.99,-5.99,-4.08,12.04,12.04,12.04
21.87,18.08,6.04,18.08,6.04,-6.04,-4.19,12.04,12.04,12.04
22.09,18.13,6.09,18.13,6.09,-6.09,-4.30,12.04,12.04,12.04
22.31,18.18,6.14,18.18,6.14,-6.14,-4.42,12.04,12.05,12.05
22.54,18.23,6.18,18.23,6.18,-6.18,-4.54,12.05,12.05,12.05
22.76,18.28,6.23,18.28,6.23,-6.23,-4.67,12.05,12.05,12.05
22.99,18.33,6.28,18.33,6.28,-6.28,-4.80,12.05,12.05,12.05
23.22,18.38,6.33,18.38,6.33,-6.33,-4.93,12.05,12.05,12.05
23.45,18.43,6.38,18.43,6.37,-6.37,-5.06,12.06,12.06,12.06
23.69,18.48,6.42,18.48,6.42,-6.42,-5.20,12.06,12.06,12.06
23.92,18.52,6.46,18.52,6.46,-6.46,-5.34,12.06,12.06,12.06
24.16,18.57,6.51,18.57,6.51,-6.51,-5.48,12.06,12.06,12.06
24.40,18.62,6.56,18.62,6.55,-6.55,-5.62,12.07,12.06,12.06
24.65,18.66,6.59,18.67,6.60,-6.60,-5.77,12.06,12.07,12.07
24.89,18.71,6.64,18.71,6.64,-6.64,-5.92,12.07,12.07,12.07
25.14,18.76,6.69,18.76,6.69,-6.69,-6.07,12.07,12.07,12.07
25.39,18.80,6.73,18.80,6.73,-6.73,-6.22,12.07,12.07,12.07
25.65,18.85,6.77,18.85,6.77,-6.77,-6.38,12.08,12.08,12.08
25.91,18.89,6.81,18.89,6.82,-6.82,-6.53,12.07,12.08,12.08
26.16,18.94,6.86,18.94,6.86,-6.86,-6.69,12.08,12.08,12.08
26.43,18.98,6.90,18.98,6.90,-6.90,-6.84,12.08,12.08,12.08
26.69,19.03,6.95,19.03,6.95,-6.95,-7.00,12.09,12.08,12.08
26.96,19.07,6.98,19.07,6.99,-6.99,-7.15,12.08,12.08,12.09
27.23,19.11,7.02,19.12,7.03,-7.03,-7.30,12.08,12.09,12.09
27.50,19.16,7.07,19.16,7.07,-7.07,-7.45,12.09,12.09,12.09
27.77,19.20,7.11,19.20,7.11,-7.11,-7.59,12.09,12.09,12.09
28.05,19.24,7.15,19.24,7.15,-7.15,-7.73,12.09,12.09,12.09
28.33,19.28,7.19,19.28,7.19,-7.19,-7.86,12.09,12.09,12.09
28.62,19.32,7.23,19.32,7.23,-7.23,-7.99,12.10,12.09,12.09
28.90,19.36,7.27,19.36,7.26,-7.26,-8.11,12.10,12.10,12.10
29.19,19.39,7.29,19.39,7.30,-7.30,-8.23,12.10,12.10,12.10
29.48,19.43,7.33,19.42,7.33,-7.33,-8.33,12.10,12.10,12.10
29.78,19.46,7.36,19.46,7.36,-7.36,-8.43,12.10,12.10,12.10
30.08,19.50,7.40,19.49,7.39,-7.39,-8.51,12.11,12.10,12.10
30.38,19.52,7.42,19.52,7.42,-7.42,-8.59,12.10,12.10,12.10
30.68,19.54,7.44,19.55,7.45,-7.45,-8.65,12.09,12.10,12.10
30.99,19.57,7.47,19.57,7.47,-7.47,-8.70,12.10,12.10,12.10
31.30,19.59,7.49,19.60,7.50,-7.50,-8.74,12.09,12.10,12.10
31.61,19.62,7.52,19.62,7.53,-7.53,-8.77,12.09,12.10,12.10
31.93,19.64,7.54,19.65,7.55,-7.55,-8.79,12.09,12.10,12.10
32.24,19.67,7.57,19.67,7.58,-7.58,-8.79,12.09,12.10,12.10
32.57,19.70,7.60,19.70,7.60,-7.60,-8.79,12.10,12.10,12.10
32.89,19.72,7.62,19.72,7.63,-7.63,-8.77,12.09,12.09,12.10
33.22,19.75,7.66,19.75,7.65,-7.65,-8.75,12.10,12.09,12.10
33.55,19.77,7.68,19.77,7.68,-7.68,-8.71,12.10,12.09,12.10
33.89,19.79,7.70,19.79,7.70,-7.70,-8.67,12.09,12.09,12.09
34.23,19.81,7.72,19.82,7.72,-7.72,-8.62,12.09,12.09,12.09
34.57,19.83,7.74,19.84,7.74,-7.74,-8.57,12.09,12.09,12.09
34.92,19.86,7.77,19.86,7.77,-7.77,-8.51,12.09,12.09,12.09
35.27,19.88,7.79,19.88,7.79,-7.79,-8.45,12.09,12.09,12.09
35.62,19.90,7.81,19.90,7.81,-7.81,-8.38,12.09,12.09,12.09
35.97,19.92,7.84,19.91,7.83,-7.83,-8.32,12.09,12.08,12.08
36.33,19.93,7.85,19.93,7.85,-7.85,-8.25,12.08,12.08,12.08
36.70,19.95,7.87,19.95,7.87,-7.87,-8.18,12.08,12.08,12.08
37.06,19.96,7.88,19.96,7.89,-7.89,-8.11,12.07,12.08,12.08
37.43,19.98,7.91,19.98,7.91,-7.91,-8.04,12.07,12.07,12.07
37.81,19.99,7.92,19.99,7.92,-7.92,-7.97,12.07,12.07,12.07
38.19,20.01,7.94,20.01,7.94,-7.94,-7.90,12.07,12.07,12.07
38.57,20.02,7.96,20.02,7.96,-7.96,-7.84,12.06,12.06,12.06
38.95,20.03,7.97,20.04,7.98,-7.98,-7.78,12.05,12.06,12.06
39.34,20.04,7.99,20.05,7.99,-7.99,-7.72,12.05,12.06,12.06
39.74,20.06,8.01,20.06,8.01,-8.01,-7.67,12.05,12.05,12.05
40.14,20.07,8.02,20.07,8.03,-8.03,-7.62,12.05,12.05,12.05
40.54,20.09,8.05,20.08,8.04,-8.04,-7.58,12.05,12.04,12.04
40.94,20.10,8.06,20.09,8.06,-8.06,-7.54,12.04,12.04,12.04
41.35,20.11,8.08,20.10,8.07,-8.07,-7.50,12.04,12.03,12.03
41.76,20.12,8.09,20.12,8.09,-8.09,-7.47,12.03,12.03,12.03
42.18,20.12,8.10,20.13,8.11,-8.11,-7.45,12.01,12.02,12.02
42.60,20.13,8.11,20.14,8.12,-8.12,-7.43,12.01,12.02,12.02
43.03,20.14,8.13,20.15,8.14,-8.14,-7.41,12.00,12.01,12.01
43.46,20.15,8.14,20.16,8.16,-8.16,-7.40,12.00,12.00,12.01
43.90,20.16,8.16,20.17,8.17,-8.17,-7.40,11.99,12.00,12.00
44.33,20.17,8.18,20.18,8.19,-8.19,-7.40,11.98,11.99,12.00
44.78,20.19,8.20,20.19,8.20,-8.20,-7.40,11.99,11.99,11.99
45.23,20.20,8.22,20.19,8.22,-8.22,-7.42,11.99,11.98,11.98
45.68,20.21,8.24,20.20,8.23,-8.23,-7.43,11.98,11.97,11.97
46.13,20.21,8.25,20.20,8.24,-8.24,-7.46,11.97,11.96,11.96
46.60,20.21,8.26,20.20,8.25,-8.25,-7.48,11.96,11.95,11.96
47.06,20.21,8.27,20.20,8.26,-8.26,-7.52,11.95,11.95,11.95
47.53,20.20,8.27,20.20,8.26,-8.26,-7.56,11.94,11.93,11.93
48.01,20.20,8.28,20.19,8.27,-8.27,-7.60,11.93,11.92,11.92
48.49,20.19,8.28,20.18,8.27,-8.27,-7.65,11.92,11.91,11.91
48.97,20.17,8.27,20.17,8.28,-8.28,-7.70,11.89,11.90,11.90
49.46,20.16,8.27,20.16,8.28,-8.28,-7.75,11.88,11.88,11.89
49.96,20.14,8.27,20.15,8.28,-8.28,-7.82,11.86,11.87,11.87
50.46,20.13,8.27,20.13,8.28,-8.28,-7.88,11.85,11.85,11.86
50.96,20.11,8.27,20.12,8.28,-8.28,-7.95,11.83,11.84,11.84
51.47,20.10,8.27,20.11,8.28,-8.28,-8.02,11.82,11.83,11.83
51.99,20.08,8.26,20.09,8.28,-8.28,-8.09,11.80,11.81,11.82
52.51,20.07,8.27,20.08,8.28,-8.28,-8.16,11.79,11.80,11.80
53.03,20.06,8.27,20.06,8.28,-8.28,-8.24,11.78,11.78,11.79
53.56,20.05,8.28,20.05,8.28,-8.28,-8.32,11.77,11.77,11.77
54.10,20.04,8.29,20.03,8.28,-8.28,-8.40,11.76,11.75,11.75
54.64,20.02,8.28,20.01,8.27,-8.27,-8.47,11.75,11.74,11.74
55.18,20.00,8.28,19.99,8.27,-8.27,-8.55,11.73,11.72,11.72
55.74,19.98,8.28,19.97,8.27,-8.27,-8.62,11.71,11.70,11.70
56.29,19.96,8.27,19.95,8.26,-8.26,-8.69,11.70,11.69,11.69
56.86,19.93,8.26,19.93,8.26,-8.26,-8.76,11.67,11.67,11.67
57.42,19.90,8.25,19.90,8.25,-8.25,-8.83,11.65,11.65,11.65
58.00,19.87,8.24,19.88,8.25,-8.25,-8.88,11.62,11.63,11.63
58.58,19.85,8.24,19.85,8.24,-8.24,-8.94,11.61,11.61,11.61
59.16,19.82,8.23,19.83,8.24,-8.24,-8.98,11.58,11.59,11.59
59.76,19.79,8.22,19.80,8.23,-8.23,-9.02,11.56,11.57,11.57
60.35,19.77,8.22,19.78,8.23,-8.23,-9.06,11.54,11.55,11.55
60.96,19.74,8.21,19.76,8.23,-8.23,-9.08,11.51,11.53,11.53
61.57,19.72,8.21,19.73,8.23,-8.23,-9.10,11.49,11.51,11.51
62.18,19.70,8.21,19.71,8.23,-8.23,-9.10,11.48,11.48,11.49
62.80,19.69,8.23,19.68,8.22,-8.22,-9.10,11.47,11.46,11.46
63.43,19.67,8.23,19.66,8.22,-8.22,-9.09,11.45,11.44,11.44
64.07,19.65,8.24,19.64,8.23,-8.23,-9.07,11.43,11.41,11.41
64.71,19.63,8.24,19.61,8.23,-8.23,-9.05,11.41,11.39,11.39
65.35,19.60,8.24,19.59,8.23,-8.23,-9.01,11.38,11.36,11.36
66.01,19.56,8.23,19.56,8.23,-8.23,-8.97,11.34,11.33,11.34
66.67,19.53,8.22,19.53,8.23,-8.23,-8.92,11.31,11.31,11.31
67.33,19.49,8.21,19.50,8.23,-8.23,-8.86,11.26,11.28,11.28
68.01,19.46,8.21,19.47,8.23,-8.23,-8.80,11.23,11.25,11.25
68.69,19.44,8.22,19.44,8.23,-8.23,-8.73,11.21,11.22,11.22
69.37,19.41,8.22,19.41,8.23,-8.23,-8.66,11.18,11.19,11.19
70.07,19.38,8.22,19.38,8.23,-8.23,-8.59,11.15,11.15,11.16
70.77,19.35,8.22,19.35,8.23,-8.23,-8.51,11.12,11.12,11.13
71.48,19.32,8.23,19.32,8.23,-8.23,-8.43,11.09,11.09,11.09
72.19,19.29,8.23,19.29,8.23,-8.23,-8.35,11.06,11.06,11.06
72.91,19.26,8.23,19.26,8.24,-8.24,-8.27,11.02,11.02,11.03
73.64,19.23,8.24,19.23,8.24,-8.24,-8.19,10.99,10.99,10.99
74.38,19.20,8.24,19.20,8.24,-8.24,-8.11,10.96,10.96,10.96
75.12,19.17,8.25,19.17,8.25,-8.25,-8.04,10.92,10.92,10.92
75.87,19.14,8.25,19.14,8.25,-8.25,-7.96,10.89,10.88,10.89
76.63,19.10,8.25,19.10,8.25,-8.25,-7.89,10.85,10.85,10.85
77.40,19.07,8.26,19.07,8.26,-8.26,-7.82,10.81,10.81,10.81
78.17,19.03,8.25,19.04,8.26,-8.26,-7.75,10.77,10.78,10.78
78.95,18.99,8.25,19.00,8.26,-8.26,-7.69,10.73,10.74,10.74
79.74,18.96,8.26,18.97,8.27,-8.27,-7.63,10.69,10.70,10.70
80.54,18.93,8.27,18.93,8.27,-8.27,-7.58,10.66,10.66,10.66
81.35,18.90,8.28,18.89,8.27,-8.27,-7.53,10.63,10.62,10.62
82.16,18.86,8.27,18.85,8.27,-8.27,-7.48,10.59,10.59,10.59
82.98,18.82,8.27,18.82,8.27,-8.27,-7.44,10.55,10.55,10.55
83.81,18.78,8.27,18.78,8.27,-8.27,-7.40,10.51,10.51,10.51
84.65,18.74,8.27,18.74,8.26,-8.26,-7.37,10.48,10.47,10.47
85.50,18.69,8.26,18.70,8.26,-8.26,-7.35,10.43,10.43,10.43
86.35,18.64,8.24,18.65,8.26,-8.26,-7.33,10.38,10.40,10.40
87.22,18.60,8.24,18.61,8.25,-8.25,-7.31,10.35,10.36,10.36
88.09,18.57,8.25,18.57,8.25,-8.25,-7.30,10.32,10.32,10.32
88.97,18.53,8.25,18.52,8.24,-8.24,-7.30,10.29,10.28,10.28
89.86,18.49,8.25,18.48,8.23,-8.23,-7.30,10.26,10.24,10.24
90.76,18.43,8.22,18.43,8.22,-8.22,-7.31,10.21,10.21,10.21
91.66,18.38,8.21,18.38,8.22,-8.22,-7.32,10.16,10.17,10.17
92.58,18.33,8.20,18.33,8.21,-8.21,-7.34,10.12,10.13,10.13
93.51,18.28,8.19,18.28,8.20,-8.20,-7.36,10.08,10.09,10.09
94.44,18.24,8.19,18.23,8.19,-8.19,-7.39,10.05,10.05,10.05
95.39,18.19,8.18,18.18,8.18,-8.18,-7.42,10.01,10.01,10.01
96.34,18.14,8.17,18.13,8.17,-8.17,-7.46,9.97,9.97,9.97
97.30,18.08,8.15,18.08,8.16,-8.16,-7.50,9.92,9.92,9.93
98.28,18.02,8.14,18.03,8.15,-8.15,-7.55,9.87,9.88,9.88
99.26,17.96,8.12,17.98,8.14,-8.14,-7.60,9.82,9.84,9.84
100.25,17.91,8.11,17.92,8.13,-8.13,-7.65,9.78,9.80,9.80
101.25,17.86,8.10,17.87,8.12,-8.12,-7.71,9.74,9.76,9.76
102.27,17.81,8.10,17.82,8.11,-8.11,-7.77,9.70,9.71,9.71
103.29,17.78,8.11,17.77,8.10,-8.10,-7.84,9.68,9.67,9.67
104.32,17.74,8.11,17.72,8.09,-8.09,-7.90,9.65,9.63,9.63
105.37,17.67,8.08,17.66,8.08,-8.08,-7.97,9.59,9.58,9.59
106.42,17.61,8.07,17.61,8.07,-8.07,-8.04,9.54,9.54,9.54
107.48,17.56,8.06,17.56,8.06,-8.06,-8.11,9.50,9.50,9.50
108.56,17.52,8.06,17.51,8.05,-8.05,-8.17,9.47,9.46,9.46
109.64,17.46,8.05,17.46,8.05,-8.05,-8.24,9.42,9.41,9.41
110.74,17.40,8.03,17.40,8.04,-8.04,-8.31,9.37,9.37,9.37
111.85,17.34,8.01,17.35,8.03,-8.03,-8.37,9.32,9.32,9.33
112.97,17.28,8.00,17.30,8.01,-8.01,-8.43,9.27,9.28,9.28
114.10,17.23,7.99,17.24,8.00,-8.00,-8.48,9.23,9.24,9.24
115.24,17.17,7.97,17.18,7.99,-7.99,-8.54,9.18,9.19,9.20
116.39,17.14,7.99,17.13,7.98,-7.98,-8.58,9.16,9.15,9.16
117.55,17.09,7.98,17.07,7.96,-7.96,-8.62,9.13,9.11,9.11
118.73,17.02,7.95,17.02,7.95,-7.95,-8.65,9.07,9.07,9.07
119.92,16.95,7.92,16.96,7.93,-7.93,-8.67,9.02,9.03,9.03
121.12,16.89,7.90,16.90,7.91,-7.91,-8.68,8.98,8.99,8.99
122.33,16.85,7.90,16.84,7.89,-7.89,-8.69,8.96,8.95,8.95
123.55,16.80,7.89,16.78,7.87,-7.87,-8.68,8.93,8.91,8.91
124.79,16.72,7.85,16.72,7.85,-7.85,-8.67,8.88,8.87,8.87
126.03,16.64,7.81,16.65,7.82,-7.82,-8.65,8.82,8.83,8.83
127.29,16.59,7.80,16.59,7.79,-7.79,-8.61,8.80,8.80,8.80
128.57,16.52,7.76,16.52,7.76,-7.76,-8.57,8.76,8.76,8.76
129.85,16.45,7.73,16.45,7.73,-7.73,-8.51,8.72,8.72,8.72
131.15,16.37,7.68,16.39,7.70,-7.70,-8.45,8.67,8.69,8.69
132.46,16.33,7.67,16.32,7.66,-7.66,-8.38,8.67,8.66,8.66
133.79,16.25,7.63,16.25,7.63,-7.63,-8.30,8.62,8.62,8.63
135.12,16.17,7.58,16.19,7.60,-7.60,-8.22,8.58,8.59,8.59
136.48,16.13,7.57,16.12,7.56,-7.56,-8.12,8.57,8.56,8.56
137.84,16.05,7.52,16.05,7.52,-7.52,-8.02,8.53,8.53,8.53
139.22,16.00,7.50,15.99,7.49,-7.49,-7.92,8.51,8.50,8.51
140.61,15.93,7.45,15.93,7.45,-7.45,-7.81,8.48,8.48,8.48
142.02,15.83,7.38,15.86,7.41,-7.41,-7.70,8.42,8.45,8.45
143.44,15.79,7.37,15.80,7.37,-7.37,-7.59,8.42,8.42,8.42
144.87,15.72,7.32,15.73,7.33,-7.33,-7.48,8.39,8.40,8.40
146.32,15.66,7.29,15.66,7.29,-7.29,-7.36,8.37,8.37,8.37
147.78,15.59,7.24,15.59,7.24,-7.24,-7.25,8.35,8.35,8.35
149.26,15.54,7.22,15.52,7.20,-7.20,-7.13,8.34,8.32,8.32
150.75,15.46,7.16,15.44,7.15,-7.15,-7.02,8.31,8.29,8.30
152.26,15.39,7.12,15.37,7.10,-7.10,-6.90,8.29,8.27,8.27
153.78,15.29,7.04,15.29,7.05,-7.05,-6.79,8.24,8.24,8.25
155.32,15.22,7.00,15.21,6.99,-6.99,-6.68,8.23,8.22,8.22
156.88,15.12,6.92,15.13,6.94,-6.94,-6.58,8.18,8.19,8.20
158.44,15.05,6.88,15.06,6.88,-6.88,-6.47,8.17,8.17,8.17
160.03,14.95,6.80,14.97,6.83,-6.83,-6.37,8.12,8.14,8.15
161.63,14.88,6.76,14.89,6.77,-6.77,-6.27,8.11,8.12,8.12
163.24,14.82,6.72,14.81,6.72,-6.72,-6.18,8.10,8.09,8.10
164.88,14.72,6.65,14.73,6.66,-6.66,-6.09,8.06,8.07,8.07
166.53,14.65,6.60,14.65,6.61,-6.61,-6.00,8.04,8.04,8.05
168.19,14.58,6.56,14.57,6.55,-6.55,-5.92,8.03,8.02,8.03
169.87,14.48,6.48,14.50,6.50,-6.50,-5.84,7.98,8.00,8.00
171.57,14.41,6.43,14.42,6.44,-6.44,-5.77,7.97,7.98,7.98
173.29,14.35,6.39,14.35,6.38,-6.38,-5.70,7.97,7.96,7.96
175.02,14.26,6.32,14.27,6.32,-6.32,-5.63,7.94,7.94,7.94
176.77,14.19,6.27,14.19,6.27,-6.27,-5.57,7.93,7.93,7.92
178.54,14.13,6.22,14.11,6.20,-6.20,-5.51,7.93,7.91,7.91
180.32,14.06,6.17,14.03,6.14,-6.14,-5.46,7.92,7.89,7.89
182.13,13.98,6.10,13.95,6.08,-6.08,-5.41,7.90,7.88,7.88
183.95,13.87,6.01,13.88,6.01,-6.01,-5.36,7.86,7.86,7.86
185.79,13.79,5.94,13.80,5.95,-5.95,-5.32,7.85,7.85,7.85
187.65,13.71,5.87,13.72,5.88,-5.88,-5.29,7.83,7.84,7.84
189.52,13.63,5.80,13.64,5.81,-5.81,-5.25,7.82,7.83,7.83
191.42,13.55,5.73,13.56,5.74,-5.74,-5.22,7.81,7.82,7.82
193.33,13.47,5.66,13.48,5.68,-5.68,-5.20,7.80,7.81,7.81
195.27,13.41,5.61,13.41,5.61,-5.61,-5.17,7.80,7.80,7.80
197.22,13.33,5.54,13.33,5.55,-5.55,-5.15,7.79,7.78,7.79
199.19,13.25,5.47,13.26,5.48,-5.48,-5.14,7.77,7.77,7.78
201.18,13.18,5.41,13.19,5.42,-5.42,-5.12,7.76,7.76,7.77
203.19,13.11,5.35,13.12,5.36,-5.36,-5.11,7.75,7.76,7.76
205.23,13.05,5.30,13.06,5.31,-5.31,-5.10,7.74,7.75,7.76
207.28,12.99,5.25,12.99,5.25,-5.25,-5.09,7.74,7.74,7.75
209.35,12.93,5.20,12.93,5.20,-5.20,-5.08,7.73,7.73,7.74
211.44,12.87,5.14,12.87,5.15,-5.15,-5.08,7.72,7.72,7.73
213.56,12.81,5.09,12.81,5.10,-5.10,-5.07,7.71,7.71,7.72
215.69,12.75,5.04,12.75,5.05,-5.05,-5.07,7.70,7.70,7.71
217.85,12.68,4.98,12.69,5.00,-5.00,-5.06,7.68,7.69,7.70
220.03,12.64,4.95,12.63,4.95,-4.95,-5.05,7.69,7.69,7.69
222.23,12.59,4.91,12.58,4.90,-4.90,-5.05,7.69,7.68,7.68
224.45,12.53,4.86,12.51,4.84,-4.84,-5.04,7.69,7.67,7.67
226.70,12.44,4.78,12.45,4.79,-4.79,-5.03,7.66,7.66,7.66
228.96,12.37,4.72,12.38,4.73,-4.73,-5.02,7.65,7.66,7.65
231.25,12.32,4.67,12.31,4.66,-4.66,-5.00,7.66,7.65,7.65
233.57,12.26,4.62,12.24,4.60,-4.60,-4.98,7.66,7.64,7.64
235.90,12.16,4.53,12.17,4.53,-4.53,-4.96,7.63,7.64,7.63
238.26,12.10,4.47,12.09,4.46,-4.46,-4.93,7.64,7.63,7.63
240.64,12.01,4.38,12.01,4.38,-4.38,-4.90,7.63,7.63,7.63
243.05,11.95,4.33,11.93,4.30,-4.30,-4.87,7.65,7.62,7.62
245.48,11.85,4.23,11.84,4.22,-4.22,-4.83,7.63,7.62,7.62
247.93,11.74,4.12,11.76,4.14,-4.14,-4.78,7.60,7.61,7.62
250.41,11.68,4.07,11.67,4.06,-4.06,-4.73,7.62,7.61,7.61
252.92,11.57,3.96,11.58,3.98,-3.98,-4.67,7.59,7.60,7.61
255.45,11.50,3.90,11.50,3.90,-3.90,-4.61,7.60,7.60,7.60
258.00,11.42,3.82,11.41,3.82,-3.82,-4.55,7.60,7.59,7.60
260.58,11.33,3.74,11.33,3.75,-3.75,-4.47,7.58,7.58,7.59
263.19,11.24,3.66,11.25,3.68,-3.68,-4.40,7.57,7.58,7.59
265.82,11.15,3.57,11.18,3.60,-3.60,-4.31,7.55,7.57,7.58
268.48,11.09,3.52,11.10,3.54,-3.54,-4.23,7.55,7.56,7.57
271.16,11.04,3.48,11.03,3.47,-3.47,-4.14,7.57,7.56,7.57
273.87,10.95,3.39,10.97,3.41,-3.41,-4.04,7.54,7.55,7.56
276.61,10.90,3.35,10.91,3.36,-3.36,-3.94,7.54,7.55,7.55
279.38,10.84,3.29,10.85,3.30,-3.30,-3.84,7.54,7.54,7.55
282.17,10.79,3.25,10.79,3.25,-3.25,-3.74,7.54,7.54,7.54
284.99,10.74,3.20,10.74,3.20,-3.20,-3.63,7.54,7.54,7.54
287.84,10.68,3.15,10.69,3.15,-3.15,-3.52,7.53,7.54,7.54
290.72,10.64,3.11,10.64,3.11,-3.11,-3.41,7.54,7.53,7.53
293.63,10.59,3.06,10.59,3.06,-3.06,-3.30,7.53,7.53,7.53
296.57,10.54,3.01,10.54,3.01,-3.01,-3.18,7.53,7.53,7.53
299.53,10.50,2.97,10.49,2.96,-2.96,-3.07,7.54,7.53,7.53
302.53,10.46,2.93,10.45,2.91,-2.91,-2.95,7.55,7.53,7.53
305.55,10.41,2.88,10.40,2.86,-2.86,-2.84,7.55,7.54,7.53
308.61,10.34,2.81,10.35,2.81,-2.81,-2.72,7.53,7.54,7.53
311.69,10.28,2.75,10.29,2.76,-2.76,-2.61,7.53,7.54,7.54
314.81,10.23,2.69,10.24,2.70,-2.70,-2.49,7.53,7.54,7.54
317.96,10.18,2.64,10.18,2.64,-2.64,-2.37,7.54,7.54,7.54
321.14,10.12,2.58,10.12,2.58,-2.58,-2.26,7.55,7.54,7.54
324.35,10.07,2.53,10.05,2.51,-2.51,-2.14,7.56,7.54,7.54
327.59,10.00,2.45,9.99,2.44,-2.44,-2.03,7.56,7.55,7.55
330.87,9.93,2.38,9.92,2.37,-2.37,-1.92,7.56,7.55,7.55
334.18,9.84,2.29,9.85,2.30,-2.30,-1.80,7.54,7.55,7.55
337.52,9.76,2.21,9.78,2.22,-2.22,-1.69,7.54,7.55,7.55
340.90,9.69,2.13,9.70,2.14,-2.14,-1.58,7.55,7.56,7.56
344.30,9.62,2.06,9.62,2.06,-2.06,-1.47,7.56,7.56,7.56
347.75,9.55,1.99,9.54,1.98,-1.98,-1.36,7.57,7.56,7.56
351.23,9.46,1.90,9.45,1.89,-1.89,-1.26,7.57,7.56,7.56
354.74,9.38,1.82,9.37,1.80,-1.80,-1.15,7.58,7.56,7.57
358.28,9.28,1.71,9.28,1.71,-1.71,-1.04,7.57,7.56,7.57
361.87,9.20,1.63,9.19,1.62,-1.62,-0.94,7.58,7.57,7.57
365.49,9.10,1.53,9.10,1.53,-1.53,-0.83,7.57,7.57,7.57
369.14,8.99,1.42,9.01,1.43,-1.43,-0.73,7.56,7.57,7.58
372.83,8.91,1.33,8.91,1.33,-1.33,-0.63,7.58,7.58,7.58
376.56,8.79,1.21,8.82,1.24,-1.24,-0.52,7.55,7.58,7.58
380.33,8.71,1.13,8.72,1.14,-1.14,-0.42,7.57,7.59,7.59
384.13,8.63,1.04,8.63,1.04,-1.04,-0.32,7.59,7.59,7.59
387.97,8.54,0.95,8.53,0.94,-0.94,-0.22,7.60,7.59,7.59
391.85,8.45,0.85,8.44,0.84,-0.84,-0.12,7.61,7.60,7.60
395.77,8.35,0.75,8.34,0.74,-0.74,-0.03,7.61,7.60,7.60
399.73,8.25,0.64,8.25,0.64,-0.64,0.07,7.61,7.61,7.61
403.72,8.15,0.54,8.16,0.54,-0.54,0.17,7.61,7.61,7.62
407.76,8.06,0.44,8.06,0.44,-0.44,0.26,7.62,7.62,7.62
411.84,7.97,0.34,7.97,0.35,-0.35,0.36,7.62,7.63,7.63
415.96,7.88,0.25,7.88,0.25,-0.25,0.45,7.63,7.63,7.63
420.12,7.78,0.14,7.79,0.15,-0.15,0.54,7.63,7.63,7.64
424.32,7.69,0.05,7.69,0.06,-0.06,0.63,7.63,7.64,7.64
428.56,7.60,-0.04,7.60,-0.04,0.04,0.72,7.64,7.64,7.65
432.85,7.51,-0.14,7.51,-0.13,0.13,0.81,7.64,7.64,7.65
437.18,7.41,-0.24,7.42,-0.23,0.23,0.90,7.64,7.64,7.65
441.55,7.33,-0.32,7.33,-0.32,0.32,0.99,7.65,7.65,7.65
445.96,7.24,-0.41,7.24,-0.41,0.41,1.07,7.65,7.65,7.65
450.42,7.14,-0.51,7.15,-0.50,0.50,1.15,7.64,7.65,7.65
454.93,7.06,-0.59,7.06,-0.59,0.59,1.23,7.66,7.65,7.65
459.48,6.96,-0.69,6.97,-0.69,0.69,1.31,7.65,7.65,7.65
464.07,6.88,-0.77,6.88,-0.78,0.78,1.39,7.66,7.66,7.65
468.71,6.79,-0.86,6.79,-0.87,0.87,1.46,7.66,7.66,7.66
473.40,6.69,-0.97,6.70,-0.96,0.96,1.53,7.65,7.66,7.66
478.13,6.61,-1.05,6.61,-1.06,1.06,1.60,7.67,7.67,7.66
482.91,6.51,-1.15,6.52,-1.15,1.15,1.67,7.66,7.67,7.67
487.74,6.43,-1.24,6.43,-1.25,1.25,1.73,7.68,7.68,7.67
492.62,6.34,-1.34,6.34,-1.34,1.34,1.79,7.69,7.68,7.68
497.55,6.25,-1.44,6.25,-1.44,1.44,1.85,7.69,7.69,7.69
502.52,6.16,-1.54,6.16,-1.54,1.54,1.91,7.70,7.70,7.70
507.55,6.07,-1.64,6.06,-1.64,1.64,1.96,7.71,7.70,7.71
512.62,5.97,-1.75,5.97,-1.74,1.74,2.02,7.71,7.71,7.72
517.75,5.88,-1.85,5.88,-1.84,1.84,2.07,7.72,7.72,7.73
522.93,5.79,-1.95,5.79,-1.93,1.93,2.11,7.73,7.73,7.74
528.16,5.70,-2.04,5.70,-2.03,2.03,2.16,7.74,7.74,7.75
533.44,5.61,-2.14,5.62,-2.13,2.13,2.20,7.75,7.75,7.75
538.77,5.53,-2.23,5.53,-2.23,2.23,2.25,7.77,7.76,7.76
544.16,5.43,-2.34,5.44,-2.34,2.34,2.29,7.77,7.77,7.77
549.60,5.34,-2.44,5.35,-2.44,2.44,2.33,7.78,7.78,7.78
555.10,5.25,-2.54,5.26,-2.54,2.54,2.37,7.79,7.80,7.79
560.65,5.17,-2.63,5.17,-2.64,2.64,2.40,7.81,7.81,7.80
566.25,5.09,-2.73,5.08,-2.75,2.75,2.44,7.84,7.82,7.82
571.92,4.99,-2.84,4.99,-2.85,2.85,2.48,7.84,7.84,7.83
577.64,4.90,-2.95,4.89,-2.95,2.95,2.52,7.85,7.85,7.85
583.41,4.81,-3.05,4.80,-3.06,3.06,2.55,7.87,7.86,7.86
589.25,4.72,-3.15,4.71,-3.16,3.16,2.59,7.88,7.87,7.88
595.14,4.61,-3.28,4.62,-3.27,3.27,2.63,7.88,7.88,7.89
601.09,4.51,-3.39,4.52,-3.37,3.37,2.67,7.88,7.89,7.90
607.10,4.42,-3.49,4.43,-3.47,3.47,2.71,7.89,7.90,7.91
613.17,4.34,-3.58,4.34,-3.57,3.57,2.75,7.91,7.91,7.92
619.30,4.26,-3.67,4.25,-3.67,3.67,2.79,7.93,7.92,7.93
625.50,4.16,-3.77,4.16,-3.77,3.77,2.84,7.93,7.92,7.93
631.75,4.06,-3.88,4.07,-3.86,3.86,2.89,7.92,7.93,7.94
638.07,3.96,-3.98,3.98,-3.95,3.95,2.93,7.91,7.93,7.94
644.45,3.89,-4.05,3.89,-4.04,4.04,2.98,7.93,7.93,7.94
650.89,3.80,-4.14,3.80,-4.13,4.13,3.04,7.93,7.93,7.94
657.40,3.72,-4.21,3.72,-4.22,4.22,3.09,7.94,7.93,7.94
