frequency,raw
10,-4.677242185286556
11,-4.44972840905819
12,-3.7160818443271992
13,-3.013296661346276
14,-2.388980669658108
15,-1.8269281353028939
16,-1.3130295245969799
17,-0.8338486072441058
18,-0.43162372881710054
19,0.004852456375415315
20,0.40571859558787793
21,0.7197904878793855
22,0.968751821516836
23,1.3320185012946224
24,1.5192916901572815
25,1.7147096600799685
26,1.8354419702739477
27,1.9793242389189807
28,2.1108753368420885
29,2.243379598446934
30,2.3526876191397506
31,2.4684460364045577
32,2.4687055490309744
33,2.4512436665890744
34,2.5205864561940174
35,2.4846778462164183
36,2.4546272109485967
37,2.4383572561359284
38,2.488828312648132
39,2.4523311534347814
40,2.5737964217593277
41,2.5944657262638016
42,2.60926152796545
43,2.5149294034062146
44,2.3499618674661074
45,2.3044111720027916
46,2.1949738146997886
47,1.998308698429291
48,1.8875330909941903
49,1.8509258971916474
50,1.7084528846190397
51,1.608187056080415
52,1.6670928566062573
53,1.4430870923587333
54,1.4669600038793131
55,1.466482300827157
56,1.4600279007429746
57,1.584404180592637
58,1.5401315681952186
59,1.5308814849281989
60,1.5241551921192382
61,1.5201310388275653
62,1.5181518182017326
63,1.517112302813099
64,1.475806634146834
65,1.4885117342498901
66,1.6140915120394848
67,1.6144565825428465
68,1.636648480735011
69,1.5495759340381268
70,1.52961630854921
71,1.536466401162679
72,1.5415715226253743
73,1.6434319893829388
74,1.640562052039856
75,1.6337328857153244
76,1.7289552600865559
77,1.812381471277127
78,1.8534331889973217
79,1.914145332886262
80,1.9801676003768325
81,1.9773983308444834
82,2.0485224949671323
83,2.0904219052761066
84,2.1029824591455206
85,2.117206365511973
86,2.1318697392502726
87,2.1464615435044543
88,2.1603945118483034
89,2.1721317099117394
90,2.1791117012387744
91,2.178831958401644
92,2.1705723163361066
93,2.1566304703241252
94,2.142056562150848
95,2.132698277297922
96,2.132413978548894
97,2.140938095882402
98,2.153685783127365
99,2.163811523865525
100,2.165593763169941
101,2.157409381810006
102,2.1426879024317005
104,2.128282453629625
105,2.121099231300021
106,2.1247722102459337
107,2.138096139383804
108,2.155897098787565
109,2.1716677727014453
110,2.1804360116743178
111,2.1804279062376333
112,2.0982113793477675
113,2.0605064834369022
114,2.047324650262289
115,2.0350791026367965
117,1.9311858873428216
118,1.9142883850542196
119,1.9126475100140095
120,1.874563197865835
121,1.8104210379184345
123,1.7104710680386335
124,1.6481961952554105
125,1.5568493613276004
126,1.5246096616516
128,1.5149808351497382
129,1.401193054765673
130,1.3631637558294782
131,1.324213060802884
133,1.129535004539071
134,0.9667621391801866
135,0.8530332968994037
137,0.8068130638000115
138,0.6897952025025802
140,0.45205110877400534
141,0.3117498327581929
142,0.20634284562345462
144,0.10843511013578055
145,0.009105263054963952
147,-0.19704868208324822
148,-0.31379721535831306
150,-0.6996909740260353
151,-0.9348515440696565
153,-1.117292966636331
154,-1.2211480011703646
156,-1.5191598407649232
157,-1.7670363029462952
159,-2.1769207491730045
160,-2.4531830093485443
162,-2.953041093115206
164,-3.0017695142292626
165,-2.8421936874034177
167,-2.8435369935966603
169,-3.1330695956046304
170,-3.136629850462726
172,-3.4271834814785302
174,-3.680940208825536
175,-3.7849560903105366
177,-4.0810269848355825
179,-4.464727082295645
181,-4.724092621113532
183,-5.109267262712257
184,-5.304443914430587
186,-5.3420388256279425
188,-5.520537268905461
190,-6.006948415468042
192,-6.608459989196081
194,-6.245881280799405
196,-6.205926228909735
198,-6.367784454778307
200,-6.328609753261981
202,-6.673031520645672
204,-6.80048349992971
206,-6.751403228475704
208,-6.877903387220353
210,-6.954428325482608
212,-7.084923011110742
214,-7.218242616798895
216,-7.3257797959947615
218,-7.115849154016775
221,-6.986000484389782
223,-7.41515955421653
225,-7.280702306108337
227,-7.193915577373745
229,-7.729995966765933
232,-8.148501045729628
234,-8.194756664252502
236,-8.27381819112409
239,-8.430941383955371
241,-8.45121614988718
244,-8.50401439824827
246,-8.395809418707607
248,-8.085332957570039
251,-8.828252880335004
253,-8.712546204489984
256,-8.28471167206676
259,-8.234738766906716
261,-8.430287991419725
264,-8.534387992781287
266,-8.5503764343215
269,-8.782307330143281
272,-8.922338767975466
274,-8.781105519397133
277,-8.813154661912765
280,-9.029549371082055
283,-9.222390217361149
286,-9.071838652262148
288,-9.292275881893529
291,-9.495417752336728
294,-9.214249141078835
297,-9.213844681191548
300,-9.35132827688335
303,-9.121480010696192
306,-9.050647817877739
309,-9.142728748385872
312,-9.206481026306133
316,-9.169740617560635
319,-8.999863600918921
322,-8.942185883594888
325,-8.911555773547835
328,-8.80275405067199
332,-8.622040949306223
335,-8.418032430901421
338,-8.315093427613629
342,-8.287097662991087
345,-8.2267353340516
349,-8.131329212943019
352,-7.957938349041433
356,-7.917299109684209
359,-7.910517734988179
363,-7.738365849694686
366,-7.526206460623315
370,-7.56395717342663
374,-7.5370123044843504
377,-7.352630007778135
381,-7.317743712837777
385,-7.234395311095367
389,-7.076383691960661
393,-7.09762407213754
397,-7.041948697706402
401,-6.794040574167871
405,-6.620836589192125
409,-6.497418340393161
413,-6.547774202941172
417,-6.428807464241126
421,-6.353087815546948
425,-6.324721644335149
430,-6.168129118398373
434,-6.156782254095896
438,-6.124662090800834
443,-6.038843436567388
447,-5.924843392847621
451,-5.816012168276573
456,-5.804472095096101
460,-5.689979076288983
465,-5.64482716432944
470,-5.558227907880077
474,-5.466484615187257
479,-5.327964018266677
484,-5.2474809831831095
489,-5.189600435313324
494,-5.162513274997115
499,-5.0303040400572945
504,-4.997406389194668
509,-4.873238820477491
514,-4.841980888489511
519,-4.824607014252076
524,-4.763615716001265
529,-4.677042206799807
535,-4.610179706074938
540,-4.586029083208703
545,-4.517519937760185
551,-4.520430072115017
556,-4.519879612470923
562,-4.514126528265962
568,-4.353704153427783
573,-4.281917005308839
579,-4.257280798200667
585,-4.129005050607034
591,-4.102412168536553
596,-4.071230790292325
602,-3.868687306105316
608,-3.8662877851349573
615,-3.869583914816716
621,-3.7715382150152648
627,-3.76678086199917
633,-3.6628799927927944
639,-3.576444049917143
646,-3.466564814888559
652,-3.3786778969291165
659,-3.3194379659624462
665,-3.261316262610509
672,-3.121181926894167
679,-3.0944618278290483
686,-3.091537771799628
692,-2.9622175982703434
699,-2.887012587443099
706,-2.835325988981504
713,-2.690800438043602
721,-2.5562396753202052
728,-2.432456381704596
735,-2.400994908634985
742,-2.3765554974184653
750,-2.2326735647266114
757,-2.1282403190164936
765,-2.0616921586893873
773,-2.035790147865389
780,-1.8812946268246868
788,-1.8200668507431952
796,-1.817295687351439
804,-1.698383101711888
812,-1.6145218622517419
820,-1.510258660942983
828,-1.3995023329146896
837,-1.3402839375177318
845,-1.2564456807175346
853,-1.202189389729801
862,-1.1346884808762132
871,-1.1559997401564432
879,-1.0399227634853387
888,-0.9298105242918044
897,-0.8794563173254435
906,-0.7787155775977541
915,-0.7293995778012627
924,-0.6804482393221036
933,-0.6297185255692028
943,-0.5258458224613487
952,-0.40083427551188544
962,-0.37793616617227643
971,-0.2589536071128671
981,-0.18093064909082113
991,-0.09439983174821576
1001,0.010436381836419706
1011,0.06879550824579894
1021,0.06175957431218704
1031,0.09334759818422622
1041,0.22329114090217006
1052,0.2591491877351064
1062,0.30033460909364074
1073,0.34607850460755474
1084,0.396063600710447
1094,0.4499252139446668
1105,0.5063807084148642
1116,0.563030907851005
1128,0.6174046794394021
1139,0.6687640255645113
1150,0.7194116400529076
1162,0.7596262215847642
1173,0.739053263204883
1185,0.7659750614825889
1197,0.8131262660432697
1209,0.8255867366708025
1221,0.8378836990170853
1233,0.8284268556274155
1246,0.8583198553720277
1258,0.9298519793326245
1271,0.9490076192064478
1283,0.9583460995876822
1296,0.9752462957403005
1309,1.0185623411817168
1322,1.0197289021207865
1335,1.020837645915845
1349,0.8075813217365937
1362,0.7618931813404641
1376,0.7570246791771473
1390,0.8736431692270425
1404,1.0166667262780895
1418,1.0532935688227778
1432,1.0584206016205675
1446,1.1161077128714183
1461,1.0934513455671082
1475,1.1385192248738476
1490,1.185953814792832
1505,1.181652288144825
1520,1.2220571123865849
1535,1.238131490936171
1550,1.3012106050685759
1566,1.3263667292308932
1582,1.2991434860387687
1597,1.2302875295184004
1613,1.1464477957582475
1629,1.1447765508901204
1646,1.0647299634101004
1662,1.0881966831071086
1679,1.0638272148241361
1696,1.0917400799817223
1713,1.2149851882101448
1730,1.27338415654441
1747,1.2224779808369308
1764,1.1205765068440003
1782,1.160397148131191
1800,1.091871841523497
1818,0.9532226320298474
1836,0.8361285425012572
1854,0.7482178763587575
1873,0.650484145905613
1892,0.5538839114887169
1911,0.42201661232182364
1930,0.2836493473890611
1949,0.21170275485364298
1969,0.08408816257878993
1988,-0.01634654157705917
2008,0.019878271877688647
2028,0.086032493055483
2048,0.06463599566401168
2069,0.04146254349346634
2090,0.11970877309050021
2111,0.19382871597382945
2132,0.32954535735361024
2153,0.44358519041287714
2175,0.4984438030326901
2196,0.44275688556999704
2218,0.2930426082061661
2240,0.22689376245307802
2263,0.24915897686798427
2285,0.265516310295963
2308,0.22358737218455627
2331,0.27225973926253655
2355,0.3803634025029732
2378,0.4402692552008123
2402,0.5606270549854289
2426,0.7216339568448644
2450,0.8734662026851305
2475,0.9505369595696331
2500,0.871311070018228
2525,0.8275347681375917
2550,0.8806519226300065
2575,0.924541520443646
2601,0.9056560980697705
2627,0.9021092500400476
2653,0.9498292572393616
2680,1.040284084489672
2707,1.1532715160188811
2734,1.2422847172984843
2761,1.428409103908904
2789,1.6491926065201445
2817,1.7830522311334223
2845,1.9398421727290032
2873,2.077968948342482
2902,2.1397022997036057
2931,2.1708131237846926
2960,2.2030858322807205
2990,2.240838112618901
3020,2.314505134375098
3050,2.3612710409587887
3080,2.355428179626073
3111,2.446139697705963
3142,2.633530064885342
3174,2.721733071147778
3206,2.641145233144261
3238,2.6302196643604727
3270,2.8400027822073426
3303,2.7507849464179
3336,2.7363246545066886
3369,2.890165158424761
3403,3.0266157317008044
3437,3.198458822286991
3471,3.5653412947881487
3506,3.6692730801172573
3541,3.6820583610814186
3576,3.72992241661177
3612,3.6662800487834115
3648,3.622628259382381
3685,3.613735144847251
3721,3.555595599687927
3759,3.3644201837285665
3796,3.0959616405003416
3834,2.825174353441396
3873,2.5141177721542913
3911,2.189669960929036
3950,1.8356369394352647
3990,1.6200970834093091
4030,1.2785544090062828
4070,1.0868839259066583
4111,0.9154128230095946
4152,0.49941653600660096
4193,0.13502720615656116
4235,0.09414295726842781
4278,-0.025033365990232426
4321,-0.3492239284829388
4364,-0.7446352321021728
4407,-0.921984799213929
4451,-0.8966180630197673
4496,-0.9645345357999524
4541,-0.9369172388232734
4586,-1.0122514973683039
4632,-1.1377506293708457
4679,-1.2414397003695434
4725,-1.4394596345862016
4773,-1.6206795652162675
4820,-1.6663569735671357
4868,-1.5478899327615467
4917,-1.463449119537267
4966,-1.795021921806982
5016,-1.7855681426908268
5066,-1.6077644113185086
5117,-1.2607775952498868
5168,-1.1451126141840344
5220,-1.0365062615466387
5272,-0.4077727438340313
5325,0.011507234735739225
5378,0.5757249326059997
5432,1.2234457704453607
5486,1.5809353096093641
5541,2.1390952738452116
5596,2.51334644807043
5652,2.935702529676548
5709,2.7932289571926256
5766,2.190840254915826
5823,1.715447989164148
5882,1.1873841199476542
5940,0.4214840419700119
6000,-0.20818751663293789
6060,-0.5018491333791602
6120,-0.70655826388486
6182,-0.8615650024068238
6244,-0.4857911363778902
6306,-0.5025657017047491
6369,-0.17940621513014143
6433,-0.46273717815197646
6497,-1.1257373016514398
6562,-1.5314482048919107
6628,-1.5325366182401936
6694,-1.3923685285296328
6761,-1.375073586275839
6828,-1.2650544548323497
6897,-1.4189472389829012
6966,-1.9993169663285553
7035,-2.885854282837481
7106,-2.718286608528886
7177,-2.440992359072673
7249,-2.541237546837037
7321,-2.8929093258743297
7394,-3.082436188510717
7468,-2.991123697725846
7543,-3.3809198582888773
7618,-4.146465780583593
7694,-4.307323550760956
7771,-4.102465794491908
7849,-4.193610639187143
7928,-4.488933413693807
8007,-4.63994105713522
8087,-4.734408680496314
8168,-4.857253482856308
8250,-4.873505717550712
8332,-4.347963723391326
8415,-3.8554545015195165
8499,-2.841510901178243
8584,-1.9672328384302475
8670,-1.7097669573580316
8757,-1.8013700435804552
8845,-1.7016454363394615
8933,-0.40301111979604975
9022,0.09832764730170629
9113,-0.18946473209749826
9204,-0.9797615487122355
9296,-1.7008713245325873
9389,-2.2056638115470766
9483,-3.1110734025686915
9577,-3.8167856258643975
9673,-4.141144127368244
9770,-4.304840380160555
9868,-4.2302538195032025
9966,-4.324308522279357
10066,-4.749117266689801
10167,-5.390498118461794
10268,-6.052589403719131
10371,-6.932384139281873
10475,-7.723504238838852
10579,-11.189704487065228
10685,-12.828034285511448
10792,-14.457074309255656
10900,-13.807457913887088
11009,-13.008023793012228
11119,-11.902713048790396
11230,-11.524936359933253
11343,-11.060455936251664
11456,-10.39693931756527
11571,-10.01616526235802
11686,-10.019806115901735
11803,-10.121358816077027
11921,-10.09616431687813
12040,-10.729952610949645
12161,-10.72507733601779
12282,-10.725209375459084
12405,-10.620361574947971
12529,-10.649749151669198
12655,-11.142287976051325
12781,-11.96230581482494
12909,-12.618260685380822
13038,-12.634076549156802
13168,-12.485522720991568
13300,-12.972103373478415
13433,-13.327359274126696
13567,-13.531935618318712
13703,-12.854608769781255
13840,-12.426933395252721
13978,-11.96415700789067
14118,-11.47582196758823
14259,-10.547862709444779
14402,-9.276400450424259
14546,-8.092918717963357
14692,-7.618826715329187
14838,-7.9824951558483725
14987,-7.834545078307954
15137,-8.003847391300301
15288,-9.497123585135846
15441,-10.240932310902224
15595,-12.570088569373649
15751,-13.085792281994856
15909,-13.10457324761826
16068,-12.382737023872672
16229,-11.102940469405281
16391,-10.492593535921788
16555,-9.277588390359291
16720,-8.515592339752741
16888,-8.13883108223709
17056,-7.5510154893063
17227,-7.3898096421646935
17399,-7.6633145827052
17573,-8.034582858639837
17749,-8.370101822524273
17926,-8.48493581245301
18106,-8.329431425631002
18287,-8.183753514537816
18470,-8.337228941906297
18654,-8.574973123142387
18841,-8.631882668169993
19029,-9.261556789544581
19220,-9.778589478275926
19412,-9.998752731207665
19606,-11.02660839494294
19802,-12.249496091234096
20000,-12.102163123301093
20200,-12.057888462551258
20402,-12.21199954545665
20606,-12.789063611349752
20812,-14.107469090225361
21020,-15.694502884568038
21230,-17.11347008394673
21443,-16.988925758620162
21657,-15.57110476297484
21874,-14.277980823920716
22092,-14.667806776196837
22313,-14.646845369994548
22537,-15.215901745878515
22762,-14.118159894310981
22989,-13.915751039155076
23219,-14.53030850266191
23452,-16.439073322578373
23686,-17.44416208444569
23923,-18.68072215798983
24162,-18.810988115629836
24404,-18.942845426243696
24648,-19.074943659562003
24894,-19.20707160091651
25143,-19.340147990015453
25395,-19.473929040193887
25649,-19.607093319940475
25905,-19.73954078200812
26164,-19.872331504872356
26426,-20.005428458367042
26690,-20.137738691926366
26957,-20.270373755484037
27227,-20.403340313286815
27499,-20.535581047009266
27774,-20.6681490899948
28052,-20.80100947029245
28332,-20.933097032849073
28615,-21.06540345679514
28902,-21.19889635987454
29191,-21.331527922158045
29482,-21.46329704472633
29777,-21.596145520271993
