frequency,raw
20,-12.17
21,-11.13
22,-10.34
23,-9.61
24,-8.86
25,-8.26
26,-7.58
27,-6.99
28,-6.49
29,-6.02
30,-5.48
31,-5.11
32,-4.63
33,-4.26
34,-3.91
35,-3.58
36,-3.27
37,-2.98
38,-2.81
39,-2.52
40,-2.23
41,-1.95
42,-1.68
43,-1.41
44,-1.30
45,-0.98
46,-0.65
47,-0.49
48,-0.33
49,-0.10
50,0.13
51,0.32
52,0.49
53,0.64
54,0.83
55,0.97
56,1.19
57,1.29
58,1.32
59,1.51
60,1.62
61,1.62
62,1.74
63,1.78
64,1.94
65,1.94
66,1.94
67,1.94
68,1.94
69,1.94
70,1.94
71,1.94
72,1.94
73,1.94
74,1.94
75,1.94
76,1.94
77,1.94
78,1.94
79,2.05
80,2.19
81,2.27
82,2.27
83,2.27
84,2.27
85,2.39
86,2.52
87,2.59
88,2.59
89,2.59
90,2.59
91,2.67
92,2.80
93,2.92
94,2.92
95,2.92
96,2.92
97,2.92
98,2.92
99,2.97
100,3.09
101,3.20
102,3.24
104,3.24
105,3.24
106,3.24
107,3.24
108,3.24
109,3.24
110,3.24
111,3.29
112,3.40
113,3.40
114,3.40
115,3.40
117,3.56
118,3.56
119,3.56
120,3.56
121,3.56
123,3.56
124,3.56
125,3.56
126,3.56
128,3.56
129,3.56
130,3.56
131,3.56
133,3.41
134,3.47
135,3.56
137,3.56
138,3.48
140,3.40
141,3.40
142,3.40
144,3.33
145,3.25
147,3.24
148,3.24
150,3.24
151,3.24
153,3.24
154,3.24
156,3.23
157,3.16
159,3.02
160,2.95
162,2.92
164,2.92
165,2.92
167,2.79
169,2.65
170,2.59
172,2.59
174,2.49
175,2.42
177,2.29
179,2.27
181,2.14
183,1.94
184,1.94
186,1.85
188,1.62
190,1.62
192,1.54
194,1.42
196,1.31
198,1.19
200,1.08
202,0.97
204,0.85
206,0.74
208,0.64
210,0.64
212,0.58
214,0.48
216,0.37
218,0.32
221,0.32
223,0.32
225,0.32
227,0.30
229,0.20
232,0.05
234,-0.00
236,-0.00
239,-0.00
241,0.05
244,0.19
246,0.28
248,0.32
251,0.32
253,0.32
256,0.32
259,0.37
261,0.46
264,0.59
266,0.64
269,0.64
272,0.64
274,0.69
277,0.81
280,0.93
283,0.97
286,0.97
288,0.97
291,1.11
294,1.29
297,1.29
300,1.29
303,1.29
306,1.29
309,1.29
312,1.29
316,1.32
319,1.43
322,1.54
325,1.60
328,1.49
332,1.56
335,1.62
338,1.62
342,1.62
345,1.62
349,1.62
352,1.62
356,1.62
359,1.62
363,1.62
366,1.62
370,1.62
374,1.62
377,1.62
381,1.62
385,1.62
389,1.62
393,1.62
397,1.62
401,1.62
405,1.69
409,1.78
413,1.78
417,1.86
421,1.94
425,1.94
430,1.94
434,1.94
438,1.94
443,1.94
447,1.94
451,1.94
456,1.94
460,1.94
465,1.94
470,1.94
474,2.01
479,2.10
484,2.10
489,2.20
494,2.22
499,2.10
504,2.10
509,2.04
514,1.94
519,1.94
524,1.94
529,1.94
535,1.94
540,1.94
545,1.94
551,1.94
556,1.94
562,1.94
568,1.94
573,1.94
579,1.94
585,1.94
591,1.94
596,1.94
602,1.94
608,1.94
615,1.85
621,1.74
627,1.63
633,1.62
639,1.62
646,1.62
652,1.62
659,1.56
665,1.46
672,1.34
679,1.29
686,1.29
692,1.29
699,1.22
706,1.11
713,0.99
721,0.97
728,0.97
735,0.97
742,0.97
750,0.97
757,0.97
765,0.97
773,0.89
780,0.79
788,0.68
796,0.64
804,0.64
812,0.64
820,0.64
828,0.64
837,0.64
845,0.64
853,0.64
862,0.64
871,0.64
879,0.64
888,0.64
897,0.64
906,0.56
915,0.45
924,0.34
933,0.32
943,0.32
952,0.32
962,0.32
971,0.26
981,0.15
991,0.03
1001,-0.00
1011,-0.00
1021,-0.00
1031,-0.00
1041,-0.04
1052,-0.15
1062,-0.26
1073,-0.33
1084,-0.33
1094,-0.33
1105,-0.33
1116,-0.34
1128,-0.46
1139,-0.57
1150,-0.65
1162,-0.65
1173,-0.74
1185,-0.85
1197,-0.96
1209,-0.98
1221,-1.08
1233,-1.30
1246,-1.30
1258,-1.43
1271,-1.63
1283,-1.63
1296,-1.77
1309,-1.95
1322,-1.95
1335,-2.03
1349,-2.15
1362,-2.26
1376,-2.27
1390,-2.27
1404,-2.26
1418,-2.04
1432,-1.95
1446,-1.92
1461,-1.69
1475,-1.47
1490,-1.25
1505,-1.02
1520,-0.80
1535,-0.57
1550,-0.35
1566,-0.12
1582,0.11
1597,0.32
1613,0.43
1629,0.61
1646,0.84
1662,1.06
1679,1.21
1696,1.35
1713,1.58
1730,1.62
1747,1.62
1764,1.62
1782,1.72
1800,1.78
1818,1.78
1836,1.78
1854,1.72
1873,1.62
1892,1.62
1911,1.54
1930,1.43
1949,1.32
1969,1.20
1988,1.09
2008,0.98
2028,0.76
2048,0.59
2069,0.47
2090,0.25
2111,0.02
2132,-0.18
2153,-0.30
2175,-0.49
2196,-0.71
2218,-0.93
2240,-1.16
2263,-1.34
2285,-1.45
2308,-1.67
2331,-1.84
2355,-1.96
2378,-2.18
2402,-2.34
2426,-2.45
2450,-2.57
2475,-2.68
2500,-2.79
2525,-2.91
2550,-2.92
2575,-2.97
2601,-3.08
2627,-3.08
2653,-3.08
2680,-3.08
2707,-3.08
2734,-3.08
2761,-3.07
2789,-2.95
2817,-2.92
2845,-2.92
2873,-2.92
2902,-2.92
2931,-2.92
2960,-2.92
2990,-2.92
3020,-2.92
3050,-2.92
3080,-2.92
3111,-2.92
3142,-2.92
3174,-2.92
3206,-2.92
3238,-2.92
3270,-2.92
3303,-3.02
3336,-3.13
3369,-3.24
3403,-3.25
3437,-3.31
3471,-3.42
3506,-3.53
3541,-3.64
3576,-3.75
3612,-3.87
3648,-4.06
3685,-4.26
3721,-4.37
3759,-4.48
3796,-4.64
3834,-4.86
3873,-4.87
3911,-4.87
3950,-4.86
3990,-4.75
4030,-4.56
4070,-4.29
4111,-3.84
4152,-3.30
4193,-2.72
4235,-2.04
4278,-1.26
4321,-0.52
4364,0.15
4407,0.93
4451,1.65
4496,2.31
4541,2.76
4586,3.21
4632,3.66
4679,4.11
4725,4.47
4773,4.78
4820,5.00
4868,5.32
4917,5.61
4966,5.83
5016,5.95
5066,6.06
5117,6.16
5168,6.16
5220,6.23
5272,6.32
5325,6.32
5378,6.23
5432,6.12
5486,6.01
5541,5.90
5596,5.73
5652,5.51
5709,5.28
5766,5.06
5823,4.84
5882,4.61
5940,4.46
6000,4.29
6060,3.96
6120,3.71
6182,3.52
6244,3.41
6306,3.20
6369,2.97
6433,2.75
6497,2.64
6562,2.53
6628,2.41
6694,2.30
6761,2.27
6828,2.24
6897,2.13
6966,2.01
7035,1.98
7106,2.10
7177,2.21
7249,2.27
7321,2.27
7394,2.27
7468,2.27
7543,2.28
7618,2.39
7694,2.51
7771,2.59
7849,2.59
7928,2.59
8007,2.59
8087,2.59
8168,2.59
8250,2.59
8332,2.59
8415,2.59
8499,2.59
8584,2.59
8670,2.59
8757,2.59
8845,2.59
8933,2.59
9022,2.59
9113,2.55
9204,2.44
9296,2.43
9389,2.37
9483,2.27
9577,2.38
9673,2.50
9770,2.59
9868,2.59
9966,2.59
10066,2.65
10167,2.88
10268,2.92
10371,3.00
10475,3.23
10579,3.35
10685,3.51
10792,3.73
10900,3.85
11009,4.03
11119,4.23
11230,4.34
11343,4.46
11456,4.60
11571,4.83
11686,5.05
11803,5.23
11921,5.34
12040,5.56
12161,5.73
12282,5.84
12405,5.95
12529,6.07
12655,6.16
12781,6.16
12909,5.99
13038,5.83
13168,5.83
13300,5.83
13433,5.74
13567,5.52
13703,5.40
13840,5.29
13978,5.17
14118,4.94
14259,4.72
14402,4.51
14546,4.40
14692,4.20
14838,3.98
14987,3.76
15137,3.53
15288,3.21
15441,2.76
15595,2.53
15751,2.19
15909,1.75
16068,1.41
16229,1.00
16391,0.55
16555,0.10
16720,-0.35
16888,-0.80
17056,-1.24
17227,-1.89
17399,-2.47
17573,-2.92
17749,-3.59
17926,-4.14
18106,-4.60
18287,-5.16
18470,-5.73
18654,-6.26
18841,-6.71
19029,-7.16
19220,-7.61
19412,-8.06
19606,-8.51
19802,-8.96
20000,-9.41
