frequency,raw,smoothed,error,error_smoothed,equalization,parametric_eq,fixed_band_eq,equalized_raw,equalized_smoothed,target
20.00,-3.69,-3.69,-9.88,-9.88,6.00,7.13,1.66,2.31,2.31,6.20
20.20,-3.53,-3.53,-9.75,-9.75,6.00,7.05,1.71,2.47,2.47,6.22
20.40,-3.37,-3.37,-9.63,-9.63,6.00,6.97,1.76,2.63,2.63,6.25
20.61,-3.22,-3.22,-9.49,-9.50,6.00,6.89,1.82,2.78,2.78,6.27
20.81,-3.05,-3.06,-9.36,-9.37,6.00,6.81,1.87,2.95,2.94,6.30
21.02,-2.91,-2.90,-9.24,-9.23,6.00,6.73,1.93,3.09,3.10,6.33
21.23,-2.75,-2.74,-9.09,-9.09,6.00,6.65,1.99,3.25,3.26,6.34
21.44,-2.58,-2.59,-8.94,-8.94,6.00,6.57,2.05,3.42,3.41,6.35
21.66,-2.43,-2.43,-8.79,-8.79,6.00,6.49,2.12,3.57,3.57,6.36
21.87,-2.27,-2.27,-8.63,-8.64,6.00,6.40,2.18,3.73,3.73,6.36
22.09,-2.11,-2.12,-8.48,-8.48,6.00,6.32,2.25,3.89,3.88,6.37
22.31,-1.96,-1.96,-8.33,-8.33,6.00,6.24,2.32,4.04,4.04,6.37
22.54,-1.81,-1.81,-8.18,-8.18,6.00,6.15,2.39,4.19,4.19,6.37
22.76,-1.66,-1.65,-8.02,-8.02,6.00,6.07,2.46,4.34,4.35,6.37
22.99,-1.50,-1.50,-7.85,-7.86,6.00,5.98,2.53,4.50,4.50,6.36
23.22,-1.35,-1.35,-7.70,-7.70,6.00,5.90,2.61,4.65,4.65,6.36
23.45,-1.20,-1.19,-7.55,-7.55,6.00,5.81,2.69,4.80,4.81,6.36
23.69,-1.04,-1.04,-7.39,-7.40,6.00,5.72,2.77,4.96,4.96,6.36
23.92,-0.88,-0.89,-7.24,-7.24,6.00,5.64,2.85,5.12,5.11,6.35
24.16,-0.73,-0.73,-7.10,-7.09,6.00,5.55,2.93,5.27,5.27,6.36
24.40,-0.57,-0.58,-6.94,-6.94,6.01,5.46,3.01,5.44,5.43,6.36
24.65,-0.43,-0.43,-6.78,-6.78,6.02,5.37,3.09,5.60,5.60,6.35
24.89,-0.27,-0.27,-6.62,-6.62,6.03,5.28,3.18,5.76,5.76,6.35
25.14,-0.12,-0.12,-6.47,-6.47,6.02,5.19,3.26,5.90,5.90,6.35
25.39,0.04,0.03,-6.31,-6.32,6.00,5.10,3.35,6.04,6.03,6.35
25.65,0.18,0.18,-6.16,-6.16,5.96,5.01,3.43,6.14,6.14,6.35
25.91,0.33,0.33,-6.01,-6.01,5.90,4.92,3.52,6.23,6.23,6.34
26.16,0.49,0.48,-5.85,-5.85,5.81,4.82,3.60,6.30,6.29,6.34
26.43,0.63,0.63,-5.70,-5.70,5.70,4.73,3.68,6.34,6.34,6.33
26.69,0.78,0.78,-5.55,-5.55,5.58,4.63,3.76,6.36,6.36,6.33
26.96,0.93,0.93,-5.40,-5.40,5.43,4.54,3.84,6.37,6.36,6.33
27.23,1.07,1.07,-5.26,-5.26,5.28,4.45,3.92,6.35,6.35,6.33
27.50,1.21,1.21,-5.12,-5.11,5.12,4.35,3.99,6.33,6.34,6.33
27.77,1.36,1.35,-4.96,-4.97,4.96,4.25,4.06,6.32,6.32,6.32
28.05,1.49,1.49,-4.82,-4.82,4.82,4.16,4.12,6.31,6.31,6.32
28.33,1.63,1.63,-4.67,-4.67,4.68,4.06,4.18,6.31,6.31,6.31
28.62,1.77,1.77,-4.53,-4.53,4.53,3.96,4.24,6.30,6.31,6.30
28.90,1.91,1.91,-4.39,-4.39,4.39,3.86,4.28,6.30,6.30,6.30
29.19,2.04,2.05,-4.25,-4.25,4.25,3.76,4.32,6.29,6.29,6.29
29.48,2.18,2.19,-4.11,-4.11,4.11,3.66,4.35,6.29,6.29,6.30
29.78,2.32,2.32,-3.96,-3.97,3.96,3.56,4.38,6.29,6.29,6.29
30.08,2.46,2.46,-3.82,-3.82,3.82,3.46,4.39,6.28,6.28,6.28
30.38,2.59,2.59,-3.68,-3.68,3.68,3.36,4.40,6.27,6.28,6.27
30.68,2.73,2.73,-3.54,-3.54,3.54,3.26,4.40,6.27,6.27,6.27
30.99,2.86,2.86,-3.40,-3.40,3.40,3.15,4.39,6.26,6.26,6.26
31.30,3.00,3.00,-3.25,-3.26,3.25,3.05,4.36,6.26,6.26,6.26
31.61,3.13,3.14,-3.12,-3.11,3.11,2.94,4.33,6.25,6.25,6.25
31.93,3.27,3.27,-2.97,-2.97,2.97,2.84,4.29,6.25,6.24,6.24
32.24,3.41,3.40,-2.82,-2.83,2.83,2.73,4.24,6.24,6.24,6.23
32.57,3.53,3.53,-2.69,-2.69,2.70,2.63,4.17,6.23,6.23,6.23
32.89,3.66,3.66,-2.56,-2.56,2.56,2.52,4.11,6.22,6.22,6.22
33.22,3.79,3.79,-2.42,-2.42,2.42,2.41,4.03,6.21,6.21,6.21
33.55,3.93,3.92,-2.28,-2.28,2.28,2.31,3.94,6.20,6.20,6.21
33.89,4.05,4.05,-2.14,-2.15,2.14,2.20,3.84,6.20,6.20,6.20
34.23,4.18,4.18,-2.01,-2.01,2.01,2.09,3.74,6.19,6.19,6.19
34.57,4.31,4.31,-1.87,-1.87,1.87,1.98,3.63,6.18,6.18,6.18
34.92,4.44,4.44,-1.72,-1.73,1.73,1.87,3.52,6.17,6.17,6.17
35.27,4.56,4.57,-1.60,-1.59,1.60,1.76,3.40,6.16,6.16,6.16
35.62,4.69,4.69,-1.46,-1.46,1.46,1.65,3.27,6.15,6.15,6.15
35.97,4.82,4.81,-1.32,-1.33,1.33,1.54,3.14,6.14,6.14,6.14
36.33,4.93,4.94,-1.20,-1.19,1.19,1.42,3.01,6.13,6.13,6.13
36.70,5.05,5.05,-1.07,-1.06,1.06,1.31,2.87,6.12,6.12,6.12
37.06,5.18,5.18,-0.93,-0.93,0.93,1.20,2.73,6.11,6.11,6.10
37.43,5.30,5.29,-0.81,-0.80,0.80,1.08,2.59,6.10,6.10,6.10
37.81,5.41,5.41,-0.67,-0.68,0.67,0.97,2.45,6.09,6.09,6.09
38.19,5.52,5.53,-0.55,-0.55,0.55,0.86,2.30,6.07,6.07,6.07
38.57,5.64,5.64,-0.42,-0.42,0.42,0.74,2.15,6.06,6.06,6.07
38.95,5.77,5.76,-0.29,-0.29,0.29,0.63,2.01,6.05,6.05,6.05
39.34,5.87,5.88,-0.16,-0.16,0.16,0.51,1.86,6.04,6.04,6.04
39.74,5.99,5.99,-0.03,-0.03,0.03,0.40,1.71,6.03,6.03,6.02
40.14,6.10,6.11,0.09,0.09,-0.09,0.28,1.56,6.01,6.02,6.02
40.54,6.22,6.22,0.22,0.22,-0.21,0.16,1.41,6.01,6.01,6.00
40.94,6.33,6.33,0.34,0.34,-0.33,0.05,1.25,6.00,6.00,5.99
41.35,6.43,6.44,0.46,0.46,-0.45,-0.07,1.10,5.98,5.99,5.98
41.76,6.54,6.54,0.57,0.57,-0.57,-0.18,0.95,5.97,5.97,5.97
42.18,6.64,6.65,0.68,0.68,-0.69,-0.30,0.80,5.96,5.96,5.97
42.60,6.75,6.75,0.81,0.80,-0.80,-0.42,0.65,5.95,5.95,5.95
43.03,6.85,6.85,0.91,0.91,-0.92,-0.53,0.50,5.93,5.93,5.94
43.46,6.95,6.96,1.03,1.04,-1.04,-0.65,0.35,5.91,5.92,5.93
43.90,7.06,7.06,1.16,1.16,-1.16,-0.76,0.20,5.90,5.90,5.90
44.33,7.16,7.16,1.28,1.28,-1.28,-0.88,0.05,5.89,5.88,5.88
44.78,7.25,7.26,1.39,1.40,-1.39,-1.00,-0.10,5.86,5.87,5.86
45.23,7.35,7.35,1.51,1.51,-1.51,-1.11,-0.25,5.85,5.85,5.84
45.68,7.44,7.44,1.62,1.62,-1.62,-1.22,-0.40,5.83,5.83,5.82
46.13,7.53,7.54,1.73,1.73,-1.72,-1.34,-0.55,5.81,5.81,5.81
46.60,7.62,7.63,1.83,1.83,-1.83,-1.45,-0.70,5.79,5.80,5.80
47.06,7.71,7.71,1.94,1.93,-1.93,-1.56,-0.85,5.78,5.78,5.78
47.53,7.79,7.79,2.04,2.03,-2.03,-1.68,-1.00,5.76,5.76,5.76
48.01,7.86,7.87,2.12,2.13,-2.14,-1.79,-1.14,5.73,5.73,5.75
48.49,7.94,7.94,2.23,2.23,-2.24,-1.90,-1.29,5.71,5.70,5.72
48.97,8.01,8.02,2.33,2.33,-2.34,-2.01,-1.44,5.68,5.68,5.69
49.46,8.09,8.09,2.44,2.44,-2.44,-2.11,-1.59,5.66,5.66,5.65
49.96,8.16,8.16,2.54,2.53,-2.53,-2.22,-1.74,5.63,5.63,5.62
50.46,8.22,8.23,2.61,2.62,-2.62,-2.33,-1.88,5.61,5.61,5.61
50.96,8.28,8.29,2.70,2.70,-2.70,-2.43,-2.03,5.58,5.59,5.59
51.47,8.34,8.34,2.79,2.78,-2.77,-2.53,-2.17,5.57,5.57,5.55
51.99,8.37,8.38,2.84,2.84,-2.83,-2.63,-2.31,5.54,5.55,5.53
52.51,8.40,8.40,2.89,2.89,-2.88,-2.73,-2.46,5.52,5.52,5.52
53.03,8.42,8.42,2.93,2.93,-2.92,-2.83,-2.60,5.50,5.50,5.49
53.56,8.43,8.43,2.97,2.96,-2.96,-2.93,-2.73,5.48,5.48,5.47
54.10,8.43,8.43,2.99,2.99,-2.99,-3.02,-2.87,5.45,5.45,5.44
54.64,8.43,8.43,3.02,3.02,-3.02,-3.11,-3.00,5.42,5.41,5.42
55.18,8.43,8.44,3.04,3.05,-3.05,-3.20,-3.13,5.38,5.38,5.39
55.74,8.44,8.45,3.08,3.08,-3.10,-3.29,-3.26,5.34,5.35,5.36
56.29,8.48,8.48,3.14,3.14,-3.16,-3.38,-3.38,5.33,5.32,5.34
56.86,8.52,8.53,3.21,3.21,-3.23,-3.46,-3.50,5.29,5.30,5.32
57.42,8.59,8.60,3.31,3.30,-3.31,-3.54,-3.62,5.28,5.28,5.29
58.00,8.67,8.68,3.40,3.41,-3.41,-3.62,-3.73,5.26,5.26,5.27
58.58,8.77,8.77,3.52,3.52,-3.52,-3.70,-3.83,5.25,5.25,5.25
59.16,8.86,8.87,3.64,3.64,-3.64,-3.77,-3.93,5.23,5.23,5.23
59.76,8.96,8.96,3.76,3.76,-3.75,-3.85,-4.03,5.21,5.21,5.21
60.35,9.05,9.05,3.88,3.87,-3.87,-3.92,-4.11,5.19,5.18,5.18
60.96,9.13,9.13,3.98,3.99,-3.98,-3.98,-4.20,5.16,5.16,5.15
61.57,9.20,9.20,4.09,4.09,-4.08,-4.05,-4.27,5.12,5.12,5.11
62.18,9.26,9.26,4.19,4.18,-4.17,-4.11,-4.34,5.09,5.09,5.08
62.80,9.30,9.31,4.25,4.26,-4.25,-4.17,-4.41,5.05,5.05,5.05
63.43,9.34,9.34,4.33,4.32,-4.33,-4.23,-4.46,5.02,5.02,5.02
64.07,9.37,9.37,4.38,4.38,-4.39,-4.29,-4.52,4.98,4.98,4.99
64.71,9.39,9.40,4.43,4.43,-4.44,-4.34,-4.56,4.95,4.95,4.96
65.35,9.41,9.41,4.48,4.48,-4.49,-4.39,-4.60,4.93,4.93,4.94
66.01,9.42,9.42,4.52,4.51,-4.52,-4.44,-4.64,4.91,4.90,4.91
66.67,9.41,9.42,4.53,4.54,-4.54,-4.49,-4.67,4.88,4.88,4.88
67.33,9.39,9.40,4.54,4.55,-4.54,-4.53,-4.69,4.86,4.86,4.85
68.01,9.36,9.36,4.54,4.54,-4.52,-4.58,-4.72,4.84,4.83,4.82
68.69,9.29,9.30,4.51,4.51,-4.49,-4.62,-4.73,4.81,4.81,4.79
69.37,9.21,9.21,4.46,4.46,-4.43,-4.66,-4.75,4.78,4.78,4.76
70.07,9.11,9.11,4.39,4.38,-4.36,-4.70,-4.76,4.75,4.75,4.72
70.77,8.99,8.99,4.29,4.30,-4.28,-4.74,-4.77,4.71,4.71,4.70
71.48,8.86,8.86,4.20,4.20,-4.19,-4.77,-4.78,4.67,4.67,4.67
72.19,8.73,8.73,4.10,4.10,-4.10,-4.81,-4.79,4.63,4.63,4.63
72.91,8.61,8.61,4.02,4.02,-4.03,-4.84,-4.80,4.58,4.58,4.59
73.64,8.51,8.51,3.96,3.95,-3.98,-4.87,-4.80,4.53,4.53,4.56
74.38,8.44,8.45,3.91,3.92,-3.96,-4.90,-4.81,4.48,4.49,4.53
75.12,8.42,8.43,3.93,3.93,-3.97,-4.93,-4.82,4.45,4.45,4.49
75.87,8.44,8.45,3.98,3.98,-4.02,-4.96,-4.82,4.42,4.43,4.46
76.63,8.51,8.51,4.08,4.08,-4.10,-4.99,-4.83,4.41,4.41,4.43
77.40,8.60,8.61,4.20,4.21,-4.21,-5.02,-4.84,4.39,4.39,4.40
78.17,8.72,8.72,4.37,4.36,-4.35,-5.05,-4.86,4.38,4.37,4.36
78.95,8.84,8.84,4.51,4.51,-4.49,-5.08,-4.87,4.35,4.35,4.34
79.74,8.96,8.97,4.66,4.67,-4.64,-5.10,-4.89,4.32,4.32,4.30
80.54,9.08,9.08,4.82,4.81,-4.79,-5.13,-4.91,4.29,4.29,4.27
81.35,9.19,9.19,4.96,4.95,-4.94,-5.16,-4.94,4.25,4.25,4.23
82.16,9.28,9.28,5.09,5.08,-5.08,-5.18,-4.96,4.20,4.20,4.20
82.98,9.36,9.37,5.19,5.21,-5.21,-5.21,-4.99,4.15,4.16,4.17
83.81,9.45,9.45,5.33,5.32,-5.34,-5.24,-5.03,4.12,4.12,4.12
84.65,9.53,9.53,5.45,5.44,-5.45,-5.27,-5.06,4.08,4.08,4.09
85.50,9.60,9.61,5.55,5.55,-5.55,-5.29,-5.11,4.05,4.05,4.06
86.35,9.67,9.67,5.65,5.65,-5.65,-5.32,-5.15,4.03,4.02,4.02
87.22,9.72,9.72,5.74,5.74,-5.73,-5.35,-5.20,4.00,4.00,3.98
88.09,9.75,9.75,5.81,5.81,-5.79,-5.38,-5.25,3.96,3.96,3.94
88.97,9.76,9.76,5.86,5.86,-5.84,-5.40,-5.31,3.92,3.92,3.91
89.86,9.75,9.75,5.89,5.89,-5.88,-5.43,-5.37,3.87,3.87,3.87
90.76,9.72,9.73,5.91,5.91,-5.91,-5.46,-5.44,3.81,3.82,3.81
91.66,9.69,9.70,5.91,5.92,-5.93,-5.49,-5.51,3.76,3.77,3.78
92.58,9.66,9.66,5.94,5.93,-5.94,-5.52,-5.58,3.72,3.72,3.73
93.51,9.63,9.63,5.94,5.94,-5.96,-5.55,-5.66,3.68,3.68,3.69
94.44,9.60,9.60,5.95,5.96,-5.96,-5.58,-5.74,3.64,3.64,3.65
95.39,9.57,9.57,5.97,5.97,-5.97,-5.62,-5.82,3.60,3.60,3.61
96.34,9.53,9.54,5.98,5.98,-5.97,-5.65,-5.91,3.56,3.56,3.55
97.30,9.49,9.49,5.99,5.99,-5.97,-5.68,-6.00,3.52,3.52,3.51
98.28,9.44,9.44,5.98,5.98,-5.97,-5.72,-6.10,3.48,3.48,3.46
99.26,9.38,9.39,5.97,5.97,-5.96,-5.75,-6.20,3.43,3.43,3.42
100.25,9.32,9.32,5.95,5.95,-5.94,-5.79,-6.30,3.38,3.38,3.37
101.25,9.25,9.25,5.93,5.93,-5.93,-5.82,-6.40,3.32,3.32,3.32
102.27,9.18,9.19,5.91,5.91,-5.92,-5.86,-6.51,3.26,3.26,3.28
103.29,9.13,9.13,5.91,5.91,-5.92,-5.89,-6.62,3.21,3.21,3.22
104.32,9.09,9.10,5.91,5.91,-5.93,-5.93,-6.73,3.17,3.17,3.18
105.37,9.07,9.07,5.94,5.94,-5.94,-5.97,-6.83,3.13,3.13,3.14
106.42,9.06,9.06,5.97,5.97,-5.97,-6.01,-6.94,3.09,3.09,3.09
107.48,9.06,9.06,6.02,6.02,-6.01,-6.05,-7.05,3.05,3.05,3.05
108.56,9.06,9.07,6.07,6.07,-6.07,-6.09,-7.16,3.00,3.00,2.99
109.64,9.08,9.08,6.14,6.13,-6.14,-6.13,-7.27,2.95,2.94,2.94
110.74,9.09,9.10,6.20,6.20,-6.22,-6.17,-7.37,2.88,2.88,2.90
111.85,9.13,9.13,6.28,6.29,-6.31,-6.21,-7.48,2.83,2.83,2.85
112.97,9.18,9.18,6.40,6.39,-6.40,-6.25,-7.57,2.78,2.78,2.79
114.10,9.23,9.24,6.49,6.50,-6.51,-6.29,-7.67,2.73,2.73,2.74
115.24,9.30,9.30,6.62,6.61,-6.61,-6.33,-7.75,2.69,2.69,2.69
116.39,9.35,9.35,6.72,6.72,-6.72,-6.38,-7.84,2.64,2.64,2.63
117.55,9.40,9.40,6.83,6.82,-6.81,-6.42,-7.91,2.59,2.59,2.58
118.73,9.43,9.44,6.91,6.91,-6.90,-6.46,-7.98,2.54,2.54,2.52
119.92,9.45,9.46,6.97,6.98,-6.97,-6.51,-8.04,2.49,2.49,2.48
121.12,9.46,9.46,7.04,7.03,-7.02,-6.55,-8.09,2.45,2.44,2.43
122.33,9.44,9.44,7.07,7.06,-7.04,-6.60,-8.13,2.40,2.40,2.38
123.55,9.40,9.40,7.07,7.07,-7.05,-6.64,-8.16,2.35,2.35,2.33
124.79,9.34,9.34,7.06,7.06,-7.04,-6.68,-8.18,2.30,2.30,2.28
126.03,9.26,9.26,7.03,7.03,-7.02,-6.73,-8.19,2.24,2.24,2.23
127.29,9.17,9.18,6.99,7.00,-6.99,-6.78,-8.19,2.18,2.18,2.18
128.57,9.08,9.08,6.96,6.96,-6.96,-6.82,-8.18,2.12,2.12,2.12
129.85,9.00,9.00,6.93,6.93,-6.93,-6.87,-8.16,2.07,2.06,2.07
131.15,8.92,8.93,6.90,6.90,-6.92,-6.91,-8.14,2.00,2.01,2.03
132.46,8.88,8.88,6.90,6.90,-6.93,-6.96,-8.10,1.96,1.96,1.98
133.79,8.86,8.86,6.92,6.93,-6.96,-7.00,-8.06,1.91,1.91,1.94
135.12,8.87,8.87,6.99,6.98,-7.01,-7.05,-8.01,1.87,1.87,1.89
136.48,8.90,8.91,7.05,7.06,-7.08,-7.09,-7.95,1.83,1.83,1.85
137.84,8.96,8.96,7.16,7.16,-7.17,-7.14,-7.89,1.80,1.80,1.81
139.22,9.03,9.03,7.28,7.27,-7.27,-7.18,-7.82,1.77,1.76,1.75
140.61,9.10,9.11,7.39,7.39,-7.38,-7.23,-7.75,1.73,1.73,1.71
142.02,9.18,9.18,7.50,7.50,-7.49,-7.27,-7.68,1.70,1.69,1.69
143.44,9.25,9.25,7.61,7.61,-7.59,-7.31,-7.60,1.66,1.66,1.65
144.87,9.31,9.31,7.71,7.70,-7.69,-7.36,-7.52,1.62,1.62,1.61
146.32,9.36,9.36,7.80,7.79,-7.78,-7.40,-7.44,1.58,1.58,1.57
147.78,9.40,9.40,7.87,7.87,-7.86,-7.44,-7.37,1.54,1.54,1.54
149.26,9.43,9.43,7.93,7.94,-7.93,-7.49,-7.29,1.50,1.50,1.50
150.75,9.45,9.45,8.00,7.99,-7.99,-7.53,-7.21,1.46,1.46,1.45
152.26,9.46,9.47,8.05,8.05,-8.05,-7.57,-7.14,1.41,1.42,1.42
153.78,9.47,9.47,8.09,8.09,-8.10,-7.61,-7.06,1.38,1.37,1.38
155.32,9.47,9.47,8.14,8.13,-8.14,-7.65,-6.99,1.33,1.33,1.34
156.88,9.47,9.47,8.17,8.17,-8.18,-7.69,-6.93,1.30,1.30,1.30
158.44,9.46,9.46,8.20,8.21,-8.21,-7.73,-6.86,1.26,1.26,1.26
160.03,9.45,9.45,8.24,8.24,-8.23,-7.76,-6.80,1.22,1.22,1.22
161.63,9.43,9.44,8.26,8.26,-8.25,-7.80,-6.75,1.18,1.18,1.18
163.24,9.41,9.41,8.28,8.27,-8.26,-7.84,-6.69,1.15,1.15,1.14
164.88,9.37,9.38,8.27,8.27,-8.27,-7.87,-6.65,1.10,1.11,1.11
166.53,9.33,9.34,8.27,8.27,-8.27,-7.90,-6.60,1.06,1.07,1.07
168.19,9.29,9.29,8.27,8.26,-8.27,-7.93,-6.56,1.03,1.03,1.03
169.87,9.24,9.25,8.25,8.25,-8.26,-7.96,-6.53,0.99,0.99,0.99
171.57,9.19,9.20,8.24,8.24,-8.24,-7.99,-6.50,0.95,0.95,0.95
173.29,9.14,9.14,8.23,8.22,-8.23,-8.02,-6.47,0.91,0.91,0.92
175.02,9.08,9.08,8.20,8.21,-8.21,-8.04,-6.46,0.87,0.87,0.88
176.77,9.02,9.03,8.19,8.19,-8.19,-8.06,-6.44,0.83,0.83,0.84
178.54,8.96,8.97,8.17,8.17,-8.17,-8.08,-6.43,0.79,0.80,0.79
180.32,8.90,8.90,8.14,8.14,-8.14,-8.10,-6.42,0.76,0.76,0.76
182.13,8.83,8.83,8.11,8.11,-8.11,-8.12,-6.43,0.73,0.73,0.73
183.95,8.75,8.76,8.07,8.07,-8.06,-8.13,-6.43,0.69,0.69,0.69
185.79,8.67,8.67,8.02,8.02,-8.01,-8.14,-6.44,0.66,0.66,0.65
187.65,8.57,8.58,7.96,7.96,-7.95,-8.15,-6.45,0.62,0.62,0.61
189.52,8.47,8.47,7.89,7.89,-7.89,-8.15,-6.47,0.59,0.59,0.58
191.42,8.36,8.36,7.81,7.81,-7.81,-8.15,-6.50,0.55,0.55,0.55
193.33,8.24,8.25,7.72,7.72,-7.72,-8.15,-6.52,0.52,0.52,0.53
195.27,8.12,8.13,7.63,7.63,-7.63,-8.14,-6.55,0.49,0.49,0.50
197.22,8.00,8.00,7.53,7.54,-7.54,-8.13,-6.59,0.47,0.46,0.47
199.19,7.87,7.88,7.44,7.44,-7.44,-8.12,-6.63,0.44,0.44,0.43
201.18,7.74,7.74,7.33,7.33,-7.33,-8.10,-6.67,0.41,0.41,0.42
203.19,7.61,7.61,7.21,7.22,-7.22,-8.07,-6.71,0.39,0.39,0.40
205.23,7.47,7.48,7.10,7.10,-7.10,-8.04,-6.76,0.37,0.38,0.37
207.28,7.34,7.34,6.98,6.98,-6.98,-8.01,-6.81,0.37,0.37,0.37
209.35,7.20,7.20,6.86,6.86,-6.84,-7.97,-6.85,0.36,0.36,0.34
211.44,7.05,7.06,6.73,6.73,-6.70,-7.93,-6.90,0.36,0.36,0.32
213.56,6.90,6.90,6.59,6.58,-6.55,-7.88,-6.95,0.36,0.36,0.32
215.69,6.74,6.74,6.43,6.43,-6.39,-7.82,-7.00,0.35,0.35,0.31
217.85,6.58,6.58,6.28,6.28,-6.24,-7.76,-7.04,0.34,0.34,0.30
220.03,6.43,6.44,6.15,6.15,-6.13,-7.69,-7.09,0.31,0.31,0.29
222.23,6.33,6.32,6.06,6.04,-6.05,-7.62,-7.13,0.28,0.27,0.28
224.45,6.25,6.25,5.97,5.98,-6.05,-7.54,-7.16,0.21,0.21,0.28
226.70,6.25,6.27,5.97,5.99,-6.12,-7.45,-7.19,0.13,0.15,0.28
228.96,6.39,6.40,6.11,6.11,-6.28,-7.36,-7.22,0.11,0.12,0.28
231.25,6.63,6.65,6.34,6.36,-6.51,-7.26,-7.23,0.13,0.14,0.29
233.57,6.97,6.99,6.68,6.70,-6.78,-7.16,-7.24,0.20,0.21,0.29
235.90,7.39,7.38,7.10,7.09,-7.07,-7.05,-7.23,0.33,0.31,0.29
238.26,7.75,7.76,7.46,7.46,-7.34,-6.93,-7.22,0.41,0.42,0.29
240.64,8.06,8.05,7.76,7.74,-7.57,-6.81,-7.20,0.49,0.48,0.30
243.05,8.24,8.21,7.93,7.90,-7.73,-6.68,-7.17,0.51,0.48,0.32
245.48,8.23,8.25,7.91,7.93,-7.81,-6.54,-7.11,0.43,0.45,0.33
247.93,8.18,8.18,7.84,7.84,-7.79,-6.40,-7.06,0.39,0.39,0.34
250.41,8.04,8.03,7.70,7.69,-7.70,-6.26,-6.98,0.34,0.33,0.34
252.92,7.84,7.86,7.48,7.49,-7.55,-6.11,-6.90,0.29,0.31,0.36
255.45,7.65,7.66,7.27,7.28,-7.35,-5.95,-6.79,0.30,0.31,0.39
258.00,7.46,7.47,7.06,7.07,-7.13,-5.79,-6.68,0.33,0.33,0.40
260.58,7.28,7.28,6.87,6.87,-6.90,-5.62,-6.55,0.38,0.38,0.41
263.19,7.09,7.09,6.66,6.66,-6.67,-5.45,-6.41,0.43,0.43,0.44
265.82,6.89,6.89,6.44,6.44,-6.42,-5.27,-6.26,0.47,0.47,0.45
268.48,6.67,6.67,6.20,6.20,-6.18,-5.09,-6.10,0.50,0.50,0.47
271.16,6.43,6.43,5.94,5.94,-5.92,-4.90,-5.93,0.52,0.51,0.50
273.87,6.16,6.17,5.65,5.65,-5.65,-4.72,-5.75,0.52,0.52,0.51
276.61,5.89,5.89,5.36,5.36,-5.36,-4.52,-5.56,0.54,0.53,0.54
279.38,5.60,5.61,5.05,5.06,-5.06,-4.33,-5.36,0.55,0.55,0.55
282.17,5.32,5.32,4.76,4.75,-4.75,-4.13,-5.16,0.57,0.57,0.57
284.99,5.03,5.03,4.44,4.44,-4.44,-3.93,-4.95,0.59,0.59,0.59
287.84,4.74,4.74,4.14,4.13,-4.13,-3.73,-4.73,0.61,0.61,0.61
290.72,4.45,4.45,3.82,3.82,-3.83,-3.52,-4.51,0.63,0.63,0.63
293.63,4.17,4.17,3.53,3.52,-3.54,-3.31,-4.29,0.64,0.64,0.65
296.57,3.90,3.90,3.23,3.24,-3.26,-3.10,-4.06,0.65,0.65,0.67
299.53,3.65,3.66,2.96,2.97,-2.99,-2.89,-3.83,0.66,0.66,0.69
302.53,3.43,3.44,2.73,2.72,-2.75,-2.68,-3.60,0.69,0.69,0.70
305.55,3.23,3.24,2.49,2.50,-2.51,-2.46,-3.37,0.72,0.72,0.74
308.61,3.05,3.05,2.30,2.29,-2.29,-2.25,-3.13,0.76,0.76,0.76
311.69,2.87,2.87,2.09,2.08,-2.08,-2.03,-2.90,0.80,0.80,0.78
314.81,2.69,2.69,1.87,1.88,-1.87,-1.81,-2.66,0.83,0.83,0.82
317.96,2.50,2.50,1.67,1.67,-1.65,-1.60,-2.42,0.85,0.85,0.84
321.14,2.30,2.30,1.45,1.44,-1.43,-1.38,-2.18,0.87,0.87,0.85
324.35,2.08,2.09,1.21,1.21,-1.20,-1.16,-1.95,0.88,0.89,0.87
327.59,1.86,1.86,0.97,0.97,-0.96,-0.94,-1.71,0.90,0.90,0.90
330.87,1.63,1.63,0.72,0.72,-0.72,-0.72,-1.47,0.92,0.92,0.92
334.18,1.39,1.40,0.46,0.46,-0.46,-0.51,-1.23,0.93,0.93,0.93
337.52,1.15,1.15,0.20,0.20,-0.20,-0.29,-1.00,0.95,0.95,0.95
340.90,0.91,0.91,-0.06,-0.06,0.06,-0.07,-0.76,0.97,0.97,0.98
344.30,0.67,0.67,-0.32,-0.32,0.32,0.15,-0.52,0.99,0.99,0.99
347.75,0.43,0.43,-0.58,-0.58,0.58,0.36,-0.28,1.01,1.01,1.01
351.23,0.19,0.19,-0.84,-0.84,0.84,0.58,-0.04,1.03,1.03,1.03
354.74,-0.05,-0.05,-1.09,-1.10,1.10,0.79,0.19,1.05,1.05,1.05
358.28,-0.29,-0.29,-1.35,-1.35,1.35,1.00,0.43,1.07,1.07,1.07
361.87,-0.53,-0.52,-1.61,-1.61,1.61,1.21,0.67,1.08,1.08,1.08
365.49,-0.76,-0.76,-1.86,-1.86,1.86,1.42,0.91,1.10,1.10,1.10
369.14,-0.99,-0.99,-2.10,-2.10,2.10,1.63,1.15,1.12,1.11,1.11
372.83,-1.22,-1.21,-2.34,-2.34,2.34,1.84,1.39,1.13,1.13,1.13
376.56,-1.44,-1.44,-2.57,-2.58,2.58,2.04,1.63,1.14,1.14,1.14
380.33,-1.66,-1.65,-2.82,-2.81,2.81,2.24,1.87,1.15,1.16,1.16
384.13,-1.87,-1.86,-3.04,-3.04,3.03,2.44,2.11,1.17,1.17,1.17
387.97,-2.07,-2.07,-3.25,-3.25,3.25,2.64,2.35,1.18,1.18,1.18
391.85,-2.27,-2.27,-3.46,-3.46,3.46,2.83,2.58,1.19,1.19,1.19
395.77,-2.46,-2.45,-3.66,-3.66,3.66,3.02,2.82,1.21,1.21,1.21
399.73,-2.64,-2.64,-3.85,-3.85,3.85,3.21,3.06,1.22,1.22,1.22
403.72,-2.81,-2.81,-4.03,-4.04,4.04,3.39,3.30,1.23,1.23,1.23
407.76,-2.98,-2.98,-4.21,-4.21,4.21,3.57,3.54,1.23,1.24,1.23
411.84,-3.14,-3.13,-4.39,-4.38,4.38,3.75,3.78,1.24,1.24,1.25
415.96,-3.28,-3.28,-4.54,-4.54,4.53,3.92,4.01,1.25,1.25,1.26
420.12,-3.42,-3.41,-4.69,-4.68,4.68,4.09,4.24,1.26,1.26,1.27
424.32,-3.54,-3.54,-4.82,-4.82,4.82,4.26,4.47,1.28,1.28,1.28
428.56,-3.66,-3.66,-4.95,-4.95,4.95,4.42,4.70,1.29,1.29,1.29
432.85,-3.78,-3.77,-5.07,-5.07,5.08,4.57,4.93,1.30,1.31,1.30
437.18,-3.89,-3.89,-5.19,-5.20,5.22,4.72,5.14,1.33,1.33,1.31
441.55,-4.01,-4.01,-5.33,-5.33,5.35,4.87,5.36,1.35,1.35,1.33
445.96,-4.13,-4.13,-5.46,-5.46,5.49,5.01,5.56,1.36,1.36,1.33
450.42,-4.25,-4.25,-5.59,-5.59,5.62,5.14,5.76,1.37,1.37,1.34
454.93,-4.37,-4.37,-5.73,-5.73,5.73,5.27,5.95,1.36,1.36,1.36
459.48,-4.49,-4.48,-5.86,-5.86,5.83,5.40,6.13,1.34,1.34,1.37
464.07,-4.60,-4.60,-5.99,-5.99,5.90,5.51,6.31,1.31,1.31,1.39
468.71,-4.71,-4.71,-6.12,-6.11,5.96,5.62,6.46,1.25,1.25,1.41
473.40,-4.82,-4.82,-6.24,-6.24,6.00,5.73,6.61,1.18,1.18,1.42
478.13,-4.94,-4.94,-6.38,-6.37,6.02,5.83,6.74,1.08,1.08,1.44
482.91,-5.06,-5.06,-6.50,-6.51,6.03,5.92,6.86,0.97,0.97,1.45
487.74,-5.19,-5.18,-6.65,-6.65,6.02,6.01,6.96,0.83,0.84,1.47
492.62,-5.31,-5.30,-6.79,-6.79,6.01,6.09,7.05,0.70,0.71,1.49
497.55,-5.42,-5.42,-6.91,-6.92,6.00,6.16,7.12,0.58,0.58,1.50
502.52,-5.53,-5.52,-7.04,-7.04,6.00,6.23,7.18,0.47,0.48,1.52
507.55,-5.63,-5.63,-7.15,-7.16,6.00,6.29,7.22,0.37,0.37,1.53
512.62,-5.75,-5.75,-7.29,-7.29,6.00,6.34,7.25,0.25,0.25,1.54
517.75,-5.86,-5.86,-7.42,-7.42,6.00,6.39,7.25,0.14,0.14,1.56
522.93,-5.97,-5.96,-7.55,-7.54,6.00,6.43,7.25,0.03,0.04,1.58
528.16,-6.06,-6.05,-7.65,-7.65,6.00,6.46,7.23,-0.06,-0.05,1.59
533.44,-6.14,-6.13,-7.75,-7.75,6.00,6.49,7.20,-0.14,-0.13,1.61
538.77,-6.21,-6.21,-7.84,-7.85,6.00,6.51,7.15,-0.21,-0.21,1.63
544.16,-6.30,-6.30,-7.95,-7.95,6.00,6.53,7.10,-0.30,-0.30,1.65
