frequency,raw
20.00,-0.39
20.20,-0.32
20.40,-0.25
20.61,-0.18
20.81,-0.11
21.02,-0.03
21.23,0.04
21.44,0.11
21.66,0.18
21.87,0.24
22.09,0.31
22.31,0.38
22.54,0.45
22.76,0.52
22.99,0.59
23.22,0.66
23.45,0.73
23.69,0.80
23.92,0.88
24.16,0.94
24.40,1.01
24.65,1.08
24.89,1.14
25.14,1.20
25.39,1.26
25.65,1.32
25.91,1.38
26.16,1.44
26.43,1.50
26.69,1.55
26.96,1.61
27.23,1.66
27.50,1.71
27.77,1.75
28.05,1.80
28.33,1.84
28.62,1.89
28.90,1.93
29.19,1.97
29.48,2.02
29.78,2.06
30.08,2.10
30.38,2.14
30.68,2.18
30.99,2.22
31.30,2.26
31.61,2.30
31.93,2.34
32.24,2.38
32.57,2.42
32.89,2.46
33.22,2.49
33.55,2.53
33.89,2.57
34.23,2.60
34.57,2.63
34.92,2.66
35.27,2.69
35.62,2.72
35.97,2.75
36.33,2.77
36.70,2.80
37.06,2.82
37.43,2.85
37.81,2.87
38.19,2.89
38.57,2.92
38.95,2.94
39.34,2.96
39.74,2.98
40.14,3.00
40.54,3.02
40.94,3.04
41.35,3.06
41.76,3.08
42.18,3.09
42.60,3.10
43.03,3.11
43.46,3.12
43.90,3.14
44.33,3.15
44.78,3.16
45.23,3.16
45.68,3.17
46.13,3.18
46.60,3.19
47.06,3.20
47.53,3.20
48.01,3.21
48.49,3.22
48.97,3.22
49.46,3.23
49.96,3.23
50.46,3.24
50.96,3.24
51.47,3.25
51.99,3.25
52.51,3.25
53.03,3.26
53.56,3.26
54.10,3.26
54.64,3.26
55.18,3.26
55.74,3.26
56.29,3.26
56.86,3.26
57.42,3.26
58.00,3.25
58.58,3.25
59.16,3.25
59.76,3.24
60.35,3.24
60.96,3.23
61.57,3.22
62.18,3.22
62.80,3.22
63.43,3.21
64.07,3.20
64.71,3.18
65.35,3.17
66.01,3.16
66.67,3.15
67.33,3.14
68.01,3.12
68.69,3.11
69.37,3.10
70.07,3.08
70.77,3.06
71.48,3.05
72.19,3.03
72.91,3.02
73.64,3.00
74.38,2.98
75.12,2.96
75.87,2.94
76.63,2.92
77.40,2.90
78.17,2.88
78.95,2.86
79.74,2.85
80.54,2.83
81.35,2.81
82.16,2.78
82.98,2.77
83.81,2.75
84.65,2.72
85.50,2.70
86.35,2.68
87.22,2.66
88.09,2.64
88.97,2.61
89.86,2.59
90.76,2.56
91.66,2.54
92.58,2.51
93.51,2.49
94.44,2.46
95.39,2.44
96.34,2.41
97.30,2.39
98.28,2.36
99.26,2.34
100.25,2.31
101.25,2.28
102.27,2.26
103.29,2.23
104.32,2.20
105.37,2.17
106.42,2.14
107.48,2.11
108.56,2.08
109.64,2.05
110.74,2.02
111.85,1.99
112.97,1.96
114.10,1.93
115.24,1.90
116.39,1.87
117.55,1.84
118.73,1.80
119.92,1.77
121.12,1.74
122.33,1.71
123.55,1.67
124.79,1.64
126.03,1.61
127.29,1.57
128.57,1.54
129.85,1.51
131.15,1.47
132.46,1.44
133.79,1.40
135.12,1.37
136.48,1.33
137.84,1.30
139.22,1.26
140.61,1.23
142.02,1.19
143.44,1.16
144.87,1.12
146.32,1.09
147.78,1.05
149.26,1.02
150.75,0.98
152.26,0.94
153.78,0.91
155.32,0.87
156.88,0.83
158.44,0.80
160.03,0.76
161.63,0.73
163.24,0.70
164.88,0.67
166.53,0.64
168.19,0.60
169.87,0.56
171.57,0.54
173.29,0.51
175.02,0.48
176.77,0.44
178.54,0.41
180.32,0.38
182.13,0.35
183.95,0.31
185.79,0.28
187.65,0.25
189.52,0.22
191.42,0.19
193.33,0.16
195.27,0.13
197.22,0.10
199.19,0.08
201.18,0.05
203.19,0.02
205.23,-0.01
207.28,-0.05
209.35,-0.08
211.44,-0.11
213.56,-0.14
215.69,-0.17
217.85,-0.19
220.03,-0.22
222.23,-0.25
224.45,-0.28
226.70,-0.31
228.96,-0.34
231.25,-0.37
233.57,-0.39
235.90,-0.42
238.26,-0.44
240.64,-0.47
243.05,-0.50
245.48,-0.52
247.93,-0.54
250.41,-0.56
252.92,-0.59
255.45,-0.61
258.00,-0.63
260.58,-0.65
263.19,-0.67
265.82,-0.69
268.48,-0.70
271.16,-0.72
273.87,-0.74
276.61,-0.75
279.38,-0.77
282.17,-0.78
284.99,-0.80
287.84,-0.81
290.72,-0.82
293.63,-0.84
296.57,-0.85
299.53,-0.86
302.53,-0.87
305.55,-0.88
308.61,-0.88
311.69,-0.89
314.81,-0.89
317.96,-0.90
321.14,-0.90
324.35,-0.91
327.59,-0.91
330.87,-0.91
334.18,-0.91
337.52,-0.91
340.90,-0.90
344.30,-0.90
347.75,-0.90
351.23,-0.89
354.74,-0.89
358.28,-0.88
361.87,-0.87
365.49,-0.86
369.14,-0.85
372.83,-0.84
376.56,-0.83
380.33,-0.82
384.13,-0.81
387.97,-0.80
391.85,-0.78
395.77,-0.77
399.73,-0.75
403.72,-0.74
407.76,-0.73
411.84,-0.71
415.96,-0.69
420.12,-0.68
424.32,-0.66
428.56,-0.65
432.85,-0.63
437.18,-0.61
441.55,-0.59
445.96,-0.58
450.42,-0.56
454.93,-0.54
459.48,-0.52
464.07,-0.50
468.71,-0.48
473.40,-0.47
478.13,-0.45
482.91,-0.43
487.74,-0.41
492.62,-0.40
497.55,-0.38
502.52,-0.36
507.55,-0.34
512.62,-0.33
517.75,-0.31
522.93,-0.30
528.16,-0.28
533.44,-0.27
538.77,-0.25
544.16,-0.24
549.60,-0.23
555.10,-0.22
560.65,-0.21
566.25,-0.20
571.92,-0.19
577.64,-0.18
583.41,-0.17
589.25,-0.17
595.14,-0.16
601.09,-0.16
607.10,-0.15
613.17,-0.15
619.30,-0.15
625.50,-0.15
631.75,-0.15
638.07,-0.16
644.45,-0.16
650.89,-0.16
657.40,-0.17
663.98,-0.17
670.62,-0.18
677.32,-0.18
684.10,-0.19
690.94,-0.20
697.85,-0.21
704.83,-0.21
711.87,-0.23
718.99,-0.24
726.18,-0.25
733.44,-0.26
740.78,-0.27
748.19,-0.28
755.67,-0.28
763.23,-0.29
770.86,-0.30
778.57,-0.31
786.35,-0.32
794.22,-0.32
802.16,-0.33
810.18,-0.34
818.28,-0.35
826.46,-0.35
834.73,-0.35
843.08,-0.36
851.51,-0.36
860.02,-0.36
868.62,-0.35
877.31,-0.34
886.08,-0.34
894.94,-0.32
903.89,-0.31
912.93,-0.29
922.06,-0.27
931.28,-0.25
940.59,-0.22
950.00,-0.19
959.50,-0.16
969.09,-0.13
978.78,-0.09
988.57,-0.05
998.46,-0.01
1008.44,0.03
1018.53,0.07
1028.71,0.12
1039.00,0.16
1049.39,0.20
1059.88,0.25
1070.48,0.30
1081.19,0.35
1092.00,0.40
1102.92,0.46
1113.95,0.51
1125.09,0.57
1136.34,0.62
1147.70,0.68
1159.18,0.74
1170.77,0.79
1182.48,0.85
1194.30,0.91
1206.25,0.97
1218.31,1.02
1230.49,1.08
1242.80,1.14
1255.22,1.20
1267.78,1.26
1280.45,1.32
1293.26,1.39
1306.19,1.45
1319.25,1.51
1332.45,1.58
1345.77,1.64
1359.23,1.71
1372.82,1.78
1386.55,1.84
1400.41,1.91
1414.42,1.98
1428.56,2.06
1442.85,2.13
1457.28,2.20
1471.85,2.28
1486.57,2.36
1501.43,2.44
1516.45,2.52
1531.61,2.61
1546.93,2.70
1562.40,2.79
1578.02,2.89
1593.80,2.99
1609.74,3.10
1625.84,3.21
1642.10,3.33
1658.52,3.45
1675.10,3.57
1691.85,3.70
1708.77,3.83
1725.86,3.96
1743.12,4.10
1760.55,4.23
1778.15,4.37
1795.94,4.51
1813.90,4.65
1832.03,4.80
1850.36,4.94
1868.86,5.08
1887.55,5.22
1906.42,5.36
1925.49,5.48
1944.74,5.61
1964.19,5.73
1983.83,5.84
2003.67,5.95
2023.71,6.04
2043.94,6.11
2064.38,6.18
2085.03,6.24
2105.88,6.27
2126.94,6.30
2148.20,6.30
2169.69,6.29
2191.38,6.27
2213.30,6.22
2235.43,6.16
2257.78,6.09
2280.36,5.99
2303.17,5.89
2326.20,5.76
2349.46,5.62
2372.95,5.47
2396.68,5.32
2420.65,5.15
2444.86,4.96
2469.31,4.78
2494.00,4.58
2518.94,4.38
2544.13,4.19
2569.57,3.98
2595.27,3.78
2621.22,3.57
2647.43,3.37
2673.90,3.18
2700.64,2.99
2727.65,2.82
2754.93,2.66
2782.48,2.53
2810.30,2.41
2838.40,2.31
2866.79,2.22
2895.46,2.15
2924.41,2.10
2953.65,2.06
2983.19,2.04
3013.02,2.02
3043.15,2.02
3073.58,2.03
3104.32,2.05
3135.36,2.08
3166.72,2.13
3198.38,2.20
3230.37,2.29
3262.67,2.39
3295.30,2.51
3328.25,2.65
3361.53,2.82
3395.15,3.00
3429.10,3.21
3463.39,3.44
3498.03,3.69
3533.01,3.97
3568.34,4.28
3604.02,4.60
3640.06,4.94
3676.46,5.29
3713.22,5.65
3750.36,5.99
3787.86,6.31
3825.74,6.63
3864.00,6.89
3902.64,7.08
3941.66,7.26
3981.08,7.38
4020.89,7.45
4061.10,7.48
4101.71,7.47
4142.73,7.45
4184.15,7.42
4226.00,7.38
4268.26,7.34
4310.94,7.29
4354.05,7.24
4397.59,7.19
4441.56,7.14
4485.98,7.08
4530.84,7.03
4576.15,6.96
4621.91,6.89
4668.13,6.82
4714.81,6.72
4761.96,6.62
4809.58,6.50
4857.67,6.36
4906.25,6.17
4955.31,5.95
5004.87,5.67
5054.91,5.32
5105.46,4.95
5156.52,4.55
5208.08,4.16
5260.16,3.82
5312.77,3.50
5365.89,3.25
5419.55,3.04
5473.75,2.87
5528.49,2.73
5583.77,2.61
5639.61,2.53
5696.00,2.45
5752.96,2.41
5810.49,2.36
5868.60,2.30
5927.28,2.20
5986.56,2.07
6046.42,2.11
6106.89,2.19
6167.96,2.26
6229.64,2.34
6291.93,2.49
6354.85,2.64
6418.40,2.78
6482.58,2.90
6547.41,2.97
6612.88,3.02
6679.01,3.00
6745.80,2.92
6813.26,2.80
6881.39,2.59
6950.21,2.31
7019.71,1.98
7089.91,1.61
7160.81,1.21
7232.41,0.81
7304.74,0.41
7377.79,0.03
7451.56,-0.33
7526.08,-0.67
7601.34,-0.98
7677.35,-1.23
7754.13,-1.47
7831.67,-1.62
7909.98,-1.76
7989.08,-1.86
8068.98,-1.94
8149.67,-2.01
8231.16,-2.07
8313.47,-2.11
8396.61,-2.13
8480.57,-2.12
8565.38,-2.08
8651.03,-2.02
8737.54,-1.92
8824.92,-1.82
8913.17,-1.68
9002.30,-1.54
9092.32,-1.42
9183.25,-1.31
9275.08,-1.23
9367.83,-1.17
9461.51,-1.12
9556.12,-1.05
9651.68,-0.95
9748.20,-0.81
9845.68,-0.60
9944.14,-0.39
10043.58,-0.20
10144.02,-0.06
10245.46,-0.13
10347.91,-0.35
10451.39,-0.74
10555.91,-1.35
10661.46,-2.05
10768.08,-2.84
10875.76,-3.65
10984.52,-4.43
11094.36,-5.19
11205.31,-5.90
11317.36,-6.50
11430.53,-7.04
11544.84,-7.48
11660.29,-7.83
11776.89,-8.13
11894.66,-8.23
12013.60,-8.29
12133.74,-8.23
12255.08,-8.02
12377.63,-7.72
12501.41,-7.29
12626.42,-6.79
12752.68,-6.20
12880.21,-5.53
13009.01,-4.82
13139.10,-4.11
13270.49,-3.44
13403.20,-2.81
13537.23,-2.41
13672.60,-2.19
13809.33,-2.15
13947.42,-2.41
14086.90,-2.78
14227.77,-3.21
14370.04,-3.61
14513.74,-3.96
14658.88,-4.18
14805.47,-4.33
14953.52,-4.36
15103.06,-4.28
15254.09,-4.16
15406.63,-4.30
15560.70,-4.77
15716.30,-5.76
15873.47,-7.27
16032.20,-8.86
16192.52,-10.17
16354.45,-10.75
16517.99,-10.79
16683.17,-9.62
16850.01,-8.03
17018.51,-6.13
17188.69,-4.17
17360.58,-2.38
17534.18,-0.75
17709.53,0.64
17886.62,1.77
18065.49,2.58
18246.14,2.96
18428.60,2.15
18612.89,0.64
18799.02,-1.39
18987.01,-3.70
19176.88,-5.96
19368.65,-8.10
19562.33,-10.11
19757.96,-11.99
19955.54,-13.88
