frequency,raw
20.00,8.72
20.20,8.71
20.40,8.69
20.61,8.68
20.81,8.66
21.02,8.64
21.23,8.63
21.44,8.61
21.66,8.59
21.87,8.58
22.09,8.56
22.31,8.54
22.54,8.52
22.76,8.50
22.99,8.47
23.22,8.45
23.45,8.43
23.69,8.41
23.92,8.39
24.16,8.37
24.40,8.35
24.65,8.33
24.89,8.31
25.14,8.29
25.39,8.27
25.65,8.25
25.91,8.23
26.16,8.21
26.43,8.20
26.69,8.18
26.96,8.16
27.23,8.14
27.50,8.12
27.77,8.10
28.05,8.08
28.33,8.05
28.62,8.03
28.90,8.01
29.19,7.99
29.48,7.97
29.78,7.94
30.08,7.92
30.38,7.89
30.68,7.87
30.99,7.84
31.30,7.81
31.61,7.79
31.93,7.76
32.24,7.73
32.57,7.70
32.89,7.68
33.22,7.65
33.55,7.62
33.89,7.59
34.23,7.57
34.57,7.54
34.92,7.51
35.27,7.48
35.62,7.46
35.97,7.43
36.33,7.40
36.70,7.37
37.06,7.34
37.43,7.31
37.81,7.28
38.19,7.25
38.57,7.22
38.95,7.19
39.34,7.16
39.74,7.13
40.14,7.10
40.54,7.07
40.94,7.03
41.35,7.00
41.76,6.97
42.18,6.93
42.60,6.90
43.03,6.87
43.46,6.83
43.90,6.80
44.33,6.76
44.78,6.73
45.23,6.70
45.68,6.66
46.13,6.63
46.60,6.59
47.06,6.56
47.53,6.52
48.01,6.48
48.49,6.45
48.97,6.41
49.46,6.38
49.96,6.34
50.46,6.30
50.96,6.27
51.47,6.23
51.99,6.19
52.51,6.15
53.03,6.11
53.56,6.07
54.10,6.04
54.64,6.00
55.18,5.96
55.74,5.92
56.29,5.88
56.86,5.84
57.42,5.80
58.00,5.76
58.58,5.72
59.16,5.68
59.76,5.64
60.35,5.60
60.96,5.56
61.57,5.52
62.18,5.48
62.80,5.44
63.43,5.40
64.07,5.36
64.71,5.32
65.35,5.27
66.01,5.23
66.67,5.19
67.33,5.15
68.01,5.11
68.69,5.06
69.37,5.02
70.07,4.98
70.77,4.94
71.48,4.89
72.19,4.85
72.91,4.81
73.64,4.77
74.38,4.72
75.12,4.68
75.87,4.64
76.63,4.59
77.40,4.55
78.17,4.50
78.95,4.46
79.74,4.42
80.54,4.37
81.35,4.33
82.16,4.29
82.98,4.24
83.81,4.20
84.65,4.16
85.50,4.11
86.35,4.07
87.22,4.02
88.09,3.98
88.97,3.93
89.86,3.89
90.76,3.85
91.66,3.80
92.58,3.76
93.51,3.71
94.44,3.67
95.39,3.63
96.34,3.58
97.30,3.54
98.28,3.49
99.26,3.45
100.25,3.41
101.25,3.36
102.27,3.32
103.29,3.27
104.32,3.23
105.37,3.18
106.42,3.14
107.48,3.09
108.56,3.05
109.64,3.01
110.74,2.96
111.85,2.92
112.97,2.88
114.10,2.83
115.24,2.79
116.39,2.74
117.55,2.70
118.73,2.66
119.92,2.61
121.12,2.57
122.33,2.53
123.55,2.49
124.79,2.44
126.03,2.40
127.29,2.36
128.57,2.31
129.85,2.27
131.15,2.23
132.46,2.19
133.79,2.14
135.12,2.10
136.48,2.06
137.84,2.02
139.22,1.98
140.61,1.93
142.02,1.89
143.44,1.85
144.87,1.81
146.32,1.77
147.78,1.73
149.26,1.69
150.75,1.65
152.26,1.60
153.78,1.56
155.32,1.52
156.88,1.48
158.44,1.44
160.03,1.40
161.63,1.37
163.24,1.33
164.88,1.29
166.53,1.25
168.19,1.21
169.87,1.17
171.57,1.14
173.29,1.10
175.02,1.06
176.77,1.02
178.54,0.98
180.32,0.95
182.13,0.91
183.95,0.87
185.79,0.84
187.65,0.80
189.52,0.77
191.42,0.73
193.33,0.70
195.27,0.66
197.22,0.63
199.19,0.59
201.18,0.56
203.19,0.52
205.23,0.49
207.28,0.46
209.35,0.42
211.44,0.39
213.56,0.36
215.69,0.32
217.85,0.29
220.03,0.26
222.23,0.23
224.45,0.20
226.70,0.17
228.96,0.14
231.25,0.11
233.57,0.08
235.90,0.05
238.26,0.02
240.64,-0.01
243.05,-0.04
245.48,-0.06
247.93,-0.09
250.41,-0.12
252.92,-0.14
255.45,-0.17
258.00,-0.20
260.58,-0.22
263.19,-0.25
265.82,-0.28
268.48,-0.30
271.16,-0.32
273.87,-0.35
276.61,-0.37
279.38,-0.39
282.17,-0.42
284.99,-0.44
287.84,-0.46
290.72,-0.48
293.63,-0.51
296.57,-0.53
299.53,-0.55
302.53,-0.57
305.55,-0.59
308.61,-0.61
311.69,-0.63
314.81,-0.65
317.96,-0.67
321.14,-0.69
324.35,-0.70
327.59,-0.72
330.87,-0.74
334.18,-0.76
337.52,-0.77
340.90,-0.79
344.30,-0.81
347.75,-0.82
351.23,-0.84
354.74,-0.85
358.28,-0.87
361.87,-0.88
365.49,-0.90
369.14,-0.91
372.83,-0.92
376.56,-0.94
380.33,-0.95
384.13,-0.97
387.97,-0.98
391.85,-0.99
395.77,-1.01
399.73,-1.02
403.72,-1.03
407.76,-1.04
411.84,-1.05
415.96,-1.07
420.12,-1.08
424.32,-1.09
428.56,-1.10
432.85,-1.11
437.18,-1.12
441.55,-1.13
445.96,-1.14
450.42,-1.15
454.93,-1.16
459.48,-1.17
464.07,-1.18
468.71,-1.19
473.40,-1.20
478.13,-1.21
482.91,-1.22
487.74,-1.23
492.62,-1.23
497.55,-1.24
502.52,-1.25
507.55,-1.26
512.62,-1.27
517.75,-1.27
522.93,-1.28
528.16,-1.29
533.44,-1.29
538.77,-1.30
544.16,-1.31
549.60,-1.31
555.10,-1.32
560.65,-1.33
566.25,-1.33
571.92,-1.33
577.64,-1.34
583.41,-1.34
589.25,-1.34
595.14,-1.35
601.09,-1.35
607.10,-1.35
613.17,-1.35
619.30,-1.36
625.50,-1.36
631.75,-1.36
638.07,-1.36
644.45,-1.35
650.89,-1.35
657.40,-1.35
663.98,-1.35
670.62,-1.35
677.32,-1.34
684.10,-1.33
690.94,-1.33
697.85,-1.32
704.83,-1.31
711.87,-1.31
718.99,-1.30
726.18,-1.29
733.44,-1.27
740.78,-1.26
748.19,-1.25
755.67,-1.23
763.23,-1.21
770.86,-1.19
778.57,-1.17
786.35,-1.15
794.22,-1.13
802.16,-1.10
810.18,-1.08
818.28,-1.05
826.46,-1.01
834.73,-0.98
843.08,-0.94
851.51,-0.91
860.02,-0.87
868.62,-0.83
877.31,-0.79
886.08,-0.74
894.94,-0.69
903.89,-0.64
912.93,-0.59
922.06,-0.53
931.28,-0.48
940.59,-0.42
950.00,-0.36
959.50,-0.29
969.09,-0.23
978.78,-0.16
988.57,-0.09
998.46,-0.01
1008.44,0.06
1018.53,0.13
1028.71,0.21
1039.00,0.29
1049.39,0.37
1059.88,0.45
1070.48,0.53
1081.19,0.61
1092.00,0.69
1102.92,0.77
1113.95,0.85
1125.09,0.93
1136.34,1.02
1147.70,1.10
1159.18,1.18
1170.77,1.25
1182.48,1.33
1194.30,1.41
1206.25,1.48
1218.31,1.56
1230.49,1.63
1242.80,1.70
1255.22,1.78
1267.78,1.85
1280.45,1.92
1293.26,1.99
1306.19,2.06
1319.25,2.13
1332.45,2.19
1345.77,2.26
1359.23,2.32
1372.82,2.39
1386.55,2.45
1400.41,2.51
1414.42,2.58
1428.56,2.64
1442.85,2.70
1457.28,2.77
1471.85,2.83
1486.57,2.89
1501.43,2.95
1516.45,3.02
1531.61,3.08
1546.93,3.15
1562.40,3.21
1578.02,3.28
1593.80,3.34
1609.74,3.41
1625.84,3.47
1642.10,3.54
1658.52,3.60
1675.10,3.67
1691.85,3.74
1708.77,3.81
1725.86,3.88
1743.12,3.95
1760.55,4.02
1778.15,4.09
1795.94,4.17
1813.90,4.24
1832.03,4.31
1850.36,4.39
1868.86,4.46
1887.55,4.54
1906.42,4.61
1925.49,4.69
1944.74,4.76
1964.19,4.84
1983.83,4.92
2003.67,5.00
2023.71,5.08
2043.94,5.16
2064.38,5.23
2085.03,5.31
2105.88,5.39
2126.94,5.47
2148.20,5.55
2169.69,5.63
2191.38,5.71
2213.30,5.78
2235.43,5.86
2257.78,5.94
2280.36,6.01
2303.17,6.09
2326.20,6.16
2349.46,6.24
2372.95,6.31
2396.68,6.38
2420.65,6.45
2444.86,6.52
2469.31,6.58
2494.00,6.64
2518.94,6.71
2544.13,6.77
2569.57,6.82
2595.27,6.88
2621.22,6.93
2647.43,6.98
2673.90,7.03
2700.64,7.07
2727.65,7.11
2754.93,7.15
2782.48,7.18
2810.30,7.21
2838.40,7.24
2866.79,7.27
2895.46,7.29
2924.41,7.31
2953.65,7.32
2983.19,7.33
3013.02,7.34
3043.15,7.34
3073.58,7.34
3104.32,7.34
3135.36,7.33
3166.72,7.32
3198.38,7.31
3230.37,7.29
3262.67,7.27
3295.30,7.25
3328.25,7.22
3361.53,7.19
3395.15,7.16
3429.10,7.12
3463.39,7.08
3498.03,7.04
3533.01,7.00
3568.34,6.95
3604.02,6.90
3640.06,6.85
3676.46,6.80
3713.22,6.74
3750.36,6.68
3787.86,6.62
3825.74,6.56
3864.00,6.49
3902.64,6.42
3941.66,6.35
3981.08,6.28
4020.89,6.21
4061.10,6.13
4101.71,6.04
4142.73,5.95
4184.15,5.86
4226.00,5.77
4268.26,5.67
4310.94,5.58
4354.05,5.48
4397.59,5.37
4441.56,5.26
4485.98,5.15
4530.84,5.04
4576.15,4.93
4621.91,4.81
4668.13,4.69
4714.81,4.57
4761.96,4.45
4809.58,4.33
4857.67,4.20
4906.25,4.08
4955.31,3.95
5004.87,3.83
5054.91,3.70
5105.46,3.58
5156.52,3.46
5208.08,3.34
5260.16,3.22
5312.77,3.11
5365.89,3.00
5419.55,2.89
5473.75,2.79
5528.49,2.69
5583.77,2.59
5639.61,2.50
5696.00,2.42
5752.96,2.35
5810.49,2.28
5868.60,2.22
5927.28,2.17
5986.56,2.13
6046.42,2.10
6106.89,2.08
6167.96,2.07
6229.64,2.07
6291.93,2.08
6354.85,2.11
6418.40,2.15
6482.58,2.20
6547.41,2.26
6612.88,2.33
6679.01,2.41
6745.80,2.50
6813.26,2.60
6881.39,2.71
6950.21,2.83
7019.71,2.96
7089.91,3.10
7160.81,3.27
7232.41,3.46
7304.74,3.66
7377.79,3.92
7451.56,4.20
7526.08,4.51
7601.34,4.85
7677.35,5.20
7754.13,5.56
7831.67,5.87
7909.98,6.14
7989.08,6.32
8068.98,6.34
8149.67,6.25
8231.16,6.01
8313.47,5.61
8396.61,5.14
8480.57,4.56
8565.38,3.93
8651.03,3.27
8737.54,2.60
8824.92,1.93
8913.17,1.28
9002.30,0.64
9092.32,0.07
9183.25,-0.42
9275.08,-0.84
9367.83,-1.11
9461.51,-1.21
9556.12,-1.16
9651.68,-1.00
9748.20,-0.78
9845.68,-0.55
9944.14,-0.33
10043.58,-0.13
10144.02,0.06
10245.46,0.24
10347.91,0.44
10451.39,0.65
10555.91,0.91
10661.46,1.20
10768.08,1.52
10875.76,1.90
10984.52,2.32
11094.36,2.76
11205.31,3.21
11317.36,3.63
11430.53,3.98
11544.84,4.16
11660.29,4.17
11776.89,4.03
11894.66,3.48
12013.60,2.86
12133.74,2.12
12255.08,1.30
12377.63,0.47
12501.41,-0.35
12626.42,-1.13
12752.68,-1.88
12880.21,-2.58
13009.01,-3.26
13139.10,-3.93
13270.49,-4.56
13403.20,-5.19
13537.23,-5.79
13672.60,-6.38
13809.33,-6.97
13947.42,-7.57
14086.90,-8.14
14227.77,-8.70
14370.04,-9.23
14513.74,-9.73
14658.88,-10.15
14805.47,-10.55
14953.52,-10.90
15103.06,-11.17
15254.09,-11.39
15406.63,-11.51
15560.70,-11.63
15716.30,-11.76
15873.47,-11.92
16032.20,-12.08
16192.52,-12.20
16354.45,-12.27
16517.99,-12.31
16683.17,-12.35
16850.01,-12.34
17018.51,-12.28
17188.69,-12.15
17360.58,-11.84
17534.18,-11.74
17709.53,-12.90
17886.62,-15.53
18065.49,-17.08
18246.14,-16.01
18428.60,-15.97
18612.89,-16.25
18799.02,-16.82
18987.01,-17.68
19176.88,-18.88
19368.65,-20.15
19562.33,-21.44
19757.96,-22.71
19955.54,-23.99
