frequency,raw
20.00,0.48
20.20,0.57
20.40,0.66
20.61,0.75
20.81,0.84
21.02,0.93
21.23,1.02
21.44,1.11
21.66,1.19
21.87,1.28
22.09,1.36
22.31,1.44
22.54,1.51
22.76,1.58
22.99,1.65
23.22,1.72
23.45,1.78
23.69,1.85
23.92,1.91
24.16,1.97
24.40,2.04
24.65,2.10
24.89,2.16
25.14,2.22
25.39,2.28
25.65,2.34
25.91,2.39
26.16,2.45
26.43,2.51
26.69,2.57
26.96,2.63
27.23,2.69
27.50,2.75
27.77,2.81
28.05,2.86
28.33,2.92
28.62,2.98
28.90,3.03
29.19,3.08
29.48,3.14
29.78,3.19
30.08,3.24
30.38,3.28
30.68,3.33
30.99,3.37
31.30,3.41
31.61,3.45
31.93,3.49
32.24,3.53
32.57,3.57
32.89,3.61
33.22,3.64
33.55,3.68
33.89,3.71
34.23,3.75
34.57,3.78
34.92,3.82
35.27,3.85
35.62,3.89
35.97,3.92
36.33,3.94
36.70,3.97
37.06,4.00
37.43,4.03
37.81,4.06
38.19,4.08
38.57,4.11
38.95,4.13
39.34,4.15
39.74,4.17
40.14,4.20
40.54,4.21
40.94,4.23
41.35,4.25
41.76,4.26
42.18,4.27
42.60,4.29
43.03,4.30
43.46,4.31
43.90,4.32
44.33,4.33
44.78,4.34
45.23,4.35
45.68,4.36
46.13,4.37
46.60,4.38
47.06,4.38
47.53,4.39
48.01,4.39
48.49,4.40
48.97,4.40
49.46,4.40
49.96,4.40
50.46,4.40
50.96,4.40
51.47,4.41
51.99,4.41
52.51,4.41
53.03,4.41
53.56,4.40
54.10,4.40
54.64,4.40
55.18,4.39
55.74,4.39
56.29,4.38
56.86,4.37
57.42,4.36
58.00,4.35
58.58,4.34
59.16,4.34
59.76,4.33
60.35,4.32
60.96,4.30
61.57,4.29
62.18,4.28
62.80,4.26
63.43,4.24
64.07,4.22
64.71,4.20
65.35,4.18
66.01,4.16
66.67,4.14
67.33,4.11
68.01,4.09
68.69,4.07
69.37,4.04
70.07,4.02
70.77,3.99
71.48,3.96
72.19,3.94
72.91,3.90
73.64,3.87
74.38,3.84
75.12,3.81
75.87,3.78
76.63,3.74
77.40,3.71
78.17,3.68
78.95,3.64
79.74,3.61
80.54,3.57
81.35,3.54
82.16,3.50
82.98,3.46
83.81,3.42
84.65,3.38
85.50,3.34
86.35,3.30
87.22,3.26
88.09,3.22
88.97,3.18
89.86,3.13
90.76,3.09
91.66,3.04
92.58,3.00
93.51,2.95
94.44,2.90
95.39,2.86
96.34,2.81
97.30,2.76
98.28,2.71
99.26,2.66
100.25,2.61
101.25,2.56
102.27,2.50
103.29,2.45
104.32,2.40
105.37,2.34
106.42,2.28
107.48,2.23
108.56,2.17
109.64,2.11
110.74,2.06
111.85,2.00
112.97,1.94
114.10,1.88
115.24,1.82
116.39,1.76
117.55,1.70
118.73,1.64
119.92,1.58
121.12,1.52
122.33,1.45
123.55,1.39
124.79,1.33
126.03,1.26
127.29,1.20
128.57,1.13
129.85,1.06
131.15,1.00
132.46,0.93
133.79,0.87
135.12,0.80
136.48,0.73
137.84,0.67
139.22,0.60
140.61,0.53
142.02,0.47
143.44,0.40
144.87,0.33
146.32,0.27
147.78,0.20
149.26,0.14
150.75,0.07
152.26,0.01
153.78,-0.06
155.32,-0.12
156.88,-0.19
158.44,-0.25
160.03,-0.32
161.63,-0.37
163.24,-0.43
164.88,-0.49
166.53,-0.55
168.19,-0.61
169.87,-0.66
171.57,-0.72
173.29,-0.77
175.02,-0.83
176.77,-0.88
178.54,-0.93
180.32,-0.98
182.13,-1.03
183.95,-1.08
185.79,-1.13
187.65,-1.17
189.52,-1.22
191.42,-1.27
193.33,-1.31
195.27,-1.35
197.22,-1.39
199.19,-1.43
201.18,-1.47
203.19,-1.51
205.23,-1.55
207.28,-1.59
209.35,-1.62
211.44,-1.66
213.56,-1.69
215.69,-1.72
217.85,-1.75
220.03,-1.78
222.23,-1.81
224.45,-1.83
226.70,-1.86
228.96,-1.89
231.25,-1.91
233.57,-1.93
235.90,-1.95
238.26,-1.97
240.64,-1.99
243.05,-2.00
245.48,-2.01
247.93,-2.02
250.41,-2.04
252.92,-2.05
255.45,-2.05
258.00,-2.06
260.58,-2.07
263.19,-2.08
265.82,-2.08
268.48,-2.08
271.16,-2.09
273.87,-2.09
276.61,-2.09
279.38,-2.09
282.17,-2.09
284.99,-2.09
287.84,-2.08
290.72,-2.08
293.63,-2.08
296.57,-2.07
299.53,-2.07
302.53,-2.06
305.55,-2.05
308.61,-2.05
311.69,-2.04
314.81,-2.03
317.96,-2.02
321.14,-2.01
324.35,-2.00
327.59,-1.99
330.87,-1.98
334.18,-1.96
337.52,-1.95
340.90,-1.94
344.30,-1.93
347.75,-1.91
351.23,-1.90
354.74,-1.89
358.28,-1.88
361.87,-1.86
365.49,-1.85
369.14,-1.84
372.83,-1.82
376.56,-1.81
380.33,-1.79
384.13,-1.78
387.97,-1.77
391.85,-1.75
395.77,-1.74
399.73,-1.73
403.72,-1.71
407.76,-1.70
411.84,-1.69
415.96,-1.68
420.12,-1.66
424.32,-1.65
428.56,-1.64
432.85,-1.63
437.18,-1.61
441.55,-1.60
445.96,-1.59
450.42,-1.58
454.93,-1.57
459.48,-1.56
464.07,-1.55
468.71,-1.54
473.40,-1.53
478.13,-1.52
482.91,-1.51
487.74,-1.50
492.62,-1.49
497.55,-1.48
502.52,-1.47
507.55,-1.46
512.62,-1.45
517.75,-1.44
522.93,-1.43
528.16,-1.42
533.44,-1.41
538.77,-1.40
544.16,-1.39
549.60,-1.38
555.10,-1.38
560.65,-1.37
566.25,-1.36
571.92,-1.35
577.64,-1.34
583.41,-1.34
589.25,-1.33
595.14,-1.32
601.09,-1.32
607.10,-1.31
613.17,-1.30
619.30,-1.30
625.50,-1.29
631.75,-1.28
638.07,-1.27
644.45,-1.26
650.89,-1.25
657.40,-1.25
663.98,-1.23
670.62,-1.22
677.32,-1.21
684.10,-1.20
690.94,-1.19
697.85,-1.18
704.83,-1.17
711.87,-1.16
718.99,-1.15
726.18,-1.13
733.44,-1.12
740.78,-1.10
748.19,-1.09
755.67,-1.07
763.23,-1.05
770.86,-1.03
778.57,-1.01
786.35,-0.99
794.22,-0.97
802.16,-0.94
810.18,-0.92
818.28,-0.90
826.46,-0.88
834.73,-0.85
843.08,-0.82
851.51,-0.79
860.02,-0.76
868.62,-0.73
877.31,-0.69
886.08,-0.65
894.94,-0.61
903.89,-0.57
912.93,-0.52
922.06,-0.47
931.28,-0.42
940.59,-0.37
950.00,-0.32
959.50,-0.26
969.09,-0.20
978.78,-0.14
988.57,-0.07
998.46,-0.01
1008.44,0.05
1018.53,0.11
1028.71,0.17
1039.00,0.23
1049.39,0.29
1059.88,0.35
1070.48,0.42
1081.19,0.48
1092.00,0.54
1102.92,0.61
1113.95,0.67
1125.09,0.73
1136.34,0.79
1147.70,0.85
1159.18,0.91
1170.77,0.97
1182.48,1.03
1194.30,1.08
1206.25,1.14
1218.31,1.19
1230.49,1.24
1242.80,1.29
1255.22,1.34
1267.78,1.39
1280.45,1.45
1293.26,1.50
1306.19,1.54
1319.25,1.59
1332.45,1.64
1345.77,1.68
1359.23,1.73
1372.82,1.77
1386.55,1.81
1400.41,1.85
1414.42,1.89
1428.56,1.93
1442.85,1.97
1457.28,2.02
1471.85,2.06
1486.57,2.10
1501.43,2.14
1516.45,2.18
1531.61,2.22
1546.93,2.27
1562.40,2.31
1578.02,2.36
1593.80,2.40
1609.74,2.46
1625.84,2.51
1642.10,2.57
1658.52,2.63
1675.10,2.69
1691.85,2.75
1708.77,2.82
1725.86,2.89
1743.12,2.95
1760.55,3.02
1778.15,3.09
1795.94,3.16
1813.90,3.24
1832.03,3.31
1850.36,3.39
1868.86,3.47
1887.55,3.55
1906.42,3.63
1925.49,3.72
1944.74,3.81
1964.19,3.90
1983.83,3.99
2003.67,4.08
2023.71,4.17
2043.94,4.26
2064.38,4.36
2085.03,4.46
2105.88,4.55
2126.94,4.65
2148.20,4.75
2169.69,4.85
2191.38,4.95
2213.30,5.06
2235.43,5.16
2257.78,5.26
2280.36,5.36
2303.17,5.47
2326.20,5.57
2349.46,5.67
2372.95,5.77
2396.68,5.87
2420.65,5.97
2444.86,6.06
2469.31,6.15
2494.00,6.24
2518.94,6.33
2544.13,6.42
2569.57,6.51
2595.27,6.59
2621.22,6.67
2647.43,6.74
2673.90,6.80
2700.64,6.86
2727.65,6.91
2754.93,6.95
2782.48,6.98
2810.30,7.00
2838.40,7.02
2866.79,7.04
2895.46,7.04
2924.41,7.04
2953.65,7.03
2983.19,7.01
3013.02,6.99
3043.15,6.96
3073.58,6.92
3104.32,6.88
3135.36,6.84
3166.72,6.79
3198.38,6.75
3230.37,6.70
3262.67,6.65
3295.30,6.59
3328.25,6.54
3361.53,6.49
3395.15,6.43
3429.10,6.38
3463.39,6.32
3498.03,6.27
3533.01,6.22
3568.34,6.17
3604.02,6.12
3640.06,6.08
3676.46,6.04
3713.22,6.01
3750.36,5.97
3787.86,5.95
3825.74,5.93
3864.00,5.91
3902.64,5.90
3941.66,5.89
3981.08,5.89
4020.89,5.88
4061.10,5.87
4101.71,5.87
4142.73,5.87
4184.15,5.87
4226.00,5.88
4268.26,5.90
4310.94,5.92
4354.05,5.95
4397.59,5.99
4441.56,6.03
4485.98,6.07
4530.84,6.10
4576.15,6.13
4621.91,6.16
4668.13,6.17
4714.81,6.17
4761.96,6.15
4809.58,6.12
4857.67,6.07
4906.25,6.00
4955.31,5.91
5004.87,5.79
5054.91,5.63
5105.46,5.45
5156.52,5.26
5208.08,5.05
5260.16,4.82
5312.77,4.59
5365.89,4.35
5419.55,4.12
5473.75,3.89
5528.49,3.67
5583.77,3.46
5639.61,3.28
5696.00,3.11
5752.96,3.00
5810.49,2.89
5868.60,2.84
5927.28,2.81
5986.56,2.82
6046.42,2.86
6106.89,2.91
6167.96,2.98
6229.64,3.05
6291.93,3.12
6354.85,3.18
6418.40,3.23
6482.58,3.26
6547.41,3.27
6612.88,3.28
6679.01,3.27
6745.80,3.27
6813.26,3.27
6881.39,3.28
6950.21,3.29
7019.71,3.32
7089.91,3.37
7160.81,3.45
7232.41,3.53
7304.74,3.63
7377.79,3.75
7451.56,3.87
7526.08,4.01
7601.34,4.17
7677.35,4.34
7754.13,4.51
7831.67,4.64
7909.98,4.76
7989.08,4.83
8068.98,4.84
8149.67,4.81
8231.16,4.72
8313.47,4.56
8396.61,4.37
8480.57,4.10
8565.38,3.79
8651.03,3.46
8737.54,3.09
8824.92,2.72
8913.17,2.35
9002.30,1.99
9092.32,1.64
9183.25,1.31
9275.08,1.01
9367.83,0.73
9461.51,0.49
9556.12,0.27
9651.68,0.07
9748.20,-0.10
9845.68,-0.24
9944.14,-0.38
10043.58,-0.50
10144.02,-0.61
10245.46,-0.71
10347.91,-0.82
10451.39,-0.92
10555.91,-1.03
10661.46,-1.14
10768.08,-1.26
10875.76,-1.36
10984.52,-1.44
11094.36,-1.48
11205.31,-1.49
11317.36,-1.41
11430.53,-1.29
11544.84,-1.09
11660.29,-0.85
11776.89,-0.58
11894.66,-0.31
12013.60,-0.05
12133.74,0.17
12255.08,0.37
12377.63,0.58
12501.41,0.76
12626.42,0.79
12752.68,0.76
12880.21,0.69
13009.01,0.61
13139.10,0.53
13270.49,0.31
13403.20,0.02
13537.23,-0.53
13672.60,-1.17
13809.33,-1.90
13947.42,-2.83
14086.90,-3.81
14227.77,-4.82
14370.04,-5.66
14513.74,-6.30
14658.88,-6.62
14805.47,-6.86
14953.52,-7.00
15103.06,-7.16
15254.09,-7.32
15406.63,-7.58
15560.70,-7.89
15716.30,-8.26
15873.47,-8.68
16032.20,-9.07
16192.52,-9.28
16354.45,-9.46
16517.99,-9.62
16683.17,-9.65
16850.01,-9.59
17018.51,-9.45
17188.69,-9.10
17360.58,-8.66
17534.18,-8.16
17709.53,-7.72
17886.62,-7.48
18065.49,-7.37
18246.14,-7.37
18428.60,-7.44
18612.89,-7.36
18799.02,-7.14
18987.01,-6.82
19176.88,-7.11
19368.65,-7.58
19562.33,-8.15
19757.96,-8.71
19955.54,-9.27
