frequency,raw
20.00,2.95
20.20,2.98
20.40,3.01
20.61,3.04
20.81,3.06
21.02,3.09
21.23,3.12
21.44,3.14
21.66,3.17
21.87,3.19
22.09,3.21
22.31,3.23
22.54,3.26
22.76,3.28
22.99,3.30
23.22,3.32
23.45,3.34
23.69,3.36
23.92,3.38
24.16,3.40
24.40,3.42
24.65,3.44
24.89,3.46
25.14,3.49
25.39,3.52
25.65,3.54
25.91,3.57
26.16,3.59
26.43,3.62
26.69,3.65
26.96,3.68
27.23,3.71
27.50,3.74
27.77,3.77
28.05,3.80
28.33,3.83
28.62,3.86
28.90,3.89
29.19,3.91
29.48,3.94
29.78,3.96
30.08,3.99
30.38,4.01
30.68,4.03
30.99,4.05
31.30,4.07
31.61,4.09
31.93,4.11
32.24,4.13
32.57,4.15
32.89,4.17
33.22,4.19
33.55,4.21
33.89,4.23
34.23,4.25
34.57,4.27
34.92,4.29
35.27,4.31
35.62,4.33
35.97,4.36
36.33,4.38
36.70,4.40
37.06,4.42
37.43,4.44
37.81,4.46
38.19,4.48
38.57,4.50
38.95,4.51
39.34,4.53
39.74,4.55
40.14,4.56
40.54,4.57
40.94,4.59
41.35,4.60
41.76,4.61
42.18,4.62
42.60,4.64
43.03,4.65
43.46,4.66
43.90,4.67
44.33,4.68
44.78,4.69
45.23,4.70
45.68,4.71
46.13,4.72
46.60,4.73
47.06,4.74
47.53,4.75
48.01,4.76
48.49,4.76
48.97,4.77
49.46,4.78
49.96,4.78
50.46,4.79
50.96,4.80
51.47,4.81
51.99,4.81
52.51,4.82
53.03,4.82
53.56,4.83
54.10,4.83
54.64,4.84
55.18,4.84
55.74,4.84
56.29,4.84
56.86,4.84
57.42,4.84
58.00,4.84
58.58,4.84
59.16,4.84
59.76,4.84
60.35,4.84
60.96,4.84
61.57,4.83
62.18,4.83
62.80,4.83
63.43,4.82
64.07,4.81
64.71,4.80
65.35,4.79
66.01,4.77
66.67,4.76
67.33,4.75
68.01,4.74
68.69,4.73
69.37,4.71
70.07,4.69
70.77,4.68
71.48,4.66
72.19,4.65
72.91,4.63
73.64,4.61
74.38,4.59
75.12,4.57
75.87,4.55
76.63,4.53
77.40,4.51
78.17,4.49
78.95,4.46
79.74,4.44
80.54,4.41
81.35,4.39
82.16,4.36
82.98,4.34
83.81,4.31
84.65,4.28
85.50,4.26
86.35,4.23
87.22,4.20
88.09,4.17
88.97,4.13
89.86,4.10
90.76,4.07
91.66,4.03
92.58,4.00
93.51,3.97
94.44,3.93
95.39,3.89
96.34,3.86
97.30,3.82
98.28,3.78
99.26,3.74
100.25,3.70
101.25,3.65
102.27,3.61
103.29,3.57
104.32,3.52
105.37,3.48
106.42,3.43
107.48,3.38
108.56,3.34
109.64,3.29
110.74,3.24
111.85,3.19
112.97,3.14
114.10,3.09
115.24,3.03
116.39,2.98
117.55,2.93
118.73,2.87
119.92,2.82
121.12,2.76
122.33,2.71
123.55,2.65
124.79,2.59
126.03,2.53
127.29,2.47
128.57,2.41
129.85,2.35
131.15,2.28
132.46,2.22
133.79,2.16
135.12,2.10
136.48,2.03
137.84,1.97
139.22,1.90
140.61,1.83
142.02,1.77
143.44,1.70
144.87,1.63
146.32,1.57
147.78,1.50
149.26,1.43
150.75,1.36
152.26,1.29
153.78,1.22
155.32,1.15
156.88,1.08
158.44,1.01
160.03,0.93
161.63,0.87
163.24,0.80
164.88,0.73
166.53,0.66
168.19,0.59
169.87,0.52
171.57,0.46
173.29,0.39
175.02,0.32
176.77,0.25
178.54,0.19
180.32,0.12
182.13,0.05
183.95,-0.02
185.79,-0.09
187.65,-0.15
189.52,-0.22
191.42,-0.29
193.33,-0.36
195.27,-0.42
197.22,-0.48
199.19,-0.55
201.18,-0.61
203.19,-0.68
205.23,-0.75
207.28,-0.81
209.35,-0.88
211.44,-0.94
213.56,-1.00
215.69,-1.07
217.85,-1.13
220.03,-1.19
222.23,-1.25
224.45,-1.31
226.70,-1.37
228.96,-1.42
231.25,-1.48
233.57,-1.53
235.90,-1.58
238.26,-1.64
240.64,-1.69
243.05,-1.74
245.48,-1.79
247.93,-1.84
250.41,-1.89
252.92,-1.93
255.45,-1.98
258.00,-2.02
260.58,-2.06
263.19,-2.10
265.82,-2.14
268.48,-2.18
271.16,-2.22
273.87,-2.25
276.61,-2.29
279.38,-2.32
282.17,-2.35
284.99,-2.38
287.84,-2.41
290.72,-2.44
293.63,-2.47
296.57,-2.49
299.53,-2.52
302.53,-2.55
305.55,-2.57
308.61,-2.59
311.69,-2.60
314.81,-2.63
317.96,-2.64
321.14,-2.66
324.35,-2.68
327.59,-2.69
330.87,-2.70
334.18,-2.71
337.52,-2.72
340.90,-2.73
344.30,-2.74
347.75,-2.75
351.23,-2.76
354.74,-2.76
358.28,-2.77
361.87,-2.78
365.49,-2.78
369.14,-2.78
372.83,-2.79
376.56,-2.79
380.33,-2.79
384.13,-2.79
387.97,-2.79
391.85,-2.79
395.77,-2.79
399.73,-2.79
403.72,-2.79
407.76,-2.79
411.84,-2.79
415.96,-2.78
420.12,-2.78
424.32,-2.78
428.56,-2.77
432.85,-2.77
437.18,-2.77
441.55,-2.76
445.96,-2.76
450.42,-2.75
454.93,-2.74
459.48,-2.74
464.07,-2.73
468.71,-2.72
473.40,-2.72
478.13,-2.71
482.91,-2.70
487.74,-2.69
492.62,-2.69
497.55,-2.68
502.52,-2.66
507.55,-2.65
512.62,-2.65
517.75,-2.64
522.93,-2.62
528.16,-2.61
533.44,-2.60
538.77,-2.59
544.16,-2.57
549.60,-2.56
555.10,-2.55
560.65,-2.54
566.25,-2.52
571.92,-2.50
577.64,-2.49
583.41,-2.48
589.25,-2.46
595.14,-2.45
601.09,-2.43
607.10,-2.42
613.17,-2.40
619.30,-2.38
625.50,-2.36
631.75,-2.34
638.07,-2.32
644.45,-2.30
650.89,-2.27
657.40,-2.25
663.98,-2.23
670.62,-2.21
677.32,-2.18
684.10,-2.15
690.94,-2.12
697.85,-2.10
704.83,-2.07
711.87,-2.04
718.99,-2.00
726.18,-1.97
733.44,-1.94
740.78,-1.90
748.19,-1.87
755.67,-1.83
763.23,-1.79
770.86,-1.75
778.57,-1.71
786.35,-1.66
794.22,-1.62
802.16,-1.57
810.18,-1.52
818.28,-1.48
826.46,-1.43
834.73,-1.37
843.08,-1.32
851.51,-1.27
860.02,-1.21
868.62,-1.16
877.31,-1.10
886.08,-1.03
894.94,-0.97
903.89,-0.90
912.93,-0.83
922.06,-0.75
931.28,-0.65
940.59,-0.56
950.00,-0.47
959.50,-0.38
969.09,-0.30
978.78,-0.21
988.57,-0.12
998.46,-0.01
1008.44,0.08
1018.53,0.17
1028.71,0.27
1039.00,0.36
1049.39,0.45
1059.88,0.55
1070.48,0.64
1081.19,0.74
1092.00,0.83
1102.92,0.93
1113.95,1.02
1125.09,1.12
1136.34,1.21
1147.70,1.30
1159.18,1.39
1170.77,1.48
1182.48,1.57
1194.30,1.66
1206.25,1.74
1218.31,1.82
1230.49,1.91
1242.80,1.99
1255.22,2.07
1267.78,2.16
1280.45,2.24
1293.26,2.32
1306.19,2.39
1319.25,2.47
1332.45,2.55
1345.77,2.63
1359.23,2.70
1372.82,2.77
1386.55,2.84
1400.41,2.91
1414.42,2.98
1428.56,3.05
1442.85,3.12
1457.28,3.19
1471.85,3.27
1486.57,3.33
1501.43,3.40
1516.45,3.47
1531.61,3.54
1546.93,3.61
1562.40,3.68
1578.02,3.75
1593.80,3.82
1609.74,3.90
1625.84,3.98
1642.10,4.06
1658.52,4.14
1675.10,4.23
1691.85,4.32
1708.77,4.40
1725.86,4.49
1743.12,4.58
1760.55,4.67
1778.15,4.77
1795.94,4.86
1813.90,4.95
1832.03,5.05
1850.36,5.15
1868.86,5.25
1887.55,5.35
1906.42,5.44
1925.49,5.54
1944.74,5.65
1964.19,5.75
1983.83,5.85
2003.67,5.95
2023.71,6.05
2043.94,6.15
2064.38,6.24
2085.03,6.34
2105.88,6.44
2126.94,6.54
2148.20,6.64
2169.69,6.74
2191.38,6.84
2213.30,6.93
2235.43,7.03
2257.78,7.13
2280.36,7.23
2303.17,7.32
2326.20,7.42
2349.46,7.51
2372.95,7.60
2396.68,7.70
2420.65,7.78
2444.86,7.87
2469.31,7.96
2494.00,8.04
2518.94,8.12
2544.13,8.21
2569.57,8.29
2595.27,8.36
2621.22,8.43
2647.43,8.50
2673.90,8.56
2700.64,8.62
2727.65,8.67
2754.93,8.72
2782.48,8.76
2810.30,8.79
2838.40,8.82
2866.79,8.85
2895.46,8.87
2924.41,8.89
2953.65,8.90
2983.19,8.90
3013.02,8.90
3043.15,8.90
3073.58,8.90
3104.32,8.88
3135.36,8.87
3166.72,8.85
3198.38,8.84
3230.37,8.82
3262.67,8.81
3295.30,8.78
3328.25,8.76
3361.53,8.74
3395.15,8.71
3429.10,8.68
3463.39,8.66
3498.03,8.63
3533.01,8.60
3568.34,8.57
3604.02,8.54
3640.06,8.51
3676.46,8.48
3713.22,8.45
3750.36,8.43
3787.86,8.40
3825.74,8.38
3864.00,8.35
3902.64,8.33
3941.66,8.31
3981.08,8.30
4020.89,8.27
4061.10,8.24
4101.71,8.21
4142.73,8.18
4184.15,8.15
4226.00,8.13
4268.26,8.11
4310.94,8.09
4354.05,8.07
4397.59,8.05
4441.56,8.03
4485.98,8.01
4530.84,7.99
4576.15,7.96
4621.91,7.94
4668.13,7.92
4714.81,7.89
4761.96,7.87
4809.58,7.84
4857.67,7.81
4906.25,7.77
4955.31,7.73
5004.87,7.69
5054.91,7.63
5105.46,7.56
5156.52,7.49
5208.08,7.41
5260.16,7.33
5312.77,7.25
5365.89,7.16
5419.55,7.06
5473.75,6.96
5528.49,6.86
5583.77,6.76
5639.61,6.65
5696.00,6.54
5752.96,6.42
5810.49,6.31
5868.60,6.19
5927.28,6.08
5986.56,5.97
6046.42,5.85
6106.89,5.74
6167.96,5.64
6229.64,5.53
6291.93,5.44
6354.85,5.37
6418.40,5.30
6482.58,5.25
6547.41,5.21
6612.88,5.18
6679.01,5.16
6745.80,5.16
6813.26,5.17
6881.39,5.20
6950.21,5.24
7019.71,5.29
7089.91,5.36
7160.81,5.45
7232.41,5.55
7304.74,5.67
7377.79,5.80
7451.56,5.94
7526.08,6.08
7601.34,6.25
7677.35,6.40
7754.13,6.56
7831.67,6.71
7909.98,6.84
7989.08,6.95
8068.98,7.01
8149.67,7.02
8231.16,6.98
8313.47,6.85
8396.61,6.68
8480.57,6.41
8565.38,6.06
8651.03,5.67
8737.54,5.22
8824.92,4.73
8913.17,4.22
9002.30,3.69
9092.32,3.15
9183.25,2.62
9275.08,2.09
9367.83,1.58
9461.51,1.08
9556.12,0.60
9651.68,0.15
9748.20,-0.28
9845.68,-0.69
9944.14,-1.07
10043.58,-1.43
10144.02,-1.76
10245.46,-2.05
10347.91,-2.32
10451.39,-2.57
10555.91,-2.78
10661.46,-2.97
10768.08,-3.12
10875.76,-3.26
10984.52,-3.35
11094.36,-3.41
11205.31,-3.46
11317.36,-3.45
11430.53,-3.43
11544.84,-3.35
11660.29,-3.23
11776.89,-3.11
11894.66,-2.91
12013.60,-2.70
12133.74,-2.43
12255.08,-2.11
12377.63,-1.74
12501.41,-1.33
12626.42,-0.90
12752.68,-0.40
12880.21,0.19
13009.01,0.84
13139.10,1.49
13270.49,2.23
13403.20,2.99
13537.23,3.63
13672.60,4.04
13809.33,4.19
13947.42,3.76
14086.90,3.04
14227.77,2.15
14370.04,1.22
14513.74,0.27
14658.88,-0.58
14805.47,-1.38
14953.52,-2.08
15103.06,-2.67
15254.09,-3.20
15406.63,-3.60
15560.70,-3.97
15716.30,-4.26
15873.47,-4.51
16032.20,-4.70
16192.52,-4.70
16354.45,-4.72
16517.99,-4.77
16683.17,-4.89
16850.01,-5.07
17018.51,-5.32
17188.69,-5.70
17360.58,-6.13
17534.18,-6.59
17709.53,-7.08
17886.62,-7.56
18065.49,-8.05
18246.14,-8.56
18428.60,-8.95
18612.89,-9.04
18799.02,-9.00
18987.01,-9.14
19176.88,-9.52
19368.65,-10.40
19562.33,-11.63
19757.96,-12.98
19955.54,-14.34
