frequency,raw
20.00,3.60
20.20,3.62
20.40,3.64
20.61,3.66
20.81,3.69
21.02,3.71
21.23,3.74
21.44,3.77
21.66,3.80
21.87,3.82
22.09,3.85
22.31,3.88
22.54,3.91
22.76,3.95
22.99,3.98
23.22,4.01
23.45,4.05
23.69,4.08
23.92,4.11
24.16,4.14
24.40,4.17
24.65,4.20
24.89,4.23
25.14,4.25
25.39,4.28
25.65,4.31
25.91,4.34
26.16,4.36
26.43,4.39
26.69,4.42
26.96,4.45
27.23,4.48
27.50,4.51
27.77,4.54
28.05,4.57
28.33,4.60
28.62,4.63
28.90,4.66
29.19,4.69
29.48,4.72
29.78,4.75
30.08,4.78
30.38,4.80
30.68,4.83
30.99,4.86
31.30,4.88
31.61,4.90
31.93,4.92
32.24,4.95
32.57,4.97
32.89,5.00
33.22,5.02
33.55,5.05
33.89,5.07
34.23,5.09
34.57,5.12
34.92,5.14
35.27,5.16
35.62,5.18
35.97,5.20
36.33,5.23
36.70,5.25
37.06,5.27
37.43,5.29
37.81,5.31
38.19,5.33
38.57,5.35
38.95,5.37
39.34,5.39
39.74,5.41
40.14,5.42
40.54,5.44
40.94,5.46
41.35,5.47
41.76,5.48
42.18,5.50
42.60,5.51
43.03,5.53
43.46,5.54
43.90,5.55
44.33,5.56
44.78,5.57
45.23,5.58
45.68,5.59
46.13,5.60
46.60,5.61
47.06,5.62
47.53,5.62
48.01,5.63
48.49,5.63
48.97,5.64
49.46,5.64
49.96,5.65
50.46,5.66
50.96,5.66
51.47,5.67
51.99,5.67
52.51,5.68
53.03,5.68
53.56,5.68
54.10,5.68
54.64,5.68
55.18,5.68
55.74,5.68
56.29,5.69
56.86,5.69
57.42,5.69
58.00,5.68
58.58,5.68
59.16,5.68
59.76,5.67
60.35,5.67
60.96,5.66
61.57,5.65
62.18,5.64
62.80,5.63
63.43,5.62
64.07,5.60
64.71,5.59
65.35,5.58
66.01,5.56
66.67,5.55
67.33,5.53
68.01,5.51
68.69,5.49
69.37,5.47
70.07,5.45
70.77,5.43
71.48,5.41
72.19,5.38
72.91,5.36
73.64,5.34
74.38,5.31
75.12,5.28
75.87,5.25
76.63,5.22
77.40,5.20
78.17,5.16
78.95,5.13
79.74,5.10
80.54,5.07
81.35,5.04
82.16,5.00
82.98,4.97
83.81,4.93
84.65,4.89
85.50,4.86
86.35,4.82
87.22,4.78
88.09,4.74
88.97,4.70
89.86,4.65
90.76,4.61
91.66,4.57
92.58,4.52
93.51,4.48
94.44,4.43
95.39,4.38
96.34,4.34
97.30,4.29
98.28,4.24
99.26,4.18
100.25,4.13
101.25,4.08
102.27,4.02
103.29,3.97
104.32,3.91
105.37,3.85
106.42,3.79
107.48,3.73
108.56,3.67
109.64,3.61
110.74,3.55
111.85,3.49
112.97,3.42
114.10,3.36
115.24,3.29
116.39,3.23
117.55,3.16
118.73,3.10
119.92,3.03
121.12,2.96
122.33,2.89
123.55,2.82
124.79,2.75
126.03,2.67
127.29,2.60
128.57,2.53
129.85,2.45
131.15,2.38
132.46,2.30
133.79,2.23
135.12,2.15
136.48,2.07
137.84,2.00
139.22,1.92
140.61,1.84
142.02,1.76
143.44,1.69
144.87,1.61
146.32,1.53
147.78,1.45
149.26,1.37
150.75,1.30
152.26,1.22
153.78,1.15
155.32,1.07
156.88,0.99
158.44,0.92
160.03,0.84
161.63,0.77
163.24,0.70
164.88,0.63
166.53,0.56
168.19,0.49
169.87,0.42
171.57,0.35
173.29,0.29
175.02,0.22
176.77,0.16
178.54,0.10
180.32,0.03
182.13,-0.03
183.95,-0.09
185.79,-0.15
187.65,-0.20
189.52,-0.26
191.42,-0.31
193.33,-0.36
195.27,-0.41
197.22,-0.46
199.19,-0.51
201.18,-0.56
203.19,-0.61
205.23,-0.65
207.28,-0.69
209.35,-0.74
211.44,-0.78
213.56,-0.81
215.69,-0.85
217.85,-0.89
220.03,-0.92
222.23,-0.95
224.45,-0.98
226.70,-1.01
228.96,-1.04
231.25,-1.07
233.57,-1.09
235.90,-1.11
238.26,-1.14
240.64,-1.16
243.05,-1.17
245.48,-1.19
247.93,-1.21
250.41,-1.22
252.92,-1.23
255.45,-1.24
258.00,-1.25
260.58,-1.26
263.19,-1.27
265.82,-1.27
268.48,-1.28
271.16,-1.29
273.87,-1.29
276.61,-1.29
279.38,-1.29
282.17,-1.29
284.99,-1.29
287.84,-1.29
290.72,-1.29
293.63,-1.29
296.57,-1.29
299.53,-1.29
302.53,-1.28
305.55,-1.28
308.61,-1.28
311.69,-1.27
314.81,-1.27
317.96,-1.27
321.14,-1.26
324.35,-1.26
327.59,-1.25
330.87,-1.25
334.18,-1.24
337.52,-1.23
340.90,-1.23
344.30,-1.22
347.75,-1.22
351.23,-1.21
354.74,-1.21
358.28,-1.20
361.87,-1.20
365.49,-1.19
369.14,-1.19
372.83,-1.18
376.56,-1.18
380.33,-1.17
384.13,-1.17
387.97,-1.17
391.85,-1.17
395.77,-1.16
399.73,-1.16
403.72,-1.16
407.76,-1.16
411.84,-1.15
415.96,-1.15
420.12,-1.15
424.32,-1.15
428.56,-1.15
432.85,-1.15
437.18,-1.14
441.55,-1.15
445.96,-1.15
450.42,-1.15
454.93,-1.15
459.48,-1.15
464.07,-1.15
468.71,-1.15
473.40,-1.16
478.13,-1.16
482.91,-1.16
487.74,-1.16
492.62,-1.16
497.55,-1.17
502.52,-1.17
507.55,-1.17
512.62,-1.17
517.75,-1.18
522.93,-1.18
528.16,-1.18
533.44,-1.18
538.77,-1.19
544.16,-1.19
549.60,-1.19
555.10,-1.20
560.65,-1.20
566.25,-1.20
571.92,-1.21
577.64,-1.21
583.41,-1.21
589.25,-1.22
595.14,-1.22
601.09,-1.22
607.10,-1.22
613.17,-1.23
619.30,-1.23
625.50,-1.23
631.75,-1.23
638.07,-1.23
644.45,-1.22
650.89,-1.22
657.40,-1.22
663.98,-1.22
670.62,-1.21
677.32,-1.21
684.10,-1.20
690.94,-1.19
697.85,-1.19
704.83,-1.18
711.87,-1.17
718.99,-1.16
726.18,-1.15
733.44,-1.13
740.78,-1.12
748.19,-1.10
755.67,-1.08
763.23,-1.06
770.86,-1.04
778.57,-1.02
786.35,-0.99
794.22,-0.96
802.16,-0.94
810.18,-0.90
818.28,-0.87
826.46,-0.84
834.73,-0.81
843.08,-0.78
851.51,-0.75
860.02,-0.72
868.62,-0.69
877.31,-0.65
886.08,-0.60
894.94,-0.54
903.89,-0.49
912.93,-0.43
922.06,-0.37
931.28,-0.31
940.59,-0.25
950.00,-0.19
959.50,-0.14
969.09,-0.09
978.78,-0.05
988.57,-0.02
998.46,-0.00
1008.44,0.01
1018.53,0.02
1028.71,0.03
1039.00,0.05
1049.39,0.08
1059.88,0.11
1070.48,0.17
1081.19,0.24
1092.00,0.32
1102.92,0.40
1113.95,0.49
1125.09,0.57
1136.34,0.66
1147.70,0.75
1159.18,0.84
1170.77,0.93
1182.48,1.01
1194.30,1.10
1206.25,1.18
1218.31,1.26
1230.49,1.34
1242.80,1.42
1255.22,1.50
1267.78,1.58
1280.45,1.65
1293.26,1.73
1306.19,1.80
1319.25,1.88
1332.45,1.95
1345.77,2.02
1359.23,2.09
1372.82,2.16
1386.55,2.23
1400.41,2.30
1414.42,2.37
1428.56,2.44
1442.85,2.50
1457.28,2.57
1471.85,2.64
1486.57,2.71
1501.43,2.78
1516.45,2.85
1531.61,2.92
1546.93,2.99
1562.40,3.06
1578.02,3.13
1593.80,3.21
1609.74,3.29
1625.84,3.37
1642.10,3.45
1658.52,3.54
1675.10,3.63
1691.85,3.72
1708.77,3.81
1725.86,3.90
1743.12,3.99
1760.55,4.09
1778.15,4.18
1795.94,4.28
1813.90,4.38
1832.03,4.48
1850.36,4.58
1868.86,4.69
1887.55,4.80
1906.42,4.90
1925.49,5.01
1944.74,5.13
1964.19,5.24
1983.83,5.35
2003.67,5.47
2023.71,5.58
2043.94,5.70
2064.38,5.82
2085.03,5.94
2105.88,6.06
2126.94,6.18
2148.20,6.31
2169.69,6.43
2191.38,6.56
2213.30,6.68
2235.43,6.81
2257.78,6.93
2280.36,7.06
2303.17,7.19
2326.20,7.31
2349.46,7.44
2372.95,7.56
2396.68,7.69
2420.65,7.81
2444.86,7.93
2469.31,8.06
2494.00,8.18
2518.94,8.30
2544.13,8.42
2569.57,8.53
2595.27,8.64
2621.22,8.75
2647.43,8.86
2673.90,8.95
2700.64,9.05
2727.65,9.13
2754.93,9.21
2782.48,9.28
2810.30,9.34
2838.40,9.40
2866.79,9.44
2895.46,9.48
2924.41,9.51
2953.65,9.54
2983.19,9.55
3013.02,9.56
3043.15,9.57
3073.58,9.56
3104.32,9.55
3135.36,9.54
3166.72,9.53
3198.38,9.52
3230.37,9.50
3262.67,9.49
3295.30,9.47
3328.25,9.45
3361.53,9.43
3395.15,9.41
3429.10,9.40
3463.39,9.38
3498.03,9.36
3533.01,9.35
3568.34,9.34
3604.02,9.32
3640.06,9.32
3676.46,9.31
3713.22,9.31
3750.36,9.31
3787.86,9.31
3825.74,9.32
3864.00,9.33
3902.64,9.34
3941.66,9.35
3981.08,9.37
4020.89,9.38
4061.10,9.40
4101.71,9.42
4142.73,9.43
4184.15,9.45
4226.00,9.48
4268.26,9.50
4310.94,9.52
4354.05,9.54
4397.59,9.57
4441.56,9.59
4485.98,9.61
4530.84,9.62
4576.15,9.63
4621.91,9.64
4668.13,9.64
4714.81,9.63
4761.96,9.61
4809.58,9.59
4857.67,9.55
4906.25,9.50
4955.31,9.43
5004.87,9.36
5054.91,9.26
5105.46,9.15
5156.52,9.02
5208.08,8.88
5260.16,8.72
5312.77,8.55
5365.89,8.37
5419.55,8.18
5473.75,7.99
5528.49,7.78
5583.77,7.58
5639.61,7.37
5696.00,7.16
5752.96,6.95
5810.49,6.74
5868.60,6.54
5927.28,6.34
5986.56,6.15
6046.42,5.97
6106.89,5.80
6167.96,5.63
6229.64,5.48
6291.93,5.34
6354.85,5.22
6418.40,5.11
6482.58,5.02
6547.41,4.94
6612.88,4.88
6679.01,4.83
6745.80,4.81
6813.26,4.79
6881.39,4.81
6950.21,4.84
7019.71,4.89
7089.91,4.96
7160.81,5.06
7232.41,5.18
7304.74,5.31
7377.79,5.47
7451.56,5.65
7526.08,5.85
7601.34,6.06
7677.35,6.28
7754.13,6.52
7831.67,6.76
7909.98,6.99
7989.08,7.22
8068.98,7.43
8149.67,7.61
8231.16,7.75
8313.47,7.83
8396.61,7.88
8480.57,7.86
8565.38,7.77
8651.03,7.62
8737.54,7.42
8824.92,7.16
8913.17,6.85
9002.30,6.52
9092.32,6.16
9183.25,5.79
9275.08,5.42
9367.83,5.06
9461.51,4.72
9556.12,4.41
9651.68,4.12
9748.20,3.86
9845.68,3.66
9944.14,3.50
10043.58,3.39
10144.02,3.32
10245.46,3.32
10347.91,3.36
10451.39,3.45
10555.91,3.58
10661.46,3.73
10768.08,3.89
10875.76,4.04
10984.52,4.13
11094.36,4.18
11205.31,4.16
11317.36,4.00
11430.53,3.78
11544.84,3.45
11660.29,3.06
11776.89,2.62
11894.66,2.13
12013.60,1.63
12133.74,1.11
12255.08,0.58
12377.63,0.02
12501.41,-0.55
12626.42,-1.15
12752.68,-1.78
12880.21,-2.41
13009.01,-3.05
13139.10,-3.69
13270.49,-4.32
13403.20,-4.93
13537.23,-5.52
13672.60,-6.08
13809.33,-6.62
13947.42,-7.11
14086.90,-7.57
14227.77,-8.01
14370.04,-8.41
14513.74,-8.77
14658.88,-9.10
14805.47,-9.41
14953.52,-9.69
15103.06,-9.96
15254.09,-10.22
15406.63,-10.46
15560.70,-10.70
15716.30,-10.94
15873.47,-11.16
16032.20,-11.37
16192.52,-11.57
16354.45,-11.75
16517.99,-11.94
16683.17,-12.12
16850.01,-12.30
17018.51,-12.48
17188.69,-12.65
17360.58,-12.82
17534.18,-12.99
17709.53,-13.16
17886.62,-13.35
18065.49,-13.58
18246.14,-13.86
18428.60,-14.27
18612.89,-14.78
18799.02,-15.40
18987.01,-16.17
19176.88,-17.08
19368.65,-18.07
19562.33,-19.07
19757.96,-20.01
19955.54,-20.61
