frequency,raw
20.00,5.99
20.20,6.02
20.40,6.05
20.61,6.08
20.81,6.11
21.02,6.14
21.23,6.16
21.44,6.19
21.66,6.21
21.87,6.24
22.09,6.26
22.31,6.28
22.54,6.30
22.76,6.32
22.99,6.34
23.22,6.36
23.45,6.38
23.69,6.39
23.92,6.41
24.16,6.43
24.40,6.44
24.65,6.46
24.89,6.47
25.14,6.49
25.39,6.50
25.65,6.51
25.91,6.53
26.16,6.54
26.43,6.55
26.69,6.56
26.96,6.57
27.23,6.59
27.50,6.60
27.77,6.61
28.05,6.62
28.33,6.63
28.62,6.64
28.90,6.65
29.19,6.65
29.48,6.66
29.78,6.66
30.08,6.67
30.38,6.67
30.68,6.68
30.99,6.68
31.30,6.68
31.61,6.68
31.93,6.68
32.24,6.68
32.57,6.68
32.89,6.68
33.22,6.68
33.55,6.68
33.89,6.67
34.23,6.67
34.57,6.67
34.92,6.67
35.27,6.67
35.62,6.66
35.97,6.66
36.33,6.66
36.70,6.65
37.06,6.65
37.43,6.64
37.81,6.64
38.19,6.63
38.57,6.63
38.95,6.62
39.34,6.61
39.74,6.60
40.14,6.59
40.54,6.58
40.94,6.57
41.35,6.55
41.76,6.54
42.18,6.52
42.60,6.51
43.03,6.49
43.46,6.48
43.90,6.46
44.33,6.45
44.78,6.43
45.23,6.41
45.68,6.40
46.13,6.38
46.60,6.36
47.06,6.34
47.53,6.33
48.01,6.31
48.49,6.29
48.97,6.27
49.46,6.24
49.96,6.23
50.46,6.21
50.96,6.19
51.47,6.18
51.99,6.16
52.51,6.15
53.03,6.13
53.56,6.11
54.10,6.09
54.64,6.07
55.18,6.06
55.74,6.04
56.29,6.02
56.86,6.00
57.42,5.98
58.00,5.96
58.58,5.94
59.16,5.92
59.76,5.90
60.35,5.88
60.96,5.86
61.57,5.84
62.18,5.81
62.80,5.79
63.43,5.76
64.07,5.74
64.71,5.71
65.35,5.68
66.01,5.65
66.67,5.62
67.33,5.59
68.01,5.56
68.69,5.52
69.37,5.49
70.07,5.46
70.77,5.43
71.48,5.40
72.19,5.37
72.91,5.33
73.64,5.30
74.38,5.26
75.12,5.23
75.87,5.20
76.63,5.16
77.40,5.13
78.17,5.09
78.95,5.06
79.74,5.02
80.54,4.99
81.35,4.95
82.16,4.92
82.98,4.89
83.81,4.85
84.65,4.82
85.50,4.78
86.35,4.75
87.22,4.71
88.09,4.68
88.97,4.64
89.86,4.61
90.76,4.57
91.66,4.54
92.58,4.50
93.51,4.46
94.44,4.43
95.39,4.39
96.34,4.35
97.30,4.31
98.28,4.28
99.26,4.24
100.25,4.20
101.25,4.16
102.27,4.12
103.29,4.08
104.32,4.04
105.37,4.00
106.42,3.96
107.48,3.92
108.56,3.88
109.64,3.83
110.74,3.79
111.85,3.75
112.97,3.71
114.10,3.66
115.24,3.62
116.39,3.58
117.55,3.54
118.73,3.49
119.92,3.45
121.12,3.41
122.33,3.36
123.55,3.32
124.79,3.28
126.03,3.23
127.29,3.18
128.57,3.14
129.85,3.09
131.15,3.04
132.46,2.99
133.79,2.95
135.12,2.90
136.48,2.85
137.84,2.80
139.22,2.75
140.61,2.71
142.02,2.66
143.44,2.61
144.87,2.56
146.32,2.51
147.78,2.46
149.26,2.41
150.75,2.36
152.26,2.32
153.78,2.27
155.32,2.22
156.88,2.17
158.44,2.12
160.03,2.07
161.63,2.03
163.24,1.99
164.88,1.94
166.53,1.90
168.19,1.86
169.87,1.81
171.57,1.77
173.29,1.73
175.02,1.69
176.77,1.65
178.54,1.60
180.32,1.56
182.13,1.52
183.95,1.48
185.79,1.43
187.65,1.39
189.52,1.35
191.42,1.30
193.33,1.26
195.27,1.22
197.22,1.18
199.19,1.14
201.18,1.09
203.19,1.04
205.23,0.99
207.28,0.95
209.35,0.90
211.44,0.85
213.56,0.80
215.69,0.76
217.85,0.71
220.03,0.66
222.23,0.62
224.45,0.57
226.70,0.52
228.96,0.48
231.25,0.43
233.57,0.38
235.90,0.34
238.26,0.29
240.64,0.25
243.05,0.20
245.48,0.15
247.93,0.11
250.41,0.06
252.92,0.02
255.45,-0.03
258.00,-0.07
260.58,-0.11
263.19,-0.15
265.82,-0.20
268.48,-0.24
271.16,-0.28
273.87,-0.32
276.61,-0.37
279.38,-0.41
282.17,-0.45
284.99,-0.49
287.84,-0.53
290.72,-0.57
293.63,-0.61
296.57,-0.65
299.53,-0.69
302.53,-0.73
305.55,-0.77
308.61,-0.81
311.69,-0.85
314.81,-0.89
317.96,-0.92
321.14,-0.95
324.35,-0.99
327.59,-1.02
330.87,-1.05
334.18,-1.09
337.52,-1.12
340.90,-1.15
344.30,-1.18
347.75,-1.21
351.23,-1.24
354.74,-1.27
358.28,-1.30
361.87,-1.33
365.49,-1.36
369.14,-1.39
372.83,-1.42
376.56,-1.45
380.33,-1.47
384.13,-1.50
387.97,-1.53
391.85,-1.56
395.77,-1.58
399.73,-1.61
403.72,-1.63
407.76,-1.65
411.84,-1.68
415.96,-1.70
420.12,-1.72
424.32,-1.74
428.56,-1.76
432.85,-1.79
437.18,-1.81
441.55,-1.83
445.96,-1.84
450.42,-1.86
454.93,-1.88
459.48,-1.90
464.07,-1.91
468.71,-1.93
473.40,-1.95
478.13,-1.96
482.91,-1.98
487.74,-1.99
492.62,-2.01
497.55,-2.02
502.52,-2.03
507.55,-2.04
512.62,-2.05
517.75,-2.05
522.93,-2.06
528.16,-2.07
533.44,-2.07
538.77,-2.08
544.16,-2.08
549.60,-2.09
555.10,-2.09
560.65,-2.09
566.25,-2.09
571.92,-2.09
577.64,-2.09
583.41,-2.09
589.25,-2.09
595.14,-2.09
601.09,-2.09
607.10,-2.08
613.17,-2.07
619.30,-2.07
625.50,-2.06
631.75,-2.05
638.07,-2.04
644.45,-2.03
650.89,-2.01
657.40,-2.00
663.98,-1.98
670.62,-1.96
677.32,-1.95
684.10,-1.92
690.94,-1.90
697.85,-1.88
704.83,-1.85
711.87,-1.83
718.99,-1.80
726.18,-1.77
733.44,-1.74
740.78,-1.71
748.19,-1.68
755.67,-1.64
763.23,-1.60
770.86,-1.56
778.57,-1.52
786.35,-1.47
794.22,-1.43
802.16,-1.38
810.18,-1.34
818.28,-1.29
826.46,-1.25
834.73,-1.19
843.08,-1.14
851.51,-1.08
860.02,-1.02
868.62,-0.95
877.31,-0.88
886.08,-0.85
894.94,-0.91
903.89,-0.94
912.93,-0.91
922.06,-0.82
931.28,-0.73
940.59,-0.66
950.00,-0.60
959.50,-0.52
969.09,-0.40
978.78,-0.27
988.57,-0.14
998.46,-0.02
1008.44,0.08
1018.53,0.18
1028.71,0.27
1039.00,0.35
1049.39,0.44
1059.88,0.54
1070.48,0.63
1081.19,0.72
1092.00,0.81
1102.92,0.90
1113.95,0.99
1125.09,1.08
1136.34,1.17
1147.70,1.26
1159.18,1.35
1170.77,1.44
1182.48,1.53
1194.30,1.61
1206.25,1.70
1218.31,1.79
1230.49,1.87
1242.80,1.96
1255.22,2.04
1267.78,2.14
1280.45,2.23
1293.26,2.32
1306.19,2.41
1319.25,2.49
1332.45,2.58
1345.77,2.66
1359.23,2.74
1372.82,2.82
1386.55,2.89
1400.41,2.97
1414.42,3.03
1428.56,3.10
1442.85,3.16
1457.28,3.21
1471.85,3.26
1486.57,3.31
1501.43,3.35
1516.45,3.39
1531.61,3.42
1546.93,3.45
1562.40,3.47
1578.02,3.48
1593.80,3.49
1609.74,3.50
1625.84,3.51
1642.10,3.51
1658.52,3.51
1675.10,3.50
1691.85,3.49
1708.77,3.46
1725.86,3.44
1743.12,3.40
1760.55,3.36
1778.15,3.31
1795.94,3.26
1813.90,3.19
1832.03,3.13
1850.36,3.06
1868.86,2.99
1887.55,2.91
1906.42,2.83
1925.49,2.74
1944.74,2.65
1964.19,2.56
1983.83,2.46
2003.67,2.37
2023.71,2.27
2043.94,2.16
2064.38,2.06
2085.03,1.95
2105.88,1.85
2126.94,1.75
2148.20,1.64
2169.69,1.54
2191.38,1.44
2213.30,1.35
2235.43,1.25
2257.78,1.16
2280.36,1.07
2303.17,0.98
2326.20,0.90
2349.46,0.82
2372.95,0.74
2396.68,0.67
2420.65,0.59
2444.86,0.53
2469.31,0.47
2494.00,0.41
2518.94,0.38
2544.13,0.35
2569.57,0.33
2595.27,0.31
2621.22,0.30
2647.43,0.29
2673.90,0.29
2700.64,0.29
2727.65,0.31
2754.93,0.32
2782.48,0.35
2810.30,0.39
2838.40,0.43
2866.79,0.48
2895.46,0.53
2924.41,0.59
2953.65,0.66
2983.19,0.74
3013.02,0.83
3043.15,0.93
3073.58,1.04
3104.32,1.15
3135.36,1.27
3166.72,1.41
3198.38,1.56
3230.37,1.72
3262.67,1.89
3295.30,2.06
3328.25,2.25
3361.53,2.43
3395.15,2.62
3429.10,2.80
3463.39,2.98
3498.03,3.15
3533.01,3.30
3568.34,3.43
3604.02,3.54
3640.06,3.62
3676.46,3.65
3713.22,3.64
3750.36,3.58
3787.86,3.44
3825.74,3.28
3864.00,3.04
3902.64,2.72
3941.66,2.39
3981.08,1.99
4020.89,1.53
4061.10,1.03
4101.71,0.48
4142.73,-0.09
4184.15,-0.68
4226.00,-1.30
4268.26,-1.94
4310.94,-2.60
4354.05,-3.29
4397.59,-3.99
4441.56,-4.71
4485.98,-5.44
4530.84,-6.15
4576.15,-6.79
4621.91,-7.37
4668.13,-7.76
4714.81,-7.97
4761.96,-8.06
4809.58,-8.01
4857.67,-7.90
4906.25,-7.79
4955.31,-7.72
5004.87,-7.69
5054.91,-7.75
5105.46,-7.82
5156.52,-7.91
5208.08,-8.03
5260.16,-8.16
5312.77,-8.30
5365.89,-8.44
5419.55,-8.58
5473.75,-8.71
5528.49,-8.85
5583.77,-8.98
5639.61,-9.10
5696.00,-9.21
5752.96,-9.34
5810.49,-9.46
5868.60,-9.54
5927.28,-9.62
5986.56,-9.67
6046.42,-9.72
6106.89,-9.75
6167.96,-9.76
6229.64,-9.75
6291.93,-9.74
6354.85,-9.67
6418.40,-9.58
6482.58,-9.47
6547.41,-9.35
6612.88,-9.21
6679.01,-9.04
6745.80,-8.84
6813.26,-8.63
6881.39,-8.38
6950.21,-8.11
7019.71,-7.81
7089.91,-7.48
7160.81,-7.10
7232.41,-6.69
7304.74,-6.26
7377.79,-5.78
7451.56,-5.26
7526.08,-4.70
7601.34,-4.10
7677.35,-3.47
7754.13,-2.82
7831.67,-2.13
7909.98,-1.45
7989.08,-0.78
8068.98,-0.21
8149.67,0.27
8231.16,0.61
8313.47,0.71
8396.61,0.69
8480.57,0.43
8565.38,0.05
8651.03,-0.41
8737.54,-0.92
8824.92,-1.44
8913.17,-1.93
9002.30,-2.40
9092.32,-2.82
9183.25,-3.20
9275.08,-3.54
9367.83,-3.83
9461.51,-4.06
9556.12,-4.25
9651.68,-4.41
9748.20,-4.55
9845.68,-4.63
9944.14,-4.69
10043.58,-4.72
10144.02,-4.74
10245.46,-4.73
10347.91,-4.73
10451.39,-4.73
10555.91,-4.74
10661.46,-4.76
10768.08,-4.80
10875.76,-4.87
10984.52,-4.98
11094.36,-5.12
11205.31,-5.31
11317.36,-5.54
11430.53,-5.77
11544.84,-6.02
11660.29,-6.29
11776.89,-6.56
11894.66,-6.83
12013.60,-7.09
12133.74,-7.33
12255.08,-7.54
12377.63,-7.74
12501.41,-7.90
12626.42,-8.12
12752.68,-8.30
12880.21,-8.42
13009.01,-8.51
13139.10,-8.59
13270.49,-8.59
13403.20,-8.57
13537.23,-8.50
13672.60,-8.40
13809.33,-8.27
13947.42,-8.15
14086.90,-8.01
14227.77,-7.86
14370.04,-7.86
14513.74,-8.04
14658.88,-8.49
14805.47,-8.80
14953.52,-8.90
15103.06,-8.75
15254.09,-8.50
15406.63,-8.34
15560.70,-8.51
15716.30,-9.18
15873.47,-10.21
16032.20,-11.28
16192.52,-12.10
16354.45,-12.85
16517.99,-13.54
16683.17,-14.08
16850.01,-14.38
17018.51,-14.47
17188.69,-14.12
17360.58,-13.79
17534.18,-13.49
17709.53,-13.34
17886.62,-13.32
18065.49,-13.28
18246.14,-13.13
18428.60,-12.38
18612.89,-12.10
18799.02,-12.28
18987.01,-12.87
19176.88,-13.79
19368.65,-14.88
19562.33,-16.09
19757.96,-17.38
19955.54,-18.68
