frequency,raw
20.00,4.30
20.20,4.36
20.40,4.42
20.61,4.48
20.81,4.54
21.02,4.60
21.23,4.65
21.44,4.71
21.66,4.76
21.87,4.81
22.09,4.87
22.31,4.92
22.54,4.97
22.76,5.01
22.99,5.06
23.22,5.10
23.45,5.14
23.69,5.19
23.92,5.23
24.16,5.27
24.40,5.31
24.65,5.35
24.89,5.38
25.14,5.42
25.39,5.46
25.65,5.50
25.91,5.53
26.16,5.57
26.43,5.61
26.69,5.64
26.96,5.68
27.23,5.71
27.50,5.75
27.77,5.79
28.05,5.82
28.33,5.85
28.62,5.88
28.90,5.92
29.19,5.94
29.48,5.97
29.78,6.00
30.08,6.03
30.38,6.06
30.68,6.08
30.99,6.11
31.30,6.13
31.61,6.15
31.93,6.17
32.24,6.19
32.57,6.21
32.89,6.23
33.22,6.24
33.55,6.26
33.89,6.28
34.23,6.29
34.57,6.31
34.92,6.32
35.27,6.34
35.62,6.36
35.97,6.37
36.33,6.38
36.70,6.39
37.06,6.40
37.43,6.41
37.81,6.42
38.19,6.44
38.57,6.45
38.95,6.46
39.34,6.47
39.74,6.48
40.14,6.48
40.54,6.49
40.94,6.49
41.35,6.49
41.76,6.50
42.18,6.50
42.60,6.50
43.03,6.50
43.46,6.50
43.90,6.50
44.33,6.50
44.78,6.50
45.23,6.49
45.68,6.49
46.13,6.49
46.60,6.49
47.06,6.48
47.53,6.48
48.01,6.47
48.49,6.47
48.97,6.46
49.46,6.45
49.96,6.44
50.46,6.44
50.96,6.43
51.47,6.43
51.99,6.42
52.51,6.41
53.03,6.41
53.56,6.40
54.10,6.39
54.64,6.38
55.18,6.37
55.74,6.36
56.29,6.35
56.86,6.34
57.42,6.32
58.00,6.31
58.58,6.30
59.16,6.29
59.76,6.27
60.35,6.26
60.96,6.25
61.57,6.23
62.18,6.22
62.80,6.20
63.43,6.18
64.07,6.16
64.71,6.14
65.35,6.12
66.01,6.10
66.67,6.08
67.33,6.06
68.01,6.03
68.69,6.01
69.37,5.99
70.07,5.97
70.77,5.94
71.48,5.92
72.19,5.89
72.91,5.87
73.64,5.84
74.38,5.82
75.12,5.79
75.87,5.77
76.63,5.74
77.40,5.71
78.17,5.69
78.95,5.66
79.74,5.63
80.54,5.60
81.35,5.58
82.16,5.55
82.98,5.52
83.81,5.49
84.65,5.46
85.50,5.43
86.35,5.41
87.22,5.38
88.09,5.35
88.97,5.32
89.86,5.29
90.76,5.26
91.66,5.23
92.58,5.19
93.51,5.16
94.44,5.13
95.39,5.10
96.34,5.06
97.30,5.03
98.28,5.00
99.26,4.96
100.25,4.93
101.25,4.90
102.27,4.86
103.29,4.83
104.32,4.79
105.37,4.75
106.42,4.72
107.48,4.68
108.56,4.65
109.64,4.61
110.74,4.57
111.85,4.54
112.97,4.50
114.10,4.46
115.24,4.42
116.39,4.38
117.55,4.35
118.73,4.31
119.92,4.27
121.12,4.23
122.33,4.19
123.55,4.15
124.79,4.11
126.03,4.07
127.29,4.03
128.57,3.99
129.85,3.95
131.15,3.90
132.46,3.86
133.79,3.82
135.12,3.78
136.48,3.74
137.84,3.69
139.22,3.65
140.61,3.61
142.02,3.57
143.44,3.52
144.87,3.48
146.32,3.44
147.78,3.39
149.26,3.35
150.75,3.31
152.26,3.26
153.78,3.22
155.32,3.17
156.88,3.13
158.44,3.09
160.03,3.04
161.63,3.00
163.24,2.96
164.88,2.92
166.53,2.88
168.19,2.84
169.87,2.80
171.57,2.76
173.29,2.71
175.02,2.67
176.77,2.63
178.54,2.59
180.32,2.55
182.13,2.51
183.95,2.47
185.79,2.43
187.65,2.39
189.52,2.34
191.42,2.30
193.33,2.26
195.27,2.22
197.22,2.18
199.19,2.14
201.18,2.10
203.19,2.05
205.23,2.01
207.28,1.97
209.35,1.92
211.44,1.88
213.56,1.83
215.69,1.79
217.85,1.75
220.03,1.71
222.23,1.66
224.45,1.62
226.70,1.57
228.96,1.53
231.25,1.49
233.57,1.44
235.90,1.40
238.26,1.36
240.64,1.32
243.05,1.28
245.48,1.23
247.93,1.19
250.41,1.15
252.92,1.11
255.45,1.07
258.00,1.03
260.58,0.99
263.19,0.95
265.82,0.90
268.48,0.86
271.16,0.82
273.87,0.79
276.61,0.75
279.38,0.70
282.17,0.67
284.99,0.63
287.84,0.59
290.72,0.55
293.63,0.51
296.57,0.47
299.53,0.43
302.53,0.40
305.55,0.36
308.61,0.32
311.69,0.28
314.81,0.25
317.96,0.21
321.14,0.18
324.35,0.14
327.59,0.11
330.87,0.07
334.18,0.04
337.52,0.01
340.90,-0.02
344.30,-0.06
347.75,-0.09
351.23,-0.12
354.74,-0.16
358.28,-0.19
361.87,-0.22
365.49,-0.25
369.14,-0.28
372.83,-0.31
376.56,-0.34
380.33,-0.37
384.13,-0.40
387.97,-0.43
391.85,-0.46
395.77,-0.49
399.73,-0.52
403.72,-0.55
407.76,-0.57
411.84,-0.60
415.96,-0.63
420.12,-0.65
424.32,-0.68
428.56,-0.71
432.85,-0.73
437.18,-0.76
441.55,-0.78
445.96,-0.81
450.42,-0.83
454.93,-0.86
459.48,-0.88
464.07,-0.90
468.71,-0.93
473.40,-0.95
478.13,-0.97
482.91,-0.99
487.74,-1.01
492.62,-1.03
497.55,-1.05
502.52,-1.07
507.55,-1.09
512.62,-1.11
517.75,-1.13
522.93,-1.15
528.16,-1.16
533.44,-1.18
538.77,-1.19
544.16,-1.21
549.60,-1.22
555.10,-1.24
560.65,-1.25
566.25,-1.26
571.92,-1.28
577.64,-1.29
583.41,-1.30
589.25,-1.31
595.14,-1.32
601.09,-1.33
607.10,-1.34
613.17,-1.35
619.30,-1.36
625.50,-1.36
631.75,-1.37
638.07,-1.37
644.45,-1.38
650.89,-1.38
657.40,-1.38
663.98,-1.38
670.62,-1.38
677.32,-1.38
684.10,-1.38
690.94,-1.37
697.85,-1.37
704.83,-1.36
711.87,-1.36
718.99,-1.35
726.18,-1.34
733.44,-1.33
740.78,-1.32
748.19,-1.30
755.67,-1.29
763.23,-1.27
770.86,-1.25
778.57,-1.23
786.35,-1.20
794.22,-1.18
802.16,-1.16
810.18,-1.13
818.28,-1.11
826.46,-1.08
834.73,-1.05
843.08,-1.01
851.51,-0.98
860.02,-0.94
868.62,-0.90
877.31,-0.85
886.08,-0.80
894.94,-0.76
903.89,-0.70
912.93,-0.65
922.06,-0.59
931.28,-0.52
940.59,-0.46
950.00,-0.39
959.50,-0.32
969.09,-0.25
978.78,-0.17
988.57,-0.09
998.46,-0.01
1008.44,0.06
1018.53,0.14
1028.71,0.22
1039.00,0.30
1049.39,0.38
1059.88,0.46
1070.48,0.55
1081.19,0.63
1092.00,0.72
1102.92,0.80
1113.95,0.89
1125.09,0.98
1136.34,1.06
1147.70,1.15
1159.18,1.23
1170.77,1.31
1182.48,1.39
1194.30,1.48
1206.25,1.56
1218.31,1.65
1230.49,1.74
1242.80,1.82
1255.22,1.91
1267.78,1.99
1280.45,2.08
1293.26,2.16
1306.19,2.24
1319.25,2.32
1332.45,2.39
1345.77,2.46
1359.23,2.52
1372.82,2.58
1386.55,2.64
1400.41,2.69
1414.42,2.73
1428.56,2.77
1442.85,2.81
1457.28,2.85
1471.85,2.90
1486.57,2.96
1501.43,3.01
1516.45,3.08
1531.61,3.15
1546.93,3.23
1562.40,3.30
1578.02,3.39
1593.80,3.47
1609.74,3.56
1625.84,3.65
1642.10,3.75
1658.52,3.85
1675.10,3.95
1691.85,4.05
1708.77,4.15
1725.86,4.25
1743.12,4.36
1760.55,4.46
1778.15,4.57
1795.94,4.68
1813.90,4.79
1832.03,4.90
1850.36,5.01
1868.86,5.12
1887.55,5.23
1906.42,5.35
1925.49,5.46
1944.74,5.57
1964.19,5.69
1983.83,5.81
2003.67,5.93
2023.71,6.04
2043.94,6.16
2064.38,6.27
2085.03,6.39
2105.88,6.50
2126.94,6.62
2148.20,6.73
2169.69,6.84
2191.38,6.96
2213.30,7.07
2235.43,7.18
2257.78,7.28
2280.36,7.39
2303.17,7.50
2326.20,7.60
2349.46,7.70
2372.95,7.79
2396.68,7.88
2420.65,7.97
2444.86,8.05
2469.31,8.13
2494.00,8.20
2518.94,8.27
2544.13,8.34
2569.57,8.41
2595.27,8.47
2621.22,8.52
2647.43,8.57
2673.90,8.60
2700.64,8.64
2727.65,8.66
2754.93,8.68
2782.48,8.69
2810.30,8.70
2838.40,8.70
2866.79,8.70
2895.46,8.69
2924.41,8.67
2953.65,8.64
2983.19,8.61
3013.02,8.58
3043.15,8.54
3073.58,8.50
3104.32,8.46
3135.36,8.41
3166.72,8.36
3198.38,8.32
3230.37,8.28
3262.67,8.23
3295.30,8.18
3328.25,8.14
3361.53,8.09
3395.15,8.04
3429.10,7.99
3463.39,7.94
3498.03,7.89
3533.01,7.85
3568.34,7.80
3604.02,7.76
3640.06,7.72
3676.46,7.68
3713.22,7.64
3750.36,7.60
3787.86,7.57
3825.74,7.53
3864.00,7.50
3902.64,7.47
3941.66,7.44
3981.08,7.42
4020.89,7.38
4061.10,7.33
4101.71,7.29
4142.73,7.24
4184.15,7.19
4226.00,7.14
4268.26,7.09
4310.94,7.04
4354.05,6.98
4397.59,6.92
4441.56,6.85
4485.98,6.78
4530.84,6.69
4576.15,6.60
4621.91,6.51
4668.13,6.40
4714.81,6.28
4761.96,6.16
4809.58,6.03
4857.67,5.88
4906.25,5.72
4955.31,5.56
5004.87,5.38
5054.91,5.18
5105.46,4.97
5156.52,4.75
5208.08,4.52
5260.16,4.29
5312.77,4.04
5365.89,3.80
5419.55,3.55
5473.75,3.30
5528.49,3.05
5583.77,2.79
5639.61,2.54
5696.00,2.28
5752.96,2.03
5810.49,1.78
5868.60,1.54
5927.28,1.29
5986.56,1.05
6046.42,0.82
6106.89,0.58
6167.96,0.36
6229.64,0.15
6291.93,-0.00
6354.85,-0.15
6418.40,-0.29
6482.58,-0.45
6547.41,-0.59
6612.88,-0.73
6679.01,-0.85
6745.80,-0.95
6813.26,-1.05
6881.39,-1.12
6950.21,-1.19
7019.71,-1.24
7089.91,-1.26
7160.81,-1.26
7232.41,-1.26
7304.74,-1.24
7377.79,-1.19
7451.56,-1.14
7526.08,-1.06
7601.34,-0.97
7677.35,-0.85
7754.13,-0.72
7831.67,-0.56
7909.98,-0.38
7989.08,-0.18
8068.98,0.05
8149.67,0.31
8231.16,0.59
8313.47,0.91
8396.61,1.25
8480.57,1.62
8565.38,2.02
8651.03,2.42
8737.54,2.84
8824.92,3.25
8913.17,3.62
9002.30,3.98
9092.32,4.25
9183.25,4.44
9275.08,4.54
9367.83,4.53
9461.51,4.40
9556.12,4.17
9651.68,3.88
9748.20,3.54
9845.68,3.14
9944.14,2.75
10043.58,2.36
10144.02,1.99
10245.46,1.66
10347.91,1.36
10451.39,1.09
10555.91,0.90
10661.46,0.74
10768.08,0.63
10875.76,0.60
10984.52,0.64
11094.36,0.73
11205.31,0.89
11317.36,1.17
11430.53,1.49
11544.84,1.93
11660.29,2.43
11776.89,2.97
11894.66,3.43
12013.60,3.87
12133.74,4.03
12255.08,3.73
12377.63,3.09
12501.41,2.13
12626.42,0.82
12752.68,-0.55
12880.21,-1.87
13009.01,-3.16
13139.10,-4.45
13270.49,-5.59
13403.20,-6.68
13537.23,-7.64
13672.60,-8.55
13809.33,-9.41
13947.42,-10.16
14086.90,-10.85
14227.77,-11.50
14370.04,-12.09
14513.74,-12.61
14658.88,-13.07
14805.47,-13.50
14953.52,-13.88
15103.06,-14.22
15254.09,-14.54
15406.63,-14.86
15560.70,-15.19
15716.30,-15.53
15873.47,-15.98
16032.20,-16.42
16192.52,-16.78
16354.45,-17.25
16517.99,-17.81
16683.17,-18.46
16850.01,-19.16
17018.51,-19.90
17188.69,-20.70
17360.58,-21.46
17534.18,-22.20
17709.53,-22.98
17886.62,-23.70
18065.49,-24.36
18246.14,-24.95
18428.60,-25.29
18612.89,-25.75
18799.02,-26.23
18987.01,-26.58
19176.88,-26.78
19368.65,-27.08
19562.33,-27.38
19757.96,-27.52
19955.54,-27.66
