frequency,raw
20.00,1.95
20.20,2.01
20.40,2.07
20.61,2.14
20.81,2.20
21.02,2.25
21.23,2.31
21.44,2.37
21.66,2.42
21.87,2.48
22.09,2.54
22.31,2.59
22.54,2.64
22.76,2.69
22.99,2.74
23.22,2.78
23.45,2.82
23.69,2.87
23.92,2.91
24.16,2.95
24.40,3.00
24.65,3.05
24.89,3.10
25.14,3.14
25.39,3.19
25.65,3.24
25.91,3.29
26.16,3.33
26.43,3.38
26.69,3.43
26.96,3.48
27.23,3.53
27.50,3.58
27.77,3.64
28.05,3.69
28.33,3.74
28.62,3.79
28.90,3.83
29.19,3.88
29.48,3.93
29.78,3.97
30.08,4.02
30.38,4.06
30.68,4.10
30.99,4.14
31.30,4.18
31.61,4.22
31.93,4.26
32.24,4.30
32.57,4.34
32.89,4.38
33.22,4.41
33.55,4.45
33.89,4.48
34.23,4.52
34.57,4.56
34.92,4.60
35.27,4.63
35.62,4.67
35.97,4.71
36.33,4.75
36.70,4.78
37.06,4.82
37.43,4.86
37.81,4.89
38.19,4.92
38.57,4.96
38.95,4.99
39.34,5.01
39.74,5.04
40.14,5.07
40.54,5.10
40.94,5.13
41.35,5.16
41.76,5.18
42.18,5.21
42.60,5.23
43.03,5.26
43.46,5.29
43.90,5.31
44.33,5.33
44.78,5.35
45.23,5.38
45.68,5.40
46.13,5.42
46.60,5.44
47.06,5.46
47.53,5.48
48.01,5.50
48.49,5.52
48.97,5.53
49.46,5.55
49.96,5.57
50.46,5.58
50.96,5.60
51.47,5.62
51.99,5.64
52.51,5.65
53.03,5.67
53.56,5.68
54.10,5.70
54.64,5.71
55.18,5.72
55.74,5.73
56.29,5.74
56.86,5.76
57.42,5.76
58.00,5.77
58.58,5.78
59.16,5.79
59.76,5.80
60.35,5.80
60.96,5.81
61.57,5.82
62.18,5.82
62.80,5.83
63.43,5.83
64.07,5.82
64.71,5.82
65.35,5.82
66.01,5.81
66.67,5.81
67.33,5.81
68.01,5.80
68.69,5.79
69.37,5.79
70.07,5.78
70.77,5.77
71.48,5.76
72.19,5.75
72.91,5.74
73.64,5.73
74.38,5.72
75.12,5.70
75.87,5.69
76.63,5.67
77.40,5.65
78.17,5.64
78.95,5.62
79.74,5.60
80.54,5.58
81.35,5.56
82.16,5.54
82.98,5.52
83.81,5.50
84.65,5.47
85.50,5.45
86.35,5.42
87.22,5.40
88.09,5.37
88.97,5.34
89.86,5.32
90.76,5.29
91.66,5.26
92.58,5.23
93.51,5.19
94.44,5.16
95.39,5.12
96.34,5.09
97.30,5.05
98.28,5.01
99.26,4.97
100.25,4.93
101.25,4.89
102.27,4.85
103.29,4.81
104.32,4.76
105.37,4.71
106.42,4.67
107.48,4.62
108.56,4.57
109.64,4.52
110.74,4.46
111.85,4.41
112.97,4.36
114.10,4.30
115.24,4.25
116.39,4.19
117.55,4.13
118.73,4.07
119.92,4.01
121.12,3.95
122.33,3.89
123.55,3.82
124.79,3.75
126.03,3.69
127.29,3.62
128.57,3.55
129.85,3.47
131.15,3.40
132.46,3.33
133.79,3.25
135.12,3.17
136.48,3.09
137.84,3.01
139.22,2.93
140.61,2.85
142.02,2.77
143.44,2.68
144.87,2.60
146.32,2.51
147.78,2.42
149.26,2.33
150.75,2.24
152.26,2.14
153.78,2.05
155.32,1.95
156.88,1.86
158.44,1.76
160.03,1.66
161.63,1.57
163.24,1.47
164.88,1.37
166.53,1.27
168.19,1.17
169.87,1.07
171.57,0.97
173.29,0.86
175.02,0.76
176.77,0.66
178.54,0.55
180.32,0.44
182.13,0.33
183.95,0.23
185.79,0.12
187.65,0.01
189.52,-0.10
191.42,-0.21
193.33,-0.32
195.27,-0.43
197.22,-0.55
199.19,-0.66
201.18,-0.77
203.19,-0.89
205.23,-1.00
207.28,-1.11
209.35,-1.22
211.44,-1.34
213.56,-1.45
215.69,-1.56
217.85,-1.66
220.03,-1.77
222.23,-1.88
224.45,-1.99
226.70,-2.09
228.96,-2.19
231.25,-2.29
233.57,-2.39
235.90,-2.48
238.26,-2.57
240.64,-2.66
243.05,-2.74
245.48,-2.83
247.93,-2.90
250.41,-2.98
252.92,-3.05
255.45,-3.12
258.00,-3.18
260.58,-3.24
263.19,-3.30
265.82,-3.36
268.48,-3.41
271.16,-3.45
273.87,-3.49
276.61,-3.53
279.38,-3.56
282.17,-3.58
284.99,-3.61
287.84,-3.63
290.72,-3.64
293.63,-3.65
296.57,-3.66
299.53,-3.67
302.53,-3.67
305.55,-3.67
308.61,-3.66
311.69,-3.65
314.81,-3.64
317.96,-3.63
321.14,-3.61
324.35,-3.59
327.59,-3.56
330.87,-3.53
334.18,-3.51
337.52,-3.48
340.90,-3.45
344.30,-3.42
347.75,-3.38
351.23,-3.35
354.74,-3.31
358.28,-3.27
361.87,-3.23
365.49,-3.20
369.14,-3.16
372.83,-3.12
376.56,-3.08
380.33,-3.04
384.13,-3.00
387.97,-2.96
391.85,-2.92
395.77,-2.88
399.73,-2.84
403.72,-2.80
407.76,-2.76
411.84,-2.72
415.96,-2.68
420.12,-2.64
424.32,-2.60
428.56,-2.57
432.85,-2.53
437.18,-2.49
441.55,-2.46
445.96,-2.42
450.42,-2.39
454.93,-2.36
459.48,-2.32
464.07,-2.29
468.71,-2.26
473.40,-2.23
478.13,-2.20
482.91,-2.17
487.74,-2.14
492.62,-2.12
497.55,-2.09
502.52,-2.07
507.55,-2.04
512.62,-2.01
517.75,-1.99
522.93,-1.96
528.16,-1.94
533.44,-1.92
538.77,-1.90
544.16,-1.88
549.60,-1.86
555.10,-1.83
560.65,-1.81
566.25,-1.80
571.92,-1.78
577.64,-1.76
583.41,-1.74
589.25,-1.72
595.14,-1.71
601.09,-1.69
607.10,-1.68
613.17,-1.66
619.30,-1.65
625.50,-1.63
631.75,-1.62
638.07,-1.60
644.45,-1.59
650.89,-1.57
657.40,-1.55
663.98,-1.53
670.62,-1.51
677.32,-1.49
684.10,-1.48
690.94,-1.47
697.85,-1.47
704.83,-1.46
711.87,-1.45
718.99,-1.43
726.18,-1.41
733.44,-1.38
740.78,-1.36
748.19,-1.33
755.67,-1.31
763.23,-1.28
770.86,-1.26
778.57,-1.24
786.35,-1.23
794.22,-1.22
802.16,-1.20
810.18,-1.18
818.28,-1.15
826.46,-1.12
834.73,-1.08
843.08,-1.04
851.51,-1.01
860.02,-0.97
868.62,-0.93
877.31,-0.89
886.08,-0.85
894.94,-0.80
903.89,-0.76
912.93,-0.71
922.06,-0.65
931.28,-0.59
940.59,-0.52
950.00,-0.44
959.50,-0.35
969.09,-0.26
978.78,-0.17
988.57,-0.09
998.46,-0.01
1008.44,0.06
1018.53,0.14
1028.71,0.21
1039.00,0.29
1049.39,0.36
1059.88,0.44
1070.48,0.52
1081.19,0.60
1092.00,0.68
1102.92,0.76
1113.95,0.84
1125.09,0.92
1136.34,1.01
1147.70,1.09
1159.18,1.17
1170.77,1.25
1182.48,1.33
1194.30,1.41
1206.25,1.49
1218.31,1.56
1230.49,1.64
1242.80,1.71
1255.22,1.79
1267.78,1.86
1280.45,1.94
1293.26,2.01
1306.19,2.08
1319.25,2.15
1332.45,2.22
1345.77,2.29
1359.23,2.36
1372.82,2.42
1386.55,2.49
1400.41,2.55
1414.42,2.62
1428.56,2.68
1442.85,2.75
1457.28,2.81
1471.85,2.88
1486.57,2.94
1501.43,3.01
1516.45,3.07
1531.61,3.14
1546.93,3.21
1562.40,3.27
1578.02,3.34
1593.80,3.41
1609.74,3.49
1625.84,3.57
1642.10,3.65
1658.52,3.74
1675.10,3.82
1691.85,3.91
1708.77,4.00
1725.86,4.09
1743.12,4.18
1760.55,4.28
1778.15,4.37
1795.94,4.47
1813.90,4.57
1832.03,4.67
1850.36,4.77
1868.86,4.88
1887.55,4.98
1906.42,5.09
1925.49,5.19
1944.74,5.31
1964.19,5.42
1983.83,5.53
2003.67,5.65
2023.71,5.77
2043.94,5.88
2064.38,6.00
2085.03,6.11
2105.88,6.23
2126.94,6.35
2148.20,6.47
2169.69,6.60
2191.38,6.72
2213.30,6.84
2235.43,6.96
2257.78,7.08
2280.36,7.21
2303.17,7.33
2326.20,7.45
2349.46,7.57
2372.95,7.69
2396.68,7.81
2420.65,7.93
2444.86,8.04
2469.31,8.16
2494.00,8.27
2518.94,8.38
2544.13,8.49
2569.57,8.60
2595.27,8.70
2621.22,8.80
2647.43,8.88
2673.90,8.97
2700.64,9.05
2727.65,9.11
2754.93,9.18
2782.48,9.23
2810.30,9.27
2838.40,9.31
2866.79,9.34
2895.46,9.35
2924.41,9.36
2953.65,9.37
2983.19,9.36
3013.02,9.34
3043.15,9.32
3073.58,9.29
3104.32,9.25
3135.36,9.21
3166.72,9.16
3198.38,9.11
3230.37,9.06
3262.67,9.00
3295.30,8.94
3328.25,8.88
3361.53,8.82
3395.15,8.75
3429.10,8.68
3463.39,8.62
3498.03,8.55
3533.01,8.48
3568.34,8.42
3604.02,8.35
3640.06,8.29
3676.46,8.23
3713.22,8.17
3750.36,8.12
3787.86,8.07
3825.74,8.02
3864.00,7.98
3902.64,7.94
3941.66,7.91
3981.08,7.88
4020.89,7.85
4061.10,7.81
4101.71,7.79
4142.73,7.77
4184.15,7.75
4226.00,7.74
4268.26,7.74
4310.94,7.74
4354.05,7.75
4397.59,7.77
4441.56,7.78
4485.98,7.81
4530.84,7.85
4576.15,7.89
4621.91,7.93
4668.13,7.98
4714.81,8.04
4761.96,8.10
4809.58,8.16
4857.67,8.22
4906.25,8.29
4955.31,8.36
5004.87,8.42
5054.91,8.46
5105.46,8.50
5156.52,8.53
5208.08,8.54
5260.16,8.55
5312.77,8.54
5365.89,8.52
5419.55,8.47
5473.75,8.41
5528.49,8.32
5583.77,8.21
5639.61,8.06
5696.00,7.91
5752.96,7.73
5810.49,7.53
5868.60,7.30
5927.28,7.06
5986.56,6.81
6046.42,6.55
6106.89,6.27
6167.96,6.00
6229.64,5.71
6291.93,5.43
6354.85,5.16
6418.40,4.89
6482.58,4.63
6547.41,4.38
6612.88,4.14
6679.01,3.91
6745.80,3.69
6813.26,3.49
6881.39,3.30
6950.21,3.13
7019.71,2.97
7089.91,2.84
7160.81,2.74
7232.41,2.65
7304.74,2.57
7377.79,2.53
7451.56,2.50
7526.08,2.49
7601.34,2.52
7677.35,2.57
7754.13,2.64
7831.67,2.76
7909.98,2.90
7989.08,3.07
8068.98,3.28
8149.67,3.51
8231.16,3.80
8313.47,4.13
8396.61,4.49
8480.57,4.92
8565.38,5.39
8651.03,5.91
8737.54,6.47
8824.92,7.08
8913.17,7.69
9002.30,8.30
9092.32,8.83
9183.25,9.19
9275.08,9.38
9367.83,9.30
9461.51,8.90
9556.12,8.30
9651.68,7.56
9748.20,6.73
9845.68,5.87
9944.14,5.04
10043.58,4.26
10144.02,3.52
10245.46,2.86
10347.91,2.25
10451.39,1.69
10555.91,1.22
10661.46,0.80
10768.08,0.42
10875.76,0.12
10984.52,-0.12
11094.36,-0.32
11205.31,-0.48
11317.36,-0.58
11430.53,-0.66
11544.84,-0.71
11660.29,-0.74
11776.89,-0.80
11894.66,-0.97
12013.60,-1.16
12133.74,-1.46
12255.08,-1.91
12377.63,-2.44
12501.41,-3.00
12626.42,-3.58
12752.68,-4.06
12880.21,-4.36
13009.01,-4.54
13139.10,-4.73
13270.49,-4.60
13403.20,-4.37
13537.23,-3.98
13672.60,-3.58
13809.33,-3.20
13947.42,-2.98
14086.90,-2.98
14227.77,-3.10
14370.04,-3.39
14513.74,-3.87
14658.88,-4.49
14805.47,-5.14
14953.52,-5.82
15103.06,-6.46
15254.09,-7.10
15406.63,-7.61
15560.70,-8.09
15716.30,-8.51
15873.47,-8.79
16032.20,-8.98
16192.52,-8.97
16354.45,-8.83
16517.99,-8.62
16683.17,-8.32
16850.01,-7.93
17018.51,-7.49
17188.69,-7.03
17360.58,-6.69
17534.18,-6.50
17709.53,-6.68
17886.62,-7.27
18065.49,-8.09
18246.14,-9.12
18428.60,-10.25
18612.89,-11.35
18799.02,-12.39
18987.01,-13.31
19176.88,-14.04
19368.65,-14.71
19562.33,-15.25
19757.96,-15.58
19955.54,-15.91
