frequency,raw
20.00,9.26
20.20,9.27
20.40,9.28
20.61,9.28
20.81,9.28
21.02,9.28
21.23,9.28
21.44,9.27
21.66,9.26
21.87,9.25
22.09,9.24
22.31,9.22
22.54,9.21
22.76,9.20
22.99,9.19
23.22,9.18
23.45,9.16
23.69,9.15
23.92,9.13
24.16,9.11
24.40,9.10
24.65,9.08
24.89,9.07
25.14,9.06
25.39,9.05
25.65,9.04
25.91,9.03
26.16,9.02
26.43,9.01
26.69,9.01
26.96,9.00
27.23,8.99
27.50,8.98
27.77,8.97
28.05,8.96
28.33,8.95
28.62,8.94
28.90,8.93
29.19,8.91
29.48,8.89
29.78,8.87
30.08,8.85
30.38,8.82
30.68,8.80
30.99,8.77
31.30,8.74
31.61,8.71
31.93,8.68
32.24,8.65
32.57,8.62
32.89,8.59
33.22,8.56
33.55,8.54
33.89,8.51
34.23,8.48
34.57,8.46
34.92,8.43
35.27,8.41
35.62,8.38
35.97,8.36
36.33,8.33
36.70,8.30
37.06,8.28
37.43,8.25
37.81,8.22
38.19,8.19
38.57,8.16
38.95,8.12
39.34,8.09
39.74,8.05
40.14,8.01
40.54,7.98
40.94,7.94
41.35,7.90
41.76,7.86
42.18,7.82
42.60,7.78
43.03,7.75
43.46,7.71
43.90,7.67
44.33,7.63
44.78,7.59
45.23,7.55
45.68,7.51
46.13,7.47
46.60,7.43
47.06,7.39
47.53,7.35
48.01,7.31
48.49,7.26
48.97,7.22
49.46,7.17
49.96,7.13
50.46,7.10
50.96,7.06
51.47,7.02
51.99,6.97
52.51,6.93
53.03,6.90
53.56,6.85
54.10,6.81
54.64,6.77
55.18,6.72
55.74,6.68
56.29,6.63
56.86,6.59
57.42,6.55
58.00,6.50
58.58,6.47
59.16,6.43
59.76,6.38
60.35,6.34
60.96,6.29
61.57,6.24
62.18,6.20
62.80,6.16
63.43,6.11
64.07,6.05
64.71,6.00
65.35,5.95
66.01,5.91
66.67,5.86
67.33,5.81
68.01,5.76
68.69,5.71
69.37,5.66
70.07,5.61
70.77,5.57
71.48,5.52
72.19,5.46
72.91,5.41
73.64,5.36
74.38,5.31
75.12,5.26
75.87,5.21
76.63,5.16
77.40,5.11
78.17,5.05
78.95,5.00
79.74,4.96
80.54,4.91
81.35,4.86
82.16,4.80
82.98,4.76
83.81,4.71
84.65,4.66
85.50,4.61
86.35,4.56
87.22,4.51
88.09,4.46
88.97,4.41
89.86,4.36
90.76,4.31
91.66,4.26
92.58,4.21
93.51,4.16
94.44,4.11
95.39,4.06
96.34,4.01
97.30,3.96
98.28,3.91
99.26,3.86
100.25,3.82
101.25,3.76
102.27,3.71
103.29,3.66
104.32,3.61
105.37,3.56
106.42,3.51
107.48,3.46
108.56,3.41
109.64,3.36
110.74,3.31
111.85,3.26
112.97,3.21
114.10,3.16
115.24,3.11
116.39,3.06
117.55,3.01
118.73,2.96
119.92,2.91
121.12,2.86
122.33,2.81
123.55,2.76
124.79,2.72
126.03,2.67
127.29,2.62
128.57,2.57
129.85,2.52
131.15,2.47
132.46,2.42
133.79,2.37
135.12,2.32
136.48,2.27
137.84,2.22
139.22,2.17
140.61,2.13
142.02,2.08
143.44,2.03
144.87,1.98
146.32,1.93
147.78,1.88
149.26,1.84
150.75,1.79
152.26,1.74
153.78,1.69
155.32,1.65
156.88,1.60
158.44,1.55
160.03,1.51
161.63,1.47
163.24,1.42
164.88,1.38
166.53,1.34
168.19,1.30
169.87,1.25
171.57,1.21
173.29,1.17
175.02,1.13
176.77,1.09
178.54,1.05
180.32,1.01
182.13,0.97
183.95,0.93
185.79,0.89
187.65,0.85
189.52,0.82
191.42,0.77
193.33,0.73
195.27,0.70
197.22,0.66
199.19,0.62
201.18,0.59
203.19,0.54
205.23,0.50
207.28,0.46
209.35,0.42
211.44,0.38
213.56,0.34
215.69,0.30
217.85,0.26
220.03,0.23
222.23,0.19
224.45,0.15
226.70,0.11
228.96,0.08
231.25,0.04
233.57,0.00
235.90,-0.03
238.26,-0.07
240.64,-0.11
243.05,-0.14
245.48,-0.17
247.93,-0.21
250.41,-0.25
252.92,-0.28
255.45,-0.31
258.00,-0.35
260.58,-0.38
263.19,-0.41
265.82,-0.44
268.48,-0.48
271.16,-0.51
273.87,-0.55
276.61,-0.58
279.38,-0.61
282.17,-0.64
284.99,-0.67
287.84,-0.70
290.72,-0.73
293.63,-0.76
296.57,-0.79
299.53,-0.82
302.53,-0.85
305.55,-0.87
308.61,-0.90
311.69,-0.93
314.81,-0.96
317.96,-0.98
321.14,-1.01
324.35,-1.04
327.59,-1.06
330.87,-1.08
334.18,-1.11
337.52,-1.14
340.90,-1.16
344.30,-1.18
347.75,-1.20
351.23,-1.22
354.74,-1.25
358.28,-1.28
361.87,-1.30
365.49,-1.31
369.14,-1.34
372.83,-1.36
376.56,-1.37
380.33,-1.40
384.13,-1.42
387.97,-1.43
391.85,-1.45
395.77,-1.47
399.73,-1.49
403.72,-1.51
407.76,-1.52
411.84,-1.54
415.96,-1.56
420.12,-1.58
424.32,-1.59
428.56,-1.61
432.85,-1.62
437.18,-1.64
441.55,-1.66
445.96,-1.67
450.42,-1.68
454.93,-1.69
459.48,-1.71
464.07,-1.72
468.71,-1.73
473.40,-1.75
478.13,-1.76
482.91,-1.77
487.74,-1.78
492.62,-1.80
497.55,-1.81
502.52,-1.82
507.55,-1.82
512.62,-1.83
517.75,-1.84
522.93,-1.85
528.16,-1.85
533.44,-1.86
538.77,-1.86
544.16,-1.87
549.60,-1.87
555.10,-1.87
560.65,-1.87
566.25,-1.88
571.92,-1.88
577.64,-1.88
583.41,-1.89
589.25,-1.89
595.14,-1.89
601.09,-1.88
607.10,-1.89
613.17,-1.89
619.30,-1.89
625.50,-1.88
631.75,-1.88
638.07,-1.87
644.45,-1.86
650.89,-1.86
657.40,-1.85
663.98,-1.84
670.62,-1.83
677.32,-1.81
684.10,-1.80
690.94,-1.79
697.85,-1.78
704.83,-1.76
711.87,-1.74
718.99,-1.73
726.18,-1.71
733.44,-1.69
740.78,-1.67
748.19,-1.64
755.67,-1.61
763.23,-1.59
770.86,-1.55
778.57,-1.52
786.35,-1.50
794.22,-1.46
802.16,-1.42
810.18,-1.39
818.28,-1.35
826.46,-1.31
834.73,-1.27
843.08,-1.23
851.51,-1.18
860.02,-1.13
868.62,-1.07
877.31,-1.02
886.08,-0.96
894.94,-0.90
903.89,-0.84
912.93,-0.77
922.06,-0.70
931.28,-0.62
940.59,-0.54
950.00,-0.46
959.50,-0.37
969.09,-0.29
978.78,-0.20
988.57,-0.10
998.46,-0.01
1008.44,0.08
1018.53,0.17
1028.71,0.27
1039.00,0.35
1049.39,0.44
1059.88,0.53
1070.48,0.62
1081.19,0.71
1092.00,0.80
1102.92,0.90
1113.95,0.99
1125.09,1.09
1136.34,1.18
1147.70,1.27
1159.18,1.36
1170.77,1.46
1182.48,1.55
1194.30,1.64
1206.25,1.73
1218.31,1.82
1230.49,1.91
1242.80,2.00
1255.22,2.10
1267.78,2.20
1280.45,2.30
1293.26,2.40
1306.19,2.50
1319.25,2.60
1332.45,2.70
1345.77,2.81
1359.23,2.92
1372.82,3.03
1386.55,3.14
1400.41,3.26
1414.42,3.37
1428.56,3.49
1442.85,3.61
1457.28,3.73
1471.85,3.85
1486.57,3.96
1501.43,4.08
1516.45,4.18
1531.61,4.27
1546.93,4.35
1562.40,4.41
1578.02,4.46
1593.80,4.50
1609.74,4.53
1625.84,4.57
1642.10,4.63
1658.52,4.71
1675.10,4.81
1691.85,4.92
1708.77,5.04
1725.86,5.17
1743.12,5.28
1760.55,5.39
1778.15,5.48
1795.94,5.57
1813.90,5.65
1832.03,5.73
1850.36,5.82
1868.86,5.93
1887.55,6.05
1906.42,6.18
1925.49,6.32
1944.74,6.47
1964.19,6.63
1983.83,6.78
2003.67,6.94
2023.71,7.10
2043.94,7.27
2064.38,7.43
2085.03,7.60
2105.88,7.78
2126.94,7.95
2148.20,8.14
2169.69,8.33
2191.38,8.53
2213.30,8.73
2235.43,8.93
2257.78,9.12
2280.36,9.29
2303.17,9.44
2326.20,9.58
2349.46,9.69
2372.95,9.77
2396.68,9.85
2420.65,9.91
2444.86,9.95
2469.31,9.99
2494.00,10.01
2518.94,10.04
2544.13,10.06
2569.57,10.07
2595.27,10.06
2621.22,10.05
2647.43,10.02
2673.90,9.98
2700.64,9.92
2727.65,9.84
2754.93,9.74
2782.48,9.61
2810.30,9.47
2838.40,9.32
2866.79,9.18
2895.46,9.04
2924.41,8.92
2953.65,8.81
2983.19,8.72
3013.02,8.62
3043.15,8.52
3073.58,8.42
3104.32,8.31
3135.36,8.17
3166.72,8.03
3198.38,7.87
3230.37,7.71
3262.67,7.56
3295.30,7.43
3328.25,7.34
3361.53,7.26
3395.15,7.20
3429.10,7.14
3463.39,7.10
3498.03,7.05
3533.01,7.01
3568.34,6.97
3604.02,6.94
3640.06,6.94
3676.46,6.94
3713.22,6.94
3750.36,6.94
3787.86,6.94
3825.74,6.94
3864.00,6.93
3902.64,6.95
3941.66,6.97
3981.08,7.02
4020.89,7.08
4061.10,7.13
4101.71,7.20
4142.73,7.27
4184.15,7.34
4226.00,7.40
4268.26,7.44
4310.94,7.46
4354.05,7.37
4397.59,7.20
4441.56,6.99
4485.98,6.78
4530.84,6.62
4576.15,6.54
4621.91,6.50
4668.13,6.52
4714.81,6.57
4761.96,6.62
4809.58,6.68
4857.67,6.72
4906.25,6.74
4955.31,6.75
5004.87,6.72
5054.91,6.65
5105.46,6.57
5156.52,6.46
5208.08,6.30
5260.16,6.09
5312.77,5.85
5365.89,5.53
5419.55,5.25
5473.75,5.00
5528.49,4.77
5583.77,4.57
5639.61,4.35
5696.00,4.12
5752.96,3.89
5810.49,3.67
5868.60,3.44
5927.28,3.21
5986.56,2.99
6046.42,2.77
6106.89,2.59
6167.96,2.45
6229.64,2.36
6291.93,2.30
6354.85,2.23
6418.40,2.14
6482.58,2.02
6547.41,1.91
6612.88,1.83
6679.01,1.86
6745.80,2.01
6813.26,2.24
6881.39,2.56
6950.21,2.79
7019.71,2.96
7089.91,3.06
7160.81,3.27
7232.41,3.56
7304.74,3.92
7377.79,4.37
7451.56,4.90
7526.08,5.48
7601.34,6.10
7677.35,6.76
7754.13,7.42
7831.67,8.02
7909.98,8.52
7989.08,8.87
8068.98,9.02
8149.67,9.14
8231.16,9.22
8313.47,9.26
8396.61,9.26
8480.57,9.20
8565.38,9.10
8651.03,8.99
8737.54,8.87
8824.92,8.74
8913.17,8.59
9002.30,8.43
9092.32,8.30
9183.25,8.23
9275.08,8.22
9367.83,8.29
9461.51,8.40
9556.12,8.47
9651.68,8.48
9748.20,8.45
9845.68,8.58
9944.14,8.83
10043.58,9.17
10144.02,9.53
10245.46,9.71
10347.91,9.77
10451.39,9.66
10555.91,9.38
10661.46,8.96
10768.08,8.41
10875.76,7.58
10984.52,6.52
11094.36,5.45
11205.31,4.50
11317.36,3.96
11430.53,3.55
11544.84,3.33
11660.29,3.17
11776.89,3.02
11894.66,2.89
12013.60,2.76
12133.74,2.64
12255.08,2.50
12377.63,2.35
12501.41,2.22
12626.42,2.15
12752.68,2.29
12880.21,2.62
13009.01,3.04
13139.10,3.45
13270.49,3.97
13403.20,4.50
13537.23,4.87
13672.60,4.98
13809.33,4.83
13947.42,4.15
14086.90,3.25
14227.77,2.20
14370.04,1.12
14513.74,0.05
14658.88,-0.85
14805.47,-1.69
14953.52,-2.44
15103.06,-3.12
15254.09,-3.77
15406.63,-4.14
15560.70,-4.47
15716.30,-4.72
15873.47,-4.82
16032.20,-4.82
16192.52,-4.56
16354.45,-4.23
16517.99,-3.89
16683.17,-3.75
16850.01,-3.74
17018.51,-3.83
17188.69,-3.97
17360.58,-4.03
17534.18,-3.90
17709.53,-3.27
17886.62,-2.37
18065.49,-1.60
18246.14,-1.18
18428.60,-0.82
18612.89,-0.65
18799.02,-0.68
18987.01,-0.94
19176.88,-0.95
19368.65,-1.25
19562.33,-1.69
19757.96,-2.03
19955.54,-2.37
