frequency,raw
20.00,7.30
20.20,7.32
20.40,7.35
20.61,7.37
20.81,7.40
21.02,7.42
21.23,7.44
21.44,7.46
21.66,7.47
21.87,7.49
22.09,7.51
22.31,7.52
22.54,7.53
22.76,7.55
22.99,7.56
23.22,7.57
23.45,7.58
23.69,7.58
23.92,7.59
24.16,7.60
24.40,7.61
24.65,7.62
24.89,7.63
25.14,7.64
25.39,7.65
25.65,7.65
25.91,7.66
26.16,7.67
26.43,7.68
26.69,7.69
26.96,7.70
27.23,7.71
27.50,7.72
27.77,7.73
28.05,7.74
28.33,7.75
28.62,7.75
28.90,7.76
29.19,7.76
29.48,7.77
29.78,7.77
30.08,7.77
30.38,7.77
30.68,7.77
30.99,7.77
31.30,7.76
31.61,7.76
31.93,7.76
32.24,7.75
32.57,7.75
32.89,7.74
33.22,7.74
33.55,7.73
33.89,7.73
34.23,7.72
34.57,7.72
34.92,7.71
35.27,7.71
35.62,7.70
35.97,7.70
36.33,7.69
36.70,7.68
37.06,7.68
37.43,7.67
37.81,7.66
38.19,7.65
38.57,7.64
38.95,7.63
39.34,7.62
39.74,7.61
40.14,7.60
40.54,7.59
40.94,7.57
41.35,7.56
41.76,7.54
42.18,7.52
42.60,7.51
43.03,7.49
43.46,7.47
43.90,7.46
44.33,7.44
44.78,7.42
45.23,7.41
45.68,7.39
46.13,7.37
46.60,7.35
47.06,7.33
47.53,7.32
48.01,7.29
48.49,7.27
48.97,7.25
49.46,7.23
49.96,7.21
50.46,7.19
50.96,7.17
51.47,7.15
51.99,7.13
52.51,7.11
53.03,7.09
53.56,7.07
54.10,7.05
54.64,7.02
55.18,7.00
55.74,6.98
56.29,6.95
56.86,6.93
57.42,6.91
58.00,6.88
58.58,6.86
59.16,6.84
59.76,6.81
60.35,6.79
60.96,6.76
61.57,6.73
62.18,6.71
62.80,6.68
63.43,6.65
64.07,6.62
64.71,6.59
65.35,6.56
66.01,6.53
66.67,6.49
67.33,6.46
68.01,6.43
68.69,6.40
69.37,6.37
70.07,6.33
70.77,6.30
71.48,6.27
72.19,6.23
72.91,6.20
73.64,6.16
74.38,6.13
75.12,6.09
75.87,6.06
76.63,6.02
77.40,5.99
78.17,5.95
78.95,5.92
79.74,5.88
80.54,5.84
81.35,5.81
82.16,5.77
82.98,5.73
83.81,5.70
84.65,5.66
85.50,5.62
86.35,5.59
87.22,5.55
88.09,5.51
88.97,5.47
89.86,5.43
90.76,5.39
91.66,5.36
92.58,5.32
93.51,5.28
94.44,5.24
95.39,5.20
96.34,5.16
97.30,5.12
98.28,5.08
99.26,5.04
100.25,5.00
101.25,4.95
102.27,4.91
103.29,4.87
104.32,4.83
105.37,4.79
106.42,4.74
107.48,4.70
108.56,4.66
109.64,4.61
110.74,4.57
111.85,4.53
112.97,4.48
114.10,4.44
115.24,4.40
116.39,4.35
117.55,4.31
118.73,4.26
119.92,4.22
121.12,4.17
122.33,4.13
123.55,4.09
124.79,4.04
126.03,3.99
127.29,3.95
128.57,3.90
129.85,3.85
131.15,3.81
132.46,3.76
133.79,3.71
135.12,3.67
136.48,3.62
137.84,3.57
139.22,3.52
140.61,3.48
142.02,3.43
143.44,3.38
144.87,3.33
146.32,3.29
147.78,3.24
149.26,3.19
150.75,3.14
152.26,3.09
153.78,3.05
155.32,3.00
156.88,2.95
158.44,2.90
160.03,2.86
161.63,2.81
163.24,2.77
164.88,2.72
166.53,2.68
168.19,2.64
169.87,2.59
171.57,2.55
173.29,2.50
175.02,2.46
176.77,2.41
178.54,2.37
180.32,2.33
182.13,2.28
183.95,2.24
185.79,2.19
187.65,2.15
189.52,2.11
191.42,2.06
193.33,2.02
195.27,1.98
197.22,1.93
199.19,1.89
201.18,1.84
203.19,1.80
205.23,1.75
207.28,1.71
209.35,1.66
211.44,1.61
213.56,1.57
215.69,1.52
217.85,1.48
220.03,1.43
222.23,1.39
224.45,1.34
226.70,1.30
228.96,1.25
231.25,1.21
233.57,1.16
235.90,1.12
238.26,1.07
240.64,1.03
243.05,0.99
245.48,0.95
247.93,0.90
250.41,0.86
252.92,0.82
255.45,0.78
258.00,0.73
260.58,0.69
263.19,0.65
265.82,0.61
268.48,0.57
271.16,0.53
273.87,0.49
276.61,0.45
279.38,0.41
282.17,0.37
284.99,0.33
287.84,0.29
290.72,0.25
293.63,0.21
296.57,0.17
299.53,0.14
302.53,0.10
305.55,0.06
308.61,0.02
311.69,-0.01
314.81,-0.05
317.96,-0.08
321.14,-0.12
324.35,-0.15
327.59,-0.18
330.87,-0.22
334.18,-0.25
337.52,-0.28
340.90,-0.31
344.30,-0.34
347.75,-0.37
351.23,-0.40
354.74,-0.43
358.28,-0.46
361.87,-0.49
365.49,-0.52
369.14,-0.55
372.83,-0.57
376.56,-0.60
380.33,-0.63
384.13,-0.65
387.97,-0.68
391.85,-0.71
395.77,-0.73
399.73,-0.75
403.72,-0.78
407.76,-0.81
411.84,-0.83
415.96,-0.85
420.12,-0.88
424.32,-0.90
428.56,-0.92
432.85,-0.95
437.18,-0.97
441.55,-0.99
445.96,-1.02
450.42,-1.04
454.93,-1.06
459.48,-1.08
464.07,-1.10
468.71,-1.13
473.40,-1.15
478.13,-1.17
482.91,-1.19
487.74,-1.20
492.62,-1.22
497.55,-1.24
502.52,-1.26
507.55,-1.28
512.62,-1.29
517.75,-1.31
522.93,-1.32
528.16,-1.34
533.44,-1.35
538.77,-1.37
544.16,-1.38
549.60,-1.39
555.10,-1.41
560.65,-1.42
566.25,-1.43
571.92,-1.44
577.64,-1.45
583.41,-1.46
589.25,-1.47
595.14,-1.47
601.09,-1.48
607.10,-1.49
613.17,-1.50
619.30,-1.50
625.50,-1.50
631.75,-1.51
638.07,-1.51
644.45,-1.51
650.89,-1.51
657.40,-1.50
663.98,-1.50
670.62,-1.50
677.32,-1.49
684.10,-1.49
690.94,-1.48
697.85,-1.47
704.83,-1.47
711.87,-1.46
718.99,-1.44
726.18,-1.43
733.44,-1.42
740.78,-1.40
748.19,-1.38
755.67,-1.37
763.23,-1.35
770.86,-1.32
778.57,-1.30
786.35,-1.27
794.22,-1.24
802.16,-1.22
810.18,-1.19
818.28,-1.16
826.46,-1.13
834.73,-1.10
843.08,-1.06
851.51,-1.02
860.02,-0.98
868.62,-0.94
877.31,-0.89
886.08,-0.84
894.94,-0.79
903.89,-0.74
912.93,-0.68
922.06,-0.62
931.28,-0.55
940.59,-0.48
950.00,-0.41
959.50,-0.34
969.09,-0.26
978.78,-0.18
988.57,-0.10
998.46,-0.01
1008.44,0.07
1018.53,0.15
1028.71,0.24
1039.00,0.32
1049.39,0.41
1059.88,0.51
1070.48,0.60
1081.19,0.70
1092.00,0.80
1102.92,0.90
1113.95,1.00
1125.09,1.10
1136.34,1.20
1147.70,1.31
1159.18,1.41
1170.77,1.52
1182.48,1.62
1194.30,1.73
1206.25,1.83
1218.31,1.94
1230.49,2.05
1242.80,2.15
1255.22,2.26
1267.78,2.37
1280.45,2.48
1293.26,2.59
1306.19,2.70
1319.25,2.80
1332.45,2.91
1345.77,3.01
1359.23,3.11
1372.82,3.21
1386.55,3.30
1400.41,3.38
1414.42,3.45
1428.56,3.52
1442.85,3.57
1457.28,3.61
1471.85,3.65
1486.57,3.69
1501.43,3.73
1516.45,3.77
1531.61,3.81
1546.93,3.85
1562.40,3.90
1578.02,3.95
1593.80,4.00
1609.74,4.06
1625.84,4.13
1642.10,4.20
1658.52,4.28
1675.10,4.36
1691.85,4.45
1708.77,4.54
1725.86,4.64
1743.12,4.75
1760.55,4.85
1778.15,4.97
1795.94,5.08
1813.90,5.20
1832.03,5.31
1850.36,5.42
1868.86,5.53
1887.55,5.63
1906.42,5.72
1925.49,5.81
1944.74,5.89
1964.19,5.97
1983.83,6.04
2003.67,6.11
2023.71,6.18
2043.94,6.25
2064.38,6.33
2085.03,6.42
2105.88,6.51
2126.94,6.61
2148.20,6.71
2169.69,6.82
2191.38,6.93
2213.30,7.03
2235.43,7.13
2257.78,7.23
2280.36,7.32
2303.17,7.41
2326.20,7.49
2349.46,7.56
2372.95,7.62
2396.68,7.68
2420.65,7.72
2444.86,7.75
2469.31,7.78
2494.00,7.79
2518.94,7.80
2544.13,7.80
2569.57,7.79
2595.27,7.77
2621.22,7.74
2647.43,7.70
2673.90,7.65
2700.64,7.59
2727.65,7.53
2754.93,7.45
2782.48,7.37
2810.30,7.29
2838.40,7.20
2866.79,7.11
2895.46,7.01
2924.41,6.90
2953.65,6.80
2983.19,6.71
3013.02,6.61
3043.15,6.52
3073.58,6.43
3104.32,6.32
3135.36,6.20
3166.72,6.07
3198.38,5.93
3230.37,5.78
3262.67,5.64
3295.30,5.50
3328.25,5.41
3361.53,5.33
3395.15,5.29
3429.10,5.26
3463.39,5.24
3498.03,5.21
3533.01,5.18
3568.34,5.15
3604.02,5.12
3640.06,5.10
3676.46,5.08
3713.22,5.07
3750.36,5.05
3787.86,5.04
3825.74,5.04
3864.00,5.03
3902.64,5.04
3941.66,5.05
3981.08,5.07
4020.89,5.08
4061.10,5.09
4101.71,5.11
4142.73,5.11
4184.15,5.11
4226.00,5.10
4268.26,5.08
4310.94,5.05
4354.05,5.04
4397.59,5.04
4441.56,5.05
4485.98,5.09
4530.84,5.12
4576.15,5.15
4621.91,5.17
4668.13,5.16
4714.81,5.17
4761.96,5.20
4809.58,5.28
4857.67,5.40
4906.25,5.55
4955.31,5.71
5004.87,5.88
5054.91,6.02
5105.46,6.16
5156.52,6.29
5208.08,6.42
5260.16,6.52
5312.77,6.61
5365.89,6.66
5419.55,6.68
5473.75,6.66
5528.49,6.60
5583.77,6.51
5639.61,6.44
5696.00,6.38
5752.96,6.38
5810.49,6.39
5868.60,6.43
5927.28,6.47
5986.56,6.51
6046.42,6.57
6106.89,6.63
6167.96,6.70
6229.64,6.79
6291.93,6.88
6354.85,7.00
6418.40,7.12
6482.58,7.21
6547.41,7.24
6612.88,7.24
6679.01,7.18
6745.80,7.09
6813.26,7.01
6881.39,6.96
6950.21,6.96
7019.71,7.01
7089.91,7.10
7160.81,7.22
7232.41,7.36
7304.74,7.51
7377.79,7.68
7451.56,7.87
7526.08,8.07
7601.34,8.28
7677.35,8.49
7754.13,8.71
7831.67,8.91
7909.98,9.11
7989.08,9.29
8068.98,9.45
8149.67,9.58
8231.16,9.66
8313.47,9.64
8396.61,9.56
8480.57,9.36
8565.38,9.02
8651.03,8.59
8737.54,8.06
8824.92,7.45
8913.17,6.81
9002.30,6.16
9092.32,5.50
9183.25,4.86
9275.08,4.26
9367.83,3.71
9461.51,3.24
9556.12,2.81
9651.68,2.42
9748.20,2.07
9845.68,1.75
9944.14,1.46
10043.58,1.20
10144.02,0.98
10245.46,0.81
10347.91,0.66
10451.39,0.56
10555.91,0.54
10661.46,0.56
10768.08,0.61
10875.76,0.67
10984.52,0.75
11094.36,0.84
11205.31,0.99
11317.36,1.21
11430.53,1.43
11544.84,1.61
11660.29,1.72
11776.89,1.75
11894.66,1.52
12013.60,1.25
12133.74,0.90
12255.08,0.46
12377.63,-0.02
12501.41,-0.55
12626.42,-1.26
12752.68,-2.07
12880.21,-2.96
13009.01,-3.88
13139.10,-4.80
13270.49,-5.51
13403.20,-6.10
13537.23,-6.42
13672.60,-6.66
13809.33,-6.82
13947.42,-6.85
14086.90,-6.70
14227.77,-6.45
14370.04,-6.03
14513.74,-5.44
14658.88,-4.70
14805.47,-3.93
14953.52,-3.12
15103.06,-2.31
15254.09,-1.50
15406.63,-0.74
15560.70,-0.05
15716.30,0.51
15873.47,0.88
16032.20,1.18
16192.52,1.50
16354.45,1.78
16517.99,2.04
16683.17,2.24
16850.01,2.39
17018.51,2.48
17188.69,2.43
17360.58,2.26
17534.18,1.98
17709.53,1.51
17886.62,0.92
18065.49,0.23
18246.14,-0.57
18428.60,-1.64
18612.89,-2.84
18799.02,-4.13
18987.01,-5.44
19176.88,-6.61
19368.65,-7.62
19562.33,-8.49
19757.96,-9.20
19955.54,-9.91
