frequency,raw
20.00,2.45
20.20,2.54
20.40,2.62
20.61,2.70
20.81,2.79
21.02,2.87
21.23,2.94
21.44,3.02
21.66,3.09
21.87,3.16
22.09,3.24
22.31,3.31
22.54,3.38
22.76,3.44
22.99,3.51
23.22,3.57
23.45,3.63
23.69,3.69
23.92,3.75
24.16,3.80
24.40,3.86
24.65,3.92
24.89,3.98
25.14,4.03
25.39,4.09
25.65,4.14
25.91,4.20
26.16,4.25
26.43,4.31
26.69,4.37
26.96,4.42
27.23,4.48
27.50,4.54
27.77,4.60
28.05,4.66
28.33,4.71
28.62,4.77
28.90,4.82
29.19,4.88
29.48,4.93
29.78,4.98
30.08,5.03
30.38,5.08
30.68,5.13
30.99,5.17
31.30,5.22
31.61,5.26
31.93,5.30
32.24,5.34
32.57,5.38
32.89,5.42
33.22,5.46
33.55,5.50
33.89,5.54
34.23,5.57
34.57,5.61
34.92,5.64
35.27,5.68
35.62,5.71
35.97,5.75
36.33,5.79
36.70,5.83
37.06,5.86
37.43,5.89
37.81,5.92
38.19,5.95
38.57,5.99
38.95,6.02
39.34,6.06
39.74,6.08
40.14,6.11
40.54,6.13
40.94,6.15
41.35,6.17
41.76,6.20
42.18,6.22
42.60,6.24
43.03,6.26
43.46,6.28
43.90,6.30
44.33,6.32
44.78,6.33
45.23,6.35
45.68,6.37
46.13,6.39
46.60,6.41
47.06,6.43
47.53,6.44
48.01,6.46
48.49,6.47
48.97,6.48
49.46,6.50
49.96,6.51
50.46,6.52
50.96,6.53
51.47,6.55
51.99,6.56
52.51,6.57
53.03,6.58
53.56,6.59
54.10,6.60
54.64,6.61
55.18,6.62
55.74,6.63
56.29,6.63
56.86,6.64
57.42,6.65
58.00,6.65
58.58,6.66
59.16,6.67
59.76,6.67
60.35,6.68
60.96,6.68
61.57,6.68
62.18,6.68
62.80,6.68
63.43,6.68
64.07,6.68
64.71,6.67
65.35,6.67
66.01,6.66
66.67,6.66
67.33,6.65
68.01,6.65
68.69,6.64
69.37,6.64
70.07,6.63
70.77,6.62
71.48,6.61
72.19,6.60
72.91,6.60
73.64,6.58
74.38,6.57
75.12,6.56
75.87,6.55
76.63,6.54
77.40,6.53
78.17,6.51
78.95,6.50
79.74,6.49
80.54,6.47
81.35,6.46
82.16,6.44
82.98,6.43
83.81,6.42
84.65,6.40
85.50,6.38
86.35,6.37
87.22,6.35
88.09,6.34
88.97,6.32
89.86,6.30
90.76,6.28
91.66,6.26
92.58,6.24
93.51,6.22
94.44,6.20
95.39,6.18
96.34,6.16
97.30,6.14
98.28,6.12
99.26,6.10
100.25,6.07
101.25,6.05
102.27,6.02
103.29,6.00
104.32,5.97
105.37,5.95
106.42,5.92
107.48,5.89
108.56,5.87
109.64,5.84
110.74,5.81
111.85,5.78
112.97,5.76
114.10,5.73
115.24,5.70
116.39,5.67
117.55,5.64
118.73,5.61
119.92,5.58
121.12,5.55
122.33,5.52
123.55,5.48
124.79,5.45
126.03,5.42
127.29,5.38
128.57,5.35
129.85,5.31
131.15,5.28
132.46,5.24
133.79,5.21
135.12,5.17
136.48,5.14
137.84,5.10
139.22,5.06
140.61,5.02
142.02,4.98
143.44,4.95
144.87,4.91
146.32,4.87
147.78,4.83
149.26,4.79
150.75,4.75
152.26,4.71
153.78,4.67
155.32,4.63
156.88,4.59
158.44,4.55
160.03,4.51
161.63,4.47
163.24,4.43
164.88,4.39
166.53,4.35
168.19,4.31
169.87,4.27
171.57,4.23
173.29,4.19
175.02,4.15
176.77,4.11
178.54,4.07
180.32,4.03
182.13,3.99
183.95,3.95
185.79,3.91
187.65,3.86
189.52,3.82
191.42,3.78
193.33,3.74
195.27,3.70
197.22,3.65
199.19,3.61
201.18,3.56
203.19,3.52
205.23,3.47
207.28,3.43
209.35,3.38
211.44,3.33
213.56,3.28
215.69,3.24
217.85,3.19
220.03,3.14
222.23,3.10
224.45,3.05
226.70,3.00
228.96,2.95
231.25,2.91
233.57,2.86
235.90,2.81
238.26,2.76
240.64,2.71
243.05,2.66
245.48,2.62
247.93,2.57
250.41,2.52
252.92,2.47
255.45,2.42
258.00,2.37
260.58,2.33
263.19,2.28
265.82,2.23
268.48,2.18
271.16,2.13
273.87,2.08
276.61,2.04
279.38,1.99
282.17,1.94
284.99,1.89
287.84,1.84
290.72,1.79
293.63,1.75
296.57,1.70
299.53,1.65
302.53,1.60
305.55,1.55
308.61,1.51
311.69,1.46
314.81,1.41
317.96,1.37
321.14,1.32
324.35,1.27
327.59,1.23
330.87,1.18
334.18,1.14
337.52,1.09
340.90,1.05
344.30,1.00
347.75,0.96
351.23,0.91
354.74,0.87
358.28,0.83
361.87,0.78
365.49,0.74
369.14,0.70
372.83,0.65
376.56,0.61
380.33,0.57
384.13,0.52
387.97,0.48
391.85,0.44
395.77,0.39
399.73,0.35
403.72,0.31
407.76,0.27
411.84,0.23
415.96,0.18
420.12,0.14
424.32,0.10
428.56,0.06
432.85,0.02
437.18,-0.02
441.55,-0.06
445.96,-0.10
450.42,-0.14
454.93,-0.18
459.48,-0.22
464.07,-0.25
468.71,-0.29
473.40,-0.33
478.13,-0.37
482.91,-0.41
487.74,-0.44
492.62,-0.48
497.55,-0.52
502.52,-0.55
507.55,-0.59
512.62,-0.62
517.75,-0.65
522.93,-0.69
528.16,-0.72
533.44,-0.75
538.77,-0.78
544.16,-0.81
549.60,-0.84
555.10,-0.87
560.65,-0.91
566.25,-0.94
571.92,-0.96
577.64,-0.99
583.41,-1.02
589.25,-1.05
595.14,-1.07
601.09,-1.10
607.10,-1.12
613.17,-1.15
619.30,-1.17
625.50,-1.19
631.75,-1.21
638.07,-1.23
644.45,-1.25
650.89,-1.27
657.40,-1.29
663.98,-1.30
670.62,-1.32
677.32,-1.33
684.10,-1.34
690.94,-1.35
697.85,-1.36
704.83,-1.37
711.87,-1.38
718.99,-1.38
726.18,-1.39
733.44,-1.39
740.78,-1.39
748.19,-1.39
755.67,-1.39
763.23,-1.38
770.86,-1.37
778.57,-1.37
786.35,-1.36
794.22,-1.34
802.16,-1.33
810.18,-1.32
818.28,-1.30
826.46,-1.28
834.73,-1.26
843.08,-1.23
851.51,-1.21
860.02,-1.18
868.62,-1.14
877.31,-1.10
886.08,-1.06
894.94,-1.02
903.89,-0.97
912.93,-0.91
922.06,-0.85
931.28,-0.79
940.59,-0.72
950.00,-0.64
959.50,-0.53
969.09,-0.42
978.78,-0.30
988.57,-0.16
998.46,-0.00
1008.44,0.02
1018.53,-0.23
1028.71,-0.94
1039.00,-1.13
1049.39,-1.07
1059.88,-0.84
1070.48,-0.69
1081.19,-0.55
1092.00,-0.41
1102.92,-0.29
1113.95,-0.18
1125.09,-0.08
1136.34,0.02
1147.70,0.12
1159.18,0.20
1170.77,0.29
1182.48,0.38
1194.30,0.46
1206.25,0.54
1218.31,0.62
1230.49,0.70
1242.80,0.77
1255.22,0.85
1267.78,0.93
1280.45,1.02
1293.26,1.10
1306.19,1.18
1319.25,1.26
1332.45,1.34
1345.77,1.42
1359.23,1.50
1372.82,1.58
1386.55,1.66
1400.41,1.74
1414.42,1.82
1428.56,1.90
1442.85,1.99
1457.28,2.07
1471.85,2.16
1486.57,2.25
1501.43,2.34
1516.45,2.43
1531.61,2.52
1546.93,2.62
1562.40,2.71
1578.02,2.81
1593.80,2.91
1609.74,3.02
1625.84,3.14
1642.10,3.26
1658.52,3.38
1675.10,3.50
1691.85,3.62
1708.77,3.75
1725.86,3.88
1743.12,4.01
1760.55,4.15
1778.15,4.29
1795.94,4.43
1813.90,4.58
1832.03,4.73
1850.36,4.88
1868.86,5.04
1887.55,5.20
1906.42,5.36
1925.49,5.52
1944.74,5.69
1964.19,5.87
1983.83,6.05
2003.67,6.23
2023.71,6.41
2043.94,6.60
2064.38,6.79
2085.03,6.99
2105.88,7.19
2126.94,7.39
2148.20,7.59
2169.69,7.80
2191.38,8.01
2213.30,8.22
2235.43,8.43
2257.78,8.65
2280.36,8.86
2303.17,9.08
2326.20,9.29
2349.46,9.51
2372.95,9.72
2396.68,9.93
2420.65,10.14
2444.86,10.34
2469.31,10.54
2494.00,10.73
2518.94,10.92
2544.13,11.11
2569.57,11.28
2595.27,11.45
2621.22,11.60
2647.43,11.74
2673.90,11.86
2700.64,11.96
2727.65,12.05
2754.93,12.12
2782.48,12.17
2810.30,12.21
2838.40,12.22
2866.79,12.22
2895.46,12.21
2924.41,12.17
2953.65,12.13
2983.19,12.07
3013.02,12.00
3043.15,11.92
3073.58,11.83
3104.32,11.74
3135.36,11.64
3166.72,11.54
3198.38,11.44
3230.37,11.35
3262.67,11.25
3295.30,11.15
3328.25,11.06
3361.53,10.97
3395.15,10.88
3429.10,10.80
3463.39,10.73
3498.03,10.66
3533.01,10.59
3568.34,10.54
3604.02,10.48
3640.06,10.44
3676.46,10.41
3713.22,10.39
3750.36,10.37
3787.86,10.37
3825.74,10.37
3864.00,10.38
3902.64,10.41
3941.66,10.44
3981.08,10.48
4020.89,10.52
4061.10,10.57
4101.71,10.62
4142.73,10.69
4184.15,10.76
4226.00,10.84
4268.26,10.93
4310.94,11.02
4354.05,11.12
4397.59,11.22
4441.56,11.32
4485.98,11.43
4530.84,11.52
4576.15,11.61
4621.91,11.69
4668.13,11.75
4714.81,11.79
4761.96,11.80
4809.58,11.79
4857.67,11.74
4906.25,11.66
4955.31,11.54
5004.87,11.39
5054.91,11.17
5105.46,10.93
5156.52,10.66
5208.08,10.36
5260.16,10.03
5312.77,9.69
5365.89,9.34
5419.55,8.97
5473.75,8.60
5528.49,8.22
5583.77,7.85
5639.61,7.47
5696.00,7.10
5752.96,6.74
5810.49,6.39
5868.60,6.05
5927.28,5.71
5986.56,5.39
6046.42,5.09
6106.89,4.81
6167.96,4.54
6229.64,4.29
6291.93,4.06
6354.85,3.87
6418.40,3.70
6482.58,3.55
6547.41,3.43
6612.88,3.32
6679.01,3.24
6745.80,3.19
6813.26,3.15
6881.39,3.15
6950.21,3.18
7019.71,3.23
7089.91,3.31
7160.81,3.43
7232.41,3.58
7304.74,3.75
7377.79,3.95
7451.56,4.18
7526.08,4.43
7601.34,4.70
7677.35,5.00
7754.13,5.30
7831.67,5.61
7909.98,5.90
7989.08,6.16
8068.98,6.34
8149.67,6.45
8231.16,6.47
8313.47,6.33
8396.61,6.11
8480.57,5.73
8565.38,5.26
8651.03,4.71
8737.54,4.12
8824.92,3.49
8913.17,2.86
9002.30,2.23
9092.32,1.62
9183.25,1.03
9275.08,0.48
9367.83,0.00
9461.51,-0.50
9556.12,-0.93
9651.68,-1.31
9748.20,-1.65
9845.68,-1.95
9944.14,-2.21
10043.58,-2.43
10144.02,-2.61
10245.46,-2.73
10347.91,-2.81
10451.39,-2.84
10555.91,-2.81
10661.46,-2.73
10768.08,-2.60
10875.76,-2.39
10984.52,-2.11
11094.36,-1.77
11205.31,-1.34
11317.36,-0.78
11430.53,-0.15
11544.84,0.65
11660.29,1.57
11776.89,2.58
11894.66,3.79
12013.60,5.02
12133.74,6.03
12255.08,6.43
12377.63,6.25
12501.41,5.32
12626.42,3.76
12752.68,2.19
12880.21,0.79
13009.01,-0.51
13139.10,-1.81
13270.49,-2.81
13403.20,-3.75
13537.23,-4.49
13672.60,-5.15
13809.33,-5.73
13947.42,-6.18
14086.90,-6.51
14227.77,-6.78
14370.04,-6.96
14513.74,-7.05
14658.88,-7.01
14805.47,-6.97
14953.52,-6.93
15103.06,-6.89
15254.09,-6.82
15406.63,-6.34
15560.70,-5.86
15716.30,-5.37
15873.47,-5.10
16032.20,-4.93
16192.52,-4.96
16354.45,-5.22
16517.99,-5.62
16683.17,-6.13
16850.01,-6.58
17018.51,-6.99
17188.69,-7.26
17360.58,-7.52
17534.18,-7.77
17709.53,-7.92
17886.62,-8.14
18065.49,-8.71
18246.14,-9.87
18428.60,-11.78
18612.89,-13.88
18799.02,-16.05
18987.01,-18.15
19176.88,-20.10
19368.65,-21.95
19562.33,-23.67
19757.96,-25.25
19955.54,-26.82
