frequency,raw
20.00,4.22
20.20,4.26
20.40,4.30
20.61,4.34
20.81,4.38
21.02,4.41
21.23,4.44
21.44,4.47
21.66,4.49
21.87,4.52
22.09,4.54
22.31,4.56
22.54,4.58
22.76,4.60
22.99,4.62
23.22,4.64
23.45,4.66
23.69,4.68
23.92,4.70
24.16,4.72
24.40,4.74
24.65,4.76
24.89,4.77
25.14,4.79
25.39,4.81
25.65,4.83
25.91,4.84
26.16,4.86
26.43,4.88
26.69,4.90
26.96,4.92
27.23,4.94
27.50,4.96
27.77,4.98
28.05,5.00
28.33,5.01
28.62,5.03
28.90,5.05
29.19,5.06
29.48,5.08
29.78,5.09
30.08,5.10
30.38,5.11
30.68,5.11
30.99,5.12
31.30,5.13
31.61,5.13
31.93,5.14
32.24,5.15
32.57,5.15
32.89,5.15
33.22,5.15
33.55,5.16
33.89,5.16
34.23,5.17
34.57,5.17
34.92,5.17
35.27,5.18
35.62,5.18
35.97,5.18
36.33,5.18
36.70,5.19
37.06,5.19
37.43,5.20
37.81,5.20
38.19,5.20
38.57,5.19
38.95,5.19
39.34,5.19
39.74,5.19
40.14,5.19
40.54,5.18
40.94,5.17
41.35,5.16
41.76,5.15
42.18,5.15
42.60,5.14
43.03,5.14
43.46,5.13
43.90,5.12
44.33,5.11
44.78,5.10
45.23,5.09
45.68,5.08
46.13,5.07
46.60,5.06
47.06,5.05
47.53,5.04
48.01,5.03
48.49,5.02
48.97,5.00
49.46,4.99
49.96,4.98
50.46,4.97
50.96,4.96
51.47,4.94
51.99,4.93
52.51,4.92
53.03,4.91
53.56,4.89
54.10,4.88
54.64,4.87
55.18,4.86
55.74,4.84
56.29,4.83
56.86,4.81
57.42,4.79
58.00,4.78
58.58,4.76
59.16,4.75
59.76,4.73
60.35,4.72
60.96,4.70
61.57,4.68
62.18,4.66
62.80,4.65
63.43,4.63
64.07,4.60
64.71,4.58
65.35,4.56
66.01,4.54
66.67,4.52
67.33,4.49
68.01,4.47
68.69,4.45
69.37,4.43
70.07,4.40
70.77,4.37
71.48,4.35
72.19,4.32
72.91,4.30
73.64,4.28
74.38,4.25
75.12,4.23
75.87,4.21
76.63,4.18
77.40,4.15
78.17,4.13
78.95,4.11
79.74,4.08
80.54,4.05
81.35,4.03
82.16,4.00
82.98,3.97
83.81,3.95
84.65,3.92
85.50,3.90
86.35,3.87
87.22,3.84
88.09,3.82
88.97,3.79
89.86,3.76
90.76,3.73
91.66,3.71
92.58,3.68
93.51,3.65
94.44,3.62
95.39,3.60
96.34,3.57
97.30,3.54
98.28,3.51
99.26,3.48
100.25,3.45
101.25,3.42
102.27,3.39
103.29,3.36
104.32,3.33
105.37,3.30
106.42,3.27
107.48,3.24
108.56,3.21
109.64,3.18
110.74,3.15
111.85,3.11
112.97,3.09
114.10,3.05
115.24,3.02
116.39,2.99
117.55,2.96
118.73,2.93
119.92,2.89
121.12,2.86
122.33,2.83
123.55,2.80
124.79,2.77
126.03,2.73
127.29,2.70
128.57,2.66
129.85,2.63
131.15,2.59
132.46,2.56
133.79,2.53
135.12,2.49
136.48,2.46
137.84,2.42
139.22,2.39
140.61,2.35
142.02,2.32
143.44,2.28
144.87,2.25
146.32,2.21
147.78,2.18
149.26,2.14
150.75,2.11
152.26,2.07
153.78,2.04
155.32,2.00
156.88,1.97
158.44,1.93
160.03,1.90
161.63,1.87
163.24,1.83
164.88,1.80
166.53,1.77
168.19,1.74
169.87,1.71
171.57,1.68
173.29,1.65
175.02,1.62
176.77,1.59
178.54,1.56
180.32,1.53
182.13,1.51
183.95,1.48
185.79,1.45
187.65,1.43
189.52,1.40
191.42,1.38
193.33,1.35
195.27,1.33
197.22,1.30
199.19,1.28
201.18,1.25
203.19,1.22
205.23,1.20
207.28,1.17
209.35,1.14
211.44,1.10
213.56,1.08
215.69,1.05
217.85,1.01
220.03,0.98
222.23,0.95
224.45,0.92
226.70,0.89
228.96,0.86
231.25,0.83
233.57,0.80
235.90,0.76
238.26,0.73
240.64,0.70
243.05,0.67
245.48,0.63
247.93,0.60
250.41,0.57
252.92,0.54
255.45,0.50
258.00,0.47
260.58,0.44
263.19,0.41
265.82,0.38
268.48,0.35
271.16,0.31
273.87,0.28
276.61,0.25
279.38,0.22
282.17,0.19
284.99,0.16
287.84,0.13
290.72,0.10
293.63,0.07
296.57,0.04
299.53,0.01
302.53,-0.02
305.55,-0.05
308.61,-0.08
311.69,-0.11
314.81,-0.14
317.96,-0.16
321.14,-0.19
324.35,-0.22
327.59,-0.25
330.87,-0.27
334.18,-0.30
337.52,-0.32
340.90,-0.35
344.30,-0.38
347.75,-0.40
351.23,-0.43
354.74,-0.46
358.28,-0.48
361.87,-0.50
365.49,-0.53
369.14,-0.55
372.83,-0.57
376.56,-0.60
380.33,-0.62
384.13,-0.64
387.97,-0.67
391.85,-0.69
395.77,-0.71
399.73,-0.73
403.72,-0.75
407.76,-0.77
411.84,-0.79
415.96,-0.82
420.12,-0.84
424.32,-0.86
428.56,-0.88
432.85,-0.90
437.18,-0.92
441.55,-0.94
445.96,-0.96
450.42,-0.97
454.93,-0.99
459.48,-1.01
464.07,-1.03
468.71,-1.05
473.40,-1.06
478.13,-1.08
482.91,-1.10
487.74,-1.11
492.62,-1.13
497.55,-1.14
502.52,-1.16
507.55,-1.17
512.62,-1.19
517.75,-1.20
522.93,-1.21
528.16,-1.22
533.44,-1.23
538.77,-1.25
544.16,-1.26
549.60,-1.27
555.10,-1.28
560.65,-1.29
566.25,-1.29
571.92,-1.30
577.64,-1.31
583.41,-1.32
589.25,-1.32
595.14,-1.33
601.09,-1.34
607.10,-1.34
613.17,-1.35
619.30,-1.35
625.50,-1.36
631.75,-1.36
638.07,-1.36
644.45,-1.36
650.89,-1.36
657.40,-1.36
663.98,-1.35
670.62,-1.35
677.32,-1.34
684.10,-1.34
690.94,-1.33
697.85,-1.32
704.83,-1.32
711.87,-1.31
718.99,-1.29
726.18,-1.28
733.44,-1.27
740.78,-1.26
748.19,-1.24
755.67,-1.22
763.23,-1.21
770.86,-1.18
778.57,-1.16
786.35,-1.14
794.22,-1.11
802.16,-1.09
810.18,-1.07
818.28,-1.04
826.46,-1.01
834.73,-0.98
843.08,-0.95
851.51,-0.91
860.02,-0.87
868.62,-0.83
877.31,-0.79
886.08,-0.75
894.94,-0.70
903.89,-0.65
912.93,-0.60
922.06,-0.54
931.28,-0.48
940.59,-0.42
950.00,-0.36
959.50,-0.29
969.09,-0.23
978.78,-0.16
988.57,-0.09
998.46,-0.01
1008.44,0.06
1018.53,0.12
1028.71,0.19
1039.00,0.26
1049.39,0.33
1059.88,0.40
1070.48,0.47
1081.19,0.54
1092.00,0.61
1102.92,0.68
1113.95,0.75
1125.09,0.84
1136.34,0.95
1147.70,1.05
1159.18,1.13
1170.77,1.21
1182.48,1.29
1194.30,1.36
1206.25,1.44
1218.31,1.51
1230.49,1.58
1242.80,1.65
1255.22,1.72
1267.78,1.79
1280.45,1.86
1293.26,1.94
1306.19,2.01
1319.25,2.09
1332.45,2.16
1345.77,2.23
1359.23,2.30
1372.82,2.37
1386.55,2.44
1400.41,2.52
1414.42,2.59
1428.56,2.66
1442.85,2.73
1457.28,2.81
1471.85,2.88
1486.57,2.95
1501.43,3.03
1516.45,3.10
1531.61,3.18
1546.93,3.25
1562.40,3.33
1578.02,3.41
1593.80,3.49
1609.74,3.58
1625.84,3.67
1642.10,3.76
1658.52,3.85
1675.10,3.95
1691.85,4.04
1708.77,4.14
1725.86,4.24
1743.12,4.33
1760.55,4.43
1778.15,4.54
1795.94,4.64
1813.90,4.74
1832.03,4.85
1850.36,4.95
1868.86,5.06
1887.55,5.17
1906.42,5.27
1925.49,5.38
1944.74,5.49
1964.19,5.61
1983.83,5.72
2003.67,5.83
2023.71,5.94
2043.94,6.05
2064.38,6.16
2085.03,6.27
2105.88,6.38
2126.94,6.49
2148.20,6.60
2169.69,6.71
2191.38,6.81
2213.30,6.92
2235.43,7.02
2257.78,7.12
2280.36,7.22
2303.17,7.32
2326.20,7.42
2349.46,7.51
2372.95,7.59
2396.68,7.68
2420.65,7.76
2444.86,7.84
2469.31,7.91
2494.00,7.98
2518.94,8.05
2544.13,8.12
2569.57,8.19
2595.27,8.24
2621.22,8.30
2647.43,8.34
2673.90,8.39
2700.64,8.42
2727.65,8.46
2754.93,8.48
2782.48,8.50
2810.30,8.52
2838.40,8.54
2866.79,8.54
2895.46,8.55
2924.41,8.55
2953.65,8.54
2983.19,8.54
3013.02,8.53
3043.15,8.51
3073.58,8.50
3104.32,8.48
3135.36,8.46
3166.72,8.45
3198.38,8.44
3230.37,8.42
3262.67,8.41
3295.30,8.40
3328.25,8.39
3361.53,8.38
3395.15,8.37
3429.10,8.36
3463.39,8.36
3498.03,8.35
3533.01,8.35
3568.34,8.35
3604.02,8.36
3640.06,8.36
3676.46,8.38
3713.22,8.39
3750.36,8.41
3787.86,8.43
3825.74,8.45
3864.00,8.48
3902.64,8.52
3941.66,8.55
3981.08,8.59
4020.89,8.63
4061.10,8.65
4101.71,8.69
4142.73,8.72
4184.15,8.76
4226.00,8.80
4268.26,8.84
4310.94,8.89
4354.05,8.93
4397.59,8.98
4441.56,9.02
4485.98,9.06
4530.84,9.10
4576.15,9.13
4621.91,9.16
4668.13,9.18
4714.81,9.19
4761.96,9.19
4809.58,9.17
4857.67,9.09
4906.25,8.83
4955.31,8.54
5004.87,8.37
5054.91,8.76
5105.46,8.97
5156.52,8.99
5208.08,8.93
5260.16,8.84
5312.77,8.74
5365.89,8.63
5419.55,8.51
5473.75,8.38
5528.49,8.25
5583.77,8.12
5639.61,7.99
5696.00,7.85
5752.96,7.72
5810.49,7.59
5868.60,7.47
5927.28,7.35
5986.56,7.24
6046.42,7.14
6106.89,7.05
6167.96,6.97
6229.64,6.90
6291.93,6.84
6354.85,6.81
6418.40,6.79
6482.58,6.78
6547.41,6.79
6612.88,6.81
6679.01,6.85
6745.80,6.90
6813.26,6.96
6881.39,7.03
6950.21,7.12
7019.71,7.21
7089.91,7.32
7160.81,7.44
7232.41,7.57
7304.74,7.71
7377.79,7.85
7451.56,7.99
7526.08,8.14
7601.34,8.30
7677.35,8.47
7754.13,8.63
7831.67,8.74
7909.98,8.81
7989.08,8.81
8068.98,8.73
8149.67,8.62
8231.16,8.45
8313.47,8.21
8396.61,7.93
8480.57,7.59
8565.38,7.20
8651.03,6.80
8737.54,6.37
8824.92,5.92
8913.17,5.48
9002.30,5.04
9092.32,4.62
9183.25,4.22
9275.08,3.84
9367.83,3.48
9461.51,3.17
9556.12,2.89
9651.68,2.64
9748.20,2.43
9845.68,2.29
9944.14,2.19
10043.58,2.14
10144.02,2.15
10245.46,2.25
10347.91,2.41
10451.39,2.64
10555.91,2.99
10661.46,3.43
10768.08,3.96
10875.76,4.64
10984.52,5.46
11094.36,6.36
11205.31,7.33
11317.36,8.11
11430.53,8.53
11544.84,8.08
11660.29,6.94
11776.89,5.56
11894.66,3.94
12013.60,2.33
12133.74,0.84
12255.08,-0.49
12377.63,-1.71
12501.41,-2.83
12626.42,-3.86
12752.68,-4.80
12880.21,-5.59
13009.01,-6.30
13139.10,-7.02
13270.49,-7.42
13403.20,-7.99
13537.23,-8.43
13672.60,-8.82
13809.33,-9.16
13947.42,-9.44
14086.90,-9.61
14227.77,-9.72
14370.04,-9.79
14513.74,-9.79
14658.88,-9.70
14805.47,-9.59
14953.52,-9.45
15103.06,-9.35
15254.09,-9.27
15406.63,-9.31
15560.70,-9.47
15716.30,-9.80
15873.47,-10.27
16032.20,-10.74
16192.52,-11.08
16354.45,-11.42
16517.99,-11.74
16683.17,-12.03
16850.01,-12.17
17018.51,-12.18
17188.69,-12.07
17360.58,-12.06
17534.18,-12.17
17709.53,-12.52
17886.62,-13.27
18065.49,-14.45
18246.14,-16.17
18428.60,-17.91
18612.89,-19.72
18799.02,-21.60
18987.01,-23.52
19176.88,-24.87
19368.65,-26.42
19562.33,-27.78
19757.96,-28.39
19955.54,-29.00
