frequency,raw
20.00,7.17
20.20,7.20
20.40,7.23
20.61,7.26
20.81,7.28
21.02,7.31
21.23,7.33
21.44,7.35
21.66,7.37
21.87,7.39
22.09,7.40
22.31,7.42
22.54,7.43
22.76,7.44
22.99,7.45
23.22,7.46
23.45,7.48
23.69,7.49
23.92,7.50
24.16,7.51
24.40,7.52
24.65,7.53
24.89,7.53
25.14,7.54
25.39,7.55
25.65,7.56
25.91,7.57
26.16,7.58
26.43,7.59
26.69,7.60
26.96,7.62
27.23,7.63
27.50,7.64
27.77,7.65
28.05,7.66
28.33,7.67
28.62,7.68
28.90,7.68
29.19,7.69
29.48,7.69
29.78,7.70
30.08,7.70
30.38,7.69
30.68,7.69
30.99,7.69
31.30,7.69
31.61,7.68
31.93,7.68
32.24,7.67
32.57,7.67
32.89,7.67
33.22,7.66
33.55,7.66
33.89,7.66
34.23,7.66
34.57,7.65
34.92,7.65
35.27,7.64
35.62,7.64
35.97,7.63
36.33,7.63
36.70,7.62
37.06,7.61
37.43,7.61
37.81,7.60
38.19,7.59
38.57,7.58
38.95,7.57
39.34,7.56
39.74,7.55
40.14,7.54
40.54,7.53
40.94,7.51
41.35,7.49
41.76,7.47
42.18,7.46
42.60,7.45
43.03,7.43
43.46,7.41
43.90,7.40
44.33,7.38
44.78,7.36
45.23,7.34
45.68,7.33
46.13,7.31
46.60,7.29
47.06,7.27
47.53,7.25
48.01,7.23
48.49,7.21
48.97,7.19
49.46,7.16
49.96,7.14
50.46,7.12
50.96,7.10
51.47,7.09
51.99,7.07
52.51,7.05
53.03,7.03
53.56,7.00
54.10,6.98
54.64,6.96
55.18,6.94
55.74,6.92
56.29,6.89
56.86,6.87
57.42,6.84
58.00,6.82
58.58,6.80
59.16,6.77
59.76,6.75
60.35,6.73
60.96,6.70
61.57,6.68
62.18,6.65
62.80,6.62
63.43,6.59
64.07,6.56
64.71,6.53
65.35,6.50
66.01,6.47
66.67,6.44
67.33,6.41
68.01,6.38
68.69,6.35
69.37,6.32
70.07,6.28
70.77,6.25
71.48,6.22
72.19,6.18
72.91,6.15
73.64,6.12
74.38,6.08
75.12,6.05
75.87,6.02
76.63,5.98
77.40,5.95
78.17,5.91
78.95,5.88
79.74,5.84
80.54,5.81
81.35,5.77
82.16,5.74
82.98,5.70
83.81,5.67
84.65,5.63
85.50,5.60
86.35,5.56
87.22,5.53
88.09,5.49
88.97,5.45
89.86,5.42
90.76,5.38
91.66,5.34
92.58,5.30
93.51,5.27
94.44,5.23
95.39,5.19
96.34,5.15
97.30,5.11
98.28,5.08
99.26,5.04
100.25,5.00
101.25,4.96
102.27,4.92
103.29,4.88
104.32,4.84
105.37,4.80
106.42,4.76
107.48,4.72
108.56,4.68
109.64,4.64
110.74,4.60
111.85,4.56
112.97,4.52
114.10,4.47
115.24,4.43
116.39,4.39
117.55,4.35
118.73,4.31
119.92,4.27
121.12,4.22
122.33,4.18
123.55,4.14
124.79,4.10
126.03,4.05
127.29,4.01
128.57,3.97
129.85,3.92
131.15,3.88
132.46,3.83
133.79,3.79
135.12,3.75
136.48,3.70
137.84,3.66
139.22,3.61
140.61,3.57
142.02,3.52
143.44,3.48
144.87,3.43
146.32,3.39
147.78,3.35
149.26,3.30
150.75,3.26
152.26,3.21
153.78,3.17
155.32,3.12
156.88,3.08
158.44,3.03
160.03,2.99
161.63,2.95
163.24,2.91
164.88,2.87
166.53,2.83
168.19,2.79
169.87,2.74
171.57,2.70
173.29,2.66
175.02,2.62
176.77,2.58
178.54,2.54
180.32,2.50
182.13,2.45
183.95,2.41
185.79,2.37
187.65,2.33
189.52,2.29
191.42,2.25
193.33,2.21
195.27,2.17
197.22,2.13
199.19,2.09
201.18,2.05
203.19,2.01
205.23,1.96
207.28,1.92
209.35,1.88
211.44,1.84
213.56,1.79
215.69,1.75
217.85,1.71
220.03,1.67
222.23,1.62
224.45,1.58
226.70,1.54
228.96,1.50
231.25,1.46
233.57,1.42
235.90,1.38
238.26,1.34
240.64,1.30
243.05,1.26
245.48,1.22
247.93,1.18
250.41,1.14
252.92,1.10
255.45,1.06
258.00,1.02
260.58,0.98
263.19,0.94
265.82,0.90
268.48,0.86
271.16,0.83
273.87,0.79
276.61,0.75
279.38,0.71
282.17,0.68
284.99,0.64
287.84,0.60
290.72,0.57
293.63,0.53
296.57,0.49
299.53,0.46
302.53,0.42
305.55,0.39
308.61,0.35
311.69,0.32
314.81,0.28
317.96,0.25
321.14,0.22
324.35,0.19
327.59,0.15
330.87,0.12
334.18,0.09
337.52,0.06
340.90,0.03
344.30,-0.00
347.75,-0.03
351.23,-0.06
354.74,-0.09
358.28,-0.12
361.87,-0.15
365.49,-0.18
369.14,-0.21
372.83,-0.24
376.56,-0.26
380.33,-0.29
384.13,-0.32
387.97,-0.35
391.85,-0.37
395.77,-0.40
399.73,-0.43
403.72,-0.45
407.76,-0.48
411.84,-0.50
415.96,-0.53
420.12,-0.55
424.32,-0.58
428.56,-0.60
432.85,-0.62
437.18,-0.65
441.55,-0.67
445.96,-0.69
450.42,-0.72
454.93,-0.74
459.48,-0.76
464.07,-0.78
468.71,-0.80
473.40,-0.82
478.13,-0.85
482.91,-0.87
487.74,-0.89
492.62,-0.91
497.55,-0.92
502.52,-0.94
507.55,-0.96
512.62,-0.97
517.75,-0.99
522.93,-1.01
528.16,-1.02
533.44,-1.04
538.77,-1.06
544.16,-1.07
549.60,-1.08
555.10,-1.09
560.65,-1.11
566.25,-1.12
571.92,-1.13
577.64,-1.14
583.41,-1.16
589.25,-1.17
595.14,-1.18
601.09,-1.19
607.10,-1.19
613.17,-1.20
619.30,-1.21
625.50,-1.22
631.75,-1.22
638.07,-1.23
644.45,-1.23
650.89,-1.22
657.40,-1.24
663.98,-1.24
670.62,-1.23
677.32,-1.24
684.10,-1.24
690.94,-1.23
697.85,-1.23
704.83,-1.23
711.87,-1.22
718.99,-1.22
726.18,-1.21
733.44,-1.20
740.78,-1.19
748.19,-1.18
755.67,-1.16
763.23,-1.15
770.86,-1.13
778.57,-1.12
786.35,-1.10
794.22,-1.08
802.16,-1.06
810.18,-1.03
818.28,-1.01
826.46,-0.99
834.73,-0.96
843.08,-0.93
851.51,-0.91
860.02,-0.88
868.62,-0.84
877.31,-0.81
886.08,-0.77
894.94,-0.74
903.89,-0.70
912.93,-0.65
922.06,-0.60
931.28,-0.52
940.59,-0.44
950.00,-0.37
959.50,-0.29
969.09,-0.22
978.78,-0.15
988.57,-0.08
998.46,-0.01
1008.44,0.06
1018.53,0.12
1028.71,0.19
1039.00,0.26
1049.39,0.33
1059.88,0.40
1070.48,0.48
1081.19,0.55
1092.00,0.63
1102.92,0.70
1113.95,0.78
1125.09,0.85
1136.34,0.93
1147.70,1.00
1159.18,1.07
1170.77,1.15
1182.48,1.22
1194.30,1.29
1206.25,1.37
1218.31,1.44
1230.49,1.51
1242.80,1.57
1255.22,1.64
1267.78,1.71
1280.45,1.78
1293.26,1.85
1306.19,1.92
1319.25,1.99
1332.45,2.06
1345.77,2.12
1359.23,2.19
1372.82,2.26
1386.55,2.32
1400.41,2.39
1414.42,2.45
1428.56,2.51
1442.85,2.58
1457.28,2.64
1471.85,2.71
1486.57,2.77
1501.43,2.83
1516.45,2.89
1531.61,2.96
1546.93,3.02
1562.40,3.09
1578.02,3.16
1593.80,3.22
1609.74,3.29
1625.84,3.37
1642.10,3.44
1658.52,3.52
1675.10,3.59
1691.85,3.67
1708.77,3.75
1725.86,3.83
1743.12,3.91
1760.55,3.99
1778.15,4.08
1795.94,4.16
1813.90,4.24
1832.03,4.32
1850.36,4.40
1868.86,4.49
1887.55,4.57
1906.42,4.66
1925.49,4.75
1944.74,4.83
1964.19,4.92
1983.83,5.00
2003.67,5.09
2023.71,5.17
2043.94,5.26
2064.38,5.34
2085.03,5.42
2105.88,5.50
2126.94,5.59
2148.20,5.67
2169.69,5.76
2191.38,5.83
2213.30,5.91
2235.43,5.98
2257.78,6.06
2280.36,6.13
2303.17,6.20
2326.20,6.27
2349.46,6.34
2372.95,6.40
2396.68,6.46
2420.65,6.52
2444.86,6.58
2469.31,6.63
2494.00,6.69
2518.94,6.74
2544.13,6.79
2569.57,6.84
2595.27,6.89
2621.22,6.93
2647.43,6.97
2673.90,7.00
2700.64,7.03
2727.65,7.06
2754.93,7.08
2782.48,7.10
2810.30,7.12
2838.40,7.13
2866.79,7.14
2895.46,7.14
2924.41,7.14
2953.65,7.14
2983.19,7.14
3013.02,7.13
3043.15,7.12
3073.58,7.11
3104.32,7.09
3135.36,7.08
3166.72,7.06
3198.38,7.05
3230.37,7.03
3262.67,7.02
3295.30,7.00
3328.25,6.99
3361.53,6.97
3395.15,6.95
3429.10,6.93
3463.39,6.92
3498.03,6.90
3533.01,6.88
3568.34,6.86
3604.02,6.84
3640.06,6.82
3676.46,6.80
3713.22,6.79
3750.36,6.77
3787.86,6.75
3825.74,6.73
3864.00,6.72
3902.64,6.70
3941.66,6.68
3981.08,6.66
4020.89,6.64
4061.10,6.60
4101.71,6.56
4142.73,6.52
4184.15,6.47
4226.00,6.43
4268.26,6.38
4310.94,6.33
4354.05,6.28
4397.59,6.22
4441.56,6.15
4485.98,6.09
4530.84,6.02
4576.15,5.94
4621.91,5.86
4668.13,5.77
4714.81,5.68
4761.96,5.58
4809.58,5.47
4857.67,5.36
4906.25,5.24
4955.31,5.11
5004.87,4.98
5054.91,4.82
5105.46,4.65
5156.52,4.46
5208.08,4.27
5260.16,4.15
5312.77,4.04
5365.89,3.90
5419.55,3.76
5473.75,3.62
5528.49,3.46
5583.77,3.30
5639.61,3.15
5696.00,3.00
5752.96,2.86
5810.49,2.73
5868.60,2.60
5927.28,2.48
5986.56,2.37
6046.42,2.27
6106.89,2.18
6167.96,2.11
6229.64,2.04
6291.93,1.98
6354.85,1.96
6418.40,1.94
6482.58,1.94
6547.41,1.95
6612.88,1.98
6679.01,2.03
6745.80,2.09
6813.26,2.16
6881.39,2.26
6950.21,2.35
7019.71,2.46
7089.91,2.60
7160.81,2.71
7232.41,2.84
7304.74,3.02
7377.79,3.24
7451.56,3.46
7526.08,3.69
7601.34,3.91
7677.35,4.14
7754.13,4.38
7831.67,4.74
7909.98,5.14
7989.08,5.60
8068.98,6.07
8149.67,6.54
8231.16,7.00
8313.47,7.45
8396.61,7.88
8480.57,8.25
8565.38,8.52
8651.03,8.70
8737.54,8.75
8824.92,8.63
8913.17,8.33
9002.30,7.95
9092.32,7.41
9183.25,6.80
9275.08,6.17
9367.83,5.52
9461.51,4.88
9556.12,4.26
9651.68,3.68
9748.20,3.14
9845.68,2.66
9944.14,2.21
10043.58,1.81
10144.02,1.45
10245.46,1.17
10347.91,0.91
10451.39,0.71
10555.91,0.57
10661.46,0.47
10768.08,0.41
10875.76,0.41
10984.52,0.48
11094.36,0.59
11205.31,0.76
11317.36,1.02
11430.53,1.32
11544.84,1.71
11660.29,2.15
11776.89,2.63
11894.66,3.18
12013.60,3.74
12133.74,4.26
12255.08,4.67
12377.63,4.96
12501.41,5.06
12626.42,4.80
12752.68,4.31
12880.21,3.59
13009.01,2.77
13139.10,1.95
13270.49,1.10
13403.20,0.27
13537.23,-0.46
13672.60,-1.12
13809.33,-1.71
13947.42,-2.18
14086.90,-2.53
14227.77,-2.80
14370.04,-2.99
14513.74,-3.09
14658.88,-3.03
14805.47,-2.89
14953.52,-2.62
15103.06,-2.26
15254.09,-1.86
15406.63,-1.46
15560.70,-1.19
15716.30,-1.11
15873.47,-1.58
16032.20,-2.29
16192.52,-3.35
16354.45,-4.53
16517.99,-5.77
16683.17,-6.93
16850.01,-7.99
17018.51,-8.94
17188.69,-9.75
17360.58,-10.47
17534.18,-11.11
17709.53,-11.69
17886.62,-12.14
18065.49,-12.58
18246.14,-13.07
18428.60,-13.76
18612.89,-14.63
18799.02,-15.71
18987.01,-17.02
19176.88,-18.65
19368.65,-20.39
19562.33,-22.08
19757.96,-23.57
19955.54,-24.80
