frequency,raw
20.00,3.36
20.20,3.41
20.40,3.46
20.61,3.52
20.81,3.57
21.02,3.62
21.23,3.67
21.44,3.71
21.66,3.76
21.87,3.80
22.09,3.85
22.31,3.89
22.54,3.93
22.76,3.96
22.99,4.00
23.22,4.03
23.45,4.07
23.69,4.10
23.92,4.13
24.16,4.17
24.40,4.20
24.65,4.24
24.89,4.27
25.14,4.30
25.39,4.34
25.65,4.37
25.91,4.40
26.16,4.43
26.43,4.47
26.69,4.50
26.96,4.54
27.23,4.57
27.50,4.61
27.77,4.64
28.05,4.67
28.33,4.70
28.62,4.74
28.90,4.77
29.19,4.80
29.48,4.83
29.78,4.86
30.08,4.89
30.38,4.91
30.68,4.94
30.99,4.96
31.30,4.98
31.61,5.00
31.93,5.03
32.24,5.05
32.57,5.07
32.89,5.09
33.22,5.10
33.55,5.12
33.89,5.14
34.23,5.16
34.57,5.18
34.92,5.20
35.27,5.22
35.62,5.24
35.97,5.26
36.33,5.28
36.70,5.30
37.06,5.31
37.43,5.33
37.81,5.34
38.19,5.36
38.57,5.38
38.95,5.39
39.34,5.41
39.74,5.42
40.14,5.43
40.54,5.44
40.94,5.45
41.35,5.46
41.76,5.47
42.18,5.48
42.60,5.49
43.03,5.49
43.46,5.50
43.90,5.51
44.33,5.52
44.78,5.53
45.23,5.53
45.68,5.54
46.13,5.54
46.60,5.55
47.06,5.55
47.53,5.56
48.01,5.56
48.49,5.56
48.97,5.57
49.46,5.57
49.96,5.58
50.46,5.58
50.96,5.58
51.47,5.59
51.99,5.60
52.51,5.60
53.03,5.60
53.56,5.60
54.10,5.61
54.64,5.61
55.18,5.61
55.74,5.61
56.29,5.62
56.86,5.62
57.42,5.62
58.00,5.62
58.58,5.62
59.16,5.62
59.76,5.62
60.35,5.62
60.96,5.62
61.57,5.61
62.18,5.61
62.80,5.61
63.43,5.61
64.07,5.60
64.71,5.60
65.35,5.59
66.01,5.58
66.67,5.58
67.33,5.57
68.01,5.57
68.69,5.56
69.37,5.55
70.07,5.54
70.77,5.53
71.48,5.52
72.19,5.51
72.91,5.50
73.64,5.49
74.38,5.48
75.12,5.47
75.87,5.46
76.63,5.45
77.40,5.44
78.17,5.43
78.95,5.42
79.74,5.41
80.54,5.40
81.35,5.39
82.16,5.38
82.98,5.37
83.81,5.36
84.65,5.34
85.50,5.33
86.35,5.32
87.22,5.30
88.09,5.29
88.97,5.28
89.86,5.27
90.76,5.25
91.66,5.24
92.58,5.22
93.51,5.21
94.44,5.20
95.39,5.18
96.34,5.16
97.30,5.15
98.28,5.13
99.26,5.12
100.25,5.10
101.25,5.08
102.27,5.07
103.29,5.05
104.32,5.03
105.37,5.01
106.42,4.99
107.48,4.97
108.56,4.95
109.64,4.94
110.74,4.91
111.85,4.89
112.97,4.88
114.10,4.86
115.24,4.84
116.39,4.81
117.55,4.79
118.73,4.77
119.92,4.75
121.12,4.73
122.33,4.71
123.55,4.68
124.79,4.66
126.03,4.64
127.29,4.61
128.57,4.59
129.85,4.56
131.15,4.54
132.46,4.51
133.79,4.49
135.12,4.46
136.48,4.43
137.84,4.40
139.22,4.38
140.61,4.35
142.02,4.32
143.44,4.29
144.87,4.27
146.32,4.24
147.78,4.21
149.26,4.18
150.75,4.15
152.26,4.12
153.78,4.09
155.32,4.06
156.88,4.03
158.44,4.00
160.03,3.97
161.63,3.94
163.24,3.92
164.88,3.89
166.53,3.86
168.19,3.83
169.87,3.80
171.57,3.78
173.29,3.75
175.02,3.72
176.77,3.69
178.54,3.66
180.32,3.63
182.13,3.60
183.95,3.56
185.79,3.53
187.65,3.50
189.52,3.47
191.42,3.44
193.33,3.41
195.27,3.37
197.22,3.34
199.19,3.31
201.18,3.28
203.19,3.24
205.23,3.20
207.28,3.17
209.35,3.13
211.44,3.09
213.56,3.06
215.69,3.02
217.85,2.98
220.03,2.94
222.23,2.91
224.45,2.87
226.70,2.83
228.96,2.79
231.25,2.75
233.57,2.71
235.90,2.67
238.26,2.64
240.64,2.60
243.05,2.56
245.48,2.52
247.93,2.48
250.41,2.44
252.92,2.40
255.45,2.36
258.00,2.32
260.58,2.28
263.19,2.24
265.82,2.20
268.48,2.16
271.16,2.12
273.87,2.08
276.61,2.04
279.38,2.00
282.17,1.96
284.99,1.92
287.84,1.87
290.72,1.83
293.63,1.79
296.57,1.75
299.53,1.71
302.53,1.67
305.55,1.62
308.61,1.58
311.69,1.54
314.81,1.50
317.96,1.46
321.14,1.42
324.35,1.38
327.59,1.34
330.87,1.30
334.18,1.26
337.52,1.22
340.90,1.18
344.30,1.14
347.75,1.10
351.23,1.06
354.74,1.02
358.28,0.98
361.87,0.94
365.49,0.90
369.14,0.87
372.83,0.83
376.56,0.79
380.33,0.75
384.13,0.71
387.97,0.67
391.85,0.63
395.77,0.59
399.73,0.55
403.72,0.52
407.76,0.48
411.84,0.44
415.96,0.40
420.12,0.36
424.32,0.33
428.56,0.29
432.85,0.25
437.18,0.21
441.55,0.18
445.96,0.14
450.42,0.11
454.93,0.07
459.48,0.04
464.07,-0.00
468.71,-0.04
473.40,-0.07
478.13,-0.11
482.91,-0.14
487.74,-0.17
492.62,-0.21
497.55,-0.24
502.52,-0.27
507.55,-0.30
512.62,-0.34
517.75,-0.37
522.93,-0.39
528.16,-0.43
533.44,-0.46
538.77,-0.48
544.16,-0.51
549.60,-0.54
555.10,-0.57
560.65,-0.60
566.25,-0.62
571.92,-0.65
577.64,-0.67
583.41,-0.70
589.25,-0.72
595.14,-0.75
601.09,-0.77
607.10,-0.79
613.17,-0.82
619.30,-0.84
625.50,-0.86
631.75,-0.88
638.07,-0.89
644.45,-0.91
650.89,-0.93
657.40,-0.94
663.98,-0.95
670.62,-0.97
677.32,-0.98
684.10,-0.99
690.94,-1.00
697.85,-1.01
704.83,-1.02
711.87,-1.03
718.99,-1.03
726.18,-1.03
733.44,-1.04
740.78,-1.04
748.19,-1.04
755.67,-1.04
763.23,-1.04
770.86,-1.03
778.57,-1.03
786.35,-1.03
794.22,-1.02
802.16,-1.02
810.18,-1.02
818.28,-1.00
826.46,-0.96
834.73,-0.90
843.08,-0.85
851.51,-0.81
860.02,-0.77
868.62,-0.74
877.31,-0.71
886.08,-0.67
894.94,-0.64
903.89,-0.60
912.93,-0.56
922.06,-0.52
931.28,-0.47
940.59,-0.42
950.00,-0.36
959.50,-0.30
969.09,-0.23
978.78,-0.16
988.57,-0.09
998.46,-0.01
1008.44,0.06
1018.53,0.13
1028.71,0.20
1039.00,0.28
1049.39,0.36
1059.88,0.44
1070.48,0.52
1081.19,0.61
1092.00,0.70
1102.92,0.78
1113.95,0.87
1125.09,0.97
1136.34,1.06
1147.70,1.15
1159.18,1.25
1170.77,1.34
1182.48,1.44
1194.30,1.54
1206.25,1.64
1218.31,1.74
1230.49,1.84
1242.80,1.94
1255.22,2.05
1267.78,2.16
1280.45,2.28
1293.26,2.39
1306.19,2.51
1319.25,2.63
1332.45,2.76
1345.77,2.88
1359.23,3.01
1372.82,3.15
1386.55,3.28
1400.41,3.43
1414.42,3.57
1428.56,3.72
1442.85,3.88
1457.28,4.04
1471.85,4.21
1486.57,4.39
1501.43,4.56
1516.45,4.75
1531.61,4.94
1546.93,5.14
1562.40,5.35
1578.02,5.56
1593.80,5.78
1609.74,6.01
1625.84,6.25
1642.10,6.50
1658.52,6.74
1675.10,6.99
1691.85,7.25
1708.77,7.50
1725.86,7.76
1743.12,8.02
1760.55,8.27
1778.15,8.52
1795.94,8.76
1813.90,9.00
1832.03,9.23
1850.36,9.45
1868.86,9.66
1887.55,9.87
1906.42,10.06
1925.49,10.24
1944.74,10.42
1964.19,10.58
1983.83,10.72
2003.67,10.86
2023.71,10.98
2043.94,11.08
2064.38,11.17
2085.03,11.24
2105.88,11.29
2126.94,11.33
2148.20,11.34
2169.69,11.35
2191.38,11.34
2213.30,11.31
2235.43,11.28
2257.78,11.24
2280.36,11.19
2303.17,11.13
2326.20,11.07
2349.46,11.00
2372.95,10.92
2396.68,10.85
2420.65,10.77
2444.86,10.70
2469.31,10.62
2494.00,10.55
2518.94,10.48
2544.13,10.42
2569.57,10.36
2595.27,10.31
2621.22,10.25
2647.43,10.20
2673.90,10.15
2700.64,10.11
2727.65,10.06
2754.93,10.03
2782.48,9.99
2810.30,9.96
2838.40,9.94
2866.79,9.92
2895.46,9.91
2924.41,9.91
2953.65,9.91
2983.19,9.92
3013.02,9.93
3043.15,9.96
3073.58,9.99
3104.32,10.03
3135.36,10.08
3166.72,10.14
3198.38,10.22
3230.37,10.31
3262.67,10.40
3295.30,10.50
3328.25,10.61
3361.53,10.72
3395.15,10.83
3429.10,10.94
3463.39,11.05
3498.03,11.16
3533.01,11.27
3568.34,11.37
3604.02,11.47
3640.06,11.55
3676.46,11.62
3713.22,11.67
3750.36,11.71
3787.86,11.71
3825.74,11.71
3864.00,11.68
3902.64,11.62
3941.66,11.55
3981.08,11.45
4020.89,11.33
4061.10,11.17
4101.71,11.00
4142.73,10.81
4184.15,10.62
4226.00,10.43
4268.26,10.25
4310.94,10.07
4354.05,9.93
4397.59,9.81
4441.56,9.71
4485.98,9.65
4530.84,9.60
4576.15,9.58
4621.91,9.57
4668.13,9.58
4714.81,9.59
4761.96,9.60
4809.58,9.62
4857.67,9.62
4906.25,9.63
4955.31,9.63
5004.87,9.62
5054.91,9.59
5105.46,9.56
5156.52,9.52
5208.08,9.47
5260.16,9.41
5312.77,9.35
5365.89,9.26
5419.55,9.16
5473.75,9.03
5528.49,8.88
5583.77,8.73
5639.61,8.57
5696.00,8.40
5752.96,8.15
5810.49,7.88
5868.60,7.60
5927.28,7.31
5986.56,7.04
6046.42,6.79
6106.89,6.55
6167.96,6.31
6229.64,6.07
6291.93,5.82
6354.85,5.58
6418.40,5.33
6482.58,5.06
6547.41,4.75
6612.88,4.40
6679.01,3.99
6745.80,3.48
6813.26,2.89
6881.39,2.15
6950.21,1.19
7019.71,0.04
7089.91,-1.41
7160.81,-3.38
7232.41,-5.74
7304.74,-8.45
7377.79,-10.47
7451.56,-10.14
7526.08,-8.53
7601.34,-6.44
7677.35,-4.80
7754.13,-3.33
7831.67,-2.25
7909.98,-1.27
7989.08,-0.44
8068.98,0.24
8149.67,0.82
8231.16,1.28
8313.47,1.55
8396.61,1.73
8480.57,1.73
8565.38,1.56
8651.03,1.31
8737.54,0.97
8824.92,0.57
8913.17,0.17
9002.30,-0.24
9092.32,-0.58
9183.25,-0.87
9275.08,-1.10
9367.83,-1.24
9461.51,-1.34
9556.12,-1.33
9651.68,-1.23
9748.20,-1.04
9845.68,-0.75
9944.14,-0.42
10043.58,-0.06
10144.02,0.30
10245.46,0.61
10347.91,0.87
10451.39,1.09
10555.91,1.23
10661.46,1.36
10768.08,1.47
10875.76,1.58
10984.52,1.65
11094.36,1.68
11205.31,1.63
11317.36,1.36
11430.53,1.00
11544.84,0.43
11660.29,-0.27
11776.89,-1.03
11894.66,-1.85
12013.60,-2.67
12133.74,-3.43
12255.08,-4.11
12377.63,-4.72
12501.41,-5.25
12626.42,-5.69
12752.68,-6.01
12880.21,-6.14
13009.01,-6.18
13139.10,-6.23
13270.49,-6.00
13403.20,-5.69
13537.23,-5.21
13672.60,-4.75
13809.33,-4.35
13947.42,-4.40
14086.90,-5.09
14227.77,-6.18
14370.04,-7.54
14513.74,-9.18
14658.88,-10.78
14805.47,-12.30
14953.52,-13.71
15103.06,-14.91
15254.09,-16.02
15406.63,-16.97
15560.70,-17.91
15716.30,-18.85
15873.47,-20.08
16032.20,-21.92
16192.52,-25.91
16354.45,-27.68
16517.99,-28.02
16683.17,-26.63
16850.01,-25.57
17018.51,-24.73
17188.69,-23.88
17360.58,-23.00
17534.18,-22.00
17709.53,-20.63
17886.62,-19.39
18065.49,-18.94
18246.14,-19.81
18428.60,-23.69
18612.89,-27.15
18799.02,-28.81
18987.01,-26.28
19176.88,-25.57
19368.65,-25.70
19562.33,-26.42
19757.96,-27.45
19955.54,-28.48
