frequency,raw,error,smoothed,error_smoothed,equalization,equalized_raw,equalized_smoothed,target
20,-5.444068326892254,-9.564689077500168,-5.414286266113149,-9.534925261291415,5.999999999999999,0.5559316731077448,0.5857137338868501,4.120620750607913
21,-4.782268470933454,-8.934503615642786,-4.849719377608944,-9.001943898122558,6.0,1.2177315290665458,1.1502806223910564,4.152235144709332
22,-4.378487885011641,-8.558936365035137,-4.30695087114791,-8.487377289509029,5.999999999999999,1.6215121149883585,1.6930491288520892,4.180448480023496
23,-3.776157096863467,-7.981416447185005,-3.7859807467300484,-7.991225435450824,5.999999999999999,2.223842903136532,2.2140192532699507,4.205259350321538
24,-3.2418661538557325,-7.468532250309968,-3.2868090043553515,-7.513488335947934,6.000000000000001,2.7581338461442684,2.7131909956446494,4.2266660964542355
25,-2.718877648108603,-6.963544423014401,-2.8108071402810975,-7.055545841015471,6.000000000000001,3.2811223518913977,3.1891928597189034,4.244666774905798
26,-2.4029165419674494,-6.66217566601771,-2.356346714885526,-6.615765121126987,5.92539742773998,3.5224808857725303,3.5690507128544535,4.259259124050261
27,-1.979005821430831,-6.249515295141372,-1.9219312029334117,-6.192641300662892,5.772510422201561,3.7935046007707305,3.8505792192681496,4.270509473710542
28,-1.4810390418963,-5.759400682482248,-1.5055101976230045,-5.784104498811962,5.55019287918832,4.069153837292021,4.044682681565316,4.278361640585948
29,-1.106670223686822,-5.389456915198534,-1.1047697799018166,-5.387805800793185,5.278276630159269,4.1716064064724465,4.173506850257452,4.282786691511712
30,-0.7165894028426594,-5.000327091503454,-0.7179905463323453,-5.00197400097011,4.968663055761951,4.252073652919291,4.250672509429606,4.2837376886607945
31,-0.35078624402626946,-4.631933110901149,-0.3439732213865184,-4.625338248226436,4.625338248226436,4.274552004200166,4.281365026839918,4.281146866874879
32,-0.016814347641700842,-4.291738629168165,0.01777645420997454,-4.257313078756635,4.257313078756635,4.2404987311149345,4.27508953296661,4.274924281526465
33,0.3742287882043678,-3.890729832203826,0.3671731381463809,-3.8978748302386528,3.897874830238652,4.27210361844302,4.265047968385033,4.264958620408194
34,0.7392134317658807,-3.5119186241691573,0.7038766877440623,-3.5472406166240025,3.547240616624003,4.286454048389883,4.251117304368066,4.251132055935038
35,0.9822717771787712,-3.251042784079365,1.0275726274665464,-3.2055941523410585,3.205594152341058,4.1878659295198295,4.233166779807604,4.233314561258136
36,1.3845706277534837,-2.8268044897498408,1.3382435785578335,-2.872822761618404,2.8728227616184046,4.257393389371888,4.211066340176238,4.211375117503325
37,1.653430605503032,-2.53176159943379,1.6362900890620722,-2.548407263300975,2.548407263300975,4.201837868804007,4.184697352363047,4.185192204936822
38,1.9377315472937129,-2.216934903845731,1.9224862477346787,-2.2314792250310824,2.2314792250310824,4.169210772324796,4.153965472765761,4.154666451139444
39,2.1599880793456694,-1.9597470105000956,2.1978197228374468,-1.9209956738469085,1.920995673846909,4.080983753192578,4.118815396684356,4.119735089845765
40,2.4036053915430324,-1.676782370376431,2.463275581074739,-1.6159715505241867,1.6159715505241867,4.01957694206722,4.079247131598926,4.0803877619194635
41,2.7920689113974366,-1.2446160006436267,2.7196542477795784,-1.3156789524494479,1.3156789524494477,4.1077478638468845,4.035333200229026,4.036684912041063
42,2.9233697525091995,-1.0654056754443868,2.9674787224532393,-1.0197572802012742,1.0197572802012744,3.943127032710474,3.9872360026545137,3.9887754279535863
43,3.200076257650601,-0.7368376277287854,3.2070001614189043,-0.7282242390657103,0.7282242390657103,3.9283004967163113,3.9352244004846146,3.9369138853793864
44,3.496639593275815,-0.384836509541544,3.438272711373211,-0.44141574540473744,0.44141574540473744,3.938055338680553,3.8796884567779486,3.881476102817359
45,3.64750166224195,-0.1754701782571204,3.661248565334337,-0.1599026412939341,0.15990264129393408,3.807404303535884,3.8211512066282713,3.8229718404990702
46,3.8493913216093985,0.08733788648503049,3.875856482025243,0.11558014330596879,-0.11558014330596875,3.7338111783034296,3.760276338719274,3.762053435124368
47,4.106249221529671,0.40673003280266506,4.082055645175968,0.3841848980305202,-0.38418489803052025,3.7220643234991506,3.6978707471454477,3.699519188727006
48,4.258545555047475,0.62223482174383,4.279881781856863,0.6450007170446932,-0.6450007170446932,3.613544838002782,3.63488106481217,3.6363107333036453
49,4.456951962572786,0.8834484214061589,4.469505084488476,0.8971215744642421,-0.8971215744642419,3.5598303881085442,3.572383510024234,3.573503541166627
50,4.653248788854517,1.140958634445437,4.6512962515990335,1.1397295912122254,-1.1397295912122252,3.5135191976422924,3.5115666603868085,3.5122901544090803
51,4.841898088963833,1.3879420503603703,4.825864473565856,1.3721573721585711,-1.3721573721585711,3.469740716805262,3.453707101407285,3.453956038603463
52,5.0522319026538005,1.6523835511753528,4.994014711310989,1.593876445549404,-1.5938764455494037,3.458355457104397,3.4001382657615853,3.3998483514784477
53,5.111460157760766,1.7601218421254603,5.1565906715636975,1.8043775076034128,-1.8043775076034132,3.307082650157353,3.3522131639602843,3.351338315635306
54,5.341610129420245,2.0318318614361726,5.314221855162085,2.0029597688505816,-2.0029597688505816,3.338650360569664,3.3112620863115034,3.309778267984073
55,5.407559128545228,2.131104281682642,5.467054544600609,2.1885078379474994,-2.1885078379475003,3.2190512905977275,3.278546706653109,3.2764548468625856
56,5.540690971881778,2.2881508852682506,5.6145831064808185,2.3593707887963133,-2.359370788796314,3.1813201830854645,3.2552123176845047,3.2525400866135277
57,5.809857966245191,2.5708155324222375,5.7556816763938965,2.5134415212794785,-2.5134415212794785,3.296416444965712,3.242240155114418,3.239042433822953
58,5.910432680561603,2.6736728299392745,5.88886664717029,2.6484647413978846,-2.6484647413978855,3.2619679391637173,3.2404019057724045,3.2367598506223283
59,6.011007412487461,2.764770196708838,6.012724492621565,2.762505962273135,-2.762505962273135,3.2485014502143263,3.2502185303484303,3.2462372157786232
60,6.204565959137052,2.9368357942850123,6.126361317558756,2.85443586048863,-2.85443586048863,3.350130098648422,3.271925457070126,3.26773016485204
61,6.212156956625079,2.9109796337742138,6.229709625237899,2.9242636080545275,-2.924263608054528,3.287893348570551,3.3054460171833715,3.301177322850865
62,6.312731749945808,2.966549164249105,6.3235760430468435,2.973201341111227,-2.9732013411112264,3.3395304088345816,3.350374701935617,3.346182585696703
63,6.413306501835894,3.0112977919527286,6.409412528096929,3.003441092380947,-3.0034410923809474,3.4098654094549468,3.405971435715982,3.4020087098831655
64,6.413306417947639,2.945723425782345,6.488900397091476,3.0177327981680735,-3.0177327981680744,3.3955736197795643,3.471167598923402,3.4675829921652936
65,6.614455536850907,3.072940250112218,6.563504849420262,3.0189208297952774,-3.0189208297952765,3.5955347070556307,3.5445840196249856,3.541515286738689
66,6.614454932205408,2.992326888077293,6.63416051621955,3.0095999038091055,-3.009599903809106,3.6048550283963023,3.6245606124104444,3.6221280441281154
67,6.711397581806117,3.0039000875829087,6.7011874203085675,2.9919906162224055,-2.9919906162224055,3.7194069655837114,3.709196804086162,3.707497494223208
68,6.755193728757372,2.9596891626227784,6.764441017104613,2.9680396394796666,-2.968039639479667,3.787154089277705,3.7964013776249463,3.7955045661345936
69,6.815601927282717,2.931708257856433,6.823611598844366,2.939661681589968,-2.939661681589968,3.875940245692749,3.8839499172543976,3.8838936694262842
70,6.916177188274333,2.9458401072966613,6.878540688083772,2.908993012992749,-2.9089930129927493,4.0071841752815835,3.969547675091023,3.970337080977672
71,6.916179800661532,2.863677390073378,6.929430266748923,2.87853484427355,-2.8785348442735503,4.037644956387982,4.050895422475373,4.052502410588154
72,7.00347710026233,2.875356628694025,6.97687532482725,2.851119617015912,-2.851119617015912,4.152357483246418,4.125755707811338,4.128120471568305
73,7.016768808373854,2.8217179404750716,7.021724219230402,2.829707298034163,-2.8297072980341627,4.187061510339691,4.192016921196239,4.195050867898782
74,7.01677994882381,2.7654372214647314,7.064834096568324,2.817081423918074,-2.817081423918074,4.199698524905736,4.24775267265025,4.251342727359079
75,7.117365504855493,2.8220772519301223,7.106817841541256,2.815543623427825,-2.8155436234278244,4.301821881427669,4.291274218113431,4.295288252925371
76,7.121469391927266,2.796002273749248,7.147869913308101,2.826695901287242,-2.826695901287242,4.294773490640024,4.321174012020859,4.325467118178018
77,7.217938982675876,2.877158806934225,7.187721596651437,2.8513626727264034,-2.8513626727264034,4.3665763099494725,4.336358923925034,4.340780175741651
78,7.217911212083411,2.8774397566824117,7.225729813480443,2.889657619495197,-2.889657619495196,4.328253592588215,4.336072193985247,4.3404714554009995
79,7.267078939950608,2.942940968103313,7.261066551405591,2.9411628205867473,-2.941162820586748,4.32591611936386,4.319903730818843,4.3241379718472945
80,7.318339895165149,3.026612484106993,7.292957684861418,3.00516891069135,-3.00516891069135,4.313170984473799,4.2877887741700675,4.291727411058156
81,7.318221337841278,3.07469704812591,7.320918933570583,3.0809237127710434,-3.080923712771044,4.237297625070234,4.239995220799539,4.243524289715368
82,7.318089584921538,3.1379639281224447,7.344944311643636,3.167844154455369,-3.16784415445537,4.1502454304661685,4.177100157188266,4.180125656799094
83,7.3652774636121,3.2628696561171804,7.365610341306534,3.2656538086175573,-3.265653808617557,4.099623654994543,4.099956532688978,4.102407807494919
84,7.418504208934828,3.4070184199642055,7.384065883095237,3.374414203470791,-3.3744142034707925,4.044090005464035,4.009651679624444,4.011485788970623
85,7.418587356362681,3.5099196726641444,7.401887274382805,3.494426665476273,-3.494426665476274,3.9241606908864073,3.907460608906531,3.908667683698537
86,7.41887087489809,3.623465121237874,7.42079859137387,3.6260003108485273,-3.626000310848527,3.7928705640495632,3.7947982805253435,3.795405753660216
87,7.419420404297547,3.746173884915421,7.442290685636686,3.769115233083364,-3.769115233083364,3.650305171214183,3.673175452553322,3.673246519382126
88,7.420279284064103,3.8764975452088986,7.467213640170442,3.9230523761086937,-3.9230523761086946,3.497226907955408,3.5441612640617475,3.543781738855204
89,7.4866141054546524,4.078012049615747,7.495448976417519,4.086096884021675,-4.086096884021675,3.4005172214329775,3.409352092395844,3.4086020558389056
90,7.523436467618273,4.254181645743451,7.52577089291769,4.25542947262676,-4.255429472626762,3.268006994991511,3.2703414202909276,3.2692548218748225
91,7.5249487304183535,4.397741449012258,7.555968691234477,4.427287015099098,-4.427287015099097,3.0976617153192567,3.12868167613538,3.1272072814060956
92,7.626892347367004,4.6430763813973694,7.583230122860126,4.597400847731343,-4.597400847731342,3.029491499635662,2.9858292751287836,2.9838159659696353
93,7.627780652147705,4.787477859465477,7.604699457690402,4.761628992161961,-4.761628992161962,2.866151659985743,2.84307046552844,2.8403027926822273
94,7.627767541269483,4.930029517327739,7.61805702794646,4.916619681543181,-4.916619681543182,2.7111478597263012,2.701437346403278,2.697738023941744
95,7.626374480822825,5.069344544225402,7.621948740785315,5.060312470627347,-5.060312470627347,2.5660620101954787,2.561636270157968,2.5570299365974236
96,7.623103619262666,5.204182835738727,7.616138145096324,5.192119916276934,-5.192119916276933,2.430983702985733,2.4240182288193903,2.4189207835239386
97,7.617485285598127,5.333496867372987,7.601348014130368,5.312731159056638,-5.312731159056637,2.30475412654149,2.288616855073731,2.2839884182251398
98,7.60912939000858,5.456476590858436,7.578868358416808,5.423606011551483,-5.423606011551484,2.1855233784570967,2.1552623468653245,2.152652799150144
99,7.4971998013566665,5.47201330541015,7.550089575883003,5.5263366966632,-5.526336696663198,1.9708631046934686,2.0237528792198054,2.0251864959465165
100,7.482753696210175,5.581025414058299,7.5161383309774745,5.622099606238742,-5.622099606238743,1.8606540899714314,1.8940387247387314,1.9017282821518755
101,7.465319814994444,5.683020903171103,7.477740199633449,5.7113799873460716,-5.711379987346072,1.753939827648372,1.7663602122873767,1.7822989118233408
102,7.445206219008457,5.778387986174168,7.435329036441783,5.794041845117981,-5.794041845117979,1.6511643738904782,1.641287191323804,1.6668182328342898
104,7.422915410403076,5.929757158611331,7.389313507278313,5.869678251906459,-5.869678251906459,1.553237158496617,1.5196352553718544,1.493158251791745
105,7.3991159557395205,6.014177585510998,7.340345359475059,5.938071116226794,-5.938071116226794,1.4610448395127262,1.4022742432482644,1.3849383702285227
106,7.286898798850609,6.006779039244206,7.289440800365883,5.999557712373065,-5.999557712373065,1.2873410864775439,1.289883087992818,1.2801197596064027
107,7.2224585795619625,6.044068944909293,7.237881684154885,6.055154694955757,-6.055154694955757,1.1673038846062056,1.1827269891991286,1.1783896346526697
108,7.125705011751124,6.046288558437906,7.18693140485691,6.106402498778925,-6.106402498778923,1.0193025129722004,1.080528906077987,1.0794164533132178
109,7.104158398766699,6.121295236751522,7.137490439041862,6.155012093974859,-6.15501209397486,0.9491463047918387,0.982478345067002,0.9828631620151764
110,7.085139985751796,6.196741154251795,7.089846904687578,6.202470117732581,-6.20247011773258,0.8826698680192155,0.8873767869549978,0.8883988315000004
111,7.069202947792849,6.273494311190713,7.043635669671701,6.249759146493542,-6.249759146493543,0.8194438012993066,0.7938765231781586,0.7957086366021369
112,7.042657198900903,6.338155017696584,6.998026602015015,6.297283846546778,-6.297283846546779,0.7453733523541244,0.7007427554682364,0.7045021812043191
113,6.948248452137139,6.333728250883495,6.9520624691523825,6.344996325199736,-6.344996325199734,0.6032521269374049,0.6070661439526486,0.6145202012536437
114,6.9084530502979975,6.382913352979117,6.905004156399535,6.39263002539875,-6.392630025398751,0.5158230248992464,0.5123741310007839,0.5255396973188802
115,6.839426033548064,6.402048475963607,6.856541121559442,6.439915830013332,-6.439915830013333,0.39951020353473155,0.41662529154610883,0.43737755758445696
117,6.808409559696757,6.51322953929411,6.806785418428483,6.486677471345488,-6.4866774713454864,0.3217320883512702,0.32010794708299617,0.2951800204026471
118,6.743310019399514,6.5339110682900845,6.756059816064444,6.532770317612476,-6.532770317612473,0.21053970178704073,0.22328949845197066,0.20939895110942963
119,6.704416865764979,6.58022886383783,6.704576162679759,6.577906963527079,-6.57790696352708,0.12650990223789904,0.12666919915267894,0.12418800192714885
120,6.6547694712383185,6.61524438415638,6.6521459435884385,6.621471201871991,-6.621471201871991,0.03329826936632774,0.030674741716447684,0.0395250870819388
121,6.608470989317796,6.653044846751756,6.598054304785384,6.662435325590405,-6.662435325590406,-0.05396433627260944,-0.06438102080502173,-0.04457385743395981
123,6.508802941903371,6.684259996974245,6.541165997741765,6.699457829378662,-6.699457829378662,-0.1906548874752918,-0.1582918316368973,-0.17545705507087472
124,6.4766382901143835,6.733579997723645,6.480238828349967,6.731161604733037,-6.731161604733037,-0.25452331461865363,-0.2509227763830699,-0.2569417076092615
125,6.419133505879651,6.756752859507334,6.4143306442337416,6.7565052295752,-6.7565052295752,-0.3373717236955498,-0.34217458534145884,-0.3376193536276837
126,6.390613762736015,6.807986591028079,6.343133169618528,6.775097324298866,-6.775097324298864,-0.384483561562849,-0.4319641546803359,-0.4173728282920637
128,6.29662757476757,6.833523617093367,6.267073006416458,6.787296058670742,-6.7872960586707425,-0.4906684839031721,-0.5202230522542841,-0.5368960423257965
129,6.186092715536059,6.799192922269813,6.18709232817064,6.793996062320405,-6.7939960623204065,-0.6079033467843473,-0.6069037341497667,-0.6131002067337539
130,6.077355976059441,6.765346014859995,6.10413988106151,6.796119481929509,-6.796119481929509,-0.7187635058700677,-0.6919796008679988,-0.6879900388005535
131,5.9853951326237675,6.746832220660481,6.018526546284933,6.793957329246776,-6.793957329246776,-0.8085621966230088,-0.775430782961843,-0.7614370880367138
133,5.8576378548990045,6.725412118864192,5.929380952359455,6.7865993134346425,-6.786599313434643,-0.9289614585356389,-0.857218361075188,-0.8677742639651878
134,5.819869023802666,6.7566465432276095,5.8344425931596735,6.771701447121126,-6.771701447121127,-0.9518324233184607,-0.9372588539614535,-0.9367775194249435
135,5.772475706981069,6.776524686367895,5.730344365664301,6.745757346105629,-6.74575734610563,-0.9732816391245604,-1.0154129804413285,-1.0040489793868261
137,5.6426503107183335,6.741918386167315,5.613388107423608,6.704884997482369,-6.704884997482368,-1.0622346867640342,-1.0914968900587594,-1.0992680754489812
138,5.555620987599318,6.717399019537339,5.480655779977136,6.645969437175808,-6.645969437175808,-1.0903484495764895,-1.1653136571986717,-1.161778031938021
140,5.330990925858859,6.579940756339624,5.331182780588291,6.5678758031195015,-6.567875803119501,-1.2368848772606418,-1.2366930225312096,-1.2489498304807656
141,5.245643567015589,6.55235328886163,5.166885768081793,6.4724089810393615,-6.4724089810393615,-1.226765414023772,-1.305523212957569,-1.3067097218460408
142,5.040805390915931,6.403424045260611,4.9929899684674055,6.364752300655791,-6.364752300655794,-1.3239469097398624,-1.3717623321883883,-1.3626186543446788
144,4.759382975433147,6.198706350460545,4.817814477543887,6.253240696114302,-6.253240696114301,-1.493857720681154,-1.4354262185704139,-1.4393233750273977
145,4.692665694657377,6.18331949924702,4.6519081337684955,6.148468064846852,-6.148468064846852,-1.455802370189475,-1.4965599310783562,-1.4906538045896425
147,4.4441866192361115,6.004429773626961,4.506648245589303,6.061854479343396,-6.061854479343396,-1.617667860107285,-1.5552062337540935,-1.5602431543908493
148,4.344063427891222,5.9512407923146995,4.392501761326342,6.003885915854198,-6.003885915854197,-1.659822487962975,-1.6113841545278556,-1.6071773644234773
150,4.264946807831772,5.9350307451263,4.317204212012925,5.98228894888951,-5.982288948889511,-1.7173421410577383,-1.6650847368765858,-1.6700839372945269
151,4.2236568489526825,5.936408686494998,4.284145028236143,6.000427472979938,-6.00042747297994,-1.7767706240272574,-1.716282444743797,-1.7127518375423154
153,4.223927153642759,5.993239359281587,4.291256826726013,6.056210475730928,-6.056210475730926,-1.8322833220881671,-1.7649536490049131,-1.769312205638828
154,4.224458799017381,6.032199411873782,4.330675337049505,6.141766705247353,-6.1417667052473535,-1.917307906229972,-1.8110913681978484,-1.8077406128564002
156,4.344224609226889,6.2023813065027,4.38934488370645,6.244053370343701,-6.2440533703437,-1.8998287611168108,-1.85470848663725,-1.8581566972758106
157,4.46785612390102,6.360109221600595,4.4505831592840535,6.346411185526753,-6.34641118552675,-1.8785550616257298,-1.8958280262426968,-1.8922530976995748
159,4.560983399857153,6.497578244534129,4.49640874610626,6.430874222046214,-6.430874222046213,-1.8698908221890598,-1.9344654759399527,-1.9365948446769763
160,4.628298090565663,6.59447139362476,4.510227244103936,6.480839132009019,-6.4808391320090175,-1.852541041443354,-1.9706118879050818,-1.9661733030590969
162,4.581700394912637,6.586125494129142,4.479338009432717,6.483564126116724,-6.483564126116724,-1.9018637312040862,-2.0042261166840065,-2.0044250992165047
164,4.461444762752721,6.500641175300854,4.396724647443216,6.431965154115968,-6.431965154115967,-1.9705203913632463,-2.035240506672751,-2.039196412548133
