frequency,raw,smoothed,error,error_smoothed,equalization,parametric_eq,fixed_band_eq,equalized_raw,equalized_smoothed,target
20.00,3.25,3.25,-5.36,-5.36,5.36,4.89,1.97,8.61,8.61,8.61
20.20,3.29,3.29,-5.32,-5.32,5.32,4.88,2.03,8.61,8.61,8.61
20.40,3.33,3.33,-5.28,-5.28,5.28,4.88,2.08,8.61,8.61,8.61
20.61,3.38,3.37,-5.23,-5.23,5.24,4.87,2.15,8.62,8.61,8.61
20.81,3.41,3.41,-5.20,-5.20,5.20,4.86,2.21,8.61,8.61,8.61
21.02,3.45,3.45,-5.16,-5.16,5.16,4.85,2.27,8.61,8.61,8.61
21.23,3.48,3.48,-5.13,-5.13,5.13,4.84,2.34,8.61,8.61,8.61
21.44,3.51,3.51,-5.10,-5.09,5.10,4.83,2.41,8.61,8.61,8.61
21.66,3.54,3.54,-5.07,-5.07,5.07,4.83,2.48,8.61,8.61,8.61
21.87,3.56,3.56,-5.04,-5.04,5.05,4.82,2.55,8.61,8.61,8.61
22.09,3.58,3.58,-5.02,-5.02,5.02,4.81,2.63,8.60,8.60,8.60
22.31,3.60,3.60,-5.00,-5.00,5.00,4.80,2.70,8.60,8.60,8.60
22.54,3.63,3.63,-4.97,-4.97,4.97,4.79,2.78,8.60,8.60,8.60
22.76,3.65,3.65,-4.95,-4.95,4.95,4.78,2.86,8.60,8.60,8.60
22.99,3.68,3.68,-4.92,-4.92,4.92,4.77,2.94,8.60,8.60,8.60
23.22,3.70,3.70,-4.90,-4.90,4.90,4.76,3.03,8.60,8.60,8.60
23.45,3.73,3.73,-4.87,-4.87,4.87,4.75,3.11,8.60,8.60,8.60
23.69,3.76,3.76,-4.84,-4.84,4.84,4.74,3.20,8.60,8.60,8.60
23.92,3.78,3.78,-4.82,-4.81,4.82,4.73,3.29,8.60,8.60,8.60
24.16,3.81,3.81,-4.78,-4.79,4.79,4.72,3.38,8.60,8.60,8.60
24.40,3.83,3.83,-4.76,-4.76,4.76,4.71,3.48,8.59,8.59,8.59
24.65,3.85,3.85,-4.74,-4.74,4.74,4.70,3.57,8.59,8.59,8.59
24.89,3.88,3.88,-4.71,-4.71,4.71,4.69,3.67,8.59,8.59,8.59
25.14,3.90,3.90,-4.69,-4.69,4.68,4.68,3.76,8.59,8.59,8.59
25.39,3.93,3.93,-4.66,-4.66,4.66,4.67,3.86,8.59,8.59,8.59
25.65,3.95,3.95,-4.64,-4.63,4.63,4.66,3.96,8.58,8.59,8.59
25.91,3.98,3.98,-4.61,-4.60,4.61,4.65,4.05,8.59,8.59,8.59
26.16,4.01,4.01,-4.57,-4.58,4.58,4.63,4.15,8.59,8.59,8.58
26.43,4.03,4.03,-4.55,-4.55,4.56,4.62,4.25,8.59,8.59,8.58
26.69,4.05,4.05,-4.53,-4.53,4.53,4.61,4.34,8.58,8.58,8.58
26.96,4.07,4.07,-4.51,-4.51,4.51,4.60,4.44,8.58,8.58,8.58
27.23,4.09,4.09,-4.49,-4.49,4.49,4.59,4.53,8.58,8.58,8.58
27.50,4.10,4.10,-4.47,-4.47,4.47,4.57,4.62,8.57,8.58,8.58
27.77,4.12,4.12,-4.45,-4.45,4.45,4.56,4.70,8.57,8.57,8.57
28.05,4.14,4.14,-4.43,-4.44,4.43,4.55,4.79,8.57,8.57,8.57
28.33,4.15,4.15,-4.42,-4.42,4.41,4.53,4.87,8.56,8.57,8.57
28.62,4.17,4.17,-4.40,-4.40,4.39,4.52,4.94,8.57,8.57,8.57
28.90,4.19,4.19,-4.37,-4.38,4.38,4.51,5.01,8.57,8.57,8.57
29.19,4.21,4.21,-4.35,-4.35,4.36,4.49,5.08,8.57,8.57,8.56
29.48,4.22,4.22,-4.34,-4.34,4.34,4.48,5.13,8.56,8.56,8.56
29.78,4.24,4.24,-4.32,-4.32,4.32,4.47,5.18,8.56,8.56,8.56
30.08,4.25,4.25,-4.30,-4.30,4.30,4.45,5.23,8.55,8.55,8.56
30.38,4.27,4.27,-4.28,-4.28,4.28,4.44,5.27,8.55,8.55,8.55
30.68,4.28,4.28,-4.27,-4.27,4.26,4.42,5.29,8.54,8.55,8.55
30.99,4.30,4.30,-4.25,-4.25,4.24,4.41,5.32,8.54,8.54,8.55
31.30,4.32,4.32,-4.22,-4.22,4.22,4.39,5.33,8.54,8.54,8.54
31.61,4.34,4.34,-4.20,-4.20,4.20,4.38,5.34,8.54,8.54,8.54
31.93,4.36,4.36,-4.18,-4.18,4.18,4.36,5.34,8.54,8.54,8.54
32.24,4.37,4.37,-4.16,-4.16,4.16,4.35,5.33,8.53,8.54,8.53
32.57,4.39,4.39,-4.14,-4.14,4.14,4.33,5.31,8.53,8.53,8.53
32.89,4.40,4.40,-4.13,-4.12,4.12,4.32,5.29,8.52,8.52,8.53
33.22,4.42,4.42,-4.10,-4.10,4.10,4.30,5.26,8.52,8.52,8.52
33.55,4.43,4.43,-4.09,-4.09,4.08,4.28,5.22,8.52,8.52,8.52
33.89,4.45,4.45,-4.06,-4.07,4.07,4.27,5.18,8.52,8.52,8.51
34.23,4.46,4.46,-4.05,-4.05,4.05,4.25,5.14,8.51,8.51,8.51
34.57,4.48,4.48,-4.03,-4.03,4.03,4.23,5.08,8.51,8.51,8.51
34.92,4.49,4.49,-4.01,-4.01,4.01,4.22,5.03,8.50,8.50,8.50
35.27,4.50,4.50,-4.00,-4.00,3.99,4.20,4.97,8.49,8.50,8.50
35.62,4.51,4.51,-3.98,-3.98,3.98,4.18,4.91,8.49,8.49,8.49
35.97,4.53,4.53,-3.96,-3.96,3.96,4.16,4.84,8.49,8.49,8.49
36.33,4.54,4.54,-3.94,-3.94,3.94,4.14,4.78,8.48,8.48,8.48
36.70,4.55,4.55,-3.93,-3.92,3.93,4.13,4.71,8.48,8.48,8.48
37.06,4.56,4.56,-3.91,-3.91,3.91,4.11,4.64,8.47,8.47,8.47
37.43,4.57,4.57,-3.89,-3.89,3.89,4.09,4.57,8.46,8.46,8.46
37.81,4.58,4.58,-3.88,-3.88,3.88,4.07,4.50,8.46,8.46,8.46
38.19,4.59,4.59,-3.86,-3.86,3.86,4.05,4.43,8.45,8.45,8.45
38.57,4.60,4.60,-3.85,-3.85,3.84,4.03,4.37,8.45,8.45,8.45
38.95,4.61,4.61,-3.83,-3.83,3.83,4.01,4.30,8.44,8.44,8.44
39.34,4.62,4.62,-3.81,-3.81,3.81,3.99,4.23,8.43,8.43,8.43
39.74,4.63,4.63,-3.79,-3.79,3.79,3.97,4.17,8.42,8.42,8.42
40.14,4.64,4.64,-3.78,-3.78,3.78,3.95,4.11,8.42,8.42,8.42
40.54,4.65,4.65,-3.76,-3.76,3.76,3.93,4.05,8.41,8.41,8.41
40.94,4.66,4.66,-3.74,-3.74,3.74,3.90,3.99,8.40,8.40,8.40
41.35,4.67,4.67,-3.72,-3.73,3.73,3.88,3.94,8.40,8.39,8.39
41.76,4.67,4.67,-3.71,-3.71,3.71,3.86,3.88,8.38,8.38,8.38
42.18,4.68,4.68,-3.69,-3.69,3.69,3.84,3.83,8.37,8.37,8.37
42.60,4.69,4.69,-3.67,-3.67,3.67,3.82,3.79,8.37,8.37,8.37
43.03,4.70,4.70,-3.66,-3.66,3.66,3.79,3.74,8.36,8.36,8.36
43.46,4.71,4.71,-3.63,-3.64,3.64,3.77,3.70,8.35,8.35,8.35
43.90,4.71,4.71,-3.62,-3.62,3.62,3.75,3.66,8.33,8.33,8.34
44.33,4.72,4.72,-3.60,-3.60,3.60,3.72,3.62,8.32,8.32,8.32
44.78,4.73,4.73,-3.58,-3.58,3.58,3.70,3.59,8.31,8.31,8.31
45.23,4.74,4.74,-3.56,-3.56,3.56,3.67,3.56,8.30,8.30,8.30
45.68,4.74,4.74,-3.55,-3.54,3.54,3.65,3.53,8.29,8.29,8.29
46.13,4.75,4.75,-3.53,-3.53,3.53,3.62,3.51,8.28,8.28,8.28
46.60,4.76,4.76,-3.50,-3.51,3.51,3.60,3.49,8.27,8.26,8.26
47.06,4.76,4.76,-3.49,-3.49,3.49,3.57,3.47,8.25,8.25,8.25
47.53,4.77,4.77,-3.47,-3.47,3.47,3.55,3.45,8.24,8.24,8.24
48.01,4.77,4.77,-3.45,-3.45,3.45,3.52,3.43,8.22,8.22,8.22
48.49,4.77,4.77,-3.44,-3.44,3.44,3.49,3.42,8.21,8.21,8.21
48.97,4.77,4.77,-3.42,-3.42,3.42,3.47,3.41,8.19,8.19,8.19
49.46,4.77,4.77,-3.41,-3.40,3.40,3.44,3.40,8.17,8.17,8.18
49.96,4.78,4.78,-3.38,-3.38,3.38,3.41,3.40,8.16,8.16,8.16
50.46,4.78,4.78,-3.36,-3.36,3.36,3.38,3.39,8.14,8.14,8.14
50.96,4.79,4.79,-3.34,-3.34,3.34,3.35,3.39,8.13,8.13,8.13
51.47,4.79,4.79,-3.32,-3.32,3.32,3.32,3.39,8.11,8.11,8.11
51.99,4.79,4.79,-3.30,-3.29,3.30,3.29,3.39,8.09,8.09,8.09
52.51,4.80,4.80,-3.27,-3.27,3.27,3.26,3.39,8.07,8.07,8.07
53.03,4.80,4.80,-3.25,-3.25,3.25,3.23,3.39,8.05,8.05,8.05
53.56,4.80,4.80,-3.23,-3.23,3.23,3.20,3.39,8.03,8.03,8.03
54.10,4.80,4.80,-3.21,-3.21,3.21,3.17,3.39,8.01,8.01,8.01
54.64,4.80,4.80,-3.19,-3.19,3.18,3.14,3.39,7.98,7.98,7.99
55.18,4.80,4.80,-3.16,-3.16,3.15,3.11,3.39,7.95,7.96,7.96
55.74,4.81,4.81,-3.13,-3.13,3.13,3.08,3.39,7.94,7.93,7.94
56.29,4.81,4.81,-3.11,-3.10,3.10,3.04,3.39,7.91,7.91,7.92
56.86,4.82,4.82,-3.07,-3.07,3.08,3.01,3.39,7.90,7.90,7.89
57.42,4.83,4.83,-3.03,-3.04,3.05,2.97,3.38,7.88,7.88,7.87
58.00,4.83,4.83,-3.01,-3.01,3.03,2.94,3.37,7.86,7.86,7.84
58.58,4.82,4.82,-2.99,-2.99,3.00,2.91,3.36,7.82,7.82,7.81
59.16,4.81,4.80,-2.97,-2.98,2.97,2.87,3.35,7.78,7.77,7.78
59.76,4.78,4.79,-2.97,-2.96,2.94,2.83,3.33,7.72,7.73,7.76
60.35,4.79,4.80,-2.93,-2.93,2.90,2.80,3.32,7.69,7.70,7.73
60.96,4.82,4.83,-2.87,-2.87,2.86,2.76,3.29,7.68,7.69,7.69
61.57,4.87,4.86,-2.79,-2.81,2.83,2.72,3.27,7.70,7.68,7.66
62.18,4.88,4.87,-2.75,-2.76,2.78,2.68,3.24,7.66,7.65,7.63
62.80,4.86,4.87,-2.74,-2.73,2.74,2.65,3.21,7.60,7.61,7.60
63.43,4.86,4.86,-2.70,-2.70,2.70,2.61,3.17,7.56,7.56,7.56
64.07,4.86,4.86,-2.67,-2.67,2.65,2.57,3.13,7.52,7.52,7.53
64.71,4.87,4.87,-2.62,-2.62,2.62,2.53,3.08,7.49,7.49,7.49
65.35,4.87,4.87,-2.58,-2.58,2.58,2.49,3.04,7.45,7.45,7.45
66.01,4.88,4.87,-2.54,-2.54,2.55,2.44,2.99,7.43,7.42,7.42
66.67,4.87,4.87,-2.51,-2.50,2.51,2.40,2.93,7.38,7.38,7.38
67.33,4.87,4.87,-2.47,-2.47,2.47,2.36,2.87,7.34,7.34,7.34
68.01,4.87,4.87,-2.43,-2.43,2.43,2.32,2.81,7.30,7.29,7.30
68.69,4.86,4.86,-2.39,-2.39,2.39,2.27,2.75,7.25,7.25,7.25
69.37,4.86,4.86,-2.35,-2.35,2.35,2.23,2.68,7.21,7.21,7.21
70.07,4.86,4.86,-2.31,-2.31,2.31,2.18,2.61,7.17,7.16,7.17
70.77,4.86,4.86,-2.26,-2.26,2.26,2.14,2.54,7.12,7.12,7.12
71.48,4.86,4.86,-2.22,-2.22,2.22,2.09,2.47,7.08,7.08,7.08
72.19,4.86,4.86,-2.17,-2.17,2.17,2.05,2.40,7.03,7.03,7.03
72.91,4.85,4.85,-2.13,-2.13,2.13,2.00,2.32,6.98,6.98,6.98
73.64,4.85,4.85,-2.08,-2.08,2.08,1.95,2.25,6.93,6.93,6.93
74.38,4.84,4.84,-2.04,-2.04,2.04,1.90,2.17,6.88,6.88,6.88
75.12,4.84,4.84,-1.99,-1.99,1.99,1.85,2.09,6.83,6.83,6.83
75.87,4.84,4.84,-1.94,-1.94,1.94,1.80,2.01,6.78,6.78,6.78
76.63,4.83,4.83,-1.89,-1.89,1.89,1.75,1.93,6.72,6.73,6.72
77.40,4.83,4.83,-1.84,-1.84,1.84,1.70,1.85,6.67,6.67,6.67
78.17,4.83,4.83,-1.78,-1.79,1.79,1.65,1.77,6.62,6.61,6.61
78.95,4.82,4.82,-1.74,-1.73,1.74,1.60,1.70,6.56,6.56,6.56
79.74,4.82,4.82,-1.68,-1.68,1.68,1.55,1.62,6.50,6.50,6.50
80.54,4.82,4.82,-1.62,-1.63,1.63,1.49,1.54,6.45,6.44,6.44
81.35,4.81,4.81,-1.57,-1.57,1.57,1.44,1.46,6.38,6.38,6.38
82.16,4.80,4.81,-1.52,-1.52,1.52,1.39,1.38,6.32,6.32,6.32
82.98,4.80,4.80,-1.46,-1.46,1.46,1.33,1.31,6.26,6.26,6.26
83.81,4.80,4.80,-1.40,-1.40,1.40,1.28,1.23,6.20,6.20,6.20
84.65,4.79,4.79,-1.35,-1.34,1.35,1.22,1.15,6.14,6.14,6.14
85.50,4.79,4.79,-1.28,-1.29,1.29,1.17,1.08,6.08,6.07,6.07
86.35,4.78,4.78,-1.23,-1.23,1.23,1.11,1.00,6.01,6.01,6.01
87.22,4.77,4.77,-1.17,-1.17,1.17,1.06,0.93,5.94,5.94,5.94
88.09,4.77,4.77,-1.11,-1.11,1.11,1.00,0.85,5.88,5.88,5.88
88.97,4.76,4.76,-1.05,-1.05,1.05,0.94,0.78,5.81,5.81,5.81
89.86,4.76,4.76,-0.98,-0.99,0.99,0.89,0.71,5.75,5.75,5.74
90.76,4.75,4.75,-0.93,-0.93,0.93,0.83,0.64,5.68,5.68,5.68
91.66,4.74,4.74,-0.87,-0.87,0.87,0.77,0.56,5.61,5.61,5.61
92.58,4.72,4.73,-0.82,-0.81,0.81,0.71,0.49,5.53,5.53,5.54
93.51,4.72,4.72,-0.75,-0.75,0.75,0.66,0.42,5.47,5.47,5.47
94.44,4.72,4.72,-0.68,-0.68,0.68,0.60,0.35,5.40,5.40,5.40
95.39,4.71,4.71,-0.62,-0.62,0.62,0.54,0.28,5.33,5.33,5.33
96.34,4.70,4.70,-0.56,-0.56,0.56,0.48,0.22,5.26,5.26,5.26
97.30,4.68,4.69,-0.50,-0.50,0.50,0.42,0.15,5.18,5.18,5.19
98.28,4.68,4.68,-0.43,-0.43,0.43,0.36,0.08,5.11,5.11,5.11
99.26,4.67,4.67,-0.37,-0.37,0.37,0.31,0.01,5.04,5.04,5.04
100.25,4.67,4.66,-0.30,-0.30,0.31,0.25,-0.05,4.98,4.97,4.97
101.25,4.65,4.65,-0.25,-0.24,0.24,0.19,-0.12,4.89,4.90,4.90
102.27,4.64,4.64,-0.18,-0.18,0.18,0.13,-0.18,4.82,4.82,4.82
103.29,4.63,4.63,-0.12,-0.12,0.12,0.07,-0.24,4.75,4.75,4.75
104.32,4.62,4.62,-0.06,-0.06,0.05,0.02,-0.31,4.67,4.67,4.68
105.37,4.61,4.61,0.01,0.01,-0.01,-0.04,-0.37,4.60,4.60,4.60
106.42,4.60,4.60,0.07,0.07,-0.07,-0.10,-0.43,4.53,4.53,4.53
107.48,4.59,4.59,0.13,0.13,-0.13,-0.15,-0.49,4.46,4.46,4.46
108.56,4.58,4.58,0.20,0.19,-0.19,-0.21,-0.54,4.39,4.39,4.39
109.64,4.56,4.56,0.25,0.25,-0.25,-0.27,-0.60,4.31,4.31,4.31
110.74,4.54,4.54,0.30,0.30,-0.31,-0.32,-0.66,4.23,4.24,4.24
111.85,4.53,4.53,0.36,0.36,-0.36,-0.37,-0.71,4.17,4.17,4.17
112.97,4.51,4.51,0.41,0.42,-0.42,-0.43,-0.76,4.09,4.10,4.10
114.10,4.50,4.50,0.48,0.47,-0.47,-0.48,-0.81,4.03,4.03,4.02
115.24,4.48,4.48,0.53,0.53,-0.53,-0.54,-0.86,3.95,3.95,3.95
116.39,4.46,4.46,0.58,0.58,-0.58,-0.59,-0.91,3.88,3.88,3.88
117.55,4.44,4.44,0.63,0.63,-0.64,-0.64,-0.95,3.81,3.81,3.81
118.73,4.43,4.43,0.69,0.69,-0.69,-0.69,-0.99,3.74,3.74,3.74
119.92,4.42,4.42,0.75,0.75,-0.74,-0.74,-1.03,3.68,3.67,3.67
121.12,4.40,4.40,0.80,0.80,-0.80,-0.79,-1.07,3.60,3.61,3.60
122.33,4.39,4.39,0.86,0.85,-0.85,-0.84,-1.10,3.54,3.54,3.54
123.55,4.37,4.37,0.90,0.91,-0.91,-0.89,-1.14,3.46,3.47,3.47
124.79,4.36,4.36,0.96,0.96,-0.96,-0.93,-1.16,3.40,3.40,3.40
126.03,4.35,4.35,1.02,1.02,-1.02,-0.98,-1.19,3.33,3.33,3.33
127.29,4.34,4.34,1.07,1.07,-1.07,-1.03,-1.22,3.27,3.27,3.27
128.57,4.33,4.33,1.13,1.13,-1.13,-1.07,-1.24,3.21,3.21,3.20
129.85,4.32,4.32,1.18,1.18,-1.18,-1.11,-1.26,3.14,3.14,3.14
131.15,4.31,4.31,1.23,1.23,-1.23,-1.16,-1.28,3.08,3.08,3.08
132.46,4.30,4.30,1.29,1.28,-1.28,-1.20,-1.30,3.02,3.02,3.02
133.79,4.28,4.28,1.33,1.33,-1.33,-1.24,-1.31,2.95,2.96,2.95
135.12,4.27,4.27,1.38,1.38,-1.38,-1.28,-1.32,2.89,2.90,2.89
136.48,4.26,4.26,1.43,1.42,-1.42,-1.32,-1.34,2.84,2.83,2.83
137.84,4.24,4.24,1.46,1.47,-1.47,-1.35,-1.35,2.77,2.78,2.78
139.22,4.22,4.22,1.50,1.51,-1.51,-1.39,-1.36,2.71,2.71,2.72
140.61,4.21,4.21,1.55,1.54,-1.55,-1.43,-1.36,2.66,2.65,2.66
142.02,4.19,4.20,1.58,1.59,-1.59,-1.46,-1.37,2.60,2.60,2.61
143.44,4.18,4.19,1.63,1.63,-1.63,-1.49,-1.38,2.55,2.56,2.55
144.87,4.18,4.17,1.68,1.67,-1.66,-1.53,-1.38,2.52,2.51,2.50
146.32,4.15,4.15,1.71,1.71,-1.70,-1.56,-1.39,2.45,2.45,2.45
147.78,4.12,4.13,1.73,1.73,-1.73,-1.59,-1.39,2.39,2.39,2.39
149.26,4.10,4.10,1.76,1.76,-1.77,-1.62,-1.40,2.33,2.33,2.34
150.75,4.08,4.08,1.79,1.79,-1.80,-1.64,-1.40,2.28,2.28,2.29
152.26,4.07,4.07,1.83,1.82,-1.83,-1.67,-1.41,2.24,2.24,2.24
153.78,4.05,4.05,1.85,1.86,-1.85,-1.70,-1.41,2.20,2.20,2.20
155.32,4.04,4.04,1.89,1.89,-1.88,-1.72,-1.42,2.16,2.16,2.15
156.88,4.02,4.02,1.92,1.91,-1.90,-1.75,-1.43,2.12,2.11,2.11
158.44,3.99,3.99,1.93,1.93,-1.93,-1.77,-1.43,2.06,2.06,2.06
160.03,3.95,3.96,1.93,1.94,-1.95,-1.79,-1.44,2.00,2.01,2.02
161.63,3.93,3.93,1.97,1.96,-1.97,-1.81,-1.45,1.96,1.96,1.97
163.24,3.91,3.91,1.99,1.99,-1.99,-1.83,-1.46,1.92,1.92,1.92
164.88,3.90,3.89,2.02,2.01,-2.01,-1.85,-1.47,1.89,1.89,1.88
166.53,3.87,3.87,2.03,2.03,-2.02,-1.86,-1.48,1.85,1.85,1.84
168.19,3.85,3.85,2.04,2.05,-2.04,-1.88,-1.50,1.81,1.81,1.81
169.87,3.83,3.83,2.06,2.06,-2.06,-1.90,-1.51,1.78,1.77,1.77
171.57,3.80,3.80,2.07,2.07,-2.07,-1.91,-1.53,1.73,1.73,1.73
173.29,3.77,3.77,2.07,2.07,-2.08,-1.92,-1.55,1.69,1.69,1.70
175.02,3.74,3.75,2.08,2.08,-2.09,-1.93,-1.57,1.65,1.66,1.66
176.77,3.73,3.73,2.10,2.10,-2.10,-1.95,-1.58,1.63,1.63,1.63
178.54,3.71,3.71,2.11,2.11,-2.11,-1.96,-1.61,1.60,1.60,1.60
180.32,3.69,3.69,2.13,2.12,-2.12,-1.96,-1.63,1.57,1.57,1.56
182.13,3.66,3.66,2.13,2.13,-2.13,-1.97,-1.65,1.54,1.54,1.53
183.95,3.63,3.64,2.13,2.13,-2.13,-1.98,-1.68,1.50,1.50,1.50
185.79,3.61,3.61,2.14,2.14,-2.14,-1.99,-1.70,1.47,1.47,1.47
187.65,3.59,3.59,2.14,2.14,-2.14,-1.99,-1.73,1.45,1.44,1.45
189.52,3.56,3.56,2.14,2.14,-2.14,-2.00,-1.76,1.42,1.42,1.42
191.42,3.53,3.54,2.14,2.14,-2.14,-2.00,-1.79,1.39,1.39,1.39
193.33,3.51,3.51,2.14,2.14,-2.15,-2.00,-1.82,1.37,1.36,1.37
195.27,3.49,3.49,2.15,2.15,-2.15,-2.00,-1.85,1.35,1.34,1.34
197.22,3.46,3.46,2.14,2.15,-2.14,-2.01,-1.89,1.32,1.32,1.32
199.19,3.44,3.44,2.15,2.14,-2.14,-2.01,-1.92,1.30,1.29,1.29
201.18,3.41,3.41,2.14,2.14,-2.14,-2.00,-1.95,1.27,1.27,1.27
203.19,3.38,3.39,2.13,2.14,-2.14,-2.00,-1.99,1.24,1.25,1.25
205.23,3.36,3.36,2.13,2.13,-2.14,-2.00,-2.02,1.23,1.22,1.23
207.28,3.34,3.34,2.14,2.13,-2.13,-2.00,-2.06,1.21,1.21,1.21
209.35,3.31,3.31,2.13,2.13,-2.13,-1.99,-2.09,1.18,1.19,1.19
211.44,3.29,3.29,2.12,2.12,-2.12,-1.99,-2.13,1.17,1.16,1.17
213.56,3.26,3.26,2.11,2.12,-2.12,-1.98,-2.16,1.14,1.15,1.15
215.69,3.24,3.24,2.11,2.11,-2.11,-1.98,-2.19,1.13,1.13,1.13
217.85,3.22,3.22,2.11,2.11,-2.11,-1.97,-2.23,1.11,1.11,1.11
220.03,3.19,3.19,2.10,2.10,-2.10,-1.96,-2.26,1.09,1.10,1.09
222.23,3.17,3.17,2.09,2.09,-2.09,-1.96,-2.28,1.08,1.08,1.08
224.45,3.14,3.14,2.08,2.08,-2.08,-1.95,-2.31,1.06,1.06,1.06
226.70,3.11,3.11,2.06,2.07,-2.06,-1.94,-2.34,1.05,1.05,1.05
228.96,3.08,3.08,2.05,2.05,-2.05,-1.93,-2.36,1.03,1.03,1.03
231.25,3.05,3.05,2.03,2.04,-2.03,-1.92,-2.38,1.02,1.02,1.02
233.57,3.02,3.02,2.02,2.02,-2.02,-1.90,-2.40,1.00,1.00,1.00
235.90,2.99,2.98,2.01,2.00,-2.00,-1.89,-2.41,0.99,0.98,0.98
238.26,2.94,2.95,1.97,1.98,-1.99,-1.88,-2.42,0.96,0.96,0.97
240.64,2.90,2.91,1.95,1.96,-1.97,-1.86,-2.42,0.93,0.95,0.95
243.05,2.90,2.89,1.96,1.95,-1.95,-1.85,-2.43,0.95,0.94,0.94
245.48,2.87,2.87,1.94,1.94,-1.93,-1.84,-2.43,0.94,0.94,0.93
247.93,2.84,2.84,1.92,1.92,-1.91,-1.82,-2.42,0.93,0.93,0.92
250.41,2.80,2.80,1.89,1.90,-1.89,-1.80,-2.41,0.91,0.91,0.91
252.92,2.77,2.77,1.87,1.87,-1.87,-1.79,-2.40,0.90,0.90,0.90
255.45,2.73,2.73,1.84,1.85,-1.85,-1.77,-2.38,0.88,0.88,0.89
258.00,2.70,2.70,1.82,1.83,-1.83,-1.75,-2.36,0.87,0.88,0.88
260.58,2.67,2.67,1.80,1.80,-1.80,-1.73,-2.33,0.87,0.87,0.87
263.19,2.64,2.64,1.78,1.78,-1.78,-1.71,-2.30,0.86,0.86,0.86
265.82,2.60,2.60,1.75,1.75,-1.75,-1.70,-2.27,0.85,0.85,0.85
268.48,2.56,2.57,1.72,1.73,-1.73,-1.68,-2.23,0.83,0.84,0.84
271.16,2.54,2.54,1.71,1.70,-1.70,-1.65,-2.19,0.84,0.83,0.83
273.87,2.51,2.50,1.69,1.68,-1.68,-1.63,-2.15,0.84,0.83,0.82
276.61,2.46,2.47,1.64,1.65,-1.65,-1.61,-2.10,0.81,0.82,0.82
279.38,2.43,2.43,1.62,1.62,-1.62,-1.59,-2.06,0.81,0.81,0.81
282.17,2.39,2.39,1.59,1.59,-1.59,-1.57,-2.01,0.80,0.80,0.80
284.99,2.36,2.36,1.55,1.56,-1.56,-1.54,-1.95,0.80,0.80,0.81
287.84,2.33,2.33,1.52,1.53,-1.53,-1.52,-1.90,0.80,0.80,0.81
290.72,2.30,2.30,1.50,1.50,-1.50,-1.50,-1.84,0.80,0.80,0.80
293.63,2.27,2.27,1.47,1.47,-1.47,-1.47,-1.78,0.80,0.81,0.80
296.57,2.24,2.24,1.44,1.44,-1.43,-1.45,-1.72,0.81,0.81,0.80
299.53,2.21,2.21,1.41,1.40,-1.40,-1.42,-1.66,0.81,0.81,0.80
302.53,2.16,2.16,1.36,1.36,-1.36,-1.39,-1.60,0.80,0.80,0.80
305.55,2.12,2.12,1.32,1.32,-1.32,-1.37,-1.54,0.80,0.80,0.80
308.61,2.07,2.08,1.27,1.28,-1.28,-1.34,-1.48,0.79,0.79,0.80
311.69,2.04,2.04,1.24,1.24,-1.24,-1.31,-1.42,0.80,0.80,0.80
314.81,2.01,2.00,1.21,1.20,-1.20,-1.28,-1.36,0.81,0.80,0.80
317.96,1.97,1.97,1.17,1.17,-1.17,-1.25,-1.29,0.80,0.81,0.80
321.14,1.93,1.93,1.13,1.13,-1.13,-1.22,-1.23,0.80,0.81,0.80
324.35,1.90,1.90,1.09,1.09,-1.09,-1.19,-1.17,0.81,0.81,0.81
327.59,1.86,1.86,1.05,1.05,-1.05,-1.16,-1.11,0.81,0.81,0.81
330.87,1.82,1.82,1.01,1.01,-1.01,-1.13,-1.05,0.81,0.81,0.81
334.18,1.79,1.79,0.98,0.98,-0.98,-1.10,-0.99,0.82,0.81,0.81
337.52,1.75,1.75,0.94,0.94,-0.93,-1.07,-0.93,0.82,0.81,0.81
340.90,1.71,1.71,0.89,0.89,-0.89,-1.04,-0.87,0.82,0.82,0.82
344.30,1.67,1.67,0.85,0.85,-0.85,-1.01,-0.81,0.82,0.82,0.82
347.75,1.64,1.64,0.81,0.81,-0.81,-0.97,-0.75,0.83,0.83,0.83
351.23,1.60,1.60,0.77,0.77,-0.77,-0.94,-0.69,0.83,0.83,0.83
354.74,1.56,1.56,0.72,0.72,-0.72,-0.90,-0.63,0.84,0.84,0.84
358.28,1.52,1.52,0.68,0.68,-0.68,-0.87,-0.57,0.84,0.84,0.84
361.87,1.49,1.49,0.64,0.64,-0.64,-0.83,-0.52,0.85,0.85,0.85
365.49,1.45,1.45,0.60,0.60,-0.60,-0.80,-0.46,0.85,0.85,0.86
369.14,1.41,1.41,0.56,0.56,-0.56,-0.76,-0.40,0.85,0.86,0.85
372.83,1.38,1.38,0.51,0.52,-0.52,-0.72,-0.35,0.86,0.86,0.87
376.56,1.35,1.35,0.48,0.48,-0.48,-0.69,-0.29,0.87,0.87,0.87
380.33,1.32,1.32,0.45,0.45,-0.44,-0.65,-0.24,0.88,0.87,0.88
384.13,1.28,1.28,0.41,0.41,-0.40,-0.61,-0.19,0.88,0.88,0.87
387.97,1.25,1.25,0.37,0.37,-0.37,-0.57,-0.13,0.88,0.89,0.88
391.85,1.22,1.22,0.32,0.33,-0.33,-0.53,-0.08,0.89,0.89,0.90
395.77,1.19,1.19,0.29,0.29,-0.29,-0.49,-0.03,0.90,0.90,0.90
399.73,1.15,1.15,0.25,0.25,-0.25,-0.45,0.02,0.90,0.90,0.90
403.72,1.11,1.11,0.20,0.21,-0.21,-0.41,0.07,0.90,0.91,0.91
407.76,1.08,1.08,0.17,0.16,-0.17,-0.37,0.12,0.92,0.91,0.91
411.84,1.04,1.04,0.12,0.12,-0.12,-0.33,0.17,0.92,0.92,0.92
415.96,1.01,1.01,0.08,0.08,-0.08,-0.28,0.22,0.93,0.92,0.93
420.12,0.97,0.97,0.04,0.04,-0.04,-0.24,0.27,0.93,0.93,0.93
424.32,0.93,0.93,-0.00,-0.00,0.00,-0.20,0.32,0.93,0.94,0.93
428.56,0.90,0.90,-0.04,-0.04,0.04,-0.15,0.36,0.94,0.94,0.94
432.85,0.86,0.86,-0.09,-0.09,0.09,-0.11,0.41,0.95,0.95,0.95
437.18,0.82,0.82,-0.13,-0.13,0.13,-0.06,0.45,0.95,0.95,0.95
441.55,0.79,0.79,-0.17,-0.17,0.17,-0.01,0.50,0.97,0.96,0.96
445.96,0.75,0.75,-0.22,-0.22,0.22,0.03,0.54,0.97,0.97,0.97
450.42,0.72,0.72,-0.27,-0.26,0.26,0.08,0.58,0.98,0.98,0.99
454.93,0.68,0.68,-0.31,-0.31,0.31,0.13,0.62,0.99,0.99,0.99
459.48,0.65,0.65,-0.35,-0.35,0.35,0.18,0.66,1.00,1.00,1.00
464.07,0.61,0.61,-0.39,-0.39,0.39,0.23,0.69,1.00,1.01,1.00
468.71,0.58,0.58,-0.43,-0.43,0.44,0.28,0.73,1.02,1.01,1.01
473.40,0.54,0.54,-0.48,-0.48,0.48,0.33,0.76,1.02,1.02,1.02
478.13,0.51,0.51,-0.52,-0.52,0.52,0.38,0.80,1.03,1.03,1.03
482.91,0.47,0.47,-0.57,-0.56,0.56,0.43,0.83,1.03,1.04,1.04
487.74,0.44,0.44,-0.61,-0.61,0.61,0.48,0.86,1.05,1.05,1.05
492.62,0.41,0.41,-0.65,-0.65,0.65,0.53,0.88,1.06,1.06,1.06
497.55,0.37,0.37,-0.69,-0.69,0.69,0.59,0.91,1.07,1.07,1.07
502.52,0.34,0.34,-0.73,-0.74,0.74,0.64,0.94,1.08,1.08,1.07
507.55,0.31,0.31,-0.78,-0.78,0.78,0.69,0.96,1.09,1.09,1.09
512.62,0.27,0.27,-0.83,-0.83,0.83,0.75,0.98,1.10,1.10,1.10
517.75,0.24,0.24,-0.87,-0.87,0.87,0.80,1.00,1.11,1.11,1.11
522.93,0.21,0.21,-0.91,-0.91,0.91,0.86,1.02,1.12,1.12,1.12
528.16,0.18,0.18,-0.95,-0.95,0.95,0.91,1.03,1.13,1.13,1.13
533.44,0.14,0.14,-1.00,-0.99,1.00,0.97,1.05,1.14,1.14,1.14
538.77,0.11,0.11,-1.03,-1.03,1.04,1.02,1.06,1.15,1.15,1.14
544.16,0.08,0.08,-1.08,-1.08,1.08,1.08,1.08,1.16,1.16,1.16
549.60,0.05,0.05,-1.12,-1.12,1.12,1.13,1.09,1.17,1.17,1.17
555.10,0.02,0.02,-1.17,-1.16,1.16,1.19,1.10,1.18,1.18,1.19
560.65,-0.01,-0.01,-1.21,-1.21,1.20,1.25,1.11,1.19,1.19,1.20
566.25,-0.04,-0.04,-1.25,-1.25,1.24,1.30,1.13,1.20,1.20,1.21
