frequency,raw,smoothed,error,error_smoothed,equalization,parametric_eq,fixed_band_eq,equalized_raw,equalized_smoothed,target
20.00,-10.52,-10.52,-17.03,-17.02,6.00,6.33,2.85,-4.52,-4.52,6.51
20.20,-10.41,-10.41,-16.94,-16.94,6.00,6.33,2.94,-4.41,-4.41,6.53
20.40,-10.29,-10.30,-16.85,-16.86,6.00,6.33,3.02,-4.29,-4.30,6.56
20.61,-10.18,-10.18,-16.77,-16.77,6.00,6.32,3.10,-4.18,-4.18,6.58
20.81,-10.06,-10.06,-16.67,-16.68,6.00,6.32,3.19,-4.06,-4.06,6.61
21.02,-9.95,-9.94,-16.59,-16.58,6.00,6.32,3.28,-3.95,-3.94,6.64
21.23,-9.81,-9.81,-16.46,-16.47,6.00,6.31,3.37,-3.81,-3.81,6.65
21.44,-9.68,-9.68,-16.34,-16.35,6.00,6.31,3.47,-3.68,-3.68,6.66
21.66,-9.55,-9.55,-16.22,-16.22,6.00,6.31,3.57,-3.55,-3.55,6.67
21.87,-9.42,-9.41,-16.09,-16.09,6.00,6.31,3.67,-3.42,-3.41,6.67
22.09,-9.27,-9.26,-15.95,-15.94,6.00,6.30,3.78,-3.27,-3.26,6.68
22.31,-9.10,-9.10,-15.78,-15.78,6.00,6.30,3.88,-3.10,-3.10,6.68
22.54,-8.93,-8.93,-15.61,-15.60,6.00,6.30,3.99,-2.93,-2.93,6.68
22.76,-8.77,-8.76,-15.45,-15.44,6.00,6.29,4.11,-2.77,-2.76,6.68
22.99,-8.60,-8.63,-15.27,-15.30,6.00,6.29,4.22,-2.60,-2.63,6.67
23.22,-8.53,-8.53,-15.20,-15.20,6.00,6.29,4.34,-2.53,-2.53,6.67
23.45,-8.47,-8.47,-15.14,-15.13,6.00,6.28,4.46,-2.47,-2.47,6.67
23.69,-8.41,-8.41,-15.08,-15.08,6.00,6.28,4.59,-2.41,-2.41,6.67
23.92,-8.35,-8.34,-15.01,-15.00,6.00,6.27,4.71,-2.35,-2.34,6.66
24.16,-8.24,-8.23,-14.91,-14.90,6.00,6.27,4.84,-2.24,-2.23,6.67
24.40,-8.11,-8.12,-14.78,-14.78,6.00,6.27,4.97,-2.11,-2.12,6.67
24.65,-7.98,-7.98,-14.64,-14.65,6.00,6.26,5.10,-1.98,-1.98,6.66
24.89,-7.86,-7.85,-14.52,-14.52,6.00,6.26,5.24,-1.86,-1.85,6.66
25.14,-7.73,-7.73,-14.39,-14.39,6.00,6.25,5.37,-1.73,-1.73,6.66
25.39,-7.61,-7.61,-14.27,-14.27,6.00,6.25,5.51,-1.61,-1.61,6.66
25.65,-7.49,-7.49,-14.15,-14.14,6.00,6.25,5.65,-1.49,-1.49,6.66
25.91,-7.37,-7.37,-14.02,-14.02,6.00,6.24,5.79,-1.37,-1.37,6.65
26.16,-7.25,-7.25,-13.89,-13.89,6.00,6.24,5.93,-1.25,-1.25,6.65
26.43,-7.12,-7.13,-13.77,-13.77,6.00,6.23,6.07,-1.12,-1.13,6.64
26.69,-7.00,-7.00,-13.64,-13.65,6.00,6.23,6.20,-1.00,-1.00,6.64
26.96,-6.87,-6.86,-13.51,-13.50,6.00,6.22,6.34,-0.87,-0.86,6.64
27.23,-6.69,-6.69,-13.33,-13.33,6.00,6.21,6.47,-0.69,-0.69,6.64
27.50,-6.49,-6.48,-13.13,-13.12,6.00,6.21,6.60,-0.49,-0.48,6.64
27.77,-6.30,-6.30,-12.93,-12.93,6.00,6.20,6.73,-0.30,-0.30,6.63
28.05,-6.14,-6.19,-12.77,-12.82,6.00,6.20,6.85,-0.14,-0.19,6.63
28.33,-6.17,-6.17,-12.79,-12.79,6.00,6.19,6.97,-0.17,-0.17,6.62
28.62,-6.19,-6.18,-12.80,-12.80,6.00,6.19,7.08,-0.19,-0.18,6.61
28.90,-6.21,-6.18,-12.82,-12.79,6.00,6.18,7.18,-0.21,-0.18,6.61
29.19,-6.10,-6.09,-12.70,-12.69,6.00,6.17,7.28,-0.10,-0.09,6.60
29.48,-5.93,-5.94,-12.54,-12.54,6.00,6.17,7.36,0.07,0.06,6.61
29.78,-5.75,-5.76,-12.35,-12.36,6.00,6.16,7.44,0.25,0.24,6.60
30.08,-5.58,-5.58,-12.18,-12.18,6.00,6.15,7.50,0.42,0.42,6.59
30.38,-5.42,-5.41,-12.01,-11.99,6.00,6.15,7.56,0.58,0.59,6.58
30.68,-5.26,-5.26,-11.84,-11.84,6.00,6.14,7.60,0.74,0.74,6.58
30.99,-5.11,-5.14,-11.68,-11.71,6.00,6.13,7.64,0.89,0.86,6.57
31.30,-5.07,-5.07,-11.64,-11.64,6.00,6.12,7.65,0.93,0.93,6.57
31.61,-5.04,-5.04,-11.60,-11.60,6.00,6.11,7.67,0.96,0.96,6.56
31.93,-5.01,-4.99,-11.56,-11.54,6.00,6.11,7.66,0.99,1.01,6.55
32.24,-4.91,-4.91,-11.45,-11.46,6.00,6.10,7.65,1.09,1.09,6.54
32.57,-4.78,-4.80,-11.32,-11.33,6.00,6.09,7.62,1.22,1.20,6.54
32.89,-4.66,-4.64,-11.19,-11.17,6.00,6.08,7.59,1.34,1.36,6.53
33.22,-4.47,-4.45,-10.99,-10.97,6.00,6.07,7.54,1.53,1.55,6.52
33.55,-4.25,-4.24,-10.77,-10.76,6.00,6.06,7.48,1.75,1.76,6.52
33.89,-4.02,-4.07,-10.53,-10.57,6.00,6.05,7.42,1.98,1.93,6.51
34.23,-3.95,-3.97,-10.45,-10.47,6.00,6.04,7.35,2.05,2.03,6.50
34.57,-3.96,-3.94,-10.45,-10.43,6.00,6.03,7.27,2.04,2.06,6.49
34.92,-3.96,-3.94,-10.44,-10.42,6.00,6.02,7.19,2.04,2.06,6.48
35.27,-3.92,-3.94,-10.39,-10.41,6.00,6.01,7.10,2.08,2.06,6.47
35.62,-3.87,-3.89,-10.33,-10.35,6.00,6.00,7.01,2.13,2.11,6.46
35.97,-3.82,-3.75,-10.26,-10.20,6.00,5.98,6.91,2.18,2.25,6.45
36.33,-3.54,-3.50,-9.98,-9.94,6.00,5.97,6.81,2.46,2.50,6.44
36.70,-3.23,-3.26,-9.66,-9.69,6.00,5.96,6.71,2.77,2.74,6.43
37.06,-3.00,-3.11,-9.42,-9.53,6.00,5.95,6.61,3.00,2.89,6.41
37.43,-3.11,-3.11,-9.52,-9.51,6.00,5.93,6.51,2.89,2.89,6.41
37.81,-3.22,-3.16,-9.62,-9.56,6.00,5.92,6.41,2.78,2.84,6.40
38.19,-3.21,-3.18,-9.59,-9.56,6.00,5.91,6.31,2.79,2.82,6.38
38.57,-3.06,-3.08,-9.44,-9.45,6.00,5.89,6.22,2.94,2.92,6.38
38.95,-2.92,-2.92,-9.28,-9.28,6.00,5.88,6.12,3.08,3.08,6.36
39.34,-2.76,-2.75,-9.11,-9.10,6.00,5.86,6.03,3.24,3.25,6.35
39.74,-2.60,-2.61,-8.93,-8.94,6.00,5.84,5.93,3.40,3.39,6.33
40.14,-2.48,-2.53,-8.81,-8.85,6.00,5.83,5.85,3.52,3.47,6.33
40.54,-2.46,-2.46,-8.77,-8.77,6.00,5.81,5.76,3.54,3.54,6.31
40.94,-2.43,-2.35,-8.73,-8.66,6.00,5.79,5.68,3.57,3.65,6.30
41.35,-2.21,-2.19,-8.50,-8.48,6.00,5.78,5.60,3.79,3.81,6.29
41.76,-1.95,-2.00,-8.23,-8.28,6.00,5.76,5.52,4.05,4.00,6.28
42.18,-1.83,-1.87,-8.11,-8.14,6.00,5.74,5.45,4.17,4.13,6.28
42.60,-1.87,-1.85,-8.13,-8.11,6.00,5.72,5.39,4.13,4.15,6.26
43.03,-1.91,-1.93,-8.16,-8.18,6.00,5.70,5.32,4.09,4.07,6.25
43.46,-1.97,-1.99,-8.21,-8.22,6.00,5.68,5.26,4.03,4.01,6.24
43.90,-2.03,-1.93,-8.24,-8.15,6.00,5.66,5.21,3.97,4.07,6.21
44.33,-1.82,-1.78,-8.01,-7.97,6.00,5.63,5.15,4.18,4.22,6.19
44.78,-1.53,-1.62,-7.70,-7.79,6.00,5.61,5.11,4.47,4.38,6.17
45.23,-1.46,-1.54,-7.61,-7.70,6.00,5.59,5.06,4.54,4.46,6.15
45.68,-1.60,-1.55,-7.73,-7.68,6.00,5.56,5.02,4.40,4.45,6.14
46.13,-1.64,-1.51,-7.75,-7.63,6.00,5.54,4.99,4.36,4.49,6.12
46.60,-1.44,-1.46,-7.55,-7.57,6.00,5.51,4.95,4.56,4.54,6.11
47.06,-1.31,-1.49,-7.40,-7.58,6.00,5.49,4.92,4.69,4.51,6.09
47.53,-1.59,-1.58,-7.66,-7.66,6.00,5.46,4.90,4.41,4.42,6.07
48.01,-1.86,-1.68,-7.92,-7.73,6.00,5.43,4.88,4.14,4.32,6.06
48.49,-1.66,-1.68,-7.69,-7.71,6.00,5.40,4.86,4.34,4.32,6.03
48.97,-1.46,-1.51,-7.45,-7.51,6.00,5.37,4.84,4.54,4.49,6.00
49.46,-1.32,-1.31,-7.28,-7.27,6.00,5.34,4.83,4.68,4.69,5.96
49.96,-1.17,-1.20,-7.10,-7.14,6.00,5.31,4.82,4.83,4.80,5.93
50.46,-1.13,-1.13,-7.05,-7.04,6.01,5.27,4.81,4.88,4.88,5.92
50.96,-1.10,-1.11,-7.00,-7.00,6.02,5.24,4.80,4.92,4.91,5.90
51.47,-1.06,-1.07,-6.92,-6.94,6.02,5.21,4.80,4.96,4.95,5.86
51.99,-1.02,-0.96,-6.86,-6.80,6.02,5.17,4.80,5.00,5.07,5.84
52.51,-0.77,-0.78,-6.60,-6.60,6.01,5.13,4.80,5.23,5.23,5.83
53.03,-0.52,-0.55,-6.32,-6.35,5.98,5.09,4.80,5.46,5.42,5.80
53.56,-0.33,-0.33,-6.11,-6.10,5.93,5.06,4.80,5.60,5.60,5.78
54.10,-0.15,-0.16,-5.90,-5.91,5.86,5.01,4.80,5.71,5.70,5.75
54.64,-0.04,-0.04,-5.77,-5.77,5.77,4.97,4.80,5.73,5.73,5.73
55.18,0.06,0.06,-5.64,-5.64,5.67,4.93,4.80,5.73,5.73,5.70
55.74,0.14,0.15,-5.53,-5.53,5.55,4.89,4.80,5.69,5.70,5.67
56.29,0.24,0.26,-5.41,-5.39,5.41,4.84,4.80,5.65,5.67,5.65
56.86,0.38,0.36,-5.25,-5.27,5.26,4.79,4.80,5.64,5.62,5.63
57.42,0.48,0.47,-5.12,-5.14,5.11,4.75,4.79,5.59,5.58,5.60
58.00,0.55,0.58,-5.03,-5.00,4.98,4.70,4.78,5.52,5.55,5.58
58.58,0.70,0.71,-4.86,-4.85,4.86,4.65,4.77,5.56,5.57,5.56
59.16,0.85,0.86,-4.69,-4.68,4.75,4.59,4.76,5.60,5.61,5.54
59.76,1.01,0.96,-4.51,-4.56,4.63,4.54,4.74,5.64,5.59,5.52
60.35,1.03,1.00,-4.46,-4.49,4.51,4.48,4.72,5.54,5.51,5.49
60.96,0.96,1.03,-4.50,-4.42,4.39,4.43,4.69,5.35,5.42,5.46
61.57,1.07,1.05,-4.35,-4.37,4.25,4.37,4.66,5.32,5.30,5.42
62.18,1.17,1.13,-4.22,-4.26,4.14,4.31,4.62,5.31,5.27,5.39
62.80,1.24,1.37,-4.12,-3.99,4.03,4.25,4.59,5.27,5.39,5.36
63.43,1.52,1.51,-3.81,-3.82,3.90,4.18,4.54,5.43,5.41,5.33
64.07,1.83,1.55,-3.47,-3.75,3.79,4.12,4.49,5.62,5.34,5.30
64.71,1.45,1.68,-3.82,-3.59,3.68,4.05,4.44,5.13,5.36,5.27
65.35,1.54,1.69,-3.70,-3.55,3.57,3.99,4.38,5.11,5.26,5.25
66.01,2.02,1.64,-3.20,-3.58,3.46,3.92,4.32,5.48,5.10,5.22
66.67,1.62,1.83,-3.57,-3.36,3.36,3.85,4.25,4.98,5.19,5.19
67.33,1.69,1.88,-3.47,-3.28,3.27,3.77,4.18,4.96,5.15,5.16
68.01,2.23,1.83,-2.90,-3.30,3.18,3.70,4.11,5.41,5.02,5.13
68.69,1.81,2.00,-3.29,-3.10,3.11,3.63,4.03,4.92,5.11,5.10
69.37,1.91,2.12,-3.15,-2.94,3.04,3.55,3.95,4.96,5.17,5.07
70.07,2.38,2.16,-2.65,-2.88,2.97,3.47,3.87,5.35,5.13,5.03
70.77,2.29,2.21,-2.72,-2.80,2.90,3.39,3.79,5.19,5.11,5.01
71.48,2.05,2.09,-2.92,-2.89,2.85,3.31,3.70,4.90,4.94,4.98
72.19,1.86,1.99,-3.08,-2.95,2.80,3.23,3.61,4.66,4.79,4.94
72.91,1.99,2.09,-2.91,-2.82,2.74,3.14,3.52,4.74,4.83,4.90
73.64,2.37,2.18,-2.50,-2.69,2.70,3.06,3.43,5.07,4.88,4.87
74.38,2.36,2.26,-2.48,-2.58,2.64,2.97,3.34,5.00,4.90,4.84
75.12,2.06,2.28,-2.74,-2.52,2.56,2.89,3.25,4.62,4.84,4.80
75.87,2.30,2.27,-2.47,-2.51,2.47,2.80,3.16,4.77,4.74,4.77
76.63,2.40,2.33,-2.34,-2.41,2.37,2.71,3.07,4.77,4.70,4.74
77.40,2.43,2.44,-2.28,-2.26,2.28,2.62,2.98,4.71,4.72,4.71
78.17,2.45,2.48,-2.22,-2.20,2.19,2.53,2.89,4.64,4.67,4.67
78.95,2.53,2.52,-2.12,-2.12,2.11,2.44,2.80,4.64,4.63,4.65
79.74,2.58,2.58,-2.03,-2.04,2.04,2.35,2.71,4.62,4.62,4.61
80.54,2.62,2.62,-1.96,-1.96,1.98,2.26,2.62,4.60,4.60,4.58
81.35,2.63,2.63,-1.91,-1.92,1.95,2.17,2.53,4.58,4.58,4.54
82.16,2.63,2.65,-1.88,-1.86,1.93,2.08,2.44,4.56,4.58,4.51
82.98,2.63,2.63,-1.85,-1.84,1.91,1.99,2.36,4.54,4.54,4.48
83.81,2.63,2.55,-1.81,-1.89,1.88,1.91,2.27,4.50,4.43,4.43
84.65,2.45,2.46,-1.95,-1.94,1.83,1.82,2.19,4.28,4.29,4.40
85.50,2.35,2.45,-2.02,-1.92,1.78,1.73,2.11,4.13,4.23,4.37
86.35,2.48,2.51,-1.85,-1.82,1.73,1.65,2.03,4.22,4.24,4.33
87.22,2.73,2.63,-1.56,-1.66,1.69,1.56,1.95,4.42,4.32,4.29
88.09,2.73,2.73,-1.52,-1.52,1.64,1.48,1.87,4.37,4.37,4.25
88.97,2.73,2.77,-1.49,-1.45,1.59,1.40,1.79,4.32,4.35,4.22
89.86,2.73,2.72,-1.45,-1.46,1.52,1.33,1.71,4.25,4.23,4.18
90.76,2.71,2.65,-1.41,-1.48,1.45,1.25,1.64,4.16,4.09,4.12
91.66,2.55,2.59,-1.54,-1.49,1.38,1.18,1.57,3.93,3.98,4.09
92.58,2.53,2.61,-1.51,-1.44,1.33,1.11,1.50,3.86,3.93,4.04
93.51,2.71,2.68,-1.30,-1.32,1.27,1.04,1.42,3.98,3.95,4.00
94.44,2.84,2.79,-1.12,-1.17,1.21,0.98,1.36,4.05,4.00,3.96
95.39,2.84,2.85,-1.08,-1.07,1.15,0.91,1.29,3.99,4.00,3.92
96.34,2.83,2.85,-1.03,-1.02,1.08,0.86,1.22,3.91,3.93,3.86
97.30,2.83,2.83,-0.99,-0.99,1.01,0.80,1.15,3.84,3.84,3.82
98.28,2.82,2.82,-0.95,-0.95,0.95,0.75,1.09,3.77,3.77,3.77
99.26,2.80,2.80,-0.93,-0.93,0.90,0.70,1.03,3.70,3.70,3.73
100.25,2.78,2.78,-0.90,-0.90,0.85,0.65,0.97,3.63,3.63,3.68
101.25,2.76,2.76,-0.87,-0.87,0.81,0.61,0.91,3.57,3.57,3.63
102.27,2.76,2.78,-0.83,-0.81,0.78,0.57,0.85,3.54,3.56,3.59
103.29,2.80,2.83,-0.73,-0.71,0.76,0.53,0.79,3.56,3.59,3.53
104.32,2.87,2.84,-0.62,-0.65,0.74,0.50,0.73,3.61,3.58,3.49
105.37,2.86,2.79,-0.59,-0.66,0.73,0.46,0.68,3.59,3.53,3.45
106.42,2.65,2.69,-0.75,-0.71,0.73,0.44,0.63,3.38,3.43,3.40
107.48,2.55,2.58,-0.81,-0.77,0.73,0.41,0.57,3.28,3.31,3.36
108.56,2.52,2.51,-0.78,-0.79,0.72,0.39,0.52,3.24,3.23,3.30
109.64,2.50,2.50,-0.75,-0.76,0.70,0.37,0.47,3.20,3.20,3.25
110.74,2.49,2.48,-0.72,-0.73,0.68,0.35,0.43,3.17,3.16,3.21
111.85,2.47,2.46,-0.69,-0.69,0.65,0.33,0.38,3.12,3.11,3.16
112.97,2.46,2.50,-0.64,-0.60,0.62,0.32,0.34,3.08,3.12,3.10
114.10,2.51,2.53,-0.54,-0.52,0.59,0.30,0.30,3.10,3.13,3.05
115.24,2.63,2.53,-0.37,-0.47,0.57,0.29,0.26,3.20,3.10,3.00
116.39,2.45,2.49,-0.49,-0.45,0.55,0.28,0.22,3.00,3.05,2.94
117.55,2.35,2.36,-0.54,-0.52,0.53,0.27,0.19,2.88,2.89,2.89
118.73,2.29,2.20,-0.54,-0.63,0.50,0.26,0.15,2.79,2.70,2.83
119.92,2.06,2.17,-0.73,-0.62,0.48,0.26,0.13,2.54,2.65,2.79
121.12,2.14,2.21,-0.60,-0.53,0.47,0.25,0.10,2.61,2.68,2.74
122.33,2.37,2.27,-0.32,-0.42,0.46,0.25,0.07,2.82,2.72,2.69
123.55,2.39,2.33,-0.25,-0.31,0.44,0.24,0.05,2.83,2.76,2.64
124.79,2.22,2.29,-0.37,-0.30,0.40,0.24,0.03,2.62,2.70,2.59
126.03,2.20,2.20,-0.34,-0.34,0.36,0.24,0.01,2.56,2.56,2.54
127.29,2.14,2.12,-0.35,-0.36,0.31,0.24,-0.01,2.45,2.43,2.49
128.57,2.09,2.08,-0.34,-0.36,0.28,0.24,-0.02,2.37,2.35,2.43
129.85,2.03,2.05,-0.35,-0.33,0.26,0.24,-0.03,2.29,2.31,2.38
131.15,2.04,2.10,-0.30,-0.24,0.25,0.24,-0.04,2.29,2.35,2.34
132.46,2.17,2.12,-0.12,-0.17,0.23,0.24,-0.05,2.40,2.35,2.29
133.79,2.20,2.11,-0.05,-0.13,0.20,0.24,-0.06,2.40,2.31,2.25
135.12,1.99,2.06,-0.21,-0.15,0.17,0.24,-0.06,2.16,2.22,2.20
136.48,1.95,1.98,-0.21,-0.18,0.15,0.24,-0.06,2.10,2.13,2.16
137.84,1.94,1.93,-0.18,-0.18,0.15,0.24,-0.06,2.09,2.08,2.12
139.22,1.95,1.94,-0.11,-0.13,0.15,0.24,-0.06,2.10,2.09,2.06
140.61,1.92,1.90,-0.10,-0.12,0.15,0.24,-0.06,2.07,2.05,2.02
142.02,1.85,1.85,-0.15,-0.14,0.14,0.25,-0.05,1.99,1.99,2.00
143.44,1.78,1.79,-0.18,-0.16,0.12,0.25,-0.05,1.90,1.91,1.96
144.87,1.75,1.75,-0.17,-0.17,0.10,0.25,-0.04,1.85,1.85,1.92
146.32,1.75,1.76,-0.13,-0.12,0.09,0.25,-0.03,1.84,1.86,1.88
147.78,1.77,1.81,-0.08,-0.04,0.09,0.26,-0.02,1.86,1.90,1.85
149.26,1.87,1.83,0.06,0.02,0.08,0.26,-0.01,1.95,1.91,1.81
150.75,1.82,1.75,0.06,-0.02,0.06,0.26,-0.00,1.88,1.81,1.76
152.26,1.63,1.63,-0.10,-0.10,0.05,0.27,0.01,1.68,1.67,1.73
153.78,1.42,1.57,-0.27,-0.12,0.04,0.27,0.02,1.46,1.61,1.69
155.32,1.57,1.56,-0.08,-0.09,0.04,0.27,0.03,1.61,1.61,1.65
156.88,1.72,1.58,0.11,-0.03,0.06,0.28,0.04,1.78,1.65,1.61
158.44,1.53,1.58,-0.04,0.01,0.09,0.28,0.06,1.62,1.66,1.57
160.03,1.45,1.48,-0.08,-0.05,0.09,0.29,0.07,1.54,1.57,1.53
161.63,1.38,1.37,-0.11,-0.12,0.09,0.29,0.08,1.47,1.45,1.49
163.24,1.32,1.31,-0.13,-0.14,0.08,0.30,0.10,1.40,1.40,1.45
164.88,1.25,1.26,-0.17,-0.16,0.10,0.30,0.11,1.35,1.35,1.42
166.53,1.23,1.24,-0.15,-0.13,0.12,0.31,0.12,1.35,1.36,1.38
168.19,1.23,1.27,-0.11,-0.07,0.13,0.31,0.14,1.36,1.39,1.34
169.87,1.29,1.24,-0.01,-0.06,0.12,0.32,0.15,1.41,1.37,1.30
171.57,1.24,1.16,-0.02,-0.11,0.11,0.33,0.17,1.35,1.27,1.26
173.29,0.99,1.06,-0.24,-0.17,0.11,0.33,0.18,1.10,1.17,1.23
175.02,0.94,1.01,-0.25,-0.17,0.12,0.34,0.20,1.06,1.14,1.19
176.77,1.04,1.02,-0.11,-0.12,0.14,0.35,0.21,1.18,1.16,1.15
178.54,1.13,1.06,0.03,-0.05,0.15,0.36,0.23,1.28,1.21,1.10
180.32,1.00,0.98,-0.07,-0.09,0.15,0.36,0.24,1.15,1.13,1.07
182.13,0.84,0.83,-0.20,-0.20,0.14,0.37,0.25,0.98,0.97,1.04
183.95,0.66,0.76,-0.34,-0.24,0.12,0.38,0.27,0.78,0.88,1.00
185.79,0.74,0.79,-0.22,-0.17,0.11,0.39,0.28,0.85,0.89,0.96
187.65,0.96,0.85,0.04,-0.08,0.10,0.40,0.30,1.06,0.95,0.92
189.52,0.91,0.89,0.02,-0.00,0.10,0.41,0.31,1.01,0.99,0.89
191.42,0.80,0.86,-0.06,-0.01,0.09,0.42,0.33,0.89,0.95,0.86
193.33,0.78,0.77,-0.06,-0.06,0.06,0.43,0.34,0.84,0.83,0.84
195.27,0.73,0.72,-0.08,-0.09,0.04,0.44,0.36,0.77,0.76,0.81
197.22,0.68,0.68,-0.10,-0.10,0.04,0.45,0.37,0.72,0.71,0.78
199.19,0.64,0.65,-0.10,-0.10,0.06,0.46,0.39,0.70,0.71,0.74
201.18,0.63,0.68,-0.10,-0.04,0.09,0.48,0.40,0.72,0.77,0.73
203.19,0.71,0.69,0.00,-0.02,0.11,0.49,0.42,0.82,0.80,0.71
205.23,0.73,0.62,0.05,-0.07,0.12,0.50,0.43,0.85,0.74,0.68
207.28,0.48,0.51,-0.20,-0.16,0.12,0.52,0.45,0.60,0.63,0.68
209.35,0.32,0.41,-0.33,-0.24,0.13,0.53,0.46,0.45,0.54,0.65
211.44,0.40,0.41,-0.23,-0.23,0.15,0.54,0.48,0.55,0.56,0.63
213.56,0.49,0.47,-0.14,-0.16,0.19,0.56,0.49,0.68,0.66,0.63
215.69,0.56,0.49,-0.06,-0.13,0.23,0.57,0.51,0.79,0.72,0.62
217.85,0.40,0.43,-0.21,-0.18,0.27,0.59,0.52,0.67,0.70,0.61
220.03,0.30,0.33,-0.30,-0.27,0.30,0.61,0.54,0.60,0.62,0.60
222.23,0.23,0.22,-0.36,-0.38,0.32,0.62,0.55,0.55,0.54,0.59
224.45,0.16,0.15,-0.43,-0.44,0.35,0.64,0.57,0.51,0.51,0.59
226.70,0.11,0.14,-0.48,-0.46,0.40,0.66,0.58,0.51,0.53,0.59
228.96,0.12,0.15,-0.47,-0.45,0.45,0.67,0.60,0.57,0.60,0.59
231.25,0.21,0.15,-0.39,-0.45,0.49,0.69,0.61,0.70,0.64,0.60
233.57,0.16,0.14,-0.44,-0.46,0.51,0.71,0.63,0.67,0.65,0.60
235.90,0.05,0.10,-0.55,-0.50,0.53,0.73,0.64,0.58,0.64,0.60
238.26,0.06,0.04,-0.54,-0.56,0.55,0.75,0.66,0.61,0.60,0.60
240.64,0.01,-0.01,-0.60,-0.62,0.58,0.77,0.67,0.59,0.57,0.61
243.05,-0.03,-0.02,-0.66,-0.65,0.61,0.79,0.68,0.58,0.59,0.63
245.48,-0.07,-0.02,-0.71,-0.66,0.65,0.81,0.70,0.58,0.63,0.64
247.93,0.01,-0.03,-0.64,-0.67,0.69,0.83,0.71,0.70,0.66,0.65
250.41,0.01,-0.04,-0.64,-0.70,0.72,0.86,0.73,0.73,0.68,0.65
252.92,-0.12,-0.06,-0.79,-0.74,0.75,0.88,0.74,0.63,0.69,0.67
255.45,-0.11,-0.10,-0.81,-0.79,0.79,0.90,0.76,0.68,0.68,0.70
258.00,-0.11,-0.13,-0.82,-0.84,0.83,0.92,0.77,0.72,0.70,0.71
260.58,-0.14,-0.15,-0.86,-0.88,0.88,0.95,0.79,0.74,0.73,0.72
263.19,-0.19,-0.18,-0.94,-0.92,0.94,0.97,0.80,0.75,0.76,0.75
265.82,-0.25,-0.22,-1.01,-0.99,1.00,1.00,0.82,0.75,0.78,0.76
268.48,-0.23,-0.28,-1.01,-1.06,1.07,1.02,0.83,0.84,0.79,0.78
271.16,-0.35,-0.33,-1.16,-1.14,1.14,1.05,0.85,0.79,0.81,0.81
273.87,-0.41,-0.37,-1.23,-1.20,1.21,1.07,0.86,0.80,0.84,0.82
276.61,-0.41,-0.44,-1.26,-1.28,1.27,1.10,0.88,0.86,0.84,0.85
279.38,-0.45,-0.48,-1.31,-1.34,1.33,1.13,0.89,0.88,0.85,0.86
282.17,-0.55,-0.51,-1.43,-1.39,1.36,1.16,0.91,0.81,0.85,0.88
284.99,-0.55,-0.53,-1.45,-1.43,1.39,1.18,0.93,0.84,0.86,0.90
287.84,-0.50,-0.54,-1.42,-1.45,1.40,1.21,0.95,0.90,0.87,0.92
290.72,-0.49,-0.47,-1.43,-1.41,1.42,1.24,0.96,0.93,0.94,0.94
293.63,-0.47,-0.42,-1.43,-1.38,1.42,1.27,0.98,0.95,1.01,0.96
296.57,-0.32,-0.42,-1.30,-1.40,1.43,1.30,1.00,1.11,1.02,0.98
299.53,-0.43,-0.43,-1.43,-1.43,1.45,1.33,1.02,1.02,1.02,1.00
302.53,-0.52,-0.43,-1.53,-1.45,1.47,1.36,1.04,0.95,1.04,1.01
305.55,-0.44,-0.47,-1.49,-1.51,1.50,1.39,1.06,1.06,1.04,1.05
308.61,-0.42,-0.49,-1.49,-1.56,1.54,1.42,1.08,1.12,1.05,1.07
311.69,-0.55,-0.52,-1.64,-1.62,1.60,1.45,1.11,1.05,1.08,1.09
314.81,-0.60,-0.54,-1.73,-1.67,1.65,1.48,1.13,1.05,1.11,1.13
317.96,-0.54,-0.55,-1.69,-1.70,1.70,1.51,1.16,1.16,1.15,1.15
321.14,-0.51,-0.58,-1.67,-1.75,1.76,1.55,1.18,1.25,1.18,1.16
324.35,-0.62,-0.61,-1.80,-1.80,1.81,1.58,1.21,1.19,1.20,1.18
327.59,-0.75,-0.65,-1.96,-1.86,1.87,1.61,1.23,1.12,1.22,1.21
330.87,-0.66,-0.72,-1.89,-1.95,1.93,1.64,1.26,1.27,1.21,1.23
334.18,-0.70,-0.76,-1.94,-2.00,1.99,1.67,1.29,1.29,1.24,1.24
337.52,-0.87,-0.76,-2.13,-2.02,2.06,1.71,1.32,1.19,1.30,1.26
340.90,-0.78,-0.82,-2.07,-2.10,2.11,1.74,1.35,1.33,1.30,1.29
344.30,-0.78,-0.86,-2.09,-2.17,2.14,1.77,1.39,1.36,1.28,1.30
347.75,-0.95,-0.88,-2.27,-2.20,2.16,1.80,1.42,1.21,1.29,1.32
351.23,-0.93,-0.90,-2.27,-2.24,2.17,1.84,1.45,1.24,1.27,1.34
354.74,-0.84,-0.89,-2.20,-2.25,2.18,1.87,1.49,1.34,1.29,1.36
358.28,-0.81,-0.81,-2.19,-2.18,2.20,1.90,1.53,1.39,1.40,1.38
361.87,-0.79,-0.72,-2.18,-2.11,2.22,1.93,1.57,1.43,1.50,1.39
365.49,-0.65,-0.72,-2.05,-2.12,2.23,1.96,1.60,1.58,1.51,1.40
369.14,-0.69,-0.79,-2.10,-2.21,2.23,1.99,1.64,1.54,1.44,1.41
372.83,-0.96,-0.87,-2.39,-2.29,2.24,2.02,1.69,1.28,1.37,1.43
376.56,-1.01,-0.92,-2.45,-2.36,2.25,2.05,1.73,1.24,1.33,1.44
380.33,-0.81,-0.88,-2.28,-2.34,2.26,2.08,1.77,1.45,1.38,1.46
384.13,-0.76,-0.79,-2.23,-2.26,2.27,2.11,1.82,1.51,1.49,1.47
387.97,-0.75,-0.74,-2.23,-2.22,2.29,2.14,1.86,1.54,1.55,1.48
391.85,-0.75,-0.75,-2.24,-2.24,2.29,2.17,1.91,1.54,1.54,1.49
395.77,-0.75,-0.75,-2.26,-2.25,2.28,2.19,1.95,1.53,1.53,1.51
399.73,-0.75,-0.75,-2.27,-2.27,2.26,2.22,2.00,1.51,1.51,1.52
403.72,-0.75,-0.75,-2.28,-2.28,2.25,2.25,2.05,1.50,1.50,1.53
407.76,-0.76,-0.76,-2.29,-2.30,2.25,2.27,2.09,1.49,1.49,1.53
411.84,-0.76,-0.77,-2.31,-2.32,2.27,2.29,2.14,1.51,1.50,1.55
415.96,-0.76,-0.73,-2.32,-2.29,2.30,2.32,2.19,1.54,1.57,1.56
420.12,-0.71,-0.69,-2.28,-2.26,2.33,2.34,2.24,1.62,1.64,1.57
424.32,-0.61,-0.68,-2.19,-2.26,2.37,2.36,2.29,1.76,1.69,1.58
428.56,-0.73,-0.74,-2.32,-2.33,2.40,2.38,2.33,1.67,1.66,1.59
432.85,-0.85,-0.86,-2.45,-2.46,2.43,2.40,2.38,1.58,1.57,1.60
437.18,-1.02,-0.95,-2.63,-2.56,2.45,2.41,2.42,1.43,1.50,1.61
441.55,-0.96,-0.95,-2.59,-2.57,2.46,2.43,2.47,1.50,1.51,1.63
445.96,-0.84,-0.88,-2.47,-2.51,2.45,2.44,2.51,1.61,1.57,1.63
450.42,-0.77,-0.78,-2.41,-2.42,2.43,2.46,2.55,1.66,1.66,1.64
454.93,-0.71,-0.70,-2.37,-2.36,2.41,2.47,2.59,1.70,1.70,1.66
459.48,-0.65,-0.65,-2.32,-2.33,2.37,2.48,2.62,1.72,1.72,1.67
464.07,-0.59,-0.58,-2.28,-2.27,2.33,2.49,2.66,1.74,1.75,1.69
468.71,-0.54,-0.53,-2.25,-2.24,2.29,2.50,2.69,1.75,1.76,1.71
473.40,-0.47,-0.54,-2.19,-2.27,2.27,2.51,2.72,1.80,1.72,1.72
478.13,-0.58,-0.55,-2.32,-2.29,2.25,2.52,2.74,1.67,1.70,1.74
482.91,-0.62,-0.54,-2.37,-2.30,2.24,2.53,2.76,1.62,1.69,1.75
487.74,-0.47,-0.51,-2.24,-2.27,2.23,2.53,2.78,1.76,1.72,1.77
492.62,-0.40,-0.43,-2.19,-2.21,2.21,2.54,2.80,1.81,1.79,1.79
497.55,-0.37,-0.36,-2.17,-2.16,2.20,2.54,2.81,1.83,1.83,1.80
502.52,-0.35,-0.34,-2.17,-2.16,2.18,2.55,2.82,1.83,1.84,1.82
507.55,-0.33,-0.33,-2.16,-2.16,2.17,2.55,2.82,1.84,1.84,1.83
512.62,-0.31,-0.31,-2.15,-2.16,2.16,2.55,2.82,1.85,1.85,1.84
517.75,-0.30,-0.30,-2.16,-2.17,2.16,2.55,2.82,1.86,1.86,1.86
522.93,-0.30,-0.30,-2.18,-2.18,2.18,2.55,2.82,1.88,1.88,1.88
