frequency,raw,error,smoothed,error_smoothed,equalization,parametric_eq,equalized_raw,equalized_smoothed,target
20,-7.88,-7.50,-7.87,-7.49,6.00,2.46,-1.88,-1.87,-0.38
21,-7.69,-7.30,-7.67,-7.28,6.00,2.83,-1.69,-1.67,-0.39
22,-7.44,-7.05,-7.46,-7.07,6.00,3.23,-1.44,-1.46,-0.39
23,-7.24,-6.84,-7.26,-6.85,6.00,3.66,-1.24,-1.26,-0.40
24,-7.02,-6.62,-7.05,-6.64,6.00,4.11,-1.02,-1.05,-0.40
25,-6.83,-6.42,-6.85,-6.43,6.00,4.57,-0.83,-0.85,-0.41
26,-6.64,-6.23,-6.64,-6.22,5.95,5.03,-0.69,-0.69,-0.42
27,-6.45,-6.03,-6.44,-6.01,5.86,5.45,-0.59,-0.58,-0.42
28,-6.27,-5.84,-6.24,-5.80,5.72,5.83,-0.55,-0.52,-0.43
29,-6.04,-5.61,-6.04,-5.60,5.56,6.11,-0.48,-0.48,-0.44
30,-5.86,-5.42,-5.84,-5.39,5.38,6.29,-0.49,-0.47,-0.44
31,-5.64,-5.19,-5.64,-5.18,5.18,6.35,-0.46,-0.46,-0.45
32,-5.45,-4.99,-5.44,-4.97,4.97,6.29,-0.48,-0.47,-0.46
33,-5.26,-4.79,-5.24,-4.76,4.76,6.14,-0.50,-0.48,-0.47
34,-5.05,-4.57,-5.04,-4.55,4.55,5.90,-0.50,-0.49,-0.48
35,-4.85,-4.36,-4.84,-4.34,4.34,5.60,-0.51,-0.50,-0.49
36,-4.63,-4.13,-4.65,-4.14,4.14,5.28,-0.49,-0.51,-0.50
37,-4.45,-3.94,-4.46,-3.94,3.94,4.94,-0.51,-0.52,-0.52
38,-4.26,-3.73,-4.28,-3.75,3.75,4.60,-0.51,-0.53,-0.53
39,-4.09,-3.55,-4.11,-3.57,3.57,4.26,-0.53,-0.54,-0.54
40,-3.92,-3.37,-3.94,-3.39,3.39,3.95,-0.53,-0.55,-0.55
41,-3.77,-3.20,-3.79,-3.22,3.22,3.64,-0.55,-0.57,-0.57
42,-3.62,-3.04,-3.64,-3.06,3.06,3.36,-0.56,-0.58,-0.58
43,-3.50,-2.90,-3.51,-2.91,2.91,3.09,-0.59,-0.60,-0.60
44,-3.38,-2.77,-3.39,-2.77,2.77,2.84,-0.61,-0.62,-0.62
45,-3.26,-2.63,-3.27,-2.64,2.64,2.60,-0.62,-0.64,-0.63
46,-3.16,-2.51,-3.17,-2.51,2.51,2.38,-0.65,-0.65,-0.65
47,-3.07,-2.40,-3.06,-2.39,2.39,2.18,-0.68,-0.67,-0.67
48,-2.98,-2.29,-2.97,-2.27,2.27,1.99,-0.71,-0.69,-0.69
49,-2.87,-2.16,-2.87,-2.16,2.16,1.81,-0.72,-0.72,-0.71
50,-2.78,-2.05,-2.78,-2.04,2.04,1.64,-0.74,-0.74,-0.73
51,-2.69,-1.94,-2.69,-1.93,1.93,1.48,-0.77,-0.76,-0.75
52,-2.61,-1.84,-2.59,-1.81,1.81,1.33,-0.80,-0.78,-0.77
53,-2.51,-1.72,-2.50,-1.70,1.70,1.19,-0.82,-0.80,-0.80
54,-2.41,-1.59,-2.41,-1.58,1.58,1.06,-0.83,-0.83,-0.82
55,-2.31,-1.47,-2.31,-1.46,1.46,0.94,-0.85,-0.85,-0.84
56,-2.23,-1.36,-2.22,-1.34,1.34,0.82,-0.89,-0.88,-0.87
57,-2.12,-1.23,-2.12,-1.22,1.22,0.71,-0.90,-0.90,-0.90
58,-2.03,-1.11,-2.03,-1.10,1.10,0.61,-0.93,-0.93,-0.92
59,-1.93,-0.98,-1.94,-0.98,0.98,0.52,-0.95,-0.95,-0.95
60,-1.84,-0.86,-1.84,-0.87,0.87,0.43,-0.98,-0.98,-0.98
61,-1.75,-0.75,-1.75,-0.75,0.75,0.34,-1.00,-1.00,-1.01
62,-1.65,-0.62,-1.67,-0.63,0.63,0.26,-1.02,-1.03,-1.03
63,-1.58,-0.52,-1.59,-0.52,0.52,0.19,-1.06,-1.06,-1.06
64,-1.51,-0.42,-1.51,-0.41,0.41,0.12,-1.10,-1.09,-1.09
65,-1.42,-0.30,-1.43,-0.30,0.30,0.06,-1.12,-1.13,-1.13
66,-1.35,-0.19,-1.36,-0.20,0.20,-0.00,-1.15,-1.16,-1.16
67,-1.28,-0.09,-1.29,-0.10,0.10,-0.06,-1.18,-1.19,-1.19
68,-1.21,0.01,-1.22,0.00,-0.00,-0.12,-1.21,-1.22,-1.22
69,-1.16,0.09,-1.16,0.10,-0.10,-0.17,-1.26,-1.26,-1.25
70,-1.10,0.19,-1.10,0.19,-0.19,-0.22,-1.30,-1.29,-1.29
71,-1.05,0.27,-1.04,0.29,-0.29,-0.27,-1.34,-1.32,-1.32
72,-0.98,0.37,-0.98,0.38,-0.38,-0.31,-1.36,-1.36,-1.36
73,-0.92,0.47,-0.92,0.47,-0.47,-0.36,-1.39,-1.39,-1.39
74,-0.87,0.55,-0.87,0.56,-0.56,-0.41,-1.43,-1.43,-1.42
75,-0.82,0.64,-0.82,0.64,-0.64,-0.45,-1.46,-1.46,-1.46
76,-0.77,0.72,-0.77,0.73,-0.73,-0.49,-1.50,-1.50,-1.49
77,-0.72,0.81,-0.72,0.81,-0.81,-0.54,-1.53,-1.53,-1.53
78,-0.67,0.89,-0.68,0.89,-0.89,-0.58,-1.56,-1.57,-1.57
79,-0.62,0.98,-0.64,0.97,-0.97,-0.63,-1.59,-1.60,-1.60
80,-0.60,1.04,-0.59,1.04,-1.04,-0.67,-1.65,-1.64,-1.64
81,-0.56,1.11,-0.56,1.12,-1.12,-0.72,-1.68,-1.68,-1.67
82,-0.51,1.20,-0.52,1.19,-1.19,-0.76,-1.70,-1.71,-1.71
83,-0.49,1.26,-0.49,1.26,-1.26,-0.81,-1.75,-1.75,-1.75
84,-0.46,1.32,-0.46,1.33,-1.33,-0.85,-1.79,-1.78,-1.78
85,-0.42,1.40,-0.43,1.39,-1.39,-0.90,-1.81,-1.82,-1.82
86,-0.42,1.43,-0.40,1.45,-1.45,-0.95,-1.88,-1.85,-1.86
87,-0.37,1.52,-0.38,1.51,-1.51,-1.00,-1.89,-1.89,-1.89
88,-0.37,1.56,-0.36,1.57,-1.57,-1.04,-1.94,-1.93,-1.93
89,-0.32,1.64,-0.34,1.63,-1.63,-1.09,-1.95,-1.97,-1.96
90,-0.32,1.68,-0.32,1.68,-1.68,-1.14,-2.00,-2.00,-2.00
91,-0.29,1.74,-0.31,1.73,-1.73,-1.19,-2.02,-2.04,-2.04
92,-0.28,1.79,-0.30,1.78,-1.78,-1.25,-2.06,-2.08,-2.07
93,-0.28,1.83,-0.28,1.83,-1.83,-1.30,-2.11,-2.11,-2.11
94,-0.28,1.86,-0.27,1.88,-1.88,-1.35,-2.16,-2.15,-2.14
95,-0.28,1.90,-0.26,1.92,-1.92,-1.40,-2.20,-2.18,-2.18
96,-0.28,1.93,-0.25,1.96,-1.96,-1.46,-2.25,-2.21,-2.21
97,-0.23,2.01,-0.24,2.01,-2.01,-1.51,-2.24,-2.25,-2.25
98,-0.23,2.05,-0.24,2.05,-2.05,-1.56,-2.28,-2.29,-2.28
99,-0.23,2.08,-0.24,2.09,-2.09,-1.61,-2.32,-2.32,-2.31
100,-0.23,2.12,-0.24,2.12,-2.12,-1.67,-2.35,-2.36,-2.35
101,-0.23,2.15,-0.24,2.16,-2.16,-1.72,-2.39,-2.40,-2.38
102,-0.21,2.20,-0.24,2.19,-2.19,-1.77,-2.41,-2.43,-2.41
104,-0.23,2.25,-0.24,2.23,-2.23,-1.88,-2.46,-2.47,-2.48
105,-0.23,2.28,-0.24,2.26,-2.26,-1.93,-2.49,-2.50,-2.51
106,-0.28,2.26,-0.25,2.28,-2.28,-1.98,-2.57,-2.53,-2.54
107,-0.28,2.29,-0.26,2.31,-2.31,-2.03,-2.59,-2.57,-2.57
108,-0.28,2.32,-0.27,2.34,-2.34,-2.08,-2.62,-2.60,-2.60
109,-0.28,2.35,-0.28,2.36,-2.36,-2.12,-2.64,-2.63,-2.63
110,-0.28,2.38,-0.29,2.38,-2.38,-2.17,-2.66,-2.67,-2.66
111,-0.28,2.41,-0.30,2.40,-2.40,-2.21,-2.68,-2.70,-2.69
112,-0.32,2.40,-0.31,2.42,-2.42,-2.25,-2.74,-2.73,-2.72
113,-0.32,2.43,-0.33,2.43,-2.43,-2.29,-2.75,-2.76,-2.75
114,-0.32,2.46,-0.34,2.45,-2.45,-2.33,-2.77,-2.79,-2.78
115,-0.35,2.45,-0.36,2.46,-2.46,-2.37,-2.81,-2.82,-2.81
117,-0.38,2.48,-0.38,2.47,-2.47,-2.43,-2.85,-2.85,-2.86
118,-0.42,2.46,-0.40,2.47,-2.47,-2.46,-2.90,-2.88,-2.89
119,-0.42,2.49,-0.43,2.48,-2.48,-2.49,-2.90,-2.91,-2.91
120,-0.46,2.48,-0.46,2.48,-2.48,-2.51,-2.94,-2.94,-2.94
121,-0.47,2.49,-0.49,2.48,-2.48,-2.53,-2.95,-2.97,-2.96
123,-0.53,2.48,-0.52,2.48,-2.48,-2.57,-3.01,-3.00,-3.01
124,-0.56,2.47,-0.56,2.47,-2.47,-2.58,-3.03,-3.03,-3.03
125,-0.60,2.46,-0.60,2.46,-2.46,-2.59,-3.06,-3.06,-3.06
126,-0.62,2.46,-0.64,2.45,-2.45,-2.60,-3.07,-3.09,-3.08
128,-0.68,2.44,-0.68,2.44,-2.44,-2.61,-3.12,-3.12,-3.13
129,-0.72,2.43,-0.72,2.42,-2.42,-2.62,-3.15,-3.15,-3.15
130,-0.77,2.40,-0.77,2.41,-2.41,-2.62,-3.18,-3.17,-3.17
131,-0.79,2.40,-0.81,2.39,-2.39,-2.62,-3.18,-3.20,-3.19
133,-0.86,2.37,-0.85,2.37,-2.37,-2.61,-3.24,-3.23,-3.23
134,-0.91,2.34,-0.90,2.36,-2.36,-2.60,-3.27,-3.26,-3.25
135,-0.95,2.32,-0.94,2.34,-2.34,-2.59,-3.29,-3.28,-3.27
137,-1.01,2.29,-0.99,2.32,-2.32,-2.57,-3.33,-3.31,-3.31
138,-1.02,2.30,-1.03,2.30,-2.30,-2.56,-3.32,-3.33,-3.32
140,-1.08,2.28,-1.08,2.28,-2.28,-2.54,-3.36,-3.36,-3.36
141,-1.12,2.26,-1.12,2.25,-2.25,-2.52,-3.37,-3.38,-3.38
142,-1.16,2.23,-1.17,2.23,-2.23,-2.51,-3.39,-3.40,-3.39
144,-1.21,2.22,-1.22,2.21,-2.21,-2.48,-3.42,-3.43,-3.43
145,-1.25,2.19,-1.27,2.18,-2.18,-2.46,-3.43,-3.45,-3.44
147,-1.32,2.15,-1.32,2.15,-2.15,-2.43,-3.48,-3.47,-3.47
148,-1.35,2.14,-1.37,2.13,-2.13,-2.42,-3.48,-3.49,-3.49
150,-1.42,2.10,-1.42,2.10,-2.10,-2.38,-3.52,-3.52,-3.52
151,-1.47,2.06,-1.47,2.07,-2.07,-2.37,-3.54,-3.54,-3.53
153,-1.52,2.04,-1.51,2.05,-2.05,-2.34,-3.57,-3.56,-3.56
154,-1.55,2.02,-1.56,2.02,-2.02,-2.32,-3.57,-3.58,-3.57
156,-1.63,1.97,-1.60,1.99,-1.99,-2.30,-3.63,-3.60,-3.60
157,-1.64,1.97,-1.65,1.97,-1.97,-2.28,-3.61,-3.62,-3.61
159,-1.70,1.93,-1.69,1.95,-1.95,-2.26,-3.65,-3.64,-3.63
160,-1.72,1.92,-1.73,1.93,-1.93,-2.24,-3.65,-3.66,-3.65
162,-1.76,1.91,-1.76,1.91,-1.91,-2.22,-3.67,-3.67,-3.67
164,-1.78,1.91,-1.80,1.89,-1.89,-2.20,-3.68,-3.69,-3.69
165,-1.82,1.88,-1.83,1.88,-1.88,-2.19,-3.70,-3.71,-3.70
167,-1.84,1.88,-1.86,1.87,-1.87,-2.18,-3.71,-3.73,-3.72
169,-1.88,1.86,-1.88,1.86,-1.86,-2.16,-3.74,-3.74,-3.74
170,-1.91,1.84,-1.91,1.85,-1.85,-2.15,-3.77,-3.76,-3.75
172,-1.95,1.82,-1.92,1.85,-1.85,-2.14,-3.80,-3.77,-3.77
174,-1.96,1.83,-1.94,1.85,-1.85,-2.13,-3.81,-3.79,-3.79
175,-1.96,1.83,-1.95,1.86,-1.86,-2.13,-3.82,-3.81,-3.80
177,-1.96,1.85,-1.96,1.86,-1.86,-2.13,-3.82,-3.82,-3.81
179,-1.96,1.87,-1.97,1.87,-1.87,-2.12,-3.83,-3.83,-3.83
181,-1.96,1.88,-1.97,1.88,-1.88,-2.12,-3.84,-3.85,-3.85
183,-1.96,1.90,-1.97,1.89,-1.89,-2.12,-3.85,-3.86,-3.86
184,-1.96,1.91,-1.97,1.90,-1.90,-2.13,-3.86,-3.87,-3.87
186,-1.96,1.92,-1.97,1.91,-1.91,-2.13,-3.88,-3.89,-3.88
188,-1.96,1.93,-1.97,1.93,-1.93,-2.14,-3.89,-3.90,-3.90
190,-1.96,1.95,-1.97,1.94,-1.94,-2.14,-3.91,-3.91,-3.91
192,-1.96,1.96,-1.96,1.96,-1.96,-2.15,-3.92,-3.92,-3.92
194,-1.96,1.97,-1.96,1.98,-1.98,-2.16,-3.94,-3.93,-3.93
196,-1.96,1.98,-1.95,1.99,-1.99,-2.18,-3.96,-3.95,-3.94
198,-1.96,1.99,-1.94,2.01,-2.01,-2.19,-3.98,-3.96,-3.96
200,-1.95,2.01,-1.94,2.03,-2.03,-2.20,-3.99,-3.97,-3.97
202,-1.91,2.06,-1.93,2.06,-2.06,-2.22,-3.97,-3.98,-3.98
204,-1.91,2.07,-1.91,2.08,-2.08,-2.23,-3.99,-3.99,-3.99
206,-1.91,2.08,-1.90,2.11,-2.11,-2.25,-4.02,-4.00,-4.00
208,-1.86,2.14,-1.88,2.13,-2.13,-2.27,-3.99,-4.01,-4.01
210,-1.86,2.15,-1.86,2.16,-2.16,-2.28,-4.02,-4.02,-4.02
212,-1.86,2.16,-1.84,2.18,-2.18,-2.30,-4.05,-4.03,-4.02
214,-1.82,2.21,-1.83,2.21,-2.21,-2.32,-4.03,-4.04,-4.03
216,-1.82,2.22,-1.81,2.23,-2.23,-2.33,-4.05,-4.04,-4.04
218,-1.82,2.23,-1.80,2.25,-2.25,-2.35,-4.07,-4.05,-4.05
221,-1.77,2.29,-1.79,2.27,-2.27,-2.37,-4.04,-4.06,-4.06
223,-1.77,2.30,-1.79,2.28,-2.28,-2.38,-4.05,-4.07,-4.07
225,-1.77,2.30,-1.79,2.28,-2.28,-2.40,-4.06,-4.07,-4.07
227,-1.77,2.30,-1.79,2.29,-2.29,-2.41,-4.06,-4.07,-4.07
229,-1.77,2.30,-1.79,2.28,-2.28,-2.42,-4.05,-4.08,-4.08
232,-1.81,2.27,-1.80,2.27,-2.27,-2.43,-4.09,-4.08,-4.08
234,-1.82,2.25,-1.81,2.26,-2.26,-2.44,-4.08,-4.07,-4.08
236,-1.82,2.25,-1.83,2.24,-2.24,-2.44,-4.07,-4.07,-4.07
239,-1.86,2.21,-1.84,2.22,-2.22,-2.45,-4.09,-4.06,-4.07
241,-1.86,2.20,-1.86,2.20,-2.20,-2.45,-4.06,-4.06,-4.06
244,-1.86,2.19,-1.88,2.17,-2.17,-2.44,-4.03,-4.06,-4.05
246,-1.91,2.13,-1.90,2.15,-2.15,-2.44,-4.06,-4.05,-4.05
248,-1.91,2.12,-1.92,2.12,-2.12,-2.43,-4.03,-4.04,-4.04
251,-1.96,2.06,-1.94,2.09,-2.09,-2.42,-4.05,-4.03,-4.03
253,-1.96,2.05,-1.96,2.06,-2.06,-2.41,-4.02,-4.02,-4.02
256,-1.96,2.04,-1.98,2.03,-2.03,-2.39,-4.00,-4.01,-4.01
259,-2.00,2.00,-2.00,2.01,-2.01,-2.37,-4.01,-4.00,-4.00
261,-2.00,1.99,-2.01,1.98,-1.98,-2.35,-3.99,-4.00,-3.99
264,-2.05,1.93,-2.02,1.96,-1.96,-2.33,-4.01,-3.98,-3.98
266,-2.05,1.92,-2.04,1.94,-1.94,-2.31,-3.99,-3.98,-3.97
269,-2.05,1.91,-2.05,1.92,-1.92,-2.27,-3.97,-3.96,-3.96
272,-2.05,1.90,-2.05,1.90,-1.90,-2.24,-3.95,-3.95,-3.95
274,-2.05,1.89,-2.06,1.88,-1.88,-2.21,-3.93,-3.94,-3.94
277,-2.05,1.87,-2.06,1.86,-1.86,-2.18,-3.91,-3.92,-3.93
280,-2.05,1.86,-2.06,1.85,-1.85,-2.14,-3.90,-3.91,-3.91
283,-2.05,1.84,-2.06,1.84,-1.84,-2.10,-3.89,-3.89,-3.89
286,-2.05,1.82,-2.05,1.83,-1.83,-2.05,-3.88,-3.88,-3.88
288,-2.05,1.80,-2.04,1.82,-1.82,-2.03,-3.87,-3.86,-3.86
291,-2.05,1.78,-2.03,1.81,-1.81,-1.98,-3.87,-3.84,-3.83
294,-2.00,1.81,-2.01,1.81,-1.81,-1.94,-3.82,-3.82,-3.81
297,-2.00,1.79,-1.99,1.82,-1.82,-1.90,-3.82,-3.81,-3.79
300,-1.96,1.81,-1.96,1.82,-1.82,-1.85,-3.79,-3.79,-3.77
303,-1.94,1.81,-1.93,1.84,-1.84,-1.81,-3.78,-3.77,-3.76
306,-1.91,1.82,-1.90,1.85,-1.85,-1.77,-3.76,-3.75,-3.74
309,-1.86,1.86,-1.86,1.87,-1.87,-1.73,-3.73,-3.73,-3.72
312,-1.83,1.87,-1.82,1.88,-1.88,-1.68,-3.72,-3.71,-3.70
316,-1.78,1.91,-1.79,1.90,-1.90,-1.63,-3.69,-3.69,-3.69
319,-1.73,1.94,-1.75,1.92,-1.92,-1.59,-3.66,-3.67,-3.67
322,-1.70,1.95,-1.71,1.94,-1.94,-1.55,-3.64,-3.65,-3.65
325,-1.67,1.96,-1.67,1.96,-1.96,-1.51,-3.63,-3.63,-3.64
328,-1.63,1.98,-1.64,1.97,-1.97,-1.48,-3.60,-3.61,-3.62
332,-1.60,2.00,-1.61,1.98,-1.98,-1.43,-3.58,-3.59,-3.60
335,-1.58,1.99,-1.58,1.99,-1.99,-1.39,-3.57,-3.57,-3.58
338,-1.55,2.00,-1.56,1.99,-1.99,-1.36,-3.54,-3.55,-3.55
342,-1.54,1.99,-1.54,1.99,-1.99,-1.31,-3.53,-3.53,-3.53
345,-1.53,1.98,-1.52,1.99,-1.99,-1.28,-3.52,-3.51,-3.51
349,-1.49,2.00,-1.51,1.98,-1.98,-1.24,-3.47,-3.49,-3.49
352,-1.49,1.98,-1.50,1.97,-1.97,-1.21,-3.46,-3.47,-3.47
356,-1.49,1.96,-1.50,1.96,-1.96,-1.17,-3.45,-3.46,-3.45
359,-1.49,1.94,-1.49,1.95,-1.95,-1.14,-3.44,-3.44,-3.43
363,-1.49,1.93,-1.49,1.93,-1.93,-1.11,-3.42,-3.42,-3.42
366,-1.49,1.91,-1.49,1.92,-1.92,-1.08,-3.41,-3.41,-3.41
370,-1.49,1.90,-1.49,1.90,-1.90,-1.05,-3.39,-3.39,-3.39
374,-1.49,1.89,-1.49,1.89,-1.89,-1.02,-3.38,-3.38,-3.38
377,-1.49,1.88,-1.49,1.87,-1.87,-0.99,-3.37,-3.37,-3.37
381,-1.49,1.86,-1.50,1.86,-1.86,-0.96,-3.35,-3.36,-3.36
385,-1.49,1.85,-1.50,1.85,-1.85,-0.94,-3.35,-3.35,-3.34
389,-1.49,1.84,-1.50,1.85,-1.85,-0.91,-3.34,-3.34,-3.33
393,-1.49,1.83,-1.49,1.85,-1.85,-0.88,-3.34,-3.34,-3.32
397,-1.49,1.82,-1.48,1.85,-1.85,-0.86,-3.34,-3.33,-3.32
401,-1.49,1.82,-1.47,1.85,-1.85,-0.84,-3.35,-3.32,-3.31
405,-1.47,1.83,-1.45,1.86,-1.86,-0.81,-3.34,-3.32,-3.30
409,-1.44,1.86,-1.44,1.88,-1.88,-0.79,-3.32,-3.31,-3.30
413,-1.44,1.85,-1.42,1.89,-1.89,-0.77,-3.33,-3.31,-3.30
417,-1.40,1.89,-1.39,1.91,-1.91,-0.75,-3.31,-3.30,-3.29
421,-1.38,1.91,-1.37,1.92,-1.92,-0.74,-3.31,-3.30,-3.29
425,-1.35,1.93,-1.35,1.94,-1.94,-0.72,-3.29,-3.29,-3.29
430,-1.31,1.97,-1.33,1.95,-1.95,-0.70,-3.26,-3.28,-3.28
434,-1.30,1.98,-1.32,1.96,-1.96,-0.69,-3.26,-3.27,-3.28
438,-1.28,1.99,-1.30,1.96,-1.96,-0.68,-3.24,-3.27,-3.27
443,-1.30,1.96,-1.30,1.95,-1.95,-0.66,-3.26,-3.26,-3.26
447,-1.30,1.95,-1.31,1.94,-1.94,-0.65,-3.24,-3.25,-3.25
451,-1.30,1.94,-1.32,1.92,-1.92,-0.64,-3.22,-3.24,-3.24
456,-1.33,1.90,-1.34,1.89,-1.89,-0.63,-3.22,-3.22,-3.23
460,-1.35,1.86,-1.37,1.84,-1.84,-0.63,-3.20,-3.21,-3.22
465,-1.40,1.80,-1.41,1.79,-1.79,-0.62,-3.19,-3.20,-3.20
470,-1.45,1.74,-1.46,1.73,-1.73,-0.62,-3.19,-3.19,-3.19
474,-1.50,1.67,-1.51,1.67,-1.67,-0.61,-3.17,-3.18,-3.17
479,-1.56,1.60,-1.57,1.59,-1.59,-0.61,-3.16,-3.16,-3.16
484,-1.63,1.52,-1.64,1.52,-1.52,-0.61,-3.15,-3.15,-3.15
489,-1.70,1.43,-1.70,1.43,-1.43,-0.62,-3.14,-3.14,-3.14
494,-1.78,1.34,-1.78,1.35,-1.35,-0.62,-3.13,-3.13,-3.12
499,-1.85,1.26,-1.85,1.26,-1.26,-0.63,-3.12,-3.12,-3.11
504,-1.93,1.17,-1.92,1.18,-1.18,-0.63,-3.11,-3.10,-3.10
509,-2.01,1.07,-2.00,1.09,-1.09,-0.64,-3.10,-3.09,-3.08
514,-2.06,1.01,-2.06,1.01,-1.01,-0.65,-3.07,-3.07,-3.07
519,-2.14,0.91,-2.13,0.92,-0.92,-0.66,-3.06,-3.05,-3.05
524,-2.21,0.82,-2.19,0.84,-0.84,-0.68,-3.05,-3.03,-3.03
529,-2.26,0.75,-2.25,0.76,-0.76,-0.69,-3.02,-3.01,-3.01
535,-2.31,0.68,-2.31,0.68,-0.68,-0.71,-2.99,-2.99,-2.99
540,-2.36,0.60,-2.36,0.61,-0.61,-0.73,-2.97,-2.97,-2.97
545,-2.41,0.53,-2.41,0.53,-0.53,-0.75,-2.94,-2.94,-2.94
551,-2.45,0.47,-2.46,0.46,-0.46,-0.77,-2.91,-2.92,-2.92
556,-2.49,0.40,-2.51,0.39,-0.39,-0.79,-2.88,-2.89,-2.90
562,-2.54,0.33,-2.55,0.32,-0.32,-0.82,-2.86,-2.87,-2.87
568,-2.59,0.26,-2.60,0.25,-0.25,-0.85,-2.84,-2.85,-2.85
573,-2.63,0.20,-2.64,0.19,-0.19,-0.87,-2.82,-2.83,-2.83
579,-2.67,0.14,-2.68,0.13,-0.13,-0.91,-2.80,-2.82,-2.81
585,-2.73,0.06,-2.72,0.08,-0.08,-0.94,-2.81,-2.80,-2.79
591,-2.75,0.02,-2.75,0.03,-0.03,-0.97,-2.78,-2.78,-2.77
596,-2.78,-0.02,-2.78,-0.01,0.01,-1.00,-2.77,-2.77,-2.76
602,-2.80,-0.06,-2.80,-0.04,0.04,-1.03,-2.76,-2.76,-2.74
608,-2.84,-0.11,-2.81,-0.07,0.07,-1.07,-2.77,-2.74,-2.73
615,-2.84,-0.12,-2.82,-0.09,0.09,-1.11,-2.76,-2.73,-2.72
621,-2.84,-0.14,-2.81,-0.10,0.10,-1.15,-2.75,-2.71,-2.71
627,-2.80,-0.11,-2.80,-0.10,0.10,-1.19,-2.70,-2.70,-2.69
633,-2.78,-0.10,-2.78,-0.10,0.10,-1.23,-2.69,-2.68,-2.68
639,-2.75,-0.09,-2.75,-0.09,0.09,-1.27,-2.66,-2.66,-2.66
646,-2.72,-0.07,-2.72,-0.07,0.07,-1.32,-2.65,-2.65,-2.65
652,-2.68,-0.05,-2.69,-0.06,0.06,-1.36,-2.62,-2.63,-2.63
659,-2.63,-0.01,-2.66,-0.04,0.04,-1.42,-2.59,-2.62,-2.62
665,-2.61,-0.01,-2.62,-0.02,0.02,-1.46,-2.59,-2.60,-2.61
672,-2.56,0.03,-2.59,0.00,-0.00,-1.51,-2.57,-2.59,-2.59
679,-2.52,0.06,-2.56,0.03,-0.03,-1.57,-2.55,-2.58,-2.58
686,-2.52,0.05,-2.52,0.05,-0.05,-1.62,-2.58,-2.58,-2.57
692,-2.47,0.09,-2.49,0.08,-0.08,-1.67,-2.55,-2.57,-2.56
699,-2.47,0.08,-2.45,0.11,-0.11,-1.73,-2.58,-2.56,-2.55
706,-2.42,0.12,-2.41,0.15,-0.15,-1.78,-2.57,-2.56,-2.55
713,-2.39,0.15,-2.37,0.18,-0.18,-1.84,-2.57,-2.55,-2.54
721,-2.35,0.19,-2.33,0.22,-0.22,-1.91,-2.57,-2.55,-2.54
728,-2.30,0.23,-2.28,0.26,-0.26,-1.97,-2.57,-2.54,-2.53
735,-2.24,0.29,-2.23,0.31,-0.31,-2.03,-2.55,-2.53,-2.53
742,-2.17,0.35,-2.17,0.35,-0.35,-2.09,-2.53,-2.53,-2.52
750,-2.11,0.41,-2.12,0.40,-0.40,-2.16,-2.51,-2.52,-2.52
757,-2.05,0.46,-2.06,0.45,-0.45,-2.22,-2.50,-2.51,-2.51
765,-1.98,0.52,-2.00,0.50,-0.50,-2.29,-2.48,-2.50,-2.50
773,-1.92,0.57,-1.95,0.54,-0.54,-2.36,-2.46,-2.49,-2.50
780,-1.87,0.61,-1.89,0.59,-0.59,-2.43,-2.46,-2.48,-2.49
788,-1.82,0.66,-1.84,0.63,-0.63,-2.50,-2.45,-2.47,-2.48
796,-1.79,0.68,-1.79,0.67,-0.67,-2.57,-2.47,-2.47,-2.47
804,-1.73,0.73,-1.74,0.72,-0.72,-2.64,-2.45,-2.46,-2.46
812,-1.70,0.75,-1.70,0.76,-0.76,-2.71,-2.46,-2.46,-2.45
820,-1.65,0.79,-1.65,0.81,-0.81,-2.78,-2.46,-2.46,-2.44
828,-1.61,0.83,-1.59,0.86,-0.86,-2.85,-2.47,-2.45,-2.44
837,-1.55,0.88,-1.54,0.91,-0.91,-2.93,-2.46,-2.45,-2.43
845,-1.50,0.93,-1.48,0.97,-0.97,-3.00,-2.47,-2.45,-2.43
853,-1.43,1.00,-1.42,1.03,-1.03,-3.06,-2.46,-2.45,-2.43
862,-1.35,1.08,-1.35,1.10,-1.10,-3.13,-2.45,-2.45,-2.44
871,-1.27,1.17,-1.27,1.17,-1.17,-3.20,-2.44,-2.45,-2.44
879,-1.18,1.26,-1.20,1.25,-1.25,-3.25,-2.43,-2.45,-2.44
888,-1.12,1.32,-1.11,1.33,-1.33,-3.32,-2.45,-2.45,-2.44
897,-1.01,1.43,-1.03,1.42,-1.42,-3.37,-2.43,-2.44,-2.44
906,-0.94,1.50,-0.94,1.50,-1.50,-3.42,-2.44,-2.44,-2.44
915,-0.84,1.59,-0.84,1.59,-1.59,-3.47,-2.43,-2.43,-2.44
924,-0.76,1.67,-0.75,1.67,-1.67,-3.51,-2.44,-2.42,-2.43
933,-0.67,1.75,-0.65,1.76,-1.76,-3.55,-2.43,-2.41,-2.43
943,-0.55,1.87,-0.56,1.84,-1.84,-3.59,-2.40,-2.41,-2.42
952,-0.45,1.96,-0.47,1.93,-1.93,-3.61,-2.38,-2.40,-2.41
962,-0.36,2.03,-0.38,2.01,-2.01,-3.63,-2.37,-2.39,-2.40
971,-0.26,2.12,-0.29,2.09,-2.09,-3.65,-2.35,-2.38,-2.38
981,-0.17,2.19,-0.19,2.17,-2.17,-3.66,-2.35,-2.37,-2.36
991,-0.07,2.27,-0.10,2.26,-2.26,-3.66,-2.33,-2.35,-2.34
1001,0.01,2.33,0.01,2.34,-2.34,-3.65,-2.33,-2.33,-2.32
1011,0.10,2.40,0.11,2.43,-2.43,-3.64,-2.33,-2.31,-2.30
1021,0.18,2.45,0.23,2.52,-2.52,-3.62,-2.34,-2.29,-2.27
1031,0.31,2.55,0.35,2.61,-2.61,-3.59,-2.30,-2.26,-2.25
1041,0.42,2.64,0.47,2.70,-2.70,-3.56,-2.29,-2.24,-2.22
1052,0.57,2.76,0.60,2.80,-2.80,-3.52,-2.24,-2.21,-2.19
1062,0.73,2.89,0.73,2.91,-2.91,-3.48,-2.18,-2.18,-2.17
1073,0.89,3.03,0.87,3.01,-3.01,-3.42,-2.12,-2.15,-2.14
1084,1.04,3.15,1.00,3.12,-3.12,-3.36,-2.08,-2.12,-2.11
1094,1.19,3.27,1.14,3.23,-3.23,-3.31,-2.04,-2.09,-2.08
1105,1.32,3.37,1.29,3.34,-3.34,-3.24,-2.02,-2.06,-2.05
1116,1.47,3.48,1.43,3.46,-3.46,-3.17,-1.99,-2.02,-2.02
1128,1.60,3.58,1.58,3.57,-3.57,-3.09,-1.97,-1.99,-1.99
1139,1.73,3.68,1.72,3.69,-3.69,-3.01,-1.96,-1.96,-1.95
1150,1.85,3.77,1.88,3.81,-3.81,-2.93,-1.96,-1.93,-1.92
1162,1.99,3.87,2.03,3.93,-3.93,-2.84,-1.94,-1.90,-1.88
1173,2.15,3.99,2.19,4.06,-4.06,-2.76,-1.91,-1.87,-1.84
1185,2.32,4.12,2.36,4.18,-4.18,-2.67,-1.87,-1.83,-1.80
1197,2.51,4.27,2.53,4.31,-4.31,-2.58,-1.81,-1.78,-1.76
1209,2.69,4.40,2.71,4.45,-4.45,-2.49,-1.76,-1.73,-1.71
1221,2.89,4.55,2.89,4.58,-4.58,-2.40,-1.69,-1.68,-1.66
1233,3.08,4.69,3.08,4.71,-4.71,-2.31,-1.63,-1.63,-1.61
1246,3.29,4.85,3.27,4.84,-4.84,-2.21,-1.55,-1.57,-1.56
1258,3.48,4.99,3.45,4.96,-4.96,-2.12,-1.49,-1.51,-1.51
1271,3.66,5.11,3.64,5.09,-5.09,-2.03,-1.43,-1.45,-1.45
1283,3.83,5.22,3.81,5.20,-5.20,-1.94,-1.38,-1.39,-1.39
1296,4.01,5.34,3.98,5.31,-5.31,-1.85,-1.31,-1.33,-1.33
1309,4.16,5.43,4.15,5.42,-5.42,-1.75,-1.26,-1.27,-1.27
1322,4.31,5.51,4.30,5.51,-5.51,-1.66,-1.20,-1.21,-1.21
1335,4.42,5.56,4.45,5.59,-5.59,-1.57,-1.18,-1.14,-1.14
1349,4.56,5.63,4.59,5.67,-5.67,-1.48,-1.11,-1.07,-1.07
1362,4.67,5.67,4.72,5.72,-5.72,-1.40,-1.06,-1.00,-1.00
1376,4.80,5.73,4.84,5.77,-5.77,-1.30,-0.97,-0.93,-0.93
1390,4.93,5.79,4.93,5.80,-5.80,-1.22,-0.87,-0.86,-0.86
1404,5.03,5.82,5.02,5.81,-5.81,-1.13,-0.78,-0.79,-0.79
1418,5.11,5.83,5.08,5.79,-5.79,-1.04,-0.69,-0.72,-0.72
1432,5.16,5.81,5.12,5.76,-5.76,-0.96,-0.60,-0.64,-0.65
1446,5.21,5.78,5.14,5.71,-5.71,-0.88,-0.50,-0.57,-0.58
1461,5.18,5.68,5.13,5.63,-5.63,-0.79,-0.45,-0.49,-0.50
1475,5.15,5.58,5.10,5.52,-5.52,-0.71,-0.37,-0.41,-0.43
1490,5.06,5.41,5.05,5.39,-5.39,-0.63,-0.33,-0.34,-0.35
1505,4.96,5.24,4.97,5.23,-5.23,-0.55,-0.27,-0.26,-0.28
1520,4.85,5.05,4.86,5.05,-5.05,-0.47,-0.20,-0.19,-0.20
1535,4.73,4.85,4.73,4.84,-4.84,-0.39,-0.12,-0.11,-0.12
1550,4.59,4.63,4.58,4.62,-4.62,-0.32,-0.03,-0.04,-0.04
1566,4.42,4.37,4.42,4.37,-4.37,-0.24,0.04,0.04,0.04
