frequency,raw,error,smoothed,error_smoothed,equalization,parametric_eq,fixed_band_eq,equalized_raw,equalized_smoothed,target
20.00,0.19,-5.21,0.19,-5.21,5.21,4.51,1.44,5.40,5.40,5.40
20.20,0.26,-5.18,0.26,-5.18,5.18,4.46,1.48,5.44,5.44,5.44
20.40,0.34,-5.14,0.34,-5.14,5.14,4.42,1.53,5.48,5.48,5.48
20.61,0.41,-5.10,0.41,-5.11,5.11,4.38,1.58,5.52,5.52,5.51
20.81,0.48,-5.07,0.48,-5.07,5.07,4.33,1.62,5.55,5.55,5.55
21.02,0.56,-5.03,0.56,-5.03,5.02,4.29,1.67,5.58,5.58,5.59
21.23,0.63,-4.98,0.63,-4.98,4.98,4.25,1.72,5.61,5.61,5.61
21.44,0.70,-4.93,0.70,-4.93,4.93,4.20,1.78,5.63,5.63,5.63
21.66,0.78,-4.87,0.78,-4.87,4.87,4.16,1.83,5.65,5.65,5.65
21.87,0.85,-4.81,0.85,-4.81,4.82,4.12,1.89,5.67,5.66,5.66
22.09,0.92,-4.76,0.92,-4.75,4.76,4.07,1.94,5.68,5.68,5.68
22.31,0.99,-4.70,0.99,-4.70,4.69,4.03,2.00,5.68,5.68,5.69
22.54,1.07,-4.63,1.07,-4.63,4.63,3.99,2.06,5.69,5.69,5.70
22.76,1.14,-4.57,1.14,-4.56,4.56,3.94,2.13,5.70,5.70,5.71
22.99,1.22,-4.49,1.22,-4.49,4.49,3.90,2.19,5.71,5.71,5.71
23.22,1.29,-4.43,1.29,-4.43,4.43,3.85,2.25,5.72,5.72,5.72
23.45,1.37,-4.36,1.37,-4.36,4.36,3.81,2.32,5.73,5.73,5.73
23.69,1.44,-4.30,1.44,-4.29,4.30,3.76,2.39,5.74,5.74,5.74
23.92,1.52,-4.23,1.52,-4.23,4.23,3.72,2.45,5.76,5.75,5.75
24.16,1.59,-4.17,1.59,-4.17,4.17,3.67,2.52,5.76,5.76,5.76
24.40,1.66,-4.12,1.66,-4.11,4.11,3.63,2.60,5.77,5.77,5.78
24.65,1.74,-4.05,1.74,-4.05,4.05,3.58,2.67,5.79,5.78,5.78
24.89,1.81,-3.98,1.81,-3.98,3.98,3.54,2.74,5.79,5.79,5.79
25.14,1.88,-3.92,1.89,-3.92,3.92,3.49,2.81,5.80,5.80,5.80
25.39,1.96,-3.85,1.96,-3.86,3.85,3.45,2.88,5.81,5.81,5.81
25.65,2.04,-3.79,2.04,-3.79,3.79,3.40,2.96,5.83,5.83,5.83
25.91,2.11,-3.72,2.11,-3.72,3.72,3.35,3.03,5.83,5.84,5.83
26.16,2.19,-3.65,2.19,-3.66,3.66,3.31,3.10,5.85,5.84,5.84
26.43,2.26,-3.59,2.26,-3.59,3.59,3.26,3.17,5.85,5.85,5.85
26.69,2.33,-3.53,2.33,-3.53,3.53,3.22,3.24,5.86,5.86,5.86
26.96,2.41,-3.47,2.41,-3.47,3.47,3.17,3.31,5.88,5.87,5.88
27.23,2.48,-3.41,2.48,-3.40,3.40,3.12,3.38,5.88,5.88,5.89
27.50,2.56,-3.34,2.56,-3.34,3.34,3.08,3.44,5.90,5.89,5.90
27.77,2.63,-3.27,2.63,-3.27,3.27,3.03,3.50,5.90,5.90,5.90
28.05,2.70,-3.22,2.70,-3.21,3.21,2.99,3.56,5.91,5.91,5.92
28.33,2.78,-3.14,2.78,-3.14,3.14,2.94,3.61,5.92,5.92,5.92
28.62,2.85,-3.08,2.85,-3.07,3.08,2.89,3.66,5.92,5.93,5.92
28.90,2.92,-3.01,2.92,-3.01,3.01,2.85,3.70,5.93,5.94,5.93
29.19,3.00,-2.93,3.00,-2.95,2.95,2.80,3.74,5.95,5.94,5.93
29.48,3.07,-2.89,3.07,-2.88,2.88,2.75,3.78,5.95,5.95,5.96
29.78,3.14,-2.82,3.14,-2.82,2.82,2.71,3.81,5.96,5.96,5.96
30.08,3.21,-2.76,3.21,-2.76,2.76,2.66,3.83,5.96,5.96,5.97
30.38,3.28,-2.69,3.28,-2.69,2.69,2.61,3.84,5.97,5.97,5.97
30.68,3.35,-2.64,3.35,-2.63,2.63,2.57,3.85,5.98,5.98,5.99
30.99,3.43,-2.56,3.42,-2.57,2.57,2.52,3.85,6.00,5.99,5.99
31.30,3.49,-2.51,3.49,-2.51,2.51,2.47,3.84,6.00,6.00,5.99
31.61,3.55,-2.45,3.55,-2.45,2.45,2.43,3.83,6.00,6.01,6.00
31.93,3.62,-2.39,3.61,-2.39,2.39,2.38,3.81,6.01,6.01,6.01
32.24,3.68,-2.33,3.68,-2.34,2.34,2.33,3.78,6.02,6.02,6.01
32.57,3.74,-2.29,3.74,-2.28,2.28,2.28,3.75,6.02,6.03,6.03
32.89,3.81,-2.23,3.81,-2.23,2.23,2.24,3.71,6.04,6.04,6.04
33.22,3.87,-2.18,3.87,-2.18,2.17,2.19,3.66,6.04,6.05,6.05
33.55,3.94,-2.12,3.94,-2.12,2.12,2.14,3.61,6.06,6.06,6.06
33.89,4.00,-2.06,4.00,-2.07,2.06,2.09,3.55,6.06,6.06,6.06
34.23,4.06,-2.01,4.06,-2.01,2.01,2.04,3.48,6.07,6.07,6.07
34.57,4.12,-1.96,4.12,-1.95,1.95,1.99,3.41,6.07,6.07,6.08
34.92,4.19,-1.89,4.18,-1.90,1.89,1.95,3.34,6.08,6.08,6.08
35.27,4.25,-1.84,4.25,-1.84,1.84,1.90,3.26,6.09,6.09,6.09
35.62,4.31,-1.79,4.31,-1.78,1.78,1.85,3.18,6.09,6.09,6.09
35.97,4.38,-1.71,4.37,-1.72,1.72,1.80,3.10,6.10,6.10,6.09
36.33,4.43,-1.67,4.43,-1.66,1.67,1.75,3.01,6.10,6.10,6.10
36.70,4.49,-1.61,4.49,-1.61,1.61,1.70,2.92,6.10,6.11,6.10
37.06,4.55,-1.56,4.55,-1.56,1.56,1.65,2.83,6.11,6.11,6.11
37.43,4.61,-1.50,4.61,-1.50,1.50,1.60,2.74,6.11,6.11,6.11
37.81,4.66,-1.45,4.66,-1.45,1.44,1.55,2.65,6.10,6.10,6.11
38.19,4.72,-1.39,4.72,-1.39,1.38,1.50,2.55,6.10,6.10,6.11
38.57,4.78,-1.33,4.78,-1.33,1.32,1.44,2.46,6.10,6.10,6.10
38.95,4.84,-1.26,4.84,-1.26,1.26,1.39,2.37,6.10,6.10,6.10
39.34,4.91,-1.19,4.91,-1.19,1.20,1.34,2.27,6.11,6.10,6.10
39.74,4.97,-1.13,4.97,-1.13,1.13,1.29,2.18,6.10,6.10,6.10
40.14,5.03,-1.07,5.03,-1.07,1.07,1.23,2.08,6.10,6.10,6.10
40.54,5.09,-1.01,5.09,-1.01,1.01,1.18,1.99,6.10,6.10,6.10
40.94,5.14,-0.96,5.14,-0.95,0.95,1.12,1.89,6.09,6.10,6.10
41.35,5.20,-0.89,5.20,-0.90,0.90,1.07,1.80,6.10,6.10,6.09
41.76,5.26,-0.84,5.26,-0.84,0.84,1.01,1.71,6.10,6.10,6.10
42.18,5.31,-0.79,5.31,-0.79,0.79,0.95,1.62,6.10,6.10,6.10
42.60,5.36,-0.74,5.36,-0.74,0.74,0.90,1.53,6.10,6.10,6.10
43.03,5.41,-0.70,5.41,-0.69,0.69,0.84,1.44,6.10,6.10,6.11
43.46,5.46,-0.64,5.46,-0.64,0.64,0.78,1.35,6.10,6.09,6.10
43.90,5.50,-0.59,5.50,-0.59,0.59,0.72,1.26,6.09,6.09,6.09
44.33,5.55,-0.54,5.55,-0.54,0.54,0.66,1.18,6.09,6.09,6.09
44.78,5.60,-0.49,5.60,-0.49,0.50,0.61,1.09,6.09,6.09,6.09
45.23,5.64,-0.44,5.64,-0.45,0.45,0.55,1.01,6.09,6.09,6.08
45.68,5.68,-0.41,5.68,-0.40,0.41,0.49,0.92,6.09,6.09,6.09
46.13,5.72,-0.36,5.72,-0.37,0.36,0.43,0.84,6.08,6.09,6.08
46.60,5.77,-0.33,5.77,-0.32,0.32,0.37,0.76,6.09,6.09,6.10
47.06,5.81,-0.28,5.81,-0.28,0.28,0.32,0.68,6.09,6.09,6.09
47.53,5.85,-0.23,5.85,-0.24,0.24,0.26,0.60,6.09,6.09,6.08
48.01,5.89,-0.21,5.89,-0.20,0.19,0.21,0.52,6.08,6.08,6.10
48.49,5.93,-0.15,5.93,-0.15,0.15,0.15,0.44,6.08,6.08,6.08
48.97,5.97,-0.09,5.97,-0.10,0.10,0.10,0.37,6.07,6.07,6.06
49.46,6.00,-0.06,6.00,-0.05,0.06,0.05,0.29,6.06,6.06,6.06
49.96,6.04,-0.00,6.04,-0.01,0.01,0.01,0.21,6.05,6.05,6.04
50.46,6.07,0.03,6.07,0.03,-0.03,-0.04,0.14,6.04,6.04,6.04
50.96,6.11,0.08,6.10,0.08,-0.07,-0.08,0.07,6.03,6.03,6.03
51.47,6.13,0.12,6.13,0.11,-0.11,-0.12,-0.00,6.01,6.01,6.01
51.99,6.15,0.15,6.15,0.15,-0.15,-0.15,-0.07,6.00,6.00,6.00
52.51,6.18,0.18,6.18,0.19,-0.19,-0.18,-0.14,5.99,5.99,6.00
53.03,6.21,0.23,6.20,0.22,-0.22,-0.22,-0.21,5.99,5.98,5.98
53.56,6.23,0.26,6.23,0.26,-0.26,-0.24,-0.28,5.97,5.97,5.97
54.10,6.24,0.29,6.24,0.29,-0.29,-0.27,-0.34,5.95,5.95,5.95
54.64,6.26,0.32,6.26,0.32,-0.32,-0.29,-0.41,5.93,5.93,5.94
55.18,6.28,0.36,6.28,0.36,-0.36,-0.32,-0.47,5.92,5.92,5.92
55.74,6.29,0.39,6.29,0.39,-0.39,-0.34,-0.53,5.90,5.91,5.90
56.29,6.31,0.41,6.31,0.42,-0.41,-0.36,-0.59,5.90,5.89,5.90
56.86,6.32,0.44,6.32,0.44,-0.44,-0.38,-0.65,5.88,5.88,5.88
57.42,6.32,0.46,6.32,0.47,-0.46,-0.40,-0.71,5.86,5.86,5.85
58.00,6.33,0.49,6.33,0.49,-0.48,-0.42,-0.76,5.84,5.84,5.84
58.58,6.34,0.51,6.34,0.51,-0.51,-0.44,-0.81,5.83,5.83,5.83
59.16,6.34,0.52,6.34,0.53,-0.53,-0.45,-0.86,5.81,5.81,5.82
59.76,6.35,0.55,6.35,0.55,-0.55,-0.47,-0.91,5.79,5.79,5.80
60.35,6.35,0.57,6.35,0.57,-0.58,-0.49,-0.96,5.77,5.77,5.78
60.96,6.36,0.61,6.35,0.60,-0.60,-0.52,-1.00,5.76,5.75,5.75
61.57,6.35,0.63,6.35,0.63,-0.63,-0.54,-1.04,5.72,5.72,5.72
62.18,6.35,0.67,6.35,0.66,-0.65,-0.56,-1.08,5.70,5.70,5.68
62.80,6.34,0.67,6.34,0.68,-0.68,-0.58,-1.12,5.66,5.66,5.67
63.43,6.34,0.71,6.34,0.70,-0.70,-0.61,-1.15,5.63,5.63,5.63
64.07,6.33,0.73,6.33,0.73,-0.73,-0.63,-1.18,5.60,5.60,5.60
64.71,6.33,0.75,6.33,0.75,-0.75,-0.66,-1.21,5.58,5.58,5.58
65.35,6.33,0.78,6.33,0.78,-0.78,-0.69,-1.24,5.55,5.55,5.55
66.01,6.33,0.81,6.33,0.81,-0.81,-0.71,-1.27,5.52,5.52,5.52
66.67,6.33,0.83,6.33,0.83,-0.83,-0.74,-1.29,5.50,5.50,5.50
67.33,6.33,0.86,6.33,0.86,-0.86,-0.77,-1.32,5.47,5.47,5.47
68.01,6.33,0.89,6.33,0.89,-0.89,-0.80,-1.34,5.44,5.44,5.44
68.69,6.33,0.92,6.33,0.92,-0.92,-0.83,-1.36,5.41,5.41,5.41
69.37,6.33,0.95,6.33,0.95,-0.95,-0.87,-1.38,5.38,5.38,5.38
70.07,6.33,0.98,6.33,0.98,-0.98,-0.90,-1.40,5.35,5.35,5.35
70.77,6.33,1.00,6.33,1.01,-1.00,-0.93,-1.42,5.33,5.33,5.33
71.48,6.33,1.03,6.33,1.03,-1.03,-0.97,-1.44,5.30,5.30,5.30
72.19,6.33,1.06,6.32,1.05,-1.05,-1.01,-1.45,5.28,5.28,5.27
72.91,6.31,1.07,6.32,1.07,-1.07,-1.04,-1.47,5.24,5.25,5.24
73.64,6.31,1.09,6.31,1.09,-1.09,-1.08,-1.49,5.22,5.22,5.22
74.38,6.31,1.11,6.31,1.11,-1.11,-1.12,-1.50,5.20,5.19,5.20
75.12,6.31,1.13,6.31,1.13,-1.14,-1.16,-1.52,5.17,5.17,5.18
75.87,6.32,1.16,6.32,1.16,-1.16,-1.19,-1.54,5.16,5.16,5.16
76.63,6.33,1.18,6.33,1.19,-1.18,-1.23,-1.56,5.14,5.15,5.14
77.40,6.35,1.22,6.35,1.22,-1.21,-1.27,-1.57,5.14,5.14,5.13
78.17,6.36,1.25,6.36,1.25,-1.24,-1.32,-1.59,5.12,5.12,5.11
78.95,6.37,1.27,6.37,1.27,-1.27,-1.36,-1.61,5.10,5.10,5.10
79.74,6.38,1.29,6.38,1.30,-1.30,-1.40,-1.63,5.08,5.08,5.09
80.54,6.41,1.33,6.41,1.33,-1.34,-1.44,-1.65,5.07,5.07,5.08
81.35,6.44,1.37,6.44,1.37,-1.38,-1.48,-1.68,5.06,5.06,5.07
82.16,6.48,1.42,6.48,1.42,-1.42,-1.53,-1.70,5.06,5.06,5.06
82.98,6.52,1.46,6.52,1.47,-1.46,-1.57,-1.73,5.06,5.06,5.06
83.81,6.56,1.52,6.56,1.52,-1.51,-1.61,-1.75,5.05,5.05,5.04
84.65,6.60,1.57,6.60,1.56,-1.56,-1.66,-1.78,5.04,5.04,5.03
85.50,6.64,1.60,6.64,1.61,-1.61,-1.70,-1.81,5.03,5.03,5.04
86.35,6.69,1.66,6.69,1.66,-1.67,-1.74,-1.84,5.02,5.03,5.03
87.22,6.75,1.72,6.75,1.72,-1.72,-1.79,-1.87,5.03,5.03,5.03
88.09,6.81,1.79,6.80,1.78,-1.78,-1.83,-1.91,5.03,5.03,5.02
88.97,6.86,1.83,6.86,1.83,-1.83,-1.88,-1.94,5.03,5.03,5.03
89.86,6.91,1.88,6.91,1.89,-1.88,-1.92,-1.98,5.02,5.03,5.03
90.76,6.97,1.95,6.96,1.94,-1.94,-1.97,-2.02,5.03,5.02,5.02
91.66,7.01,1.99,7.01,1.99,-1.99,-2.01,-2.06,5.02,5.02,5.02
92.58,7.06,2.05,7.06,2.04,-2.04,-2.05,-2.10,5.02,5.02,5.01
93.51,7.11,2.08,7.11,2.09,-2.09,-2.10,-2.14,5.02,5.02,5.03
94.44,7.15,2.13,7.15,2.13,-2.14,-2.14,-2.18,5.01,5.02,5.02
95.39,7.20,2.18,7.20,2.18,-2.18,-2.19,-2.23,5.02,5.02,5.02
96.34,7.23,2.23,7.23,2.22,-2.22,-2.23,-2.28,5.01,5.01,5.00
97.30,7.26,2.27,7.26,2.26,-2.25,-2.27,-2.32,5.01,5.00,4.99
98.28,7.27,2.28,7.27,2.29,-2.28,-2.32,-2.37,4.99,4.99,4.99
99.26,7.29,2.31,7.29,2.31,-2.31,-2.36,-2.42,4.98,4.98,4.98
100.25,7.30,2.33,7.30,2.33,-2.33,-2.40,-2.47,4.97,4.97,4.97
101.25,7.31,2.35,7.31,2.35,-2.35,-2.44,-2.53,4.96,4.96,4.96
102.27,7.31,2.37,7.31,2.37,-2.36,-2.48,-2.58,4.94,4.95,4.94
103.29,7.31,2.39,7.31,2.38,-2.38,-2.52,-2.63,4.93,4.92,4.92
104.32,7.31,2.40,7.31,2.40,-2.41,-2.56,-2.69,4.90,4.90,4.91
105.37,7.31,2.42,7.31,2.43,-2.44,-2.60,-2.74,4.87,4.88,4.89
106.42,7.33,2.47,7.33,2.46,-2.48,-2.64,-2.79,4.85,4.85,4.86
107.48,7.35,2.51,7.35,2.51,-2.52,-2.68,-2.84,4.83,4.83,4.84
108.56,7.38,2.58,7.38,2.57,-2.58,-2.71,-2.90,4.80,4.80,4.80
109.64,7.41,2.64,7.41,2.64,-2.64,-2.75,-2.95,4.77,4.77,4.77
110.74,7.45,2.70,7.45,2.71,-2.71,-2.79,-3.00,4.74,4.74,4.74
111.85,7.49,2.78,7.49,2.78,-2.78,-2.82,-3.05,4.71,4.71,4.71
112.97,7.52,2.86,7.52,2.86,-2.85,-2.86,-3.10,4.67,4.67,4.66
114.10,7.55,2.92,7.55,2.93,-2.93,-2.89,-3.14,4.62,4.62,4.63
115.24,7.58,3.00,7.58,3.00,-3.00,-2.92,-3.19,4.58,4.58,4.58
116.39,7.60,3.07,7.60,3.07,-3.06,-2.96,-3.23,4.54,4.54,4.53
117.55,7.62,3.13,7.62,3.13,-3.12,-2.99,-3.27,4.50,4.50,4.49
118.73,7.64,3.19,7.64,3.18,-3.18,-3.02,-3.30,4.46,4.46,4.45
119.92,7.65,3.23,7.65,3.23,-3.23,-3.05,-3.33,4.42,4.42,4.42
121.12,7.65,3.28,7.65,3.28,-3.28,-3.08,-3.37,4.37,4.38,4.37
122.33,7.65,3.31,7.65,3.31,-3.32,-3.11,-3.39,4.33,4.34,4.34
123.55,7.66,3.35,7.65,3.35,-3.35,-3.14,-3.42,4.31,4.30,4.31
124.79,7.65,3.37,7.65,3.38,-3.38,-3.16,-3.43,4.27,4.27,4.28
126.03,7.65,3.41,7.65,3.41,-3.41,-3.19,-3.45,4.24,4.24,4.24
127.29,7.64,3.43,7.64,3.43,-3.43,-3.22,-3.46,4.21,4.21,4.21
128.57,7.62,3.46,7.62,3.45,-3.44,-3.24,-3.47,4.18,4.18,4.16
129.85,7.59,3.45,7.59,3.46,-3.45,-3.27,-3.48,4.14,4.14,4.14
131.15,7.56,3.45,7.56,3.46,-3.45,-3.30,-3.48,4.11,4.11,4.11
132.46,7.54,3.46,7.53,3.45,-3.45,-3.32,-3.48,4.09,4.08,4.08
133.79,7.50,3.44,7.50,3.44,-3.45,-3.35,-3.48,4.05,4.05,4.06
135.12,7.46,3.43,7.47,3.43,-3.44,-3.37,-3.48,4.02,4.03,4.03
136.48,7.44,3.43,7.43,3.43,-3.43,-3.39,-3.47,4.01,4.00,4.01
137.84,7.40,3.42,7.40,3.43,-3.42,-3.42,-3.46,3.98,3.98,3.98
139.22,7.37,3.42,7.37,3.42,-3.41,-3.44,-3.45,3.96,3.96,3.95
140.61,7.34,3.42,7.34,3.41,-3.41,-3.47,-3.44,3.93,3.93,3.92
142.02,7.31,3.40,7.31,3.41,-3.41,-3.49,-3.43,3.90,3.90,3.91
143.44,7.30,3.41,7.29,3.41,-3.42,-3.51,-3.42,3.88,3.88,3.89
144.87,7.28,3.41,7.28,3.42,-3.43,-3.54,-3.40,3.85,3.86,3.87
146.32,7.28,3.44,7.28,3.44,-3.45,-3.56,-3.39,3.83,3.84,3.84
147.78,7.29,3.47,7.28,3.47,-3.47,-3.58,-3.38,3.82,3.82,3.82
149.26,7.29,3.49,7.29,3.50,-3.50,-3.61,-3.37,3.79,3.80,3.80
150.75,7.30,3.55,7.30,3.54,-3.53,-3.63,-3.35,3.77,3.77,3.75
152.26,7.30,3.57,7.30,3.57,-3.56,-3.65,-3.34,3.74,3.73,3.73
153.78,7.30,3.60,7.30,3.60,-3.60,-3.68,-3.33,3.70,3.70,3.70
155.32,7.30,3.64,7.30,3.63,-3.64,-3.70,-3.32,3.66,3.66,3.66
156.88,7.31,3.67,7.31,3.67,-3.68,-3.72,-3.32,3.63,3.63,3.64
158.44,7.32,3.71,7.32,3.72,-3.72,-3.74,-3.31,3.60,3.60,3.61
160.03,7.32,3.75,7.32,3.76,-3.75,-3.76,-3.31,3.56,3.57,3.56
161.63,7.33,3.81,7.33,3.80,-3.79,-3.78,-3.31,3.54,3.54,3.52
163.24,7.32,3.83,7.32,3.83,-3.82,-3.81,-3.30,3.50,3.50,3.49
164.88,7.31,3.85,7.31,3.85,-3.84,-3.83,-3.31,3.47,3.47,3.46
166.53,7.29,3.86,7.29,3.86,-3.86,-3.85,-3.31,3.43,3.43,3.42
168.19,7.27,3.88,7.26,3.88,-3.88,-3.87,-3.32,3.39,3.39,3.39
169.87,7.23,3.88,7.24,3.89,-3.89,-3.89,-3.33,3.34,3.35,3.35
171.57,7.21,3.90,7.21,3.90,-3.90,-3.90,-3.34,3.31,3.30,3.31
173.29,7.18,3.92,7.17,3.91,-3.92,-3.92,-3.36,3.26,3.26,3.26
175.02,7.14,3.91,7.14,3.92,-3.93,-3.94,-3.38,3.21,3.21,3.23
176.77,7.11,3.94,7.11,3.94,-3.94,-3.96,-3.40,3.16,3.17,3.17
178.54,7.09,3.96,7.09,3.96,-3.96,-3.97,-3.42,3.13,3.13,3.12
180.32,7.07,3.99,7.07,3.99,-3.98,-3.99,-3.45,3.09,3.09,3.08
182.13,7.04,4.00,7.04,4.00,-4.00,-4.01,-3.48,3.04,3.04,3.03
183.95,7.00,4.02,7.00,4.02,-4.02,-4.02,-3.51,2.98,2.98,2.98
185.79,6.96,4.02,6.97,4.04,-4.04,-4.04,-3.54,2.92,2.93,2.94
187.65,6.94,4.07,6.93,4.06,-4.06,-4.05,-3.57,2.88,2.88,2.87
189.52,6.91,4.08,6.91,4.08,-4.08,-4.07,-3.61,2.83,2.83,2.83
191.42,6.88,4.09,6.88,4.10,-4.09,-4.08,-3.65,2.78,2.79,2.79
193.33,6.86,4.11,6.86,4.11,-4.11,-4.09,-3.70,2.75,2.74,2.75
195.27,6.83,4.13,6.83,4.13,-4.13,-4.11,-3.74,2.70,2.70,2.70
197.22,6.80,4.15,6.80,4.15,-4.15,-4.12,-3.79,2.65,2.65,2.65
199.19,6.78,4.18,6.78,4.17,-4.17,-4.13,-3.84,2.61,2.61,2.60
201.18,6.75,4.19,6.75,4.19,-4.18,-4.14,-3.89,2.57,2.57,2.56
203.19,6.73,4.20,6.73,4.20,-4.19,-4.15,-3.94,2.54,2.53,2.53
205.23,6.70,4.22,6.70,4.20,-4.20,-4.16,-3.99,2.50,2.49,2.48
207.28,6.66,4.20,6.66,4.21,-4.21,-4.17,-4.04,2.45,2.45,2.46
209.35,6.63,4.22,6.63,4.22,-4.22,-4.18,-4.10,2.41,2.41,2.41
211.44,6.60,4.24,6.60,4.22,-4.23,-4.19,-4.15,2.37,2.37,2.36
213.56,6.57,4.23,6.57,4.23,-4.24,-4.19,-4.20,2.33,2.33,2.34
215.69,6.54,4.22,6.54,4.24,-4.24,-4.20,-4.26,2.29,2.30,2.32
217.85,6.52,4.24,6.52,4.25,-4.25,-4.20,-4.31,2.27,2.27,2.28
220.03,6.51,4.27,6.50,4.26,-4.25,-4.20,-4.36,2.26,2.25,2.24
222.23,6.48,4.27,6.48,4.26,-4.25,-4.20,-4.40,2.23,2.23,2.21
224.45,6.45,4.25,6.45,4.25,-4.24,-4.20,-4.45,2.21,2.21,2.20
226.70,6.41,4.23,6.41,4.23,-4.23,-4.20,-4.49,2.18,2.18,2.18
228.96,6.36,4.21,6.37,4.21,-4.21,-4.19,-4.53,2.15,2.16,2.15
231.25,6.33,4.18,6.32,4.18,-4.19,-4.18,-4.56,2.14,2.14,2.15
233.57,6.29,4.16,6.28,4.16,-4.16,-4.17,-4.60,2.13,2.12,2.13
235.90,6.24,4.12,6.25,4.13,-4.14,-4.16,-4.62,2.10,2.11,2.11
238.26,6.22,4.11,6.22,4.11,-4.11,-4.15,-4.64,2.11,2.11,2.11
240.64,6.19,4.09,6.19,4.09,-4.08,-4.13,-4.66,2.11,2.11,2.10
243.05,6.17,4.06,6.17,4.06,-4.06,-4.11,-4.67,2.11,2.11,2.11
245.48,6.14,4.04,6.13,4.03,-4.03,-4.08,-4.67,2.11,2.11,2.10
247.93,6.10,3.99,6.11,4.00,-4.00,-4.05,-4.67,2.10,2.10,2.11
250.41,6.08,3.98,6.08,3.97,-3.97,-4.02,-4.66,2.11,2.10,2.10
252.92,6.06,3.94,6.06,3.94,-3.94,-3.99,-4.64,2.11,2.11,2.12
255.45,6.04,3.91,6.04,3.91,-3.91,-3.95,-4.62,2.13,2.13,2.13
258.00,6.03,3.89,6.02,3.88,-3.88,-3.91,-4.59,2.15,2.14,2.14
260.58,6.00,3.85,6.00,3.85,-3.85,-3.87,-4.56,2.15,2.15,2.15
263.19,5.98,3.82,5.98,3.82,-3.82,-3.83,-4.52,2.16,2.16,2.16
265.82,5.95,3.78,5.95,3.78,-3.78,-3.79,-4.47,2.17,2.17,2.17
268.48,5.93,3.74,5.93,3.74,-3.75,-3.74,-4.42,2.18,2.18,2.19
271.16,5.92,3.71,5.91,3.71,-3.71,-3.69,-4.37,2.21,2.20,2.21
273.87,5.89,3.67,5.89,3.67,-3.67,-3.64,-4.31,2.22,2.22,2.22
276.61,5.87,3.63,5.87,3.63,-3.62,-3.59,-4.24,2.25,2.25,2.24
279.38,5.84,3.59,5.84,3.58,-3.57,-3.54,-4.18,2.27,2.26,2.25
282.17,5.80,3.53,5.80,3.53,-3.52,-3.49,-4.11,2.28,2.28,2.27
284.99,5.76,3.47,5.75,3.47,-3.47,-3.44,-4.04,2.29,2.29,2.29
287.84,5.70,3.41,5.70,3.41,-3.41,-3.38,-3.96,2.29,2.29,2.29
290.72,5.65,3.34,5.65,3.34,-3.35,-3.33,-3.88,2.30,2.30,2.31
293.63,5.61,3.28,5.61,3.28,-3.30,-3.28,-3.81,2.31,2.31,2.33
296.57,5.57,3.22,5.57,3.23,-3.24,-3.23,-3.73,2.33,2.33,2.34
299.53,5.54,3.19,5.54,3.19,-3.19,-3.18,-3.65,2.35,2.35,2.35
302.53,5.51,3.15,5.51,3.14,-3.14,-3.12,-3.57,2.37,2.37,2.36
305.55,5.48,3.09,5.48,3.10,-3.09,-3.07,-3.49,2.39,2.39,2.39
308.61,5.45,3.05,5.45,3.05,-3.04,-3.02,-3.41,2.41,2.40,2.40
311.69,5.41,3.01,5.41,3.00,-3.00,-2.97,-3.33,2.41,2.41,2.40
314.81,5.37,2.94,5.37,2.95,-2.95,-2.92,-3.25,2.42,2.42,2.43
317.96,5.33,2.90,5.33,2.90,-2.90,-2.87,-3.17,2.43,2.43,2.43
321.14,5.29,2.85,5.29,2.85,-2.86,-2.82,-3.10,2.43,2.43,2.44
324.35,5.25,2.81,5.25,2.81,-2.81,-2.77,-3.02,2.44,2.44,2.44
327.59,5.21,2.75,5.21,2.76,-2.76,-2.72,-2.95,2.45,2.45,2.45
330.87,5.18,2.73,5.17,2.72,-2.72,-2.68,-2.88,2.46,2.46,2.45
334.18,5.13,2.68,5.13,2.68,-2.67,-2.63,-2.81,2.46,2.46,2.45
337.52,5.09,2.63,5.09,2.63,-2.62,-2.58,-2.74,2.47,2.46,2.46
340.90,5.04,2.57,5.04,2.57,-2.58,-2.54,-2.67,2.46,2.46,2.47
344.30,4.99,2.52,4.99,2.53,-2.53,-2.49,-2.61,2.46,2.46,2.47
347.75,4.95,2.48,4.95,2.48,-2.48,-2.45,-2.55,2.46,2.46,2.47
351.23,4.90,2.43,4.90,2.44,-2.44,-2.40,-2.49,2.46,2.46,2.46
354.74,4.86,2.40,4.86,2.40,-2.39,-2.36,-2.43,2.47,2.46,2.46
358.28,4.81,2.36,4.81,2.35,-2.35,-2.31,-2.37,2.46,2.46,2.45
361.87,4.76,2.31,4.76,2.31,-2.31,-2.27,-2.32,2.45,2.46,2.45
365.49,4.72,2.27,4.72,2.27,-2.27,-2.23,-2.26,2.45,2.45,2.45
369.14,4.67,2.23,4.67,2.23,-2.23,-2.19,-2.21,2.44,2.44,2.44
372.83,4.62,2.18,4.62,2.18,-2.19,-2.14,-2.16,2.43,2.43,2.44
376.56,4.57,2.14,4.58,2.15,-2.16,-2.10,-2.12,2.41,2.42,2.43
380.33,4.54,2.11,4.54,2.12,-2.13,-2.06,-2.07,2.41,2.42,2.43
384.13,4.52,2.10,4.51,2.10,-2.10,-2.02,-2.03,2.42,2.42,2.42
387.97,4.49,2.09,4.49,2.08,-2.07,-1.98,-1.98,2.42,2.41,2.40
391.85,4.45,2.06,4.45,2.05,-2.05,-1.94,-1.94,2.40,2.40,2.39
395.77,4.41,2.01,4.41,2.02,-2.02,-1.90,-1.90,2.39,2.40,2.40
399.73,4.38,1.99,4.38,1.99,-1.99,-1.86,-1.86,2.39,2.39,2.39
403.72,4.35,1.97,4.34,1.96,-1.96,-1.82,-1.83,2.39,2.38,2.38
407.76,4.31,1.94,4.31,1.93,-1.93,-1.78,-1.79,2.38,2.38,2.37
411.84,4.26,1.88,4.26,1.89,-1.89,-1.74,-1.76,2.37,2.37,2.38
415.96,4.22,1.85,4.22,1.85,-1.85,-1.71,-1.72,2.37,2.37,2.37
420.12,4.18,1.81,4.18,1.81,-1.81,-1.67,-1.69,2.37,2.37,2.37
424.32,4.13,1.76,4.13,1.77,-1.76,-1.63,-1.66,2.37,2.37,2.37
428.56,4.08,1.72,4.08,1.72,-1.71,-1.59,-1.63,2.37,2.37,2.36
432.85,4.03,1.67,4.03,1.67,-1.66,-1.55,-1.60,2.37,2.37,2.36
437.18,3.97,1.61,3.97,1.61,-1.61,-1.52,-1.57,2.36,2.37,2.36
441.55,3.91,1.54,3.91,1.55,-1.55,-1.48,-1.54,2.36,2.36,2.37
445.96,3.85,1.48,3.85,1.48,-1.50,-1.44,-1.51,2.35,2.35,2.37
450.42,3.78,1.42,3.79,1.43,-1.44,-1.41,-1.48,2.34,2.35,2.35
454.93,3.74,1.37,3.74,1.38,-1.38,-1.37,-1.45,2.36,2.36,2.36
459.48,3.70,1.34,3.70,1.33,-1.33,-1.33,-1.42,2.37,2.37,2.36
464.07,3.66,1.29,3.66,1.28,-1.27,-1.30,-1.39,2.39,2.38,2.37
468.71,3.61,1.23,3.60,1.22,-1.22,-1.26,-1.36,2.39,2.39,2.38
473.40,3.54,1.16,3.55,1.16,-1.16,-1.23,-1.33,2.38,2.39,2.38
478.13,3.49,1.10,3.49,1.10,-1.10,-1.19,-1.29,2.39,2.39,2.39
482.91,3.44,1.05,3.44,1.04,-1.04,-1.16,-1.26,2.40,2.39,2.39
487.74,3.39,0.99,3.39,0.99,-0.98,-1.12,-1.23,2.41,2.41,2.40
492.62,3.34,0.93,3.34,0.93,-0.93,-1.08,-1.19,2.41,2.41,2.41
497.55,3.29,0.88,3.29,0.87,-0.87,-1.05,-1.16,2.42,2.42,2.41
502.52,3.24,0.82,3.24,0.82,-0.83,-1.01,-1.12,2.41,2.41,2.42
507.55,3.20,0.78,3.20,0.78,-0.79,-0.98,-1.08,2.41,2.41,2.42
512.62,3.16,0.74,3.16,0.74,-0.75,-0.94,-1.05,2.41,2.41,2.42
517.75,3.14,0.71,3.14,0.71,-0.72,-0.91,-1.01,2.42,2.42,2.43
522.93,3.13,0.70,3.13,0.70,-0.70,-0.87,-0.97,2.43,2.43,2.43
528.16,3.12,0.69,3.12,0.69,-0.68,-0.84,-0.92,2.44,2.44,2.43
533.44,3.11,0.68,3.10,0.67,-0.66,-0.80,-0.88,2.45,2.44,2.43
538.77,3.08,0.65,3.08,0.65,-0.65,-0.77,-0.84,2.43,2.43,2.43
544.16,3.06,0.63,3.06,0.63,-0.64,-0.73,-0.79,2.42,2.43,2.43
549.60,3.04,0.61,3.04,0.62,-0.62,-0.70,-0.75,2.42,2.42,2.43
555.10,3.03,0.61,3.03,0.60,-0.61,-0.66,-0.70,2.42,2.42,2.42
