frequency,raw,error,smoothed,error_smoothed,equalization,parametric_eq,fixed_band_eq,equalized_raw,equalized_smoothed,target
20.00,1.79,-2.36,1.79,-2.36,2.36,1.64,0.81,4.15,4.16,4.15
20.20,1.81,-2.33,1.81,-2.33,2.33,1.67,0.83,4.14,4.14,4.14
20.40,1.83,-2.30,1.83,-2.30,2.30,1.70,0.86,4.13,4.13,4.13
20.61,1.85,-2.27,1.85,-2.27,2.27,1.73,0.88,4.12,4.12,4.12
20.81,1.87,-2.23,1.87,-2.24,2.24,1.76,0.91,4.11,4.11,4.10
21.02,1.89,-2.20,1.89,-2.21,2.21,1.78,0.93,4.10,4.10,4.09
21.23,1.91,-2.17,1.91,-2.18,2.18,1.81,0.96,4.09,4.09,4.08
21.44,1.93,-2.16,1.93,-2.15,2.15,1.83,0.98,4.08,4.08,4.09
21.66,1.94,-2.13,1.94,-2.13,2.13,1.85,1.01,4.07,4.07,4.07
21.87,1.96,-2.11,1.96,-2.10,2.10,1.88,1.04,4.06,4.06,4.07
22.09,1.98,-2.07,1.98,-2.07,2.07,1.90,1.07,4.06,4.05,4.05
22.31,2.00,-2.05,2.00,-2.05,2.05,1.91,1.10,4.05,4.05,4.05
22.54,2.01,-2.03,2.01,-2.03,2.03,1.93,1.13,4.04,4.04,4.04
22.76,2.03,-2.01,2.03,-2.00,2.00,1.95,1.16,4.03,4.04,4.04
22.99,2.05,-1.98,2.05,-1.98,1.98,1.96,1.20,4.03,4.03,4.03
23.22,2.07,-1.95,2.07,-1.96,1.96,1.97,1.23,4.03,4.03,4.02
23.45,2.08,-1.95,2.08,-1.94,1.94,1.98,1.26,4.02,4.02,4.03
23.69,2.10,-1.92,2.10,-1.92,1.92,1.99,1.30,4.02,4.02,4.02
23.92,2.11,-1.90,2.12,-1.90,1.90,1.99,1.33,4.01,4.01,4.01
24.16,2.13,-1.88,2.13,-1.88,1.88,1.99,1.37,4.01,4.01,4.02
24.40,2.15,-1.86,2.15,-1.86,1.86,1.99,1.40,4.01,4.01,4.01
24.65,2.17,-1.84,2.17,-1.84,1.84,1.99,1.44,4.01,4.01,4.01
24.89,2.18,-1.83,2.18,-1.83,1.83,1.99,1.48,4.01,4.01,4.01
25.14,2.20,-1.80,2.20,-1.81,1.81,1.98,1.51,4.01,4.01,4.00
25.39,2.21,-1.79,2.21,-1.79,1.79,1.98,1.55,4.00,4.00,4.00
25.65,2.23,-1.77,2.23,-1.78,1.78,1.97,1.59,4.01,4.00,4.00
25.91,2.24,-1.76,2.24,-1.76,1.76,1.95,1.62,4.00,4.00,4.00
26.16,2.26,-1.75,2.26,-1.75,1.75,1.94,1.66,4.01,4.00,4.01
26.43,2.27,-1.74,2.27,-1.73,1.73,1.93,1.69,4.00,4.00,4.01
26.69,2.28,-1.73,2.29,-1.72,1.72,1.91,1.73,4.00,4.01,4.01
26.96,2.30,-1.71,2.30,-1.71,1.71,1.89,1.76,4.01,4.01,4.01
27.23,2.31,-1.69,2.31,-1.70,1.70,1.87,1.79,4.01,4.01,4.00
27.50,2.33,-1.67,2.33,-1.69,1.69,1.85,1.82,4.02,4.01,4.00
27.77,2.34,-1.67,2.34,-1.68,1.68,1.82,1.85,4.02,4.01,4.01
28.05,2.35,-1.66,2.35,-1.67,1.67,1.80,1.88,4.02,4.02,4.01
28.33,2.36,-1.66,2.36,-1.66,1.66,1.77,1.91,4.02,4.02,4.02
28.62,2.37,-1.65,2.37,-1.65,1.65,1.75,1.93,4.02,4.02,4.02
28.90,2.39,-1.64,2.39,-1.63,1.63,1.72,1.95,4.03,4.02,4.03
29.19,2.40,-1.63,2.40,-1.62,1.62,1.69,1.97,4.03,4.02,4.03
29.48,2.40,-1.62,2.41,-1.61,1.61,1.66,1.99,4.01,4.02,4.02
29.78,2.41,-1.61,2.42,-1.60,1.60,1.63,2.00,4.01,4.02,4.02
30.08,2.42,-1.60,2.42,-1.59,1.59,1.60,2.01,4.01,4.02,4.02
30.38,2.43,-1.58,2.43,-1.58,1.58,1.57,2.02,4.01,4.01,4.01
30.68,2.44,-1.57,2.44,-1.57,1.57,1.54,2.02,4.01,4.01,4.01
30.99,2.45,-1.56,2.44,-1.56,1.56,1.50,2.02,4.01,4.01,4.01
31.30,2.45,-1.55,2.45,-1.55,1.55,1.47,2.02,4.00,4.00,4.00
31.61,2.46,-1.54,2.46,-1.54,1.54,1.44,2.02,4.00,4.00,4.00
31.93,2.46,-1.52,2.46,-1.53,1.53,1.41,2.01,3.99,3.99,3.98
32.24,2.46,-1.53,2.47,-1.52,1.52,1.38,1.99,3.98,3.99,3.99
32.57,2.47,-1.51,2.47,-1.51,1.51,1.35,1.98,3.98,3.98,3.98
32.89,2.47,-1.50,2.47,-1.50,1.50,1.31,1.96,3.97,3.98,3.97
33.22,2.47,-1.50,2.48,-1.49,1.49,1.28,1.94,3.96,3.97,3.97
33.55,2.48,-1.49,2.48,-1.49,1.49,1.25,1.92,3.97,3.96,3.97
33.89,2.48,-1.48,2.48,-1.48,1.48,1.22,1.89,3.96,3.96,3.96
34.23,2.48,-1.46,2.48,-1.47,1.47,1.19,1.86,3.95,3.95,3.94
34.57,2.48,-1.46,2.48,-1.47,1.47,1.16,1.83,3.95,3.95,3.94
34.92,2.48,-1.45,2.48,-1.46,1.46,1.13,1.80,3.94,3.94,3.93
35.27,2.48,-1.46,2.48,-1.45,1.45,1.10,1.76,3.93,3.93,3.94
35.62,2.48,-1.44,2.48,-1.44,1.44,1.07,1.73,3.92,3.92,3.92
35.97,2.48,-1.44,2.47,-1.43,1.43,1.04,1.69,3.91,3.91,3.92
36.33,2.47,-1.43,2.47,-1.42,1.42,1.02,1.65,3.89,3.90,3.90
36.70,2.47,-1.41,2.47,-1.41,1.41,0.99,1.62,3.88,3.88,3.88
37.06,2.46,-1.41,2.47,-1.40,1.40,0.96,1.58,3.86,3.87,3.87
37.43,2.46,-1.39,2.47,-1.39,1.39,0.93,1.54,3.85,3.85,3.85
37.81,2.46,-1.38,2.46,-1.37,1.37,0.91,1.50,3.83,3.84,3.84
38.19,2.46,-1.36,2.46,-1.36,1.36,0.88,1.46,3.82,3.82,3.82
38.57,2.46,-1.34,2.46,-1.34,1.34,0.86,1.42,3.80,3.80,3.80
38.95,2.46,-1.33,2.46,-1.32,1.32,0.83,1.38,3.78,3.78,3.79
39.34,2.46,-1.30,2.46,-1.30,1.30,0.81,1.34,3.76,3.76,3.76
39.74,2.46,-1.28,2.46,-1.29,1.29,0.79,1.30,3.75,3.74,3.74
40.14,2.46,-1.26,2.46,-1.27,1.27,0.76,1.26,3.73,3.72,3.72
40.54,2.46,-1.25,2.46,-1.25,1.25,0.74,1.22,3.71,3.71,3.71
40.94,2.46,-1.22,2.46,-1.23,1.23,0.72,1.18,3.69,3.69,3.68
41.35,2.46,-1.21,2.46,-1.21,1.21,0.70,1.14,3.67,3.67,3.67
41.76,2.46,-1.18,2.46,-1.19,1.19,0.68,1.11,3.65,3.65,3.64
42.18,2.46,-1.17,2.46,-1.17,1.17,0.66,1.07,3.63,3.63,3.63
42.60,2.46,-1.15,2.46,-1.15,1.15,0.64,1.03,3.61,3.61,3.61
43.03,2.46,-1.13,2.46,-1.13,1.13,0.62,1.00,3.59,3.59,3.59
43.46,2.46,-1.10,2.46,-1.11,1.11,0.60,0.96,3.57,3.57,3.56
43.90,2.46,-1.09,2.46,-1.09,1.09,0.58,0.93,3.55,3.55,3.55
44.33,2.46,-1.06,2.46,-1.06,1.06,0.56,0.90,3.52,3.52,3.52
44.78,2.46,-1.04,2.46,-1.04,1.04,0.54,0.87,3.50,3.50,3.50
45.23,2.46,-1.02,2.46,-1.01,1.01,0.52,0.84,3.47,3.47,3.48
45.68,2.46,-0.99,2.46,-0.99,0.99,0.51,0.81,3.45,3.45,3.45
46.13,2.46,-0.96,2.46,-0.96,0.96,0.49,0.78,3.42,3.42,3.42
46.60,2.46,-0.93,2.46,-0.93,0.93,0.47,0.75,3.39,3.39,3.39
47.06,2.46,-0.90,2.46,-0.89,0.89,0.46,0.72,3.35,3.35,3.36
47.53,2.46,-0.87,2.46,-0.86,0.86,0.44,0.69,3.32,3.32,3.33
48.01,2.46,-0.82,2.46,-0.82,0.82,0.42,0.67,3.28,3.28,3.28
48.49,2.46,-0.79,2.46,-0.79,0.79,0.41,0.64,3.25,3.25,3.25
48.97,2.46,-0.75,2.46,-0.75,0.75,0.39,0.61,3.21,3.22,3.21
49.46,2.46,-0.72,2.47,-0.71,0.71,0.38,0.59,3.18,3.18,3.18
49.96,2.46,-0.67,2.47,-0.68,0.68,0.36,0.57,3.14,3.14,3.13
50.46,2.46,-0.65,2.47,-0.64,0.64,0.35,0.54,3.10,3.11,3.11
50.96,2.47,-0.60,2.47,-0.60,0.60,0.34,0.52,3.07,3.07,3.07
51.47,2.47,-0.57,2.47,-0.57,0.57,0.32,0.50,3.04,3.04,3.04
51.99,2.48,-0.52,2.47,-0.53,0.53,0.31,0.47,3.01,3.01,3.00
52.51,2.48,-0.49,2.47,-0.50,0.50,0.29,0.45,2.98,2.97,2.97
53.03,2.48,-0.47,2.47,-0.46,0.46,0.28,0.43,2.95,2.94,2.95
53.56,2.47,-0.44,2.47,-0.44,0.44,0.27,0.41,2.91,2.91,2.92
54.10,2.47,-0.40,2.47,-0.41,0.41,0.26,0.39,2.88,2.88,2.87
54.64,2.46,-0.38,2.46,-0.38,0.38,0.24,0.37,2.84,2.85,2.85
55.18,2.46,-0.35,2.45,-0.36,0.36,0.23,0.35,2.82,2.82,2.81
55.74,2.45,-0.32,2.45,-0.34,0.34,0.22,0.33,2.79,2.79,2.77
56.29,2.43,-0.32,2.43,-0.33,0.33,0.21,0.32,2.76,2.76,2.76
56.86,2.42,-0.31,2.42,-0.31,0.31,0.19,0.30,2.73,2.73,2.73
57.42,2.41,-0.28,2.40,-0.29,0.29,0.18,0.28,2.71,2.70,2.69
58.00,2.39,-0.27,2.39,-0.28,0.28,0.17,0.26,2.67,2.67,2.66
58.58,2.37,-0.27,2.37,-0.27,0.27,0.16,0.24,2.64,2.63,2.64
59.16,2.35,-0.27,2.35,-0.25,0.25,0.15,0.23,2.60,2.60,2.62
59.76,2.33,-0.26,2.33,-0.23,0.23,0.14,0.21,2.56,2.57,2.59
60.35,2.31,-0.24,2.31,-0.22,0.22,0.13,0.19,2.53,2.53,2.55
60.96,2.29,-0.21,2.29,-0.20,0.20,0.11,0.18,2.49,2.49,2.51
61.57,2.27,-0.18,2.27,-0.18,0.18,0.10,0.16,2.45,2.45,2.45
62.18,2.25,-0.16,2.26,-0.16,0.16,0.09,0.14,2.41,2.42,2.41
62.80,2.23,-0.13,2.24,-0.14,0.14,0.08,0.13,2.37,2.38,2.36
63.43,2.21,-0.11,2.22,-0.11,0.11,0.07,0.11,2.32,2.34,2.32
64.07,2.20,-0.08,2.21,-0.09,0.09,0.06,0.09,2.29,2.30,2.28
64.71,2.19,-0.06,2.19,-0.06,0.06,0.05,0.08,2.25,2.25,2.25
65.35,2.18,-0.03,2.18,-0.04,0.04,0.04,0.06,2.22,2.21,2.21
66.01,2.17,-0.00,2.16,-0.01,0.01,0.03,0.04,2.18,2.17,2.17
66.67,2.15,0.01,2.15,0.01,-0.01,0.02,0.03,2.14,2.13,2.14
67.33,2.13,0.04,2.13,0.04,-0.04,0.01,0.01,2.09,2.10,2.09
68.01,2.12,0.06,2.12,0.07,-0.07,-0.00,-0.01,2.06,2.06,2.06
68.69,2.11,0.09,2.11,0.09,-0.09,-0.02,-0.02,2.02,2.02,2.02
69.37,2.09,0.10,2.10,0.12,-0.12,-0.03,-0.04,1.97,1.98,1.99
70.07,2.08,0.13,2.08,0.14,-0.14,-0.04,-0.06,1.94,1.94,1.95
70.77,2.06,0.16,2.07,0.17,-0.17,-0.05,-0.07,1.89,1.90,1.90
71.48,2.05,0.18,2.05,0.19,-0.19,-0.06,-0.09,1.86,1.86,1.87
72.19,2.03,0.21,2.03,0.21,-0.21,-0.07,-0.11,1.82,1.82,1.82
72.91,2.01,0.24,2.01,0.23,-0.23,-0.08,-0.12,1.78,1.78,1.78
73.64,2.00,0.26,1.99,0.24,-0.24,-0.09,-0.14,1.76,1.75,1.74
74.38,1.98,0.28,1.97,0.26,-0.26,-0.10,-0.16,1.72,1.71,1.70
75.12,1.96,0.29,1.94,0.27,-0.27,-0.11,-0.18,1.69,1.68,1.67
75.87,1.93,0.29,1.91,0.27,-0.27,-0.12,-0.20,1.66,1.64,1.64
76.63,1.89,0.29,1.88,0.27,-0.27,-0.14,-0.21,1.62,1.61,1.60
77.40,1.85,0.27,1.85,0.27,-0.27,-0.15,-0.23,1.58,1.58,1.58
78.17,1.82,0.28,1.82,0.27,-0.27,-0.16,-0.25,1.55,1.55,1.54
78.95,1.78,0.26,1.79,0.27,-0.27,-0.17,-0.27,1.51,1.52,1.52
79.74,1.74,0.25,1.75,0.27,-0.27,-0.18,-0.29,1.47,1.49,1.49
80.54,1.71,0.25,1.72,0.26,-0.26,-0.19,-0.31,1.45,1.46,1.46
81.35,1.68,0.25,1.69,0.26,-0.26,-0.21,-0.33,1.42,1.43,1.43
82.16,1.65,0.24,1.66,0.25,-0.25,-0.22,-0.35,1.40,1.40,1.41
82.98,1.62,0.25,1.62,0.25,-0.25,-0.23,-0.37,1.37,1.37,1.38
83.81,1.60,0.25,1.60,0.25,-0.25,-0.24,-0.39,1.35,1.34,1.35
84.65,1.58,0.27,1.57,0.26,-0.26,-0.26,-0.41,1.32,1.31,1.31
85.50,1.56,0.28,1.55,0.27,-0.27,-0.27,-0.44,1.29,1.28,1.28
86.35,1.53,0.28,1.53,0.28,-0.28,-0.28,-0.46,1.25,1.25,1.25
87.22,1.51,0.29,1.51,0.29,-0.29,-0.30,-0.48,1.22,1.22,1.22
88.09,1.49,0.30,1.50,0.31,-0.31,-0.31,-0.50,1.18,1.19,1.19
88.97,1.47,0.32,1.49,0.34,-0.34,-0.32,-0.53,1.14,1.15,1.15
89.86,1.46,0.34,1.48,0.36,-0.36,-0.34,-0.55,1.10,1.12,1.12
90.76,1.46,0.37,1.47,0.39,-0.39,-0.35,-0.58,1.07,1.08,1.09
91.66,1.46,0.42,1.47,0.42,-0.42,-0.37,-0.60,1.04,1.05,1.04
92.58,1.47,0.45,1.47,0.45,-0.45,-0.38,-0.63,1.02,1.01,1.02
93.51,1.48,0.50,1.47,0.49,-0.49,-0.39,-0.65,0.99,0.98,0.98
94.44,1.48,0.53,1.47,0.53,-0.53,-0.41,-0.68,0.95,0.94,0.95
95.39,1.48,0.58,1.47,0.57,-0.57,-0.43,-0.70,0.91,0.90,0.90
96.34,1.48,0.61,1.47,0.61,-0.61,-0.44,-0.73,0.87,0.87,0.87
97.30,1.48,0.65,1.48,0.65,-0.65,-0.46,-0.76,0.83,0.83,0.83
98.28,1.48,0.70,1.48,0.69,-0.69,-0.47,-0.78,0.79,0.79,0.78
99.26,1.48,0.73,1.49,0.73,-0.73,-0.49,-0.81,0.75,0.76,0.75
100.25,1.48,0.77,1.49,0.77,-0.77,-0.51,-0.84,0.71,0.72,0.71
101.25,1.48,0.80,1.50,0.81,-0.81,-0.53,-0.87,0.67,0.69,0.68
102.27,1.48,0.83,1.50,0.84,-0.84,-0.54,-0.89,0.64,0.65,0.65
103.29,1.49,0.87,1.50,0.88,-0.88,-0.56,-0.92,0.61,0.62,0.62
104.32,1.49,0.90,1.50,0.91,-0.91,-0.58,-0.95,0.58,0.59,0.59
105.37,1.50,0.94,1.50,0.94,-0.94,-0.60,-0.98,0.56,0.56,0.56
106.42,1.51,0.98,1.49,0.97,-0.97,-0.62,-1.00,0.55,0.53,0.53
107.48,1.51,1.02,1.49,0.99,-0.99,-0.64,-1.03,0.52,0.49,0.49
108.56,1.49,1.02,1.47,1.01,-1.01,-0.66,-1.06,0.48,0.46,0.47
109.64,1.48,1.04,1.46,1.03,-1.03,-0.68,-1.08,0.45,0.43,0.44
110.74,1.46,1.06,1.44,1.04,-1.04,-0.70,-1.11,0.42,0.40,0.40
111.85,1.42,1.06,1.41,1.05,-1.05,-0.72,-1.13,0.37,0.36,0.36
112.97,1.39,1.05,1.39,1.06,-1.06,-0.74,-1.16,0.33,0.33,0.34
114.10,1.36,1.06,1.36,1.06,-1.06,-0.77,-1.18,0.30,0.29,0.30
115.24,1.32,1.07,1.33,1.07,-1.07,-0.79,-1.20,0.25,0.26,0.26
116.39,1.30,1.08,1.30,1.07,-1.07,-0.81,-1.22,0.23,0.23,0.22
117.55,1.27,1.09,1.27,1.08,-1.08,-0.84,-1.24,0.19,0.20,0.18
118.73,1.23,1.08,1.25,1.09,-1.09,-0.86,-1.26,0.14,0.16,0.15
119.92,1.19,1.07,1.23,1.10,-1.10,-0.88,-1.27,0.10,0.13,0.12
121.12,1.17,1.07,1.21,1.11,-1.11,-0.91,-1.29,0.06,0.10,0.10
122.33,1.16,1.09,1.19,1.12,-1.12,-0.93,-1.30,0.04,0.07,0.07
123.55,1.16,1.12,1.17,1.14,-1.14,-0.96,-1.31,0.02,0.03,0.04
124.79,1.16,1.15,1.16,1.16,-1.16,-0.99,-1.32,0.00,0.00,0.01
126.03,1.16,1.18,1.14,1.17,-1.17,-1.01,-1.33,-0.01,-0.03,-0.02
127.29,1.15,1.20,1.13,1.19,-1.19,-1.04,-1.34,-0.04,-0.06,-0.05
128.57,1.14,1.23,1.11,1.20,-1.20,-1.07,-1.34,-0.06,-0.09,-0.09
129.85,1.12,1.24,1.09,1.22,-1.22,-1.09,-1.35,-0.10,-0.12,-0.12
131.15,1.09,1.25,1.07,1.23,-1.23,-1.12,-1.35,-0.14,-0.16,-0.16
132.46,1.07,1.26,1.05,1.24,-1.24,-1.15,-1.35,-0.17,-0.19,-0.19
133.79,1.04,1.27,1.02,1.24,-1.24,-1.18,-1.35,-0.20,-0.22,-0.23
135.12,0.99,1.24,1.00,1.25,-1.25,-1.21,-1.35,-0.26,-0.25,-0.25
136.48,0.97,1.25,0.97,1.25,-1.25,-1.23,-1.34,-0.28,-0.28,-0.28
137.84,0.93,1.25,0.94,1.25,-1.25,-1.26,-1.34,-0.32,-0.31,-0.31
139.22,0.90,1.25,0.91,1.25,-1.25,-1.29,-1.34,-0.35,-0.34,-0.35
140.61,0.88,1.25,0.89,1.26,-1.26,-1.32,-1.33,-0.38,-0.37,-0.37
142.02,0.84,1.25,0.87,1.27,-1.27,-1.35,-1.33,-0.43,-0.40,-0.41
143.44,0.83,1.26,0.86,1.28,-1.28,-1.38,-1.32,-0.45,-0.42,-0.43
144.87,0.81,1.26,0.85,1.30,-1.30,-1.40,-1.31,-0.49,-0.45,-0.45
146.32,0.81,1.29,0.84,1.32,-1.32,-1.43,-1.31,-0.50,-0.47,-0.48
147.78,0.82,1.32,0.84,1.34,-1.34,-1.46,-1.30,-0.52,-0.50,-0.50
149.26,0.83,1.36,0.84,1.36,-1.36,-1.48,-1.29,-0.53,-0.52,-0.53
150.75,0.84,1.39,0.84,1.39,-1.39,-1.51,-1.29,-0.55,-0.55,-0.55
152.26,0.85,1.42,0.84,1.41,-1.41,-1.53,-1.28,-0.56,-0.57,-0.57
153.78,0.86,1.46,0.83,1.43,-1.43,-1.56,-1.28,-0.57,-0.60,-0.60
155.32,0.86,1.48,0.83,1.45,-1.45,-1.58,-1.27,-0.59,-0.62,-0.62
156.88,0.85,1.50,0.82,1.47,-1.47,-1.60,-1.27,-0.62,-0.65,-0.64
158.44,0.84,1.52,0.81,1.49,-1.49,-1.63,-1.26,-0.65,-0.68,-0.68
160.03,0.81,1.51,0.80,1.50,-1.50,-1.65,-1.26,-0.69,-0.71,-0.70
161.63,0.79,1.52,0.78,1.52,-1.52,-1.66,-1.25,-0.72,-0.73,-0.73
163.24,0.76,1.52,0.76,1.52,-1.52,-1.68,-1.25,-0.76,-0.76,-0.76
164.88,0.72,1.51,0.73,1.53,-1.53,-1.70,-1.25,-0.81,-0.79,-0.79
166.53,0.69,1.52,0.71,1.53,-1.53,-1.71,-1.25,-0.84,-0.82,-0.83
168.19,0.66,1.51,0.67,1.53,-1.53,-1.72,-1.25,-0.87,-0.86,-0.85
169.87,0.63,1.52,0.64,1.53,-1.53,-1.74,-1.25,-0.90,-0.89,-0.89
171.57,0.61,1.54,0.61,1.53,-1.53,-1.74,-1.26,-0.92,-0.92,-0.92
173.29,0.59,1.54,0.58,1.54,-1.54,-1.75,-1.26,-0.95,-0.96,-0.95
175.02,0.55,1.54,0.55,1.54,-1.54,-1.76,-1.26,-0.99,-0.99,-0.99
176.77,0.52,1.54,0.52,1.54,-1.54,-1.76,-1.27,-1.02,-1.02,-1.02
178.54,0.49,1.54,0.49,1.55,-1.55,-1.76,-1.28,-1.05,-1.06,-1.05
180.32,0.46,1.56,0.46,1.55,-1.55,-1.76,-1.29,-1.09,-1.09,-1.10
182.13,0.43,1.55,0.43,1.55,-1.55,-1.76,-1.29,-1.12,-1.12,-1.12
183.95,0.40,1.55,0.40,1.56,-1.56,-1.76,-1.30,-1.16,-1.16,-1.15
185.79,0.38,1.57,0.37,1.56,-1.56,-1.75,-1.31,-1.18,-1.19,-1.19
187.65,0.36,1.58,0.35,1.57,-1.57,-1.75,-1.33,-1.21,-1.22,-1.22
189.52,0.32,1.57,0.32,1.58,-1.58,-1.74,-1.34,-1.25,-1.25,-1.25
191.42,0.29,1.57,0.30,1.58,-1.58,-1.73,-1.35,-1.29,-1.29,-1.28
193.33,0.26,1.57,0.28,1.59,-1.59,-1.71,-1.37,-1.33,-1.32,-1.31
195.27,0.24,1.59,0.26,1.60,-1.60,-1.70,-1.38,-1.36,-1.35,-1.35
197.22,0.22,1.61,0.24,1.61,-1.61,-1.68,-1.40,-1.39,-1.37,-1.39
199.19,0.20,1.60,0.22,1.62,-1.62,-1.67,-1.41,-1.42,-1.40,-1.40
201.18,0.19,1.63,0.20,1.62,-1.62,-1.65,-1.43,-1.43,-1.43,-1.44
203.19,0.18,1.64,0.18,1.63,-1.63,-1.63,-1.45,-1.45,-1.45,-1.45
205.23,0.17,1.64,0.16,1.64,-1.64,-1.61,-1.46,-1.46,-1.48,-1.47
207.28,0.16,1.66,0.14,1.64,-1.64,-1.59,-1.48,-1.48,-1.50,-1.49
209.35,0.14,1.66,0.12,1.64,-1.64,-1.57,-1.50,-1.50,-1.52,-1.52
211.44,0.12,1.66,0.10,1.64,-1.64,-1.54,-1.52,-1.52,-1.54,-1.54
213.56,0.08,1.64,0.07,1.64,-1.64,-1.52,-1.53,-1.56,-1.56,-1.56
215.69,0.04,1.62,0.05,1.63,-1.63,-1.49,-1.55,-1.59,-1.58,-1.58
217.85,0.01,1.61,0.02,1.63,-1.63,-1.47,-1.57,-1.61,-1.60,-1.60
220.03,-0.01,1.61,-0.00,1.62,-1.62,-1.44,-1.58,-1.63,-1.62,-1.62
222.23,-0.04,1.60,-0.03,1.61,-1.61,-1.42,-1.59,-1.65,-1.64,-1.64
224.45,-0.06,1.60,-0.06,1.59,-1.59,-1.39,-1.61,-1.65,-1.65,-1.66
226.70,-0.10,1.58,-0.09,1.58,-1.58,-1.36,-1.62,-1.68,-1.67,-1.68
228.96,-0.12,1.56,-0.12,1.57,-1.57,-1.34,-1.63,-1.69,-1.68,-1.68
231.25,-0.14,1.56,-0.15,1.55,-1.55,-1.31,-1.64,-1.69,-1.70,-1.70
233.57,-0.17,1.54,-0.18,1.53,-1.53,-1.28,-1.65,-1.70,-1.71,-1.71
235.90,-0.21,1.51,-0.20,1.51,-1.51,-1.26,-1.65,-1.72,-1.72,-1.72
238.26,-0.23,1.50,-0.23,1.49,-1.49,-1.23,-1.65,-1.72,-1.72,-1.73
240.64,-0.25,1.47,-0.26,1.47,-1.47,-1.20,-1.65,-1.72,-1.73,-1.72
243.05,-0.27,1.46,-0.28,1.45,-1.45,-1.18,-1.65,-1.72,-1.73,-1.73
245.48,-0.30,1.44,-0.31,1.42,-1.42,-1.15,-1.65,-1.72,-1.73,-1.74
247.93,-0.35,1.40,-0.33,1.40,-1.40,-1.13,-1.64,-1.75,-1.74,-1.75
250.41,-0.37,1.36,-0.36,1.38,-1.38,-1.10,-1.63,-1.75,-1.74,-1.73
252.92,-0.40,1.33,-0.38,1.36,-1.36,-1.08,-1.62,-1.76,-1.74,-1.73
255.45,-0.42,1.32,-0.40,1.34,-1.34,-1.05,-1.61,-1.76,-1.74,-1.74
258.00,-0.43,1.31,-0.42,1.31,-1.31,-1.03,-1.59,-1.74,-1.74,-1.73
260.58,-0.45,1.28,-0.44,1.29,-1.29,-1.00,-1.57,-1.74,-1.74,-1.73
263.19,-0.46,1.27,-0.46,1.27,-1.27,-0.98,-1.55,-1.73,-1.73,-1.73
265.82,-0.48,1.25,-0.49,1.25,-1.25,-0.96,-1.53,-1.72,-1.73,-1.73
268.48,-0.50,1.23,-0.51,1.22,-1.22,-0.93,-1.50,-1.72,-1.73,-1.73
271.16,-0.51,1.22,-0.54,1.19,-1.19,-0.91,-1.47,-1.70,-1.73,-1.72
273.87,-0.55,1.18,-0.56,1.17,-1.17,-0.89,-1.44,-1.71,-1.73,-1.73
276.61,-0.58,1.15,-0.59,1.14,-1.14,-0.87,-1.41,-1.72,-1.73,-1.72
279.38,-0.60,1.14,-0.62,1.11,-1.11,-0.85,-1.38,-1.71,-1.73,-1.74
282.17,-0.64,1.09,-0.64,1.08,-1.08,-0.83,-1.34,-1.72,-1.72,-1.73
284.99,-0.67,1.05,-0.67,1.05,-1.05,-0.81,-1.31,-1.72,-1.72,-1.72
287.84,-0.71,1.00,-0.69,1.02,-1.02,-0.79,-1.27,-1.73,-1.71,-1.71
290.72,-0.74,0.98,-0.71,1.00,-1.00,-0.77,-1.23,-1.74,-1.71,-1.72
293.63,-0.77,0.93,-0.73,0.97,-0.97,-0.75,-1.19,-1.74,-1.70,-1.70
296.57,-0.78,0.92,-0.75,0.95,-0.95,-0.73,-1.15,-1.73,-1.70,-1.70
299.53,-0.79,0.90,-0.76,0.93,-0.93,-0.72,-1.11,-1.72,-1.69,-1.69
302.53,-0.79,0.88,-0.78,0.90,-0.90,-0.70,-1.07,-1.69,-1.68,-1.67
305.55,-0.79,0.89,-0.79,0.88,-0.88,-0.68,-1.02,-1.67,-1.67,-1.68
308.61,-0.78,0.88,-0.80,0.86,-0.86,-0.67,-0.98,-1.64,-1.66,-1.66
311.69,-0.79,0.86,-0.81,0.84,-0.84,-0.65,-0.94,-1.63,-1.65,-1.65
314.81,-0.80,0.85,-0.83,0.82,-0.82,-0.63,-0.90,-1.61,-1.64,-1.65
317.96,-0.81,0.83,-0.85,0.79,-0.79,-0.62,-0.85,-1.60,-1.64,-1.64
321.14,-0.84,0.78,-0.86,0.76,-0.76,-0.61,-0.81,-1.60,-1.63,-1.62
324.35,-0.87,0.75,-0.89,0.73,-0.73,-0.59,-0.77,-1.60,-1.62,-1.62
327.59,-0.91,0.69,-0.91,0.69,-0.69,-0.58,-0.73,-1.60,-1.61,-1.60
330.87,-0.94,0.66,-0.94,0.66,-0.66,-0.56,-0.68,-1.60,-1.60,-1.60
334.18,-0.97,0.62,-0.97,0.62,-0.62,-0.55,-0.64,-1.59,-1.59,-1.59
337.52,-1.01,0.57,-1.00,0.58,-0.58,-0.54,-0.60,-1.59,-1.58,-1.58
340.90,-1.04,0.53,-1.03,0.54,-0.54,-0.53,-0.56,-1.58,-1.57,-1.57
344.30,-1.07,0.49,-1.05,0.51,-0.51,-0.51,-0.52,-1.58,-1.56,-1.56
347.75,-1.09,0.46,-1.07,0.48,-0.48,-0.50,-0.47,-1.57,-1.55,-1.55
351.23,-1.11,0.44,-1.09,0.45,-0.45,-0.49,-0.43,-1.56,-1.54,-1.55
354.74,-1.13,0.39,-1.11,0.43,-0.43,-0.48,-0.39,-1.56,-1.53,-1.52
358.28,-1.13,0.40,-1.12,0.41,-0.41,-0.47,-0.35,-1.54,-1.52,-1.53
361.87,-1.13,0.39,-1.12,0.39,-0.39,-0.46,-0.31,-1.52,-1.52,-1.52
365.49,-1.12,0.39,-1.12,0.38,-0.38,-0.45,-0.27,-1.50,-1.51,-1.51
369.14,-1.12,0.37,-1.12,0.37,-0.37,-0.44,-0.23,-1.49,-1.50,-1.49
372.83,-1.11,0.37,-1.12,0.37,-0.37,-0.43,-0.19,-1.48,-1.49,-1.48
376.56,-1.11,0.37,-1.11,0.37,-0.37,-0.42,-0.15,-1.47,-1.48,-1.48
380.33,-1.11,0.37,-1.11,0.36,-0.36,-0.41,-0.12,-1.47,-1.47,-1.48
384.13,-1.11,0.35,-1.10,0.36,-0.36,-0.41,-0.08,-1.47,-1.46,-1.46
387.97,-1.10,0.35,-1.10,0.35,-0.35,-0.40,-0.04,-1.45,-1.45,-1.45
391.85,-1.10,0.34,-1.10,0.34,-0.34,-0.39,-0.00,-1.44,-1.44,-1.44
395.77,-1.09,0.34,-1.10,0.33,-0.33,-0.38,0.03,-1.42,-1.43,-1.43
399.73,-1.09,0.33,-1.10,0.31,-0.31,-0.38,0.07,-1.40,-1.42,-1.42
403.72,-1.10,0.29,-1.11,0.29,-0.29,-0.37,0.11,-1.39,-1.41,-1.39
407.76,-1.11,0.28,-1.13,0.27,-0.27,-0.36,0.14,-1.38,-1.39,-1.39
411.84,-1.12,0.27,-1.14,0.24,-0.24,-0.35,0.17,-1.36,-1.38,-1.39
415.96,-1.15,0.22,-1.16,0.21,-0.21,-0.35,0.21,-1.36,-1.37,-1.37
420.12,-1.18,0.19,-1.19,0.18,-0.18,-0.34,0.24,-1.36,-1.36,-1.37
424.32,-1.21,0.15,-1.22,0.14,-0.14,-0.34,0.27,-1.35,-1.36,-1.36
428.56,-1.24,0.10,-1.25,0.10,-0.10,-0.33,0.30,-1.34,-1.35,-1.34
432.85,-1.28,0.05,-1.28,0.06,-0.06,-0.32,0.33,-1.34,-1.34,-1.33
437.18,-1.31,0.02,-1.31,0.02,-0.02,-0.32,0.36,-1.33,-1.33,-1.33
441.55,-1.34,-0.02,-1.34,-0.02,0.02,-0.31,0.39,-1.32,-1.32,-1.32
445.96,-1.37,-0.06,-1.36,-0.06,0.06,-0.31,0.42,-1.31,-1.31,-1.31
450.42,-1.41,-0.11,-1.39,-0.09,0.09,-0.30,0.44,-1.32,-1.30,-1.30
454.93,-1.43,-0.14,-1.41,-0.12,0.12,-0.30,0.46,-1.31,-1.29,-1.29
459.48,-1.45,-0.17,-1.42,-0.14,0.14,-0.30,0.49,-1.31,-1.28,-1.28
464.07,-1.46,-0.19,-1.43,-0.16,0.16,-0.29,0.50,-1.30,-1.27,-1.26
468.71,-1.46,-0.20,-1.44,-0.18,0.18,-0.29,0.52,-1.28,-1.26,-1.26
473.40,-1.45,-0.20,-1.45,-0.20,0.20,-0.28,0.54,-1.25,-1.25,-1.25
478.13,-1.44,-0.20,-1.45,-0.21,0.21,-0.28,0.55,-1.23,-1.24,-1.24
482.91,-1.44,-0.21,-1.45,-0.22,0.22,-0.28,0.56,-1.22,-1.23,-1.23
487.74,-1.43,-0.21,-1.45,-0.23,0.23,-0.27,0.57,-1.20,-1.22,-1.22
492.62,-1.43,-0.22,-1.44,-0.24,0.24,-0.27,0.58,-1.19,-1.21,-1.21
497.55,-1.43,-0.23,-1.44,-0.24,0.24,-0.27,0.58,-1.18,-1.19,-1.20
502.52,-1.43,-0.24,-1.43,-0.25,0.25,-0.27,0.58,-1.18,-1.18,-1.19
507.55,-1.43,-0.26,-1.43,-0.26,0.26,-0.26,0.58,-1.17,-1.17,-1.17
