frequency,raw,smoothed,error,error_smoothed,equalization,parametric_eq,fixed_band_eq,equalized_raw,equalized_smoothed,target
20.00,8.86,8.86,1.31,1.31,-1.31,-1.07,-0.54,7.55,7.55,7.55
20.20,8.86,8.86,1.31,1.31,-1.31,-1.07,-0.56,7.55,7.55,7.55
20.40,8.86,8.86,1.31,1.31,-1.31,-1.07,-0.57,7.55,7.55,7.55
20.61,8.86,8.86,1.31,1.31,-1.31,-1.07,-0.59,7.55,7.55,7.55
20.81,8.86,8.86,1.31,1.31,-1.31,-1.07,-0.61,7.56,7.56,7.55
21.02,8.85,8.86,1.30,1.31,-1.30,-1.07,-0.63,7.55,7.56,7.55
21.23,8.85,8.85,1.30,1.30,-1.30,-1.08,-0.65,7.56,7.56,7.55
21.44,8.84,8.84,1.29,1.29,-1.29,-1.08,-0.67,7.55,7.55,7.55
21.66,8.82,8.83,1.28,1.28,-1.28,-1.08,-0.69,7.54,7.55,7.55
21.87,8.81,8.81,1.27,1.27,-1.27,-1.08,-0.71,7.54,7.54,7.55
22.09,8.80,8.80,1.26,1.26,-1.26,-1.08,-0.73,7.54,7.54,7.55
22.31,8.79,8.79,1.25,1.25,-1.26,-1.08,-0.75,7.54,7.54,7.55
22.54,8.78,8.78,1.24,1.24,-1.25,-1.08,-0.77,7.54,7.54,7.54
22.76,8.77,8.78,1.23,1.23,-1.24,-1.08,-0.79,7.54,7.54,7.54
22.99,8.76,8.77,1.22,1.22,-1.22,-1.08,-0.82,7.54,7.55,7.54
23.22,8.75,8.75,1.21,1.21,-1.20,-1.08,-0.84,7.56,7.55,7.54
23.45,8.72,8.72,1.18,1.18,-1.16,-1.08,-0.87,7.56,7.56,7.54
23.69,8.68,8.68,1.14,1.14,-1.12,-1.08,-0.89,7.56,7.56,7.54
23.92,8.63,8.63,1.09,1.09,-1.07,-1.08,-0.92,7.56,7.56,7.54
24.16,8.57,8.57,1.04,1.03,-1.02,-1.08,-0.94,7.55,7.55,7.54
24.40,8.50,8.51,0.97,0.97,-0.98,-1.08,-0.97,7.53,7.53,7.54
24.65,8.45,8.45,0.92,0.91,-0.94,-1.08,-0.99,7.52,7.51,7.53
24.89,8.40,8.41,0.87,0.88,-0.91,-1.09,-1.02,7.49,7.50,7.53
25.14,8.39,8.40,0.86,0.86,-0.90,-1.09,-1.05,7.50,7.50,7.53
25.39,8.40,8.40,0.87,0.87,-0.90,-1.09,-1.07,7.50,7.50,7.53
25.65,8.43,8.44,0.90,0.91,-0.92,-1.09,-1.10,7.51,7.52,7.53
25.91,8.48,8.48,0.95,0.95,-0.95,-1.09,-1.13,7.54,7.53,7.53
26.16,8.52,8.53,1.00,1.00,-0.98,-1.09,-1.15,7.55,7.55,7.53
26.43,8.56,8.56,1.04,1.04,-1.00,-1.09,-1.18,7.56,7.56,7.52
26.69,8.59,8.59,1.07,1.06,-1.03,-1.09,-1.20,7.57,7.56,7.52
26.96,8.59,8.59,1.07,1.07,-1.04,-1.09,-1.23,7.55,7.55,7.52
27.23,8.58,8.58,1.06,1.07,-1.06,-1.09,-1.25,7.52,7.53,7.52
27.50,8.57,8.57,1.06,1.06,-1.07,-1.09,-1.28,7.50,7.50,7.52
27.77,8.57,8.58,1.06,1.06,-1.09,-1.09,-1.30,7.48,7.48,7.52
28.05,8.59,8.60,1.08,1.08,-1.12,-1.09,-1.32,7.47,7.47,7.51
28.33,8.63,8.64,1.12,1.13,-1.16,-1.09,-1.34,7.48,7.48,7.51
28.62,8.69,8.69,1.18,1.18,-1.20,-1.09,-1.36,7.49,7.49,7.51
28.90,8.75,8.76,1.25,1.25,-1.24,-1.09,-1.38,7.51,7.51,7.51
29.19,8.81,8.81,1.31,1.31,-1.28,-1.09,-1.39,7.53,7.53,7.50
29.48,8.85,8.85,1.35,1.35,-1.32,-1.09,-1.41,7.54,7.53,7.50
29.78,8.86,8.86,1.36,1.36,-1.33,-1.09,-1.42,7.53,7.53,7.50
30.08,8.85,8.85,1.36,1.36,-1.33,-1.09,-1.43,7.52,7.52,7.50
30.38,8.82,8.82,1.33,1.33,-1.32,-1.09,-1.43,7.51,7.51,7.49
30.68,8.77,8.77,1.28,1.28,-1.28,-1.09,-1.44,7.49,7.49,7.49
30.99,8.71,8.72,1.23,1.23,-1.24,-1.09,-1.44,7.47,7.48,7.49
31.30,8.66,8.66,1.18,1.18,-1.19,-1.09,-1.44,7.47,7.47,7.49
31.61,8.61,8.61,1.13,1.13,-1.14,-1.09,-1.44,7.47,7.47,7.48
31.93,8.56,8.57,1.09,1.09,-1.09,-1.09,-1.44,7.47,7.48,7.48
32.24,8.52,8.52,1.05,1.05,-1.05,-1.09,-1.43,7.48,7.48,7.48
32.57,8.48,8.48,1.01,1.01,-1.01,-1.09,-1.42,7.48,7.47,7.47
32.89,8.44,8.45,0.97,0.98,-0.98,-1.09,-1.41,7.46,7.47,7.47
33.22,8.41,8.41,0.95,0.95,-0.96,-1.09,-1.40,7.46,7.46,7.47
33.55,8.39,8.39,0.93,0.93,-0.94,-1.09,-1.39,7.45,7.45,7.46
33.89,8.38,8.38,0.93,0.93,-0.93,-1.09,-1.37,7.45,7.45,7.46
34.23,8.38,8.38,0.93,0.93,-0.93,-1.08,-1.35,7.45,7.45,7.45
34.57,8.38,8.39,0.94,0.94,-0.94,-1.08,-1.33,7.45,7.45,7.45
34.92,8.39,8.39,0.95,0.95,-0.95,-1.08,-1.31,7.45,7.45,7.44
35.27,8.40,8.40,0.96,0.96,-0.96,-1.08,-1.29,7.45,7.44,7.44
35.62,8.41,8.41,0.98,0.98,-0.97,-1.08,-1.27,7.44,7.44,7.43
35.97,8.41,8.42,0.98,0.99,-0.98,-1.08,-1.25,7.43,7.43,7.43
36.33,8.42,8.43,1.00,1.00,-1.00,-1.07,-1.22,7.43,7.43,7.42
36.70,8.43,8.43,1.02,1.01,-1.01,-1.07,-1.20,7.42,7.42,7.42
37.06,8.44,8.44,1.03,1.03,-1.03,-1.07,-1.17,7.42,7.41,7.41
37.43,8.44,8.45,1.04,1.04,-1.05,-1.07,-1.14,7.40,7.40,7.41
37.81,8.45,8.46,1.05,1.06,-1.07,-1.07,-1.12,7.39,7.39,7.40
38.19,8.47,8.47,1.08,1.07,-1.09,-1.06,-1.09,7.39,7.38,7.39
38.57,8.48,8.49,1.10,1.10,-1.11,-1.06,-1.06,7.37,7.38,7.39
38.95,8.50,8.51,1.12,1.13,-1.13,-1.06,-1.03,7.38,7.38,7.38
39.34,8.52,8.52,1.15,1.15,-1.14,-1.05,-1.01,7.38,7.38,7.37
39.74,8.53,8.53,1.17,1.16,-1.14,-1.05,-0.98,7.39,7.39,7.37
40.14,8.52,8.52,1.16,1.16,-1.14,-1.05,-0.95,7.38,7.38,7.36
40.54,8.49,8.49,1.14,1.14,-1.13,-1.04,-0.93,7.37,7.37,7.35
40.94,8.45,8.45,1.11,1.11,-1.10,-1.04,-0.90,7.35,7.35,7.34
41.35,8.40,8.40,1.07,1.07,-1.07,-1.03,-0.87,7.33,7.33,7.33
41.76,8.35,8.35,1.03,1.03,-1.04,-1.03,-0.85,7.32,7.32,7.33
42.18,8.30,8.30,0.99,0.99,-1.00,-1.02,-0.82,7.30,7.30,7.32
42.60,8.25,8.26,0.95,0.95,-0.96,-1.02,-0.80,7.29,7.29,7.31
43.03,8.22,8.22,0.93,0.92,-0.93,-1.01,-0.77,7.29,7.29,7.30
43.46,8.19,8.19,0.91,0.90,-0.91,-1.00,-0.75,7.29,7.29,7.29
43.90,8.16,8.16,0.89,0.89,-0.88,-1.00,-0.72,7.28,7.28,7.28
44.33,8.13,8.13,0.87,0.87,-0.86,-0.99,-0.70,7.27,7.27,7.27
44.78,8.10,8.11,0.85,0.85,-0.85,-0.98,-0.68,7.26,7.26,7.26
45.23,8.08,8.08,0.84,0.84,-0.84,-0.98,-0.66,7.25,7.24,7.24
45.68,8.05,8.06,0.82,0.82,-0.83,-0.97,-0.64,7.23,7.23,7.23
46.13,8.03,8.03,0.81,0.81,-0.82,-0.96,-0.61,7.22,7.22,7.22
46.60,8.01,8.01,0.81,0.81,-0.81,-0.95,-0.59,7.20,7.20,7.21
47.06,7.99,8.00,0.80,0.80,-0.81,-0.94,-0.57,7.19,7.19,7.19
47.53,7.98,7.98,0.80,0.80,-0.81,-0.94,-0.55,7.18,7.18,7.18
48.01,7.97,7.97,0.81,0.81,-0.80,-0.93,-0.54,7.17,7.17,7.16
48.49,7.95,7.96,0.80,0.81,-0.80,-0.92,-0.52,7.15,7.16,7.15
48.97,7.94,7.94,0.81,0.80,-0.80,-0.91,-0.50,7.15,7.14,7.13
49.46,7.91,7.92,0.79,0.80,-0.79,-0.89,-0.48,7.12,7.13,7.12
49.96,7.89,7.89,0.79,0.79,-0.79,-0.88,-0.47,7.11,7.11,7.10
50.46,7.86,7.86,0.78,0.78,-0.78,-0.87,-0.45,7.09,7.09,7.09
50.96,7.83,7.83,0.77,0.77,-0.77,-0.86,-0.44,7.06,7.07,7.07
51.47,7.80,7.81,0.75,0.76,-0.76,-0.85,-0.42,7.04,7.05,7.05
51.99,7.78,7.78,0.75,0.75,-0.76,-0.84,-0.41,7.03,7.03,7.03
52.51,7.76,7.76,0.75,0.75,-0.76,-0.82,-0.40,7.01,7.01,7.01
53.03,7.74,7.74,0.75,0.75,-0.76,-0.81,-0.38,6.99,6.99,6.99
53.56,7.72,7.73,0.75,0.76,-0.76,-0.80,-0.37,6.96,6.97,6.97
54.10,7.71,7.71,0.76,0.76,-0.76,-0.79,-0.36,6.95,6.95,6.95
54.64,7.70,7.70,0.78,0.77,-0.77,-0.77,-0.35,6.93,6.93,6.93
55.18,7.68,7.69,0.78,0.78,-0.77,-0.76,-0.35,6.91,6.91,6.91
55.74,7.66,7.66,0.78,0.78,-0.77,-0.75,-0.34,6.89,6.89,6.88
56.29,7.63,7.63,0.78,0.77,-0.77,-0.74,-0.33,6.86,6.86,6.86
56.86,7.59,7.60,0.76,0.77,-0.76,-0.72,-0.33,6.83,6.84,6.83
57.42,7.56,7.56,0.76,0.75,-0.75,-0.71,-0.32,6.81,6.81,6.81
58.00,7.52,7.52,0.74,0.74,-0.74,-0.70,-0.32,6.78,6.78,6.78
58.58,7.48,7.48,0.73,0.73,-0.73,-0.69,-0.32,6.75,6.75,6.75
59.16,7.44,7.44,0.72,0.72,-0.72,-0.68,-0.32,6.72,6.72,6.73
59.76,7.40,7.40,0.71,0.71,-0.71,-0.67,-0.32,6.69,6.69,6.70
60.35,7.36,7.36,0.70,0.70,-0.70,-0.66,-0.33,6.67,6.67,6.67
60.96,7.32,7.32,0.69,0.69,-0.69,-0.65,-0.33,6.64,6.64,6.64
61.57,7.28,7.28,0.68,0.68,-0.68,-0.64,-0.34,6.61,6.61,6.61
62.18,7.24,7.24,0.67,0.67,-0.66,-0.63,-0.35,6.58,6.58,6.57
62.80,7.19,7.20,0.65,0.66,-0.65,-0.63,-0.36,6.54,6.54,6.54
63.43,7.15,7.15,0.65,0.65,-0.65,-0.62,-0.37,6.51,6.51,6.51
64.07,7.10,7.11,0.63,0.64,-0.64,-0.62,-0.38,6.47,6.47,6.47
64.71,7.06,7.06,0.63,0.63,-0.63,-0.62,-0.40,6.43,6.43,6.43
65.35,7.02,7.02,0.63,0.63,-0.63,-0.62,-0.41,6.39,6.39,6.40
66.01,6.99,6.99,0.63,0.63,-0.64,-0.62,-0.43,6.36,6.35,6.36
66.67,6.95,6.96,0.63,0.64,-0.64,-0.63,-0.45,6.31,6.32,6.32
67.33,6.93,6.93,0.65,0.65,-0.65,-0.63,-0.47,6.28,6.28,6.28
68.01,6.90,6.90,0.67,0.66,-0.66,-0.64,-0.49,6.24,6.24,6.24
68.69,6.87,6.88,0.68,0.68,-0.67,-0.65,-0.52,6.20,6.20,6.20
69.37,6.84,6.84,0.69,0.69,-0.68,-0.66,-0.54,6.16,6.16,6.15
70.07,6.80,6.81,0.69,0.70,-0.69,-0.68,-0.57,6.12,6.12,6.11
70.77,6.76,6.76,0.70,0.70,-0.70,-0.69,-0.60,6.07,6.07,6.06
71.48,6.72,6.72,0.71,0.70,-0.70,-0.71,-0.63,6.02,6.02,6.02
72.19,6.67,6.68,0.70,0.70,-0.71,-0.74,-0.66,5.96,5.96,5.97
72.91,6.63,6.63,0.71,0.71,-0.72,-0.76,-0.69,5.91,5.91,5.92
73.64,6.59,6.60,0.72,0.72,-0.73,-0.78,-0.72,5.86,5.86,5.87
74.38,6.56,6.56,0.74,0.74,-0.74,-0.81,-0.76,5.82,5.82,5.82
75.12,6.53,6.53,0.76,0.76,-0.75,-0.84,-0.79,5.78,5.78,5.77
75.87,6.49,6.50,0.77,0.78,-0.75,-0.87,-0.83,5.74,5.74,5.72
76.63,6.45,6.45,0.79,0.78,-0.75,-0.91,-0.87,5.70,5.70,5.67
77.40,6.39,6.39,0.78,0.78,-0.76,-0.94,-0.91,5.64,5.63,5.61
78.17,6.32,6.32,0.77,0.77,-0.76,-0.98,-0.95,5.56,5.56,5.56
78.95,6.25,6.26,0.75,0.76,-0.77,-1.02,-0.99,5.48,5.49,5.50
79.74,6.21,6.21,0.77,0.77,-0.79,-1.06,-1.03,5.42,5.42,5.44
80.54,6.18,6.19,0.80,0.80,-0.83,-1.10,-1.07,5.36,5.36,5.39
81.35,6.18,6.19,0.86,0.86,-0.88,-1.14,-1.12,5.30,5.31,5.33
82.16,6.21,6.21,0.95,0.95,-0.96,-1.18,-1.16,5.26,5.26,5.27
82.98,6.26,6.26,1.06,1.05,-1.05,-1.23,-1.21,5.21,5.20,5.20
83.81,6.31,6.31,1.17,1.17,-1.18,-1.27,-1.26,5.14,5.14,5.14
84.65,6.37,6.38,1.29,1.30,-1.32,-1.32,-1.31,5.06,5.06,5.08
85.50,6.45,6.45,1.44,1.44,-1.47,-1.36,-1.36,4.98,4.98,5.02
86.35,6.54,6.55,1.59,1.60,-1.63,-1.41,-1.41,4.91,4.92,4.95
87.22,6.65,6.65,1.77,1.77,-1.78,-1.45,-1.46,4.87,4.87,4.89
88.09,6.75,6.75,1.93,1.93,-1.92,-1.50,-1.52,4.84,4.84,4.82
88.97,6.82,6.83,2.07,2.07,-2.02,-1.55,-1.57,4.80,4.80,4.75
89.86,6.86,6.85,2.18,2.16,-2.09,-1.60,-1.63,4.77,4.75,4.69
90.76,6.81,6.81,2.20,2.19,-2.13,-1.64,-1.68,4.69,4.69,4.62
91.66,6.71,6.72,2.16,2.17,-2.11,-1.69,-1.74,4.60,4.60,4.55
92.58,6.57,6.57,2.09,2.09,-2.06,-1.74,-1.80,4.51,4.51,4.48
93.51,6.40,6.40,1.99,1.99,-1.99,-1.78,-1.86,4.42,4.42,4.41
94.44,6.21,6.22,1.87,1.88,-1.89,-1.83,-1.92,4.32,4.33,4.34
95.39,6.03,6.03,1.76,1.76,-1.79,-1.88,-1.98,4.24,4.24,4.27
96.34,5.86,5.87,1.66,1.67,-1.71,-1.92,-2.05,4.15,4.16,4.20
97.30,5.73,5.73,1.61,1.61,-1.65,-1.97,-2.11,4.08,4.08,4.13
98.28,5.63,5.63,1.58,1.58,-1.62,-2.02,-2.18,4.01,4.01,4.06
99.26,5.56,5.57,1.58,1.59,-1.63,-2.06,-2.24,3.94,3.95,3.98
100.25,5.54,5.54,1.63,1.63,-1.66,-2.11,-2.31,3.89,3.88,3.91
101.25,5.53,5.54,1.70,1.70,-1.71,-2.15,-2.37,3.82,3.83,3.84
102.27,5.54,5.55,1.78,1.78,-1.77,-2.20,-2.44,3.77,3.77,3.77
103.29,5.56,5.56,1.87,1.87,-1.84,-2.24,-2.51,3.73,3.72,3.69
104.32,5.56,5.56,1.94,1.94,-1.89,-2.28,-2.57,3.67,3.67,3.62
105.37,5.54,5.54,2.00,1.99,-1.93,-2.33,-2.64,3.61,3.60,3.55
106.42,5.48,5.48,2.01,2.01,-1.96,-2.37,-2.70,3.52,3.52,3.47
107.48,5.40,5.41,2.00,2.01,-1.98,-2.41,-2.77,3.42,3.42,3.40
108.56,5.32,5.32,2.00,1.99,-2.00,-2.45,-2.83,3.32,3.32,3.33
109.64,5.24,5.25,1.99,1.99,-2.02,-2.49,-2.89,3.22,3.23,3.25
110.74,5.19,5.20,2.01,2.02,-2.06,-2.54,-2.95,3.13,3.14,3.18
111.85,5.18,5.18,2.07,2.07,-2.12,-2.58,-3.01,3.07,3.07,3.11
112.97,5.20,5.20,2.17,2.17,-2.20,-2.62,-3.07,3.00,3.00,3.04
114.10,5.25,5.26,2.29,2.29,-2.32,-2.66,-3.12,2.93,2.94,2.97
115.24,5.33,5.33,2.44,2.44,-2.46,-2.70,-3.17,2.88,2.88,2.89
116.39,5.42,5.42,2.60,2.60,-2.60,-2.73,-3.22,2.82,2.82,2.82
117.55,5.52,5.52,2.77,2.77,-2.75,-2.77,-3.26,2.77,2.77,2.75
118.73,5.61,5.62,2.93,2.93,-2.90,-2.81,-3.31,2.72,2.72,2.68
119.92,5.69,5.69,3.08,3.07,-3.03,-2.85,-3.34,2.67,2.66,2.61
121.12,5.73,5.73,3.19,3.18,-3.14,-2.89,-3.38,2.59,2.59,2.55
122.33,5.74,5.74,3.27,3.26,-3.24,-2.92,-3.41,2.51,2.50,2.48
123.55,5.72,5.72,3.31,3.31,-3.32,-2.96,-3.43,2.41,2.41,2.41
124.79,5.69,5.70,3.35,3.36,-3.39,-2.99,-3.45,2.31,2.31,2.34
126.03,5.68,5.69,3.41,3.41,-3.45,-3.03,-3.47,2.24,2.24,2.28
127.29,5.68,5.69,3.47,3.47,-3.50,-3.06,-3.48,2.19,2.19,2.21
128.57,5.69,5.69,3.55,3.54,-3.55,-3.10,-3.49,2.15,2.14,2.15
129.85,5.68,5.69,3.60,3.60,-3.59,-3.13,-3.50,2.09,2.09,2.08
131.15,5.67,5.67,3.65,3.65,-3.63,-3.17,-3.50,2.04,2.04,2.02
132.46,5.64,5.64,3.69,3.68,-3.67,-3.20,-3.49,1.97,1.97,1.96
133.79,5.60,5.60,3.71,3.71,-3.70,-3.23,-3.49,1.90,1.90,1.90
135.12,5.55,5.56,3.72,3.72,-3.72,-3.26,-3.48,1.83,1.84,1.84
136.48,5.50,5.50,3.73,3.73,-3.73,-3.29,-3.47,1.77,1.77,1.78
137.84,5.45,5.45,3.74,3.73,-3.74,-3.32,-3.45,1.72,1.71,1.72
139.22,5.39,5.40,3.73,3.74,-3.74,-3.35,-3.44,1.65,1.66,1.66
140.61,5.34,5.34,3.74,3.74,-3.74,-3.38,-3.42,1.60,1.60,1.60
142.02,5.29,5.29,3.75,3.74,-3.74,-3.41,-3.40,1.55,1.55,1.55
143.44,5.23,5.24,3.74,3.74,-3.74,-3.44,-3.38,1.49,1.49,1.49
144.87,5.18,5.18,3.74,3.74,-3.74,-3.47,-3.36,1.44,1.44,1.44
146.32,5.13,5.13,3.75,3.74,-3.75,-3.49,-3.33,1.39,1.39,1.39
147.78,5.08,5.08,3.75,3.75,-3.75,-3.52,-3.31,1.34,1.34,1.34
149.26,5.03,5.04,3.75,3.75,-3.75,-3.54,-3.29,1.28,1.29,1.28
150.75,4.99,4.99,3.76,3.75,-3.75,-3.57,-3.27,1.24,1.24,1.24
152.26,4.94,4.95,3.76,3.76,-3.76,-3.59,-3.24,1.18,1.18,1.19
153.78,4.90,4.90,3.76,3.76,-3.77,-3.62,-3.22,1.13,1.13,1.14
155.32,4.86,4.87,3.77,3.77,-3.78,-3.64,-3.20,1.08,1.09,1.09
156.88,4.83,4.83,3.79,3.79,-3.79,-3.66,-3.18,1.04,1.04,1.05
158.44,4.80,4.80,3.80,3.80,-3.80,-3.68,-3.17,1.00,1.00,1.00
160.03,4.77,4.77,3.81,3.81,-3.81,-3.70,-3.15,0.96,0.96,0.96
161.63,4.73,4.73,3.83,3.82,-3.82,-3.72,-3.14,0.92,0.92,0.91
163.24,4.69,4.69,3.83,3.83,-3.82,-3.73,-3.13,0.87,0.87,0.87
164.88,4.65,4.65,3.83,3.83,-3.83,-3.75,-3.12,0.83,0.83,0.83
166.53,4.61,4.61,3.83,3.83,-3.83,-3.77,-3.11,0.79,0.79,0.79
168.19,4.57,4.57,3.83,3.83,-3.82,-3.78,-3.10,0.75,0.75,0.75
169.87,4.53,4.53,3.82,3.82,-3.82,-3.80,-3.10,0.71,0.71,0.71
171.57,4.48,4.49,3.81,3.81,-3.81,-3.81,-3.10,0.67,0.67,0.67
173.29,4.44,4.44,3.80,3.81,-3.81,-3.82,-3.10,0.64,0.64,0.64
175.02,4.40,4.40,3.80,3.80,-3.80,-3.83,-3.10,0.60,0.60,0.60
176.77,4.36,4.36,3.79,3.79,-3.79,-3.84,-3.11,0.57,0.57,0.57
178.54,4.32,4.33,3.79,3.79,-3.79,-3.85,-3.12,0.53,0.54,0.54
180.32,4.29,4.29,3.79,3.78,-3.79,-3.86,-3.13,0.51,0.50,0.51
182.13,4.25,4.26,3.78,3.78,-3.78,-3.86,-3.14,0.47,0.47,0.48
183.95,4.22,4.22,3.78,3.78,-3.78,-3.87,-3.16,0.44,0.45,0.45
185.79,4.19,4.19,3.78,3.78,-3.78,-3.87,-3.18,0.42,0.42,0.42
187.65,4.16,4.16,3.78,3.78,-3.77,-3.87,-3.20,0.39,0.39,0.39
189.52,4.13,4.13,3.77,3.77,-3.77,-3.88,-3.22,0.36,0.36,0.36
191.42,4.10,4.10,3.77,3.77,-3.77,-3.88,-3.24,0.34,0.34,0.33
193.33,4.07,4.07,3.77,3.77,-3.76,-3.88,-3.27,0.31,0.31,0.31
195.27,4.04,4.04,3.76,3.76,-3.76,-3.87,-3.30,0.28,0.28,0.28
197.22,4.01,4.01,3.76,3.76,-3.76,-3.87,-3.33,0.26,0.26,0.26
199.19,3.98,3.99,3.75,3.75,-3.75,-3.87,-3.36,0.23,0.23,0.24
201.18,3.96,3.96,3.75,3.75,-3.75,-3.86,-3.39,0.21,0.21,0.21
203.19,3.93,3.94,3.74,3.75,-3.75,-3.86,-3.43,0.19,0.19,0.19
205.23,3.91,3.91,3.75,3.74,-3.74,-3.85,-3.46,0.17,0.17,0.17
207.28,3.88,3.88,3.74,3.74,-3.74,-3.84,-3.50,0.15,0.15,0.15
209.35,3.85,3.86,3.73,3.73,-3.73,-3.83,-3.54,0.12,0.13,0.13
211.44,3.83,3.83,3.73,3.72,-3.72,-3.82,-3.57,0.11,0.11,0.11
213.56,3.80,3.80,3.71,3.71,-3.71,-3.81,-3.61,0.10,0.09,0.09
215.69,3.76,3.77,3.69,3.70,-3.69,-3.80,-3.65,0.07,0.07,0.07
217.85,3.73,3.73,3.68,3.68,-3.68,-3.78,-3.68,0.06,0.06,0.05
220.03,3.69,3.69,3.66,3.66,-3.66,-3.77,-3.72,0.04,0.04,0.04
222.23,3.65,3.65,3.63,3.64,-3.63,-3.75,-3.75,0.02,0.02,0.02
224.45,3.61,3.61,3.61,3.61,-3.61,-3.73,-3.78,0.00,0.00,0.00
226.70,3.57,3.57,3.59,3.59,-3.59,-3.72,-3.81,-0.01,-0.01,-0.01
228.96,3.53,3.53,3.56,3.56,-3.56,-3.70,-3.83,-0.03,-0.03,-0.03
231.25,3.49,3.49,3.53,3.54,-3.54,-3.68,-3.86,-0.04,-0.04,-0.04
233.57,3.45,3.45,3.51,3.51,-3.51,-3.66,-3.88,-0.06,-0.06,-0.06
235.90,3.41,3.41,3.49,3.49,-3.49,-3.63,-3.89,-0.07,-0.07,-0.08
238.26,3.37,3.37,3.47,3.46,-3.46,-3.61,-3.91,-0.09,-0.09,-0.09
240.64,3.33,3.33,3.44,3.44,-3.43,-3.59,-3.91,-0.10,-0.10,-0.10
243.05,3.28,3.29,3.40,3.40,-3.40,-3.56,-3.92,-0.12,-0.12,-0.12
245.48,3.24,3.24,3.37,3.37,-3.37,-3.54,-3.92,-0.13,-0.13,-0.13
247.93,3.20,3.20,3.34,3.34,-3.35,-3.51,-3.91,-0.14,-0.14,-0.14
250.41,3.16,3.16,3.31,3.31,-3.32,-3.48,-3.90,-0.15,-0.15,-0.15
252.92,3.12,3.13,3.28,3.29,-3.29,-3.45,-3.88,-0.16,-0.16,-0.16
255.45,3.09,3.09,3.26,3.26,-3.26,-3.43,-3.86,-0.17,-0.17,-0.17
258.00,3.05,3.05,3.23,3.23,-3.23,-3.40,-3.84,-0.18,-0.18,-0.18
260.58,3.01,3.02,3.20,3.21,-3.21,-3.37,-3.81,-0.19,-0.19,-0.19
263.19,2.98,2.98,3.18,3.18,-3.18,-3.34,-3.78,-0.20,-0.20,-0.20
265.82,2.94,2.95,3.15,3.15,-3.15,-3.30,-3.74,-0.21,-0.21,-0.21
268.48,2.91,2.91,3.13,3.13,-3.13,-3.27,-3.69,-0.21,-0.22,-0.22
271.16,2.87,2.88,3.10,3.10,-3.10,-3.24,-3.65,-0.23,-0.22,-0.23
273.87,2.84,2.84,3.08,3.07,-3.07,-3.21,-3.60,-0.23,-0.23,-0.23
276.61,2.80,2.81,3.04,3.05,-3.04,-3.17,-3.54,-0.24,-0.24,-0.24
279.38,2.77,2.77,3.02,3.02,-3.02,-3.14,-3.49,-0.24,-0.24,-0.25
282.17,2.74,2.74,3.00,2.99,-2.99,-3.10,-3.43,-0.25,-0.25,-0.26
284.99,2.71,2.72,2.97,2.97,-2.97,-3.07,-3.37,-0.26,-0.26,-0.25
287.84,2.69,2.69,2.94,2.95,-2.95,-3.03,-3.31,-0.26,-0.26,-0.25
290.72,2.67,2.67,2.93,2.93,-2.94,-3.00,-3.25,-0.26,-0.26,-0.26
293.63,2.66,2.66,2.93,2.92,-2.93,-2.96,-3.18,-0.26,-0.26,-0.26
296.57,2.65,2.66,2.91,2.91,-2.92,-2.92,-3.12,-0.27,-0.26,-0.26
299.53,2.65,2.65,2.91,2.91,-2.91,-2.89,-3.05,-0.26,-0.26,-0.25
302.53,2.65,2.65,2.91,2.91,-2.91,-2.85,-2.99,-0.26,-0.26,-0.26
305.55,2.65,2.65,2.91,2.91,-2.90,-2.81,-2.92,-0.25,-0.25,-0.25
308.61,2.64,2.65,2.90,2.90,-2.89,-2.77,-2.86,-0.25,-0.25,-0.26
311.69,2.63,2.63,2.89,2.89,-2.88,-2.74,-2.79,-0.25,-0.25,-0.25
314.81,2.61,2.61,2.87,2.87,-2.86,-2.70,-2.73,-0.25,-0.25,-0.26
317.96,2.58,2.59,2.84,2.84,-2.84,-2.66,-2.66,-0.25,-0.25,-0.25
321.14,2.55,2.56,2.81,2.81,-2.81,-2.62,-2.60,-0.25,-0.25,-0.26
324.35,2.52,2.52,2.78,2.77,-2.77,-2.58,-2.54,-0.25,-0.25,-0.25
327.59,2.48,2.48,2.73,2.73,-2.74,-2.54,-2.48,-0.25,-0.25,-0.25
330.87,2.44,2.44,2.69,2.69,-2.70,-2.50,-2.42,-0.25,-0.25,-0.25
334.18,2.40,2.40,2.65,2.65,-2.65,-2.46,-2.36,-0.25,-0.25,-0.24
337.52,2.36,2.36,2.61,2.61,-2.61,-2.42,-2.31,-0.25,-0.25,-0.25
340.90,2.32,2.33,2.57,2.57,-2.57,-2.38,-2.25,-0.24,-0.24,-0.24
344.30,2.29,2.29,2.53,2.53,-2.52,-2.34,-2.20,-0.23,-0.23,-0.23
347.75,2.25,2.25,2.48,2.48,-2.48,-2.30,-2.15,-0.23,-0.23,-0.23
351.23,2.21,2.21,2.44,2.44,-2.44,-2.26,-2.10,-0.23,-0.23,-0.23
354.74,2.17,2.17,2.39,2.39,-2.40,-2.22,-2.05,-0.22,-0.22,-0.21
358.28,2.13,2.14,2.35,2.35,-2.35,-2.18,-2.01,-0.22,-0.22,-0.22
361.87,2.10,2.10,2.31,2.31,-2.31,-2.14,-1.96,-0.21,-0.21,-0.21
365.49,2.06,2.06,2.27,2.27,-2.27,-2.10,-1.92,-0.20,-0.20,-0.20
369.14,2.02,2.03,2.23,2.23,-2.23,-2.06,-1.88,-0.20,-0.20,-0.21
372.83,1.99,1.99,2.18,2.18,-2.18,-2.02,-1.84,-0.19,-0.20,-0.19
376.56,1.95,1.95,2.14,2.14,-2.14,-1.98,-1.80,-0.19,-0.19,-0.19
380.33,1.91,1.92,2.10,2.10,-2.10,-1.94,-1.76,-0.19,-0.18,-0.18
384.13,1.88,1.88,2.07,2.06,-2.06,-1.90,-1.73,-0.18,-0.18,-0.18
387.97,1.84,1.85,2.02,2.02,-2.02,-1.86,-1.69,-0.17,-0.17,-0.18
391.85,1.81,1.81,1.97,1.98,-1.98,-1.82,-1.66,-0.16,-0.17,-0.16
395.77,1.77,1.78,1.94,1.93,-1.94,-1.78,-1.63,-0.16,-0.16,-0.16
399.73,1.74,1.74,1.90,1.89,-1.90,-1.74,-1.60,-0.15,-0.15,-0.15
403.72,1.70,1.71,1.85,1.86,-1.86,-1.70,-1.57,-0.15,-0.15,-0.15
407.76,1.67,1.67,1.82,1.81,-1.81,-1.66,-1.54,-0.14,-0.14,-0.15
411.84,1.63,1.64,1.77,1.77,-1.77,-1.63,-1.51,-0.14,-0.14,-0.14
415.96,1.60,1.60,1.73,1.74,-1.73,-1.59,-1.49,-0.13,-0.13,-0.13
420.12,1.56,1.57,1.70,1.69,-1.70,-1.55,-1.46,-0.13,-0.13,-0.13
424.32,1.53,1.53,1.66,1.65,-1.66,-1.51,-1.43,-0.12,-0.13,-0.12
428.56,1.49,1.50,1.61,1.61,-1.62,-1.47,-1.41,-0.12,-0.12,-0.12
432.85,1.46,1.47,1.57,1.58,-1.58,-1.43,-1.39,-0.11,-0.11,-0.11
437.18,1.43,1.43,1.54,1.54,-1.53,-1.39,-1.36,-0.10,-0.10,-0.11
441.55,1.40,1.40,1.50,1.50,-1.49,-1.35,-1.34,-0.09,-0.09,-0.10
445.96,1.36,1.37,1.45,1.46,-1.45,-1.31,-1.32,-0.09,-0.09,-0.09
450.42,1.33,1.34,1.41,1.41,-1.41,-1.28,-1.29,-0.08,-0.08,-0.07
454.93,1.30,1.30,1.37,1.37,-1.37,-1.24,-1.27,-0.07,-0.07,-0.06
459.48,1.27,1.27,1.33,1.33,-1.33,-1.20,-1.25,-0.06,-0.06,-0.05
464.07,1.23,1.24,1.29,1.29,-1.29,-1.16,-1.23,-0.06,-0.05,-0.06
468.71,1.20,1.21,1.25,1.25,-1.25,-1.12,-1.20,-0.05,-0.04,-0.05
473.40,1.17,1.17,1.21,1.21,-1.21,-1.09,-1.18,-0.04,-0.04,-0.04
478.13,1.14,1.14,1.17,1.17,-1.17,-1.05,-1.16,-0.02,-0.03,-0.03
482.91,1.10,1.11,1.12,1.13,-1.13,-1.01,-1.13,-0.02,-0.02,-0.02
487.74,1.07,1.07,1.08,1.08,-1.08,-0.98,-1.11,-0.01,-0.01,-0.01
492.62,1.04,1.04,1.05,1.04,-1.04,-0.94,-1.08,0.00,-0.00,-0.00
497.55,1.00,1.01,1.00,1.00,-1.00,-0.90,-1.06,0.01,0.01,0.01
502.52,0.97,0.97,0.96,0.95,-0.95,-0.87,-1.03,0.02,0.02,0.02
507.55,0.93,0.94,0.90,0.90,-0.91,-0.83,-1.00,0.03,0.03,0.04
512.62,0.90,0.90,0.86,0.86,-0.86,-0.79,-0.97,0.04,0.04,0.05
517.75,0.87,0.87,0.82,0.81,-0.82,-0.76,-0.95,0.06,0.05,0.05
522.93,0.83,0.83,0.77,0.77,-0.77,-0.72,-0.92,0.06,0.06,0.06
528.16,0.79,0.80,0.72,0.73,-0.73,-0.68,-0.89,0.07,0.07,0.07
