frequency,raw,error,smoothed,error_smoothed,equalization,parametric_eq,fixed_band_eq,equalized_raw,equalized_smoothed,target
20.00,0.33,-2.82,0.33,-2.84,2.84,1.93,0.98,3.17,3.17,3.15
20.20,0.38,-2.81,0.38,-2.82,2.82,1.94,1.01,3.20,3.20,3.19
20.40,0.44,-2.79,0.44,-2.80,2.80,1.96,1.04,3.24,3.23,3.23
20.61,0.49,-2.77,0.49,-2.77,2.77,1.97,1.07,3.26,3.26,3.26
20.81,0.54,-2.76,0.54,-2.75,2.75,1.98,1.10,3.29,3.29,3.30
21.02,0.59,-2.75,0.59,-2.72,2.72,1.99,1.13,3.31,3.31,3.34
21.23,0.65,-2.71,0.65,-2.69,2.69,2.00,1.16,3.34,3.34,3.36
21.44,0.70,-2.68,0.70,-2.66,2.66,2.01,1.19,3.36,3.36,3.38
21.66,0.75,-2.65,0.75,-2.63,2.63,2.03,1.23,3.38,3.38,3.40
21.87,0.80,-2.61,0.80,-2.60,2.60,2.04,1.26,3.40,3.40,3.41
22.09,0.85,-2.58,0.85,-2.57,2.57,2.05,1.30,3.42,3.42,3.43
22.31,0.90,-2.54,0.90,-2.53,2.53,2.06,1.33,3.43,3.43,3.44
22.54,0.95,-2.50,0.95,-2.49,2.49,2.07,1.37,3.44,3.45,3.45
22.76,1.01,-2.45,1.00,-2.45,2.45,2.07,1.41,3.46,3.46,3.46
22.99,1.06,-2.40,1.05,-2.41,2.41,2.08,1.45,3.47,3.47,3.46
23.22,1.10,-2.37,1.10,-2.37,2.37,2.09,1.49,3.47,3.47,3.47
23.45,1.15,-2.32,1.15,-2.33,2.33,2.10,1.53,3.48,3.48,3.47
23.69,1.20,-2.29,1.20,-2.29,2.29,2.11,1.57,3.49,3.49,3.48
23.92,1.24,-2.25,1.25,-2.25,2.25,2.11,1.62,3.50,3.50,3.49
24.16,1.29,-2.22,1.30,-2.22,2.22,2.12,1.66,3.51,3.51,3.51
24.40,1.34,-2.19,1.34,-2.18,2.18,2.13,1.70,3.52,3.52,3.53
24.65,1.39,-2.14,1.39,-2.14,2.14,2.13,1.75,3.53,3.53,3.53
24.89,1.44,-2.10,1.44,-2.11,2.11,2.14,1.79,3.55,3.54,3.54
25.14,1.48,-2.07,1.48,-2.07,2.07,2.15,1.84,3.55,3.55,3.55
25.39,1.53,-2.03,1.53,-2.04,2.04,2.15,1.88,3.57,3.56,3.56
25.65,1.57,-2.01,1.57,-2.00,2.00,2.15,1.92,3.57,3.57,3.58
25.91,1.61,-1.97,1.61,-1.97,1.97,2.16,1.97,3.58,3.58,3.58
26.16,1.66,-1.93,1.66,-1.94,1.94,2.16,2.01,3.60,3.60,3.59
26.43,1.70,-1.90,1.70,-1.90,1.90,2.16,2.05,3.60,3.60,3.60
26.69,1.74,-1.87,1.74,-1.87,1.87,2.17,2.10,3.61,3.61,3.61
26.96,1.78,-1.85,1.78,-1.84,1.84,2.17,2.14,3.62,3.62,3.63
27.23,1.82,-1.82,1.82,-1.81,1.81,2.17,2.18,3.63,3.63,3.64
27.50,1.86,-1.79,1.86,-1.78,1.78,2.17,2.21,3.64,3.64,3.65
27.77,1.90,-1.75,1.90,-1.75,1.75,2.17,2.25,3.65,3.65,3.65
28.05,1.94,-1.72,1.94,-1.72,1.72,2.17,2.28,3.66,3.66,3.66
28.33,1.97,-1.69,1.98,-1.69,1.69,2.17,2.31,3.66,3.67,3.66
28.62,2.01,-1.66,2.01,-1.66,1.66,2.17,2.34,3.67,3.68,3.67
28.90,2.05,-1.63,2.05,-1.64,1.64,2.17,2.36,3.69,3.68,3.68
29.19,2.08,-1.60,2.08,-1.61,1.61,2.17,2.39,3.69,3.69,3.68
29.48,2.11,-1.60,2.11,-1.59,1.59,2.16,2.40,3.70,3.70,3.71
29.78,2.15,-1.56,2.14,-1.57,1.57,2.16,2.42,3.72,3.71,3.71
30.08,2.18,-1.54,2.17,-1.54,1.54,2.15,2.43,3.72,3.71,3.72
30.38,2.20,-1.52,2.20,-1.52,1.52,2.15,2.44,3.72,3.72,3.72
30.68,2.22,-1.52,2.22,-1.51,1.51,2.14,2.44,3.73,3.73,3.74
30.99,2.25,-1.49,2.25,-1.49,1.49,2.14,2.44,3.74,3.74,3.74
31.30,2.27,-1.47,2.27,-1.47,1.47,2.13,2.43,3.74,3.75,3.74
31.61,2.29,-1.46,2.29,-1.46,1.46,2.12,2.42,3.75,3.75,3.75
31.93,2.31,-1.45,2.32,-1.45,1.45,2.12,2.41,3.76,3.76,3.76
32.24,2.33,-1.43,2.34,-1.44,1.44,2.11,2.39,3.77,3.77,3.76
32.57,2.35,-1.43,2.35,-1.42,1.42,2.10,2.37,3.77,3.78,3.78
32.89,2.37,-1.42,2.37,-1.41,1.41,2.09,2.34,3.78,3.79,3.79
33.22,2.39,-1.41,2.39,-1.41,1.41,2.08,2.31,3.80,3.79,3.80
33.55,2.40,-1.40,2.40,-1.40,1.40,2.06,2.28,3.80,3.80,3.80
33.89,2.42,-1.39,2.42,-1.39,1.39,2.05,2.24,3.81,3.81,3.81
34.23,2.43,-1.39,2.43,-1.39,1.39,2.04,2.20,3.82,3.82,3.82
34.57,2.44,-1.39,2.43,-1.39,1.39,2.03,2.16,3.83,3.82,3.83
34.92,2.45,-1.38,2.44,-1.39,1.39,2.01,2.12,3.84,3.83,3.83
35.27,2.45,-1.38,2.45,-1.39,1.39,2.00,2.07,3.84,3.84,3.83
35.62,2.45,-1.39,2.45,-1.39,1.39,1.98,2.02,3.84,3.84,3.84
35.97,2.45,-1.39,2.45,-1.40,1.40,1.96,1.97,3.85,3.85,3.84
36.33,2.44,-1.41,2.45,-1.40,1.40,1.94,1.92,3.84,3.85,3.85
36.70,2.44,-1.41,2.44,-1.41,1.41,1.93,1.87,3.85,3.85,3.85
37.06,2.43,-1.42,2.44,-1.42,1.42,1.91,1.81,3.85,3.85,3.85
37.43,2.43,-1.43,2.43,-1.42,1.42,1.89,1.76,3.85,3.85,3.86
37.81,2.42,-1.44,2.42,-1.43,1.43,1.86,1.70,3.85,3.85,3.86
38.19,2.41,-1.45,2.41,-1.45,1.45,1.84,1.65,3.86,3.85,3.86
38.57,2.40,-1.45,2.40,-1.46,1.46,1.82,1.60,3.86,3.85,3.85
38.95,2.39,-1.46,2.38,-1.47,1.47,1.80,1.54,3.86,3.85,3.85
39.34,2.37,-1.48,2.37,-1.49,1.49,1.77,1.49,3.86,3.85,3.85
39.74,2.35,-1.49,2.35,-1.50,1.50,1.74,1.43,3.85,3.85,3.84
40.14,2.32,-1.53,2.33,-1.52,1.52,1.72,1.38,3.84,3.85,3.85
40.54,2.31,-1.54,2.31,-1.54,1.54,1.69,1.32,3.85,3.85,3.85
40.94,2.29,-1.55,2.29,-1.56,1.56,1.66,1.27,3.85,3.85,3.84
41.35,2.27,-1.57,2.27,-1.58,1.58,1.63,1.22,3.85,3.85,3.84
41.76,2.25,-1.60,2.25,-1.60,1.60,1.60,1.17,3.85,3.85,3.85
42.18,2.23,-1.62,2.22,-1.62,1.62,1.57,1.12,3.85,3.85,3.85
42.60,2.20,-1.65,2.20,-1.65,1.65,1.54,1.07,3.85,3.85,3.85
43.03,2.18,-1.68,2.17,-1.67,1.67,1.51,1.02,3.85,3.84,3.86
43.46,2.15,-1.70,2.14,-1.70,1.70,1.47,0.97,3.85,3.84,3.85
43.90,2.13,-1.71,2.11,-1.73,1.73,1.44,0.92,3.86,3.84,3.84
44.33,2.10,-1.74,2.08,-1.76,1.76,1.40,0.88,3.86,3.84,3.84
44.78,2.07,-1.77,2.06,-1.79,1.79,1.36,0.83,3.86,3.84,3.84
45.23,2.03,-1.80,2.03,-1.81,1.81,1.32,0.79,3.85,3.84,3.83
45.68,2.00,-1.84,2.00,-1.84,1.84,1.28,0.74,3.84,3.84,3.84
46.13,1.97,-1.86,1.98,-1.86,1.86,1.24,0.70,3.83,3.84,3.83
46.60,1.96,-1.88,1.97,-1.87,1.87,1.20,0.66,3.83,3.84,3.85
47.06,1.94,-1.90,1.96,-1.88,1.88,1.16,0.62,3.82,3.83,3.84
47.53,1.93,-1.90,1.95,-1.88,1.88,1.12,0.58,3.81,3.83,3.83
48.01,1.93,-1.92,1.95,-1.88,1.88,1.07,0.54,3.81,3.83,3.85
48.49,1.95,-1.88,1.95,-1.87,1.87,1.03,0.50,3.82,3.82,3.83
48.97,1.97,-1.84,1.96,-1.85,1.85,0.98,0.46,3.82,3.82,3.81
49.46,1.99,-1.82,1.98,-1.82,1.82,0.93,0.42,3.81,3.81,3.81
49.96,2.02,-1.77,2.01,-1.79,1.79,0.88,0.38,3.81,3.80,3.79
50.46,2.05,-1.74,2.05,-1.74,1.74,0.83,0.34,3.79,3.79,3.79
50.96,2.09,-1.69,2.09,-1.69,1.69,0.78,0.31,3.78,3.78,3.78
51.47,2.13,-1.63,2.14,-1.63,1.63,0.73,0.27,3.76,3.77,3.76
51.99,2.18,-1.57,2.19,-1.56,1.56,0.67,0.24,3.74,3.75,3.75
52.51,2.24,-1.51,2.25,-1.49,1.49,0.62,0.20,3.73,3.74,3.75
53.03,2.30,-1.43,2.32,-1.41,1.41,0.56,0.16,3.71,3.73,3.73
53.56,2.39,-1.33,2.39,-1.33,1.33,0.50,0.13,3.72,3.71,3.72
54.10,2.47,-1.23,2.46,-1.24,1.24,0.44,0.09,3.71,3.70,3.70
54.64,2.55,-1.14,2.54,-1.14,1.14,0.38,0.06,3.69,3.69,3.69
55.18,2.63,-1.04,2.63,-1.04,1.04,0.32,0.02,3.67,3.67,3.67
55.74,2.72,-0.93,2.72,-0.94,0.94,0.26,-0.01,3.66,3.66,3.65
56.29,2.81,-0.84,2.82,-0.83,0.83,0.20,-0.05,3.64,3.64,3.65
56.86,2.91,-0.72,2.92,-0.71,0.71,0.13,-0.08,3.62,3.63,3.63
57.42,3.01,-0.59,3.01,-0.60,0.60,0.06,-0.12,3.61,3.61,3.60
58.00,3.11,-0.48,3.11,-0.48,0.48,-0.00,-0.16,3.59,3.60,3.59
58.58,3.21,-0.37,3.21,-0.36,0.36,-0.07,-0.19,3.57,3.58,3.58
59.16,3.32,-0.24,3.31,-0.25,0.25,-0.14,-0.23,3.57,3.56,3.57
59.76,3.42,-0.13,3.41,-0.13,0.13,-0.22,-0.27,3.55,3.54,3.55
60.35,3.52,-0.01,3.50,-0.01,0.01,-0.29,-0.31,3.53,3.51,3.53
60.96,3.61,0.11,3.60,0.10,-0.10,-0.37,-0.35,3.51,3.49,3.50
61.57,3.70,0.23,3.68,0.22,-0.22,-0.44,-0.39,3.48,3.47,3.47
62.18,3.78,0.35,3.77,0.33,-0.33,-0.52,-0.43,3.45,3.44,3.43
62.80,3.86,0.44,3.86,0.44,-0.44,-0.60,-0.47,3.42,3.42,3.42
63.43,3.95,0.57,3.94,0.55,-0.55,-0.68,-0.51,3.40,3.39,3.38
64.07,4.03,0.68,4.02,0.66,-0.66,-0.77,-0.55,3.37,3.36,3.35
64.71,4.10,0.77,4.10,0.77,-0.77,-0.85,-0.59,3.33,3.33,3.33
65.35,4.17,0.87,4.18,0.88,-0.88,-0.94,-0.64,3.29,3.30,3.30
66.01,4.25,0.98,4.26,0.99,-0.99,-1.03,-0.68,3.26,3.27,3.27
66.67,4.33,1.08,4.34,1.10,-1.10,-1.12,-0.73,3.23,3.24,3.25
67.33,4.41,1.19,4.42,1.21,-1.21,-1.22,-0.78,3.20,3.21,3.22
68.01,4.49,1.30,4.51,1.32,-1.32,-1.31,-0.83,3.17,3.19,3.19
68.69,4.59,1.43,4.59,1.43,-1.43,-1.41,-0.88,3.16,3.16,3.16
69.37,4.68,1.55,4.68,1.55,-1.55,-1.52,-0.93,3.13,3.13,3.13
70.07,4.77,1.67,4.77,1.67,-1.67,-1.63,-0.98,3.10,3.10,3.10
70.77,4.86,1.79,4.86,1.79,-1.79,-1.74,-1.03,3.07,3.07,3.07
71.48,4.95,1.90,4.96,1.91,-1.91,-1.85,-1.09,3.04,3.05,3.05
72.19,5.05,2.03,5.06,2.04,-2.04,-1.97,-1.14,3.02,3.02,3.02
72.91,5.16,2.17,5.16,2.16,-2.16,-2.09,-1.20,3.00,3.00,2.99
73.64,5.25,2.28,5.26,2.28,-2.28,-2.22,-1.26,2.97,2.97,2.97
74.38,5.35,2.40,5.36,2.41,-2.41,-2.35,-1.32,2.94,2.95,2.95
75.12,5.44,2.51,5.46,2.53,-2.53,-2.47,-1.38,2.91,2.93,2.93
75.87,5.55,2.64,5.55,2.64,-2.64,-2.60,-1.44,2.91,2.91,2.91
76.63,5.65,2.76,5.65,2.76,-2.76,-2.72,-1.50,2.89,2.89,2.89
77.40,5.75,2.87,5.74,2.87,-2.87,-2.84,-1.57,2.88,2.88,2.88
78.17,5.85,2.99,5.83,2.97,-2.97,-2.94,-1.63,2.88,2.86,2.86
78.95,5.94,3.09,5.92,3.07,-3.07,-3.04,-1.70,2.87,2.85,2.85
79.74,6.02,3.18,6.00,3.17,-3.17,-3.12,-1.77,2.85,2.84,2.84
80.54,6.09,3.26,6.08,3.26,-3.26,-3.19,-1.84,2.83,2.83,2.83
81.35,6.16,3.34,6.16,3.34,-3.34,-3.25,-1.92,2.82,2.82,2.82
82.16,6.23,3.42,6.23,3.42,-3.42,-3.31,-1.99,2.81,2.81,2.81
82.98,6.29,3.49,6.30,3.50,-3.50,-3.36,-2.07,2.79,2.80,2.81
83.81,6.36,3.57,6.36,3.57,-3.57,-3.41,-2.15,2.79,2.79,2.79
84.65,6.41,3.63,6.42,3.63,-3.63,-3.47,-2.23,2.78,2.79,2.78
85.50,6.46,3.67,6.48,3.69,-3.69,-3.52,-2.31,2.77,2.78,2.79
86.35,6.52,3.74,6.53,3.74,-3.74,-3.58,-2.40,2.78,2.78,2.78
87.22,6.57,3.79,6.57,3.79,-3.79,-3.64,-2.48,2.78,2.78,2.78
88.09,6.62,3.85,6.61,3.83,-3.83,-3.70,-2.57,2.79,2.78,2.77
88.97,6.67,3.89,6.65,3.88,-3.88,-3.76,-2.66,2.79,2.78,2.78
89.86,6.70,3.92,6.69,3.91,-3.91,-3.83,-2.75,2.79,2.77,2.78
90.76,6.73,3.96,6.72,3.94,-3.94,-3.89,-2.85,2.79,2.77,2.77
91.66,6.76,3.99,6.74,3.97,-3.97,-3.96,-2.95,2.79,2.77,2.77
92.58,6.78,4.02,6.77,4.00,-4.00,-4.03,-3.04,2.78,2.77,2.76
93.51,6.79,4.01,6.79,4.02,-4.02,-4.09,-3.14,2.77,2.77,2.77
94.44,6.79,4.02,6.81,4.04,-4.04,-4.16,-3.25,2.75,2.76,2.77
95.39,6.81,4.04,6.82,4.07,-4.07,-4.23,-3.35,2.74,2.76,2.77
96.34,6.83,4.08,6.84,4.09,-4.09,-4.29,-3.46,2.74,2.75,2.75
97.30,6.85,4.11,6.85,4.11,-4.11,-4.36,-3.56,2.74,2.75,2.74
98.28,6.87,4.14,6.87,4.13,-4.13,-4.42,-3.67,2.74,2.74,2.73
99.26,6.88,4.15,6.89,4.16,-4.16,-4.48,-3.78,2.72,2.73,2.73
100.25,6.90,4.18,6.91,4.19,-4.19,-4.54,-3.89,2.71,2.72,2.72
101.25,6.93,4.22,6.94,4.23,-4.23,-4.59,-4.00,2.70,2.71,2.71
102.27,6.95,4.26,6.97,4.27,-4.27,-4.65,-4.11,2.68,2.69,2.69
103.29,6.97,4.30,7.00,4.32,-4.32,-4.70,-4.22,2.65,2.67,2.67
104.32,6.99,4.33,7.03,4.37,-4.37,-4.75,-4.34,2.62,2.65,2.66
105.37,7.03,4.39,7.06,4.42,-4.42,-4.79,-4.45,2.61,2.63,2.64
106.42,7.07,4.46,7.08,4.47,-4.47,-4.84,-4.56,2.60,2.61,2.61
107.48,7.11,4.52,7.10,4.52,-4.52,-4.88,-4.66,2.59,2.58,2.59
108.56,7.15,4.60,7.12,4.57,-4.57,-4.92,-4.77,2.58,2.55,2.55
109.64,7.17,4.65,7.13,4.61,-4.61,-4.95,-4.87,2.56,2.52,2.52
110.74,7.19,4.70,7.14,4.65,-4.65,-4.98,-4.97,2.54,2.48,2.49
111.85,7.18,4.73,7.14,4.69,-4.69,-5.01,-5.07,2.49,2.45,2.45
112.97,7.16,4.75,7.13,4.72,-4.72,-5.04,-5.16,2.44,2.41,2.41
114.10,7.13,4.75,7.11,4.74,-4.74,-5.06,-5.25,2.39,2.37,2.38
115.24,7.09,4.76,7.09,4.76,-4.76,-5.07,-5.33,2.33,2.33,2.33
116.39,7.06,4.78,7.07,4.78,-4.78,-5.09,-5.40,2.28,2.29,2.28
117.55,7.03,4.79,7.04,4.79,-4.79,-5.10,-5.47,2.24,2.25,2.24
118.73,7.00,4.80,7.01,4.80,-4.80,-5.11,-5.53,2.20,2.21,2.20
119.92,6.95,4.78,6.98,4.81,-4.81,-5.11,-5.59,2.14,2.17,2.17
121.12,6.92,4.80,6.95,4.82,-4.82,-5.12,-5.63,2.10,2.13,2.12
122.33,6.90,4.81,6.92,4.83,-4.83,-5.11,-5.67,2.07,2.09,2.09
123.55,6.88,4.82,6.90,4.85,-4.85,-5.11,-5.69,2.03,2.05,2.06
124.79,6.86,4.84,6.88,4.86,-4.86,-5.10,-5.71,2.00,2.02,2.02
126.03,6.85,4.86,6.86,4.88,-4.88,-5.09,-5.72,1.97,1.99,1.99
127.29,6.84,4.89,6.85,4.90,-4.90,-5.08,-5.72,1.94,1.95,1.95
128.57,6.82,4.91,6.83,4.91,-4.91,-5.06,-5.71,1.91,1.92,1.91
129.85,6.82,4.93,6.81,4.92,-4.92,-5.04,-5.69,1.90,1.89,1.89
131.15,6.81,4.96,6.79,4.93,-4.93,-5.02,-5.67,1.88,1.86,1.85
132.46,6.80,4.97,6.77,4.94,-4.94,-5.00,-5.63,1.86,1.83,1.83
133.79,6.78,4.97,6.74,4.94,-4.94,-4.97,-5.59,1.84,1.80,1.81
135.12,6.73,4.95,6.71,4.93,-4.93,-4.95,-5.55,1.80,1.78,1.78
136.48,6.69,4.93,6.68,4.92,-4.92,-4.92,-5.49,1.77,1.75,1.76
137.84,6.64,4.91,6.64,4.91,-4.91,-4.89,-5.43,1.73,1.73,1.73
139.22,6.60,4.90,6.59,4.89,-4.89,-4.85,-5.37,1.71,1.71,1.70
140.61,6.55,4.88,6.55,4.86,-4.86,-4.82,-5.30,1.69,1.68,1.67
142.02,6.48,4.82,6.50,4.84,-4.84,-4.78,-5.22,1.64,1.66,1.66
143.44,6.44,4.80,6.45,4.81,-4.81,-4.74,-5.15,1.63,1.64,1.64
144.87,6.36,4.75,6.39,4.78,-4.78,-4.70,-5.07,1.58,1.61,1.61
146.32,6.32,4.73,6.33,4.74,-4.74,-4.66,-4.99,1.58,1.59,1.59
147.78,6.26,4.69,6.27,4.71,-4.71,-4.62,-4.91,1.55,1.56,1.57
149.26,6.22,4.67,6.22,4.68,-4.68,-4.58,-4.82,1.54,1.53,1.55
150.75,6.15,4.65,6.16,4.65,-4.65,-4.53,-4.74,1.50,1.51,1.50
152.26,6.11,4.63,6.10,4.62,-4.62,-4.49,-4.66,1.49,1.48,1.48
153.78,6.05,4.60,6.04,4.59,-4.59,-4.45,-4.58,1.46,1.45,1.45
155.32,5.99,4.58,5.97,4.56,-4.56,-4.40,-4.49,1.43,1.42,1.41
156.88,5.91,4.52,5.91,4.52,-4.52,-4.36,-4.41,1.39,1.38,1.39
158.44,5.84,4.48,5.84,4.49,-4.49,-4.31,-4.33,1.35,1.35,1.36
160.03,5.76,4.45,5.77,4.46,-4.46,-4.26,-4.26,1.30,1.32,1.31
161.63,5.71,4.44,5.70,4.42,-4.42,-4.22,-4.18,1.29,1.28,1.27
163.24,5.65,4.41,5.63,4.38,-4.38,-4.17,-4.11,1.27,1.25,1.24
164.88,5.55,4.34,5.56,4.35,-4.35,-4.12,-4.04,1.20,1.21,1.21
166.53,5.48,4.31,5.48,4.31,-4.31,-4.08,-3.97,1.17,1.17,1.17
168.19,5.41,4.28,5.41,4.28,-4.28,-4.03,-3.90,1.13,1.13,1.13
169.87,5.31,4.21,5.33,4.24,-4.24,-3.98,-3.84,1.07,1.09,1.10
171.57,5.25,4.19,5.25,4.20,-4.20,-3.94,-3.77,1.05,1.05,1.06
173.29,5.18,4.17,5.17,4.16,-4.16,-3.89,-3.72,1.02,1.01,1.01
175.02,5.07,4.09,5.09,4.13,-4.13,-3.85,-3.66,0.94,0.96,0.98
176.77,5.01,4.09,5.01,4.09,-4.09,-3.80,-3.61,0.92,0.92,0.92
178.54,4.94,4.07,4.92,4.05,-4.05,-3.76,-3.56,0.89,0.87,0.87
180.32,4.86,4.03,4.83,4.00,-4.00,-3.71,-3.51,0.86,0.83,0.83
182.13,4.77,3.99,4.74,3.96,-3.96,-3.67,-3.46,0.81,0.78,0.78
183.95,4.64,3.91,4.65,3.92,-3.92,-3.63,-3.42,0.72,0.73,0.73
185.79,4.56,3.87,4.56,3.88,-3.88,-3.58,-3.38,0.68,0.68,0.69
187.65,4.46,3.84,4.47,3.84,-3.84,-3.54,-3.35,0.62,0.63,0.62
189.52,4.36,3.78,4.38,3.79,-3.79,-3.50,-3.31,0.57,0.59,0.58
191.42,4.27,3.73,4.28,3.74,-3.74,-3.46,-3.28,0.53,0.54,0.54
193.33,4.17,3.67,4.18,3.69,-3.69,-3.42,-3.25,0.48,0.49,0.49
195.27,4.08,3.63,4.09,3.64,-3.64,-3.38,-3.22,0.44,0.45,0.45
197.22,4.00,3.60,3.99,3.58,-3.58,-3.34,-3.20,0.42,0.40,0.40
199.19,3.90,3.55,3.89,3.53,-3.53,-3.30,-3.18,0.37,0.36,0.35
201.18,3.80,3.49,3.79,3.47,-3.47,-3.27,-3.16,0.33,0.32,0.31
203.19,3.70,3.42,3.69,3.42,-3.42,-3.23,-3.14,0.28,0.27,0.28
205.23,3.60,3.37,3.60,3.36,-3.36,-3.20,-3.12,0.24,0.23,0.23
207.28,3.50,3.29,3.50,3.30,-3.30,-3.16,-3.11,0.20,0.20,0.21
209.35,3.40,3.24,3.40,3.24,-3.24,-3.13,-3.09,0.16,0.16,0.16
211.44,3.30,3.19,3.30,3.17,-3.17,-3.10,-3.08,0.13,0.12,0.11
213.56,3.20,3.12,3.20,3.11,-3.11,-3.06,-3.07,0.09,0.09,0.08
215.69,3.10,3.03,3.10,3.04,-3.04,-3.03,-3.06,0.06,0.06,0.07
217.85,3.00,2.97,3.00,2.97,-2.97,-3.00,-3.05,0.03,0.02,0.03
220.03,2.92,2.93,2.90,2.91,-2.91,-2.97,-3.04,0.01,-0.00,-0.01
222.23,2.83,2.87,2.81,2.84,-2.84,-2.95,-3.03,-0.01,-0.03,-0.04
224.45,2.73,2.78,2.73,2.78,-2.78,-2.92,-3.02,-0.05,-0.05,-0.05
226.70,2.63,2.70,2.65,2.73,-2.73,-2.89,-3.02,-0.10,-0.07,-0.07
228.96,2.55,2.65,2.58,2.67,-2.67,-2.87,-3.01,-0.12,-0.09,-0.10
231.25,2.50,2.60,2.51,2.62,-2.62,-2.84,-3.00,-0.12,-0.11,-0.10
233.57,2.44,2.56,2.46,2.58,-2.58,-2.82,-2.99,-0.14,-0.12,-0.12
235.90,2.38,2.52,2.41,2.54,-2.54,-2.80,-2.98,-0.16,-0.13,-0.14
238.26,2.36,2.50,2.37,2.51,-2.51,-2.78,-2.97,-0.15,-0.14,-0.14
240.64,2.33,2.48,2.34,2.48,-2.48,-2.76,-2.96,-0.15,-0.14,-0.15
243.05,2.31,2.45,2.31,2.46,-2.46,-2.74,-2.95,-0.15,-0.15,-0.14
245.48,2.29,2.44,2.29,2.44,-2.44,-2.72,-2.93,-0.15,-0.15,-0.15
247.93,2.28,2.42,2.28,2.43,-2.43,-2.70,-2.92,-0.15,-0.14,-0.14
250.41,2.27,2.42,2.28,2.42,-2.42,-2.68,-2.90,-0.15,-0.14,-0.15
252.92,2.27,2.40,2.27,2.41,-2.41,-2.67,-2.88,-0.14,-0.13,-0.13
255.45,2.28,2.40,2.27,2.40,-2.40,-2.65,-2.86,-0.12,-0.12,-0.12
258.00,2.29,2.40,2.27,2.39,-2.39,-2.64,-2.84,-0.10,-0.11,-0.11
260.58,2.29,2.40,2.27,2.38,-2.38,-2.63,-2.82,-0.09,-0.10,-0.11
263.19,2.29,2.38,2.28,2.36,-2.36,-2.61,-2.80,-0.07,-0.09,-0.09
265.82,2.29,2.37,2.28,2.35,-2.35,-2.60,-2.78,-0.06,-0.08,-0.08
268.48,2.29,2.35,2.28,2.34,-2.34,-2.59,-2.75,-0.05,-0.06,-0.06
271.16,2.29,2.33,2.28,2.32,-2.32,-2.58,-2.73,-0.03,-0.05,-0.04
273.87,2.29,2.32,2.27,2.31,-2.31,-2.58,-2.70,-0.02,-0.03,-0.03
276.61,2.28,2.29,2.27,2.29,-2.29,-2.57,-2.67,-0.01,-0.02,-0.01
279.38,2.27,2.27,2.27,2.27,-2.27,-2.56,-2.64,-0.00,0.00,0.00
282.17,2.27,2.25,2.28,2.26,-2.26,-2.56,-2.62,0.01,0.01,0.02
284.99,2.27,2.24,2.28,2.25,-2.25,-2.55,-2.59,0.02,0.03,0.03
287.84,2.29,2.25,2.29,2.25,-2.25,-2.55,-2.56,0.04,0.05,0.04
290.72,2.30,2.24,2.30,2.24,-2.24,-2.54,-2.53,0.06,0.06,0.06
293.63,2.31,2.23,2.32,2.24,-2.24,-2.54,-2.51,0.07,0.08,0.08
296.57,2.33,2.24,2.34,2.25,-2.25,-2.54,-2.48,0.08,0.09,0.09
299.53,2.36,2.26,2.37,2.27,-2.27,-2.54,-2.45,0.09,0.11,0.10
302.53,2.39,2.28,2.41,2.29,-2.29,-2.54,-2.43,0.10,0.12,0.11
305.55,2.44,2.30,2.45,2.31,-2.31,-2.54,-2.40,0.13,0.13,0.14
308.61,2.49,2.35,2.49,2.35,-2.35,-2.54,-2.38,0.14,0.14,0.14
311.69,2.54,2.39,2.54,2.39,-2.39,-2.54,-2.36,0.15,0.16,0.15
314.81,2.59,2.41,2.60,2.43,-2.43,-2.55,-2.33,0.16,0.17,0.18
317.96,2.64,2.46,2.65,2.48,-2.48,-2.55,-2.31,0.16,0.18,0.18
321.14,2.70,2.51,2.71,2.53,-2.53,-2.55,-2.30,0.17,0.18,0.19
324.35,2.77,2.58,2.78,2.58,-2.58,-2.56,-2.28,0.19,0.19,0.19
327.59,2.85,2.65,2.84,2.64,-2.64,-2.56,-2.26,0.21,0.20,0.20
330.87,2.91,2.71,2.90,2.70,-2.70,-2.56,-2.25,0.21,0.20,0.20
334.18,2.97,2.77,2.96,2.75,-2.75,-2.57,-2.23,0.22,0.21,0.20
337.52,3.02,2.81,3.02,2.81,-2.81,-2.57,-2.22,0.21,0.21,0.21
340.90,3.07,2.85,3.07,2.86,-2.86,-2.58,-2.21,0.21,0.21,0.22
344.30,3.12,2.90,3.12,2.91,-2.91,-2.58,-2.21,0.21,0.21,0.22
347.75,3.16,2.95,3.17,2.95,-2.95,-2.59,-2.20,0.21,0.21,0.21
351.23,3.21,3.00,3.20,2.99,-2.99,-2.60,-2.19,0.22,0.21,0.21
354.74,3.24,3.03,3.23,3.02,-3.02,-2.60,-2.19,0.22,0.21,0.21
358.28,3.27,3.07,3.25,3.05,-3.05,-2.61,-2.19,0.22,0.20,0.20
361.87,3.28,3.08,3.26,3.06,-3.06,-2.61,-2.19,0.22,0.20,0.20
365.49,3.29,3.09,3.27,3.07,-3.07,-2.62,-2.19,0.22,0.20,0.20
369.14,3.29,3.10,3.27,3.08,-3.08,-2.62,-2.20,0.21,0.19,0.19
372.83,3.28,3.09,3.26,3.07,-3.07,-2.63,-2.20,0.21,0.18,0.19
376.56,3.24,3.06,3.24,3.06,-3.06,-2.63,-2.21,0.18,0.18,0.18
380.33,3.20,3.03,3.22,3.05,-3.05,-2.63,-2.22,0.15,0.17,0.17
384.13,3.17,3.01,3.19,3.02,-3.02,-2.63,-2.22,0.15,0.16,0.16
387.97,3.15,3.00,3.16,3.00,-3.00,-2.64,-2.24,0.15,0.16,0.15
391.85,3.12,2.98,3.12,2.97,-2.97,-2.64,-2.25,0.15,0.15,0.14
395.77,3.08,2.93,3.08,2.94,-2.94,-2.64,-2.26,0.14,0.14,0.15
399.73,3.04,2.90,3.04,2.90,-2.90,-2.64,-2.27,0.14,0.14,0.14
403.72,3.00,2.87,3.00,2.87,-2.87,-2.63,-2.29,0.13,0.13,0.13
407.76,2.95,2.83,2.96,2.83,-2.83,-2.63,-2.31,0.12,0.13,0.12
411.84,2.90,2.77,2.92,2.79,-2.79,-2.63,-2.32,0.11,0.12,0.13
415.96,2.86,2.74,2.87,2.76,-2.76,-2.62,-2.34,0.10,0.12,0.12
420.12,2.83,2.71,2.83,2.72,-2.72,-2.62,-2.36,0.11,0.12,0.12
424.32,2.80,2.68,2.79,2.68,-2.68,-2.61,-2.37,0.12,0.11,0.12
428.56,2.76,2.65,2.75,2.63,-2.63,-2.60,-2.39,0.13,0.11,0.11
432.85,2.72,2.61,2.70,2.59,-2.59,-2.59,-2.41,0.13,0.11,0.11
437.18,2.67,2.56,2.66,2.55,-2.55,-2.58,-2.42,0.12,0.11,0.11
441.55,2.62,2.51,2.62,2.51,-2.51,-2.57,-2.44,0.11,0.11,0.11
445.96,2.57,2.46,2.58,2.47,-2.47,-2.55,-2.45,0.10,0.11,0.11
450.42,2.51,2.41,2.54,2.42,-2.42,-2.54,-2.47,0.09,0.11,0.10
454.93,2.48,2.37,2.50,2.38,-2.38,-2.52,-2.48,0.10,0.12,0.11
459.48,2.44,2.33,2.45,2.33,-2.33,-2.50,-2.49,0.11,0.12,0.11
464.07,2.42,2.30,2.41,2.29,-2.29,-2.48,-2.50,0.13,0.12,0.12
468.71,2.39,2.26,2.37,2.24,-2.24,-2.46,-2.51,0.15,0.13,0.13
473.40,2.35,2.22,2.33,2.20,-2.20,-2.44,-2.51,0.15,0.13,0.13
478.13,2.31,2.17,2.30,2.16,-2.16,-2.42,-2.51,0.15,0.14,0.14
482.91,2.26,2.12,2.26,2.12,-2.12,-2.39,-2.51,0.14,0.14,0.14
487.74,2.22,2.07,2.23,2.08,-2.08,-2.37,-2.51,0.14,0.15,0.15
492.62,2.18,2.02,2.20,2.04,-2.04,-2.34,-2.50,0.14,0.16,0.16
497.55,2.15,1.99,2.17,2.01,-2.01,-2.32,-2.49,0.14,0.16,0.16
502.52,2.12,1.95,2.14,1.97,-1.97,-2.29,-2.48,0.15,0.17,0.17
507.55,2.10,1.93,2.10,1.93,-1.93,-2.26,-2.47,0.17,0.17,0.17
512.62,2.09,1.92,2.07,1.90,-1.90,-2.23,-2.45,0.19,0.17,0.17
517.75,2.06,1.88,2.04,1.87,-1.87,-2.20,-2.43,0.19,0.17,0.18
522.93,2.02,1.84,2.01,1.83,-1.83,-2.17,-2.41,0.19,0.18,0.18
528.16,1.99,1.81,1.98,1.80,-1.80,-2.13,-2.38,0.19,0.18,0.18
533.44,1.95,1.77,1.95,1.77,-1.77,-2.10,-2.36,0.18,0.18,0.18
538.77,1.91,1.73,1.91,1.74,-1.74,-2.07,-2.33,0.17,0.18,0.18
544.16,1.88,1.70,1.88,1.70,-1.70,-2.03,-2.29,0.18,0.17,0.18
549.60,1.85,1.67,1.84,1.67,-1.67,-2.00,-2.26,0.18,0.17,0.18
