frequency,raw,error,smoothed,error_smoothed,equalization,parametric_eq,fixed_band_eq,equalized_raw,equalized_smoothed,target
20.00,-43.02,-33.49,-42.99,-33.47,6.00,5.80,2.69,-37.02,-36.99,-9.52
20.20,-43.21,-33.73,-43.22,-33.75,6.00,5.81,2.76,-37.21,-37.22,-9.47
20.40,-43.40,-33.97,-43.42,-33.99,6.00,5.82,2.84,-37.40,-37.42,-9.42
20.61,-43.57,-34.18,-43.60,-34.21,6.00,5.82,2.92,-37.57,-37.60,-9.40
20.81,-43.77,-34.42,-43.77,-34.42,6.00,5.83,3.00,-37.77,-37.77,-9.34
21.02,-43.94,-34.63,-43.88,-34.57,6.00,5.84,3.09,-37.94,-37.88,-9.30
21.23,-43.93,-34.64,-43.94,-34.65,6.00,5.84,3.17,-37.93,-37.94,-9.29
21.44,-43.92,-34.65,-43.94,-34.67,6.00,5.85,3.26,-37.92,-37.94,-9.27
21.66,-43.91,-34.66,-43.92,-34.67,6.00,5.86,3.36,-37.91,-37.92,-9.25
21.87,-43.89,-34.66,-43.88,-34.65,6.00,5.86,3.45,-37.89,-37.88,-9.24
22.09,-43.82,-34.61,-43.80,-34.58,6.00,5.87,3.55,-37.82,-37.80,-9.22
22.31,-43.65,-34.45,-43.67,-34.46,6.00,5.87,3.65,-37.65,-37.67,-9.21
22.54,-43.50,-34.29,-43.51,-34.30,6.00,5.88,3.75,-37.50,-37.51,-9.21
22.76,-43.32,-34.12,-43.33,-34.12,6.00,5.88,3.86,-37.32,-37.33,-9.21
22.99,-43.17,-33.95,-43.15,-33.93,6.00,5.89,3.96,-37.17,-37.15,-9.22
23.22,-42.95,-33.73,-42.95,-33.73,6.00,5.89,4.07,-36.95,-36.95,-9.22
23.45,-42.73,-33.52,-42.71,-33.50,6.00,5.90,4.19,-36.73,-36.71,-9.22
23.69,-42.52,-33.31,-42.50,-33.28,6.00,5.91,4.30,-36.52,-36.50,-9.21
23.92,-42.31,-33.10,-42.37,-33.17,6.00,5.92,4.42,-36.31,-36.37,-9.21
24.16,-42.35,-33.15,-42.37,-33.17,6.00,5.92,4.54,-36.35,-36.37,-9.20
24.40,-42.51,-33.32,-42.48,-33.28,6.00,5.93,4.66,-36.51,-36.48,-9.19
24.65,-42.65,-33.45,-42.65,-33.46,6.00,5.94,4.78,-36.65,-36.65,-9.20
24.89,-42.82,-33.62,-42.80,-33.61,6.00,5.95,4.91,-36.82,-36.80,-9.20
25.14,-42.93,-33.73,-42.92,-33.72,6.00,5.96,5.04,-36.93,-36.92,-9.20
25.39,-43.01,-33.82,-43.02,-33.83,6.00,5.97,5.16,-37.01,-37.02,-9.19
25.65,-43.09,-33.89,-43.10,-33.90,6.00,5.98,5.29,-37.09,-37.10,-9.19
25.91,-43.15,-33.95,-43.13,-33.93,6.00,5.99,5.42,-37.15,-37.13,-9.20
26.16,-43.11,-33.91,-43.10,-33.90,6.00,6.01,5.55,-37.11,-37.10,-9.20
26.43,-43.02,-33.81,-43.01,-33.80,6.00,6.02,5.68,-37.02,-37.01,-9.20
26.69,-42.91,-33.70,-42.90,-33.70,6.00,6.03,5.81,-36.91,-36.90,-9.20
26.96,-42.81,-33.61,-42.87,-33.67,6.00,6.04,5.93,-36.81,-36.87,-9.20
27.23,-42.91,-33.72,-42.93,-33.73,6.00,6.06,6.05,-36.91,-36.93,-9.20
27.50,-43.08,-33.88,-43.09,-33.89,6.00,6.07,6.18,-37.08,-37.09,-9.20
27.77,-43.23,-34.02,-43.22,-34.01,6.00,6.08,6.29,-37.23,-37.22,-9.21
28.05,-43.29,-34.09,-43.19,-33.98,6.00,6.09,6.41,-37.29,-37.19,-9.21
28.33,-42.98,-33.76,-42.99,-33.78,6.00,6.11,6.51,-36.98,-36.99,-9.22
28.62,-42.68,-33.46,-42.69,-33.47,6.00,6.12,6.62,-36.68,-36.69,-9.22
28.90,-42.36,-33.14,-42.41,-33.19,6.00,6.14,6.71,-36.36,-36.41,-9.21
29.19,-42.23,-33.00,-42.24,-33.03,6.00,6.15,6.80,-36.23,-36.24,-9.22
29.48,-42.19,-32.98,-42.17,-32.96,6.00,6.16,6.89,-36.19,-36.17,-9.20
29.78,-42.16,-32.94,-42.14,-32.94,6.00,6.18,6.96,-36.16,-36.14,-9.21
30.08,-42.12,-32.91,-42.12,-32.91,6.00,6.19,7.03,-36.12,-36.12,-9.20
30.38,-42.09,-32.87,-42.08,-32.87,6.00,6.21,7.08,-36.09,-36.08,-9.22
30.68,-42.05,-32.83,-42.05,-32.83,6.00,6.22,7.13,-36.05,-36.05,-9.22
30.99,-42.02,-32.80,-42.03,-32.81,6.00,6.23,7.17,-36.02,-36.03,-9.22
31.30,-42.03,-32.81,-42.04,-32.82,6.00,6.25,7.19,-36.03,-36.04,-9.22
31.61,-42.04,-32.82,-42.04,-32.82,6.00,6.26,7.21,-36.04,-36.04,-9.22
31.93,-42.06,-32.83,-42.02,-32.79,6.00,6.28,7.22,-36.06,-36.02,-9.22
32.24,-41.94,-32.71,-41.93,-32.71,6.00,6.29,7.22,-35.94,-35.93,-9.23
32.57,-41.80,-32.57,-41.81,-32.58,6.00,6.31,7.20,-35.80,-35.81,-9.22
32.89,-41.66,-32.43,-41.67,-32.44,6.00,6.32,7.18,-35.66,-35.67,-9.23
33.22,-41.58,-32.34,-41.57,-32.34,6.00,6.33,7.16,-35.58,-35.57,-9.24
33.55,-41.53,-32.29,-41.51,-32.27,6.00,6.35,7.12,-35.53,-35.51,-9.24
33.89,-41.48,-32.23,-41.50,-32.26,6.00,6.36,7.08,-35.48,-35.50,-9.25
34.23,-41.54,-32.29,-41.57,-32.33,6.00,6.38,7.03,-35.54,-35.57,-9.24
34.57,-41.67,-32.41,-41.67,-32.42,6.00,6.39,6.98,-35.67,-35.67,-9.25
34.92,-41.78,-32.53,-41.71,-32.46,6.00,6.40,6.92,-35.78,-35.71,-9.26
35.27,-41.66,-32.40,-41.64,-32.38,6.00,6.42,6.86,-35.66,-35.64,-9.26
35.62,-41.46,-32.20,-41.47,-32.21,6.00,6.43,6.79,-35.46,-35.47,-9.26
35.97,-41.24,-31.98,-41.28,-32.03,6.00,6.44,6.73,-35.24,-35.28,-9.26
36.33,-41.15,-31.90,-41.14,-31.88,6.00,6.46,6.66,-35.15,-35.14,-9.25
36.70,-41.08,-31.81,-41.06,-31.80,6.00,6.47,6.59,-35.08,-35.06,-9.27
37.06,-41.02,-31.75,-41.06,-31.80,6.00,6.48,6.52,-35.02,-35.06,-9.27
37.43,-41.10,-31.85,-41.09,-31.83,6.00,6.49,6.45,-35.10,-35.09,-9.25
37.81,-41.18,-31.92,-41.16,-31.90,6.00,6.51,6.38,-35.18,-35.16,-9.25
38.19,-41.23,-31.97,-41.23,-31.98,6.00,6.52,6.31,-35.23,-35.23,-9.26
38.57,-41.26,-32.01,-41.27,-32.02,6.00,6.53,6.25,-35.26,-35.27,-9.25
38.95,-41.28,-32.04,-41.25,-32.00,6.00,6.54,6.18,-35.28,-35.25,-9.24
39.34,-41.17,-31.93,-41.18,-31.94,6.00,6.56,6.12,-35.17,-35.18,-9.25
39.74,-41.06,-31.81,-41.07,-31.82,6.00,6.57,6.06,-35.06,-35.07,-9.25
40.14,-40.93,-31.69,-40.91,-31.67,6.00,6.58,6.01,-34.93,-34.91,-9.24
40.54,-40.77,-31.52,-40.76,-31.52,6.00,6.59,5.96,-34.77,-34.76,-9.24
40.94,-40.61,-31.36,-40.63,-31.38,6.00,6.60,5.91,-34.61,-34.63,-9.25
41.35,-40.55,-31.29,-40.53,-31.28,6.00,6.61,5.86,-34.55,-34.53,-9.25
41.76,-40.51,-31.25,-40.52,-31.27,6.00,6.62,5.82,-34.51,-34.52,-9.26
42.18,-40.58,-31.33,-40.65,-31.40,6.00,6.63,5.79,-34.58,-34.65,-9.25
42.60,-40.79,-31.52,-40.78,-31.52,6.00,6.64,5.75,-34.79,-34.78,-9.26
43.03,-40.96,-31.69,-40.82,-31.55,6.00,6.65,5.72,-34.96,-34.82,-9.27
43.46,-40.71,-31.43,-40.72,-31.44,6.00,6.66,5.70,-34.71,-34.72,-9.27
43.90,-40.45,-31.15,-40.51,-31.21,6.00,6.67,5.68,-34.45,-34.51,-9.30
44.33,-40.28,-30.97,-40.28,-30.97,6.00,6.68,5.66,-34.28,-34.28,-9.31
44.78,-40.15,-30.82,-40.16,-30.83,6.00,6.69,5.65,-34.15,-34.16,-9.33
45.23,-40.09,-30.75,-40.11,-30.77,6.00,6.70,5.64,-34.09,-34.11,-9.33
45.68,-40.11,-30.76,-40.09,-30.74,6.00,6.71,5.64,-34.11,-34.09,-9.35
46.13,-40.11,-30.74,-40.07,-30.72,6.00,6.72,5.64,-34.11,-34.07,-9.36
46.60,-40.05,-30.69,-40.05,-30.68,6.00,6.73,5.64,-34.05,-34.05,-9.36
47.06,-40.01,-30.63,-40.06,-30.69,6.00,6.74,5.65,-34.01,-34.06,-9.37
47.53,-40.07,-30.69,-40.07,-30.70,6.00,6.75,5.66,-34.07,-34.07,-9.38
48.01,-40.14,-30.76,-40.05,-30.67,6.00,6.76,5.68,-34.14,-34.05,-9.38
48.49,-39.97,-30.57,-39.97,-30.58,6.00,6.76,5.70,-33.97,-33.97,-9.39
48.97,-39.80,-30.39,-39.82,-30.41,6.00,6.77,5.72,-33.80,-33.82,-9.41
49.46,-39.66,-30.23,-39.65,-30.23,6.00,6.78,5.75,-33.66,-33.65,-9.43
49.96,-39.53,-30.08,-39.54,-30.10,6.00,6.79,5.78,-33.53,-33.54,-9.44
50.46,-39.48,-30.03,-39.47,-30.03,6.00,6.79,5.81,-33.48,-33.47,-9.44
50.96,-39.44,-29.99,-39.46,-30.01,6.00,6.80,5.85,-33.44,-33.46,-9.45
51.47,-39.45,-29.98,-39.45,-29.99,6.00,6.81,5.88,-33.45,-33.45,-9.47
51.99,-39.46,-29.98,-39.36,-29.89,6.00,6.81,5.92,-33.46,-33.36,-9.48
52.51,-39.24,-29.76,-39.24,-29.76,6.00,6.82,5.96,-33.24,-33.24,-9.48
53.03,-39.02,-29.54,-39.11,-29.64,6.00,6.83,6.00,-33.02,-33.11,-9.47
53.56,-39.04,-29.55,-39.03,-29.54,6.00,6.83,6.05,-33.04,-33.03,-9.48
54.10,-39.05,-29.55,-39.01,-29.52,6.00,6.84,6.09,-33.05,-33.01,-9.49
54.64,-38.98,-29.47,-38.97,-29.47,6.00,6.85,6.13,-32.98,-32.97,-9.50
55.18,-38.87,-29.37,-38.86,-29.36,6.00,6.85,6.17,-32.87,-32.86,-9.50
55.74,-38.72,-29.20,-38.72,-29.21,6.00,6.86,6.22,-32.72,-32.72,-9.51
56.29,-38.60,-29.08,-38.60,-29.08,6.00,6.86,6.25,-32.60,-32.60,-9.52
56.86,-38.50,-28.97,-38.55,-29.02,6.00,6.87,6.29,-32.50,-32.55,-9.53
57.42,-38.52,-28.97,-38.53,-28.99,6.00,6.87,6.33,-32.52,-32.53,-9.55
58.00,-38.58,-29.02,-38.48,-28.93,6.00,6.88,6.36,-32.58,-32.48,-9.55
58.58,-38.39,-28.83,-38.40,-28.85,6.00,6.88,6.39,-32.39,-32.40,-9.55
59.16,-38.23,-28.66,-38.28,-28.71,6.00,6.88,6.41,-32.23,-32.28,-9.57
59.76,-38.15,-28.56,-38.12,-28.53,6.00,6.89,6.43,-32.15,-32.12,-9.58
60.35,-38.02,-28.41,-38.00,-28.39,6.00,6.89,6.45,-32.02,-32.00,-9.62
60.96,-37.87,-28.23,-37.93,-28.28,6.00,6.90,6.46,-31.87,-31.93,-9.64
61.57,-37.86,-28.18,-37.84,-28.17,6.00,6.90,6.46,-31.86,-31.84,-9.68
62.18,-37.82,-28.10,-37.77,-28.06,6.00,6.90,6.46,-31.82,-31.77,-9.71
62.80,-37.67,-27.92,-37.70,-27.95,6.00,6.91,6.46,-31.67,-31.70,-9.75
63.43,-37.58,-27.79,-37.59,-27.81,6.00,6.91,6.45,-31.58,-31.59,-9.78
64.07,-37.52,-27.70,-37.48,-27.66,6.00,6.91,6.43,-31.52,-31.48,-9.82
64.71,-37.38,-27.52,-37.39,-27.54,6.00,6.91,6.41,-31.38,-31.39,-9.86
65.35,-37.28,-27.39,-37.29,-27.40,6.00,6.92,6.38,-31.28,-31.29,-9.89
66.01,-37.22,-27.29,-37.18,-27.26,6.00,6.92,6.35,-31.22,-31.18,-9.92
66.67,-37.09,-27.12,-37.10,-27.13,6.00,6.92,6.32,-31.09,-31.10,-9.96
67.33,-37.01,-27.00,-37.03,-27.03,6.00,6.92,6.28,-31.01,-31.03,-10.00
68.01,-36.97,-26.93,-36.97,-26.94,6.00,6.92,6.24,-30.97,-30.97,-10.03
68.69,-36.95,-26.87,-36.91,-26.84,6.00,6.92,6.19,-30.95,-30.91,-10.07
69.37,-36.84,-26.73,-36.83,-26.72,6.00,6.92,6.14,-30.84,-30.83,-10.11
70.07,-36.69,-26.53,-36.73,-26.58,6.00,6.93,6.09,-30.69,-30.73,-10.16
70.77,-36.64,-26.45,-36.63,-26.44,6.00,6.93,6.04,-30.64,-30.63,-10.19
71.48,-36.55,-26.31,-36.53,-26.29,6.00,6.93,5.99,-30.55,-30.53,-10.23
72.19,-36.45,-26.16,-36.44,-26.16,6.00,6.93,5.94,-30.45,-30.44,-10.29
72.91,-36.32,-25.99,-36.34,-26.01,6.00,6.93,5.88,-30.32,-30.34,-10.33
73.64,-36.25,-25.87,-36.26,-25.88,6.00,6.93,5.83,-30.25,-30.26,-10.37
74.38,-36.19,-25.77,-36.17,-25.75,6.00,6.93,5.77,-30.19,-30.17,-10.42
75.12,-36.12,-25.65,-36.10,-25.63,6.00,6.93,5.72,-30.12,-30.10,-10.47
75.87,-35.98,-25.46,-36.01,-25.50,6.00,6.93,5.67,-29.98,-30.01,-10.51
76.63,-35.92,-25.37,-35.90,-25.35,6.00,6.92,5.62,-29.92,-29.90,-10.55
77.40,-35.82,-25.23,-35.80,-25.21,6.00,6.92,5.57,-29.82,-29.80,-10.59
78.17,-35.69,-25.05,-35.70,-25.08,6.00,6.92,5.53,-29.69,-29.70,-10.64
78.95,-35.61,-24.95,-35.61,-24.95,6.00,6.92,5.49,-29.61,-29.61,-10.65
79.74,-35.54,-24.84,-35.53,-24.84,6.00,6.92,5.45,-29.54,-29.53,-10.69
80.54,-35.48,-24.75,-35.48,-24.75,6.00,6.92,5.41,-29.48,-29.48,-10.72
81.35,-35.43,-24.66,-35.43,-24.66,6.00,6.91,5.38,-29.43,-29.43,-10.77
82.16,-35.36,-24.56,-35.35,-24.56,6.00,6.91,5.35,-29.36,-29.35,-10.80
82.98,-35.27,-24.45,-35.25,-24.42,6.00,6.91,5.32,-29.27,-29.25,-10.82
83.81,-35.12,-24.25,-35.11,-24.25,6.00,6.91,5.30,-29.12,-29.11,-10.86
84.65,-34.95,-24.05,-34.97,-24.08,6.00,6.90,5.28,-28.95,-28.97,-10.89
85.50,-34.85,-23.93,-34.86,-23.94,6.00,6.90,5.26,-28.85,-28.86,-10.92
86.35,-34.80,-23.84,-34.78,-23.83,6.00,6.90,5.25,-28.80,-28.78,-10.95
87.22,-34.73,-23.74,-34.72,-23.74,6.00,6.89,5.24,-28.73,-28.72,-10.99
88.09,-34.63,-23.61,-34.62,-23.60,6.00,6.89,5.24,-28.63,-28.62,-11.02
88.97,-34.52,-23.46,-34.50,-23.44,6.00,6.89,5.24,-28.52,-28.50,-11.06
89.86,-34.35,-23.26,-34.38,-23.29,6.00,6.88,5.24,-28.35,-28.38,-11.09
90.76,-34.27,-23.14,-34.27,-23.15,6.00,6.88,5.25,-28.27,-28.27,-11.13
91.66,-34.21,-23.05,-34.18,-23.02,6.00,6.87,5.26,-28.21,-28.18,-11.15
92.58,-34.11,-22.90,-34.10,-22.91,6.00,6.87,5.28,-28.11,-28.10,-11.20
93.51,-34.01,-22.78,-34.02,-22.79,6.00,6.86,5.29,-28.01,-28.02,-11.23
94.44,-33.94,-22.68,-33.94,-22.68,6.00,6.86,5.32,-27.94,-27.94,-11.26
95.39,-33.87,-22.58,-33.86,-22.57,6.00,6.85,5.34,-27.87,-27.86,-11.28
96.34,-33.77,-22.44,-33.76,-22.44,6.00,6.85,5.37,-27.77,-27.76,-11.32
97.30,-33.65,-22.30,-33.64,-22.29,6.00,6.84,5.41,-27.65,-27.64,-11.35
98.28,-33.52,-22.14,-33.52,-22.14,6.00,6.83,5.44,-27.52,-27.52,-11.38
99.26,-33.39,-21.98,-33.40,-22.00,6.00,6.83,5.48,-27.39,-27.40,-11.41
100.25,-33.32,-21.88,-33.31,-21.87,6.00,6.82,5.52,-27.32,-27.31,-11.44
101.25,-33.23,-21.76,-33.23,-21.76,6.00,6.81,5.57,-27.23,-27.23,-11.47
102.27,-33.16,-21.66,-33.14,-21.64,6.00,6.81,5.61,-27.16,-27.14,-11.50
103.29,-33.06,-21.52,-33.06,-21.53,6.00,6.80,5.66,-27.06,-27.06,-11.53
104.32,-32.98,-21.42,-33.00,-21.44,6.00,6.79,5.71,-26.98,-27.00,-11.55
105.37,-32.95,-21.36,-32.93,-21.35,6.00,6.78,5.76,-26.95,-26.93,-11.58
106.42,-32.88,-21.26,-32.87,-21.25,6.00,6.77,5.81,-26.88,-26.87,-11.61
107.48,-32.79,-21.13,-32.79,-21.14,6.00,6.77,5.87,-26.79,-26.79,-11.65
108.56,-32.70,-21.00,-32.69,-21.01,6.00,6.76,5.92,-26.70,-26.69,-11.69
109.64,-32.61,-20.88,-32.62,-20.90,6.00,6.75,5.97,-26.61,-26.62,-11.72
110.74,-32.54,-20.78,-32.53,-20.77,6.00,6.74,6.02,-26.54,-26.53,-11.76
111.85,-32.49,-20.71,-32.45,-20.66,6.00,6.73,6.07,-26.49,-26.45,-11.78
112.97,-32.33,-20.50,-32.40,-20.57,6.00,6.72,6.12,-26.33,-26.40,-11.83
114.10,-32.34,-20.48,-32.34,-20.48,6.00,6.71,6.17,-26.34,-26.34,-11.86
115.24,-32.30,-20.41,-32.23,-20.34,6.00,6.70,6.21,-26.30,-26.23,-11.88
116.39,-32.10,-20.17,-32.08,-20.17,6.00,6.69,6.25,-26.10,-26.08,-11.92
117.55,-31.86,-19.92,-31.89,-19.95,6.00,6.68,6.29,-25.86,-25.89,-11.94
118.73,-31.69,-19.72,-31.72,-19.75,6.00,6.67,6.32,-25.69,-25.72,-11.97
119.92,-31.61,-19.63,-31.60,-19.61,6.00,6.66,6.35,-25.61,-25.60,-11.97
121.12,-31.52,-19.52,-31.49,-19.50,6.00,6.64,6.38,-25.52,-25.49,-12.00
122.33,-31.38,-19.36,-31.38,-19.36,6.00,6.63,6.40,-25.38,-25.38,-12.02
123.55,-31.23,-19.20,-31.23,-19.20,6.00,6.62,6.41,-25.23,-25.23,-12.02
124.79,-31.08,-19.04,-31.08,-19.04,6.00,6.61,6.42,-25.08,-25.08,-12.04
126.03,-30.93,-18.87,-30.94,-18.89,6.00,6.59,6.43,-24.93,-24.94,-12.05
127.29,-30.81,-18.75,-30.78,-18.71,6.00,6.58,6.43,-24.81,-24.78,-12.06
128.57,-30.65,-18.56,-30.62,-18.54,6.00,6.57,6.42,-24.65,-24.62,-12.08
129.85,-30.45,-18.35,-30.51,-18.42,6.00,6.55,6.41,-24.45,-24.51,-12.10
131.15,-30.44,-18.33,-30.44,-18.34,6.00,6.54,6.40,-24.44,-24.44,-12.11
132.46,-30.43,-18.30,-30.40,-18.28,6.00,6.53,6.38,-24.43,-24.40,-12.12
133.79,-30.38,-18.24,-30.34,-18.20,6.00,6.51,6.35,-24.38,-24.34,-12.13
135.12,-30.21,-18.05,-30.22,-18.08,6.00,6.50,6.33,-24.21,-24.22,-12.15
136.48,-30.07,-17.91,-30.09,-17.92,6.00,6.48,6.30,-24.07,-24.09,-12.16
137.84,-29.98,-17.80,-29.96,-17.78,6.00,6.47,6.27,-23.98,-23.96,-12.18
139.22,-29.87,-17.67,-29.89,-17.70,6.00,6.45,6.23,-23.87,-23.89,-12.20
140.61,-29.81,-17.59,-29.83,-17.63,6.00,6.44,6.20,-23.81,-23.83,-12.21
142.02,-29.82,-17.60,-29.74,-17.52,6.00,6.42,6.16,-23.82,-23.74,-12.21
143.44,-29.62,-17.38,-29.62,-17.39,6.00,6.40,6.12,-23.62,-23.62,-12.23
144.87,-29.44,-17.18,-29.48,-17.22,6.00,6.39,6.08,-23.44,-23.48,-12.26
146.32,-29.32,-17.03,-29.31,-17.03,6.00,6.37,6.05,-23.32,-23.31,-12.29
147.78,-29.19,-16.88,-29.16,-16.85,6.00,6.35,6.01,-23.19,-23.16,-12.30
149.26,-29.02,-16.68,-29.02,-16.68,6.00,6.33,5.97,-23.02,-23.02,-12.34
150.75,-28.87,-16.47,-28.92,-16.53,6.00,6.32,5.94,-22.87,-22.92,-12.39
152.26,-28.84,-16.39,-28.82,-16.38,6.00,6.30,5.90,-22.84,-22.82,-12.45
153.78,-28.77,-16.26,-28.71,-16.21,6.00,6.28,5.87,-22.77,-22.71,-12.50
155.32,-28.58,-16.01,-28.59,-16.03,6.00,6.26,5.85,-22.58,-22.59,-12.56
156.88,-28.42,-15.79,-28.45,-15.82,6.00,6.24,5.82,-22.42,-22.45,-12.63
158.44,-28.34,-15.64,-28.34,-15.64,6.00,6.22,5.80,-22.34,-22.34,-12.70
160.03,-28.28,-15.51,-28.25,-15.49,6.00,6.20,5.78,-22.28,-22.25,-12.77
161.63,-28.17,-15.34,-28.15,-15.32,6.00,6.18,5.76,-22.17,-22.15,-12.83
163.24,-28.02,-15.13,-28.03,-15.15,6.00,6.16,5.75,-22.02,-22.03,-12.88
164.88,-27.87,-14.95,-27.87,-14.95,6.00,6.14,5.74,-21.87,-21.87,-12.92
166.53,-27.75,-14.79,-27.73,-14.77,6.00,6.12,5.74,-21.75,-21.73,-12.96
168.19,-27.58,-14.59,-27.60,-14.61,6.00,6.10,5.74,-21.58,-21.60,-12.99
169.87,-27.49,-14.47,-27.49,-14.48,6.00,6.08,5.74,-21.49,-21.49,-13.02
171.57,-27.41,-14.38,-27.40,-14.37,6.00,6.06,5.75,-21.41,-21.40,-13.02
173.29,-27.31,-14.27,-27.30,-14.27,6.00,6.04,5.76,-21.31,-21.30,-13.03
175.02,-27.20,-14.17,-27.19,-14.16,6.00,6.02,5.78,-21.20,-21.19,-13.03
176.77,-27.06,-14.02,-27.08,-14.05,6.00,5.99,5.80,-21.06,-21.08,-13.03
178.54,-26.98,-13.95,-26.97,-13.94,6.00,5.97,5.83,-20.98,-20.97,-13.03
180.32,-26.85,-13.83,-26.84,-13.82,6.00,5.95,5.86,-20.85,-20.84,-13.01
182.13,-26.70,-13.70,-26.68,-13.67,6.00,5.93,5.89,-20.70,-20.68,-13.00
183.95,-26.48,-13.47,-26.49,-13.49,6.00,5.91,5.93,-20.48,-20.49,-13.00
185.79,-26.30,-13.30,-26.31,-13.31,6.00,5.89,5.98,-20.30,-20.31,-13.00
187.65,-26.15,-13.14,-26.14,-13.14,6.00,5.87,6.02,-20.15,-20.14,-13.01
189.52,-26.01,-12.99,-26.00,-12.99,6.00,5.84,6.08,-20.01,-20.00,-13.01
191.42,-25.87,-12.84,-25.86,-12.83,6.00,5.82,6.13,-19.87,-19.86,-13.03
193.33,-25.72,-12.68,-25.72,-12.68,6.00,5.80,6.19,-19.72,-19.72,-13.04
195.27,-25.57,-12.52,-25.58,-12.53,6.00,5.78,6.26,-19.57,-19.58,-13.05
197.22,-25.44,-12.37,-25.43,-12.36,6.00,5.76,6.32,-19.44,-19.43,-13.06
199.19,-25.29,-12.20,-25.27,-12.20,6.00,5.74,6.39,-19.29,-19.27,-13.08
201.18,-25.11,-12.01,-25.12,-12.03,6.00,5.72,6.46,-19.11,-19.12,-13.09
203.19,-24.96,-11.85,-24.96,-11.85,6.00,5.70,6.54,-18.96,-18.96,-13.10
205.23,-24.81,-11.68,-24.79,-11.67,6.00,5.68,6.61,-18.81,-18.79,-13.12
207.28,-24.63,-11.50,-24.63,-11.50,6.00,5.67,6.69,-18.63,-18.63,-13.12
209.35,-24.47,-11.32,-24.49,-11.35,6.00,5.65,6.77,-18.47,-18.49,-13.14
211.44,-24.37,-11.20,-24.36,-11.20,6.00,5.64,6.85,-18.37,-18.36,-13.17
213.56,-24.25,-11.08,-24.22,-11.04,6.00,5.62,6.93,-18.25,-18.22,-13.17
215.69,-24.06,-10.88,-24.07,-10.89,6.00,5.61,7.00,-18.06,-18.07,-13.18
217.85,-23.90,-10.71,-23.91,-10.72,6.00,5.60,7.08,-17.90,-17.91,-13.19
220.03,-23.77,-10.57,-23.77,-10.57,6.00,5.59,7.15,-17.77,-17.77,-13.19
222.23,-23.65,-10.44,-23.64,-10.44,6.00,5.59,7.22,-17.65,-17.64,-13.21
224.45,-23.51,-10.31,-23.49,-10.29,6.00,5.58,7.28,-17.51,-17.49,-13.20
226.70,-23.33,-10.13,-23.33,-10.13,6.00,5.58,7.34,-17.33,-17.33,-13.19
228.96,-23.13,-9.94,-23.15,-9.96,6.00,5.58,7.39,-17.13,-17.15,-13.18
231.25,-22.99,-9.82,-22.96,-9.80,6.00,5.59,7.43,-16.99,-16.96,-13.17
233.57,-22.78,-9.62,-22.80,-9.64,6.00,5.60,7.46,-16.78,-16.80,-13.15
235.90,-22.63,-9.49,-22.62,-9.48,6.00,5.61,7.49,-16.63,-16.62,-13.14
238.26,-22.45,-9.32,-22.43,-9.31,6.00,5.62,7.50,-16.45,-16.43,-13.13
240.64,-22.23,-9.12,-22.25,-9.15,6.00,5.65,7.50,-16.23,-16.25,-13.10
243.05,-22.06,-8.99,-22.05,-8.98,6.00,5.67,7.48,-16.06,-16.05,-13.07
245.48,-21.88,-8.83,-21.86,-8.82,6.00,5.70,7.46,-15.88,-15.86,-13.04
247.93,-21.66,-8.65,-21.68,-8.67,6.00,5.74,7.42,-15.66,-15.68,-13.01
250.41,-21.51,-8.51,-21.52,-8.54,6.00,5.78,7.36,-15.51,-15.52,-12.99
252.92,-21.37,-8.41,-21.35,-8.39,6.00,5.83,7.30,-15.37,-15.35,-12.96
255.45,-21.20,-8.27,-21.16,-8.23,6.00,5.88,7.21,-15.20,-15.16,-12.93
258.00,-20.93,-8.02,-20.95,-8.04,6.00,5.94,7.12,-14.93,-14.95,-12.90
260.58,-20.73,-7.84,-20.75,-7.87,6.00,6.00,7.01,-14.73,-14.75,-12.89
263.19,-20.59,-7.73,-20.59,-7.73,6.00,6.06,6.88,-14.59,-14.59,-12.85
265.82,-20.47,-7.63,-20.44,-7.60,6.00,6.12,6.75,-14.47,-14.44,-12.84
268.48,-20.29,-7.48,-20.27,-7.47,6.00,6.18,6.60,-14.29,-14.27,-12.81
271.16,-20.08,-7.30,-20.10,-7.32,6.00,6.23,6.44,-14.08,-14.10,-12.77
273.87,-19.93,-7.17,-19.94,-7.19,6.01,6.27,6.28,-13.92,-13.94,-12.76
276.61,-19.81,-7.09,-19.78,-7.06,6.02,6.29,6.10,-13.79,-13.77,-12.72
279.38,-19.64,-6.94,-19.62,-6.92,6.03,6.30,5.92,-13.61,-13.59,-12.69
282.17,-19.40,-6.73,-19.42,-6.76,6.03,6.28,5.73,-13.37,-13.39,-12.67
284.99,-19.20,-6.57,-19.18,-6.55,6.02,6.24,5.53,-13.18,-13.16,-12.63
287.84,-18.95,-6.33,-18.93,-6.33,5.98,6.17,5.33,-12.96,-12.95,-12.61
290.72,-18.68,-6.10,-18.70,-6.12,5.93,6.07,5.13,-12.75,-12.77,-12.57
293.63,-18.47,-5.92,-18.47,-5.93,5.85,5.94,4.92,-12.62,-12.62,-12.55
296.57,-18.28,-5.77,-18.28,-5.77,5.74,5.80,4.70,-12.53,-12.54,-12.51
299.53,-18.11,-5.62,-18.10,-5.61,5.61,5.63,4.49,-12.49,-12.48,-12.48
302.53,-17.93,-5.46,-17.89,-5.44,5.46,5.44,4.28,-12.46,-12.43,-12.46
305.55,-17.66,-5.24,-17.69,-5.27,5.30,5.24,4.06,-12.36,-12.39,-12.42
308.61,-17.48,-5.08,-17.50,-5.10,5.12,5.04,3.84,-12.35,-12.38,-12.40
311.69,-17.35,-4.97,-17.31,-4.94,4.95,4.83,3.62,-12.39,-12.36,-12.37
314.81,-17.14,-4.79,-17.12,-4.77,4.78,4.61,3.41,-12.35,-12.34,-12.34
317.96,-16.91,-4.58,-16.93,-4.61,4.62,4.40,3.19,-12.29,-12.31,-12.32
321.14,-16.74,-4.42,-16.76,-4.44,4.46,4.19,2.97,-12.28,-12.30,-12.32
324.35,-16.62,-4.32,-16.60,-4.30,4.29,3.98,2.75,-12.33,-12.31,-12.30
327.59,-16.45,-4.17,-16.43,-4.15,4.12,3.78,2.54,-12.32,-12.31,-12.28
330.87,-16.24,-3.96,-16.24,-3.97,3.95,3.58,2.32,-12.29,-12.29,-12.27
334.18,-16.01,-3.75,-16.02,-3.77,3.77,3.39,2.11,-12.24,-12.25,-12.25
337.52,-15.82,-3.57,-15.81,-3.57,3.58,3.20,1.89,-12.24,-12.23,-12.24
