frequency,raw
20.00,-8.70
20.20,-8.57
20.40,-8.43
20.61,-8.30
20.81,-8.17
21.02,-8.04
21.23,-7.90
21.44,-7.77
21.66,-7.64
21.87,-7.51
22.09,-7.37
22.31,-7.24
22.54,-7.10
22.76,-6.97
22.99,-6.84
23.22,-6.70
23.45,-6.57
23.69,-6.43
23.92,-6.29
24.16,-6.16
24.40,-6.03
24.65,-5.90
24.89,-5.77
25.14,-5.63
25.39,-5.50
25.65,-5.37
25.91,-5.24
26.16,-5.11
26.43,-4.97
26.69,-4.84
26.96,-4.71
27.23,-4.58
27.50,-4.46
27.77,-4.33
28.05,-4.21
28.33,-4.08
28.62,-3.95
28.90,-3.82
29.19,-3.70
29.48,-3.58
29.78,-3.46
30.08,-3.34
30.38,-3.24
30.68,-3.13
30.99,-3.02
31.30,-2.92
31.61,-2.81
31.93,-2.70
32.24,-2.59
32.57,-2.49
32.89,-2.38
33.22,-2.28
33.55,-2.17
33.89,-2.06
34.23,-1.96
34.57,-1.86
34.92,-1.76
35.27,-1.66
35.62,-1.57
35.97,-1.47
36.33,-1.37
36.70,-1.28
37.06,-1.19
37.43,-1.10
37.81,-1.01
38.19,-0.93
38.57,-0.84
38.95,-0.75
39.34,-0.67
39.74,-0.58
40.14,-0.50
40.54,-0.42
40.94,-0.34
41.35,-0.26
41.76,-0.18
42.18,-0.09
42.60,-0.01
43.03,0.07
43.46,0.14
43.90,0.21
44.33,0.28
44.78,0.34
45.23,0.40
45.68,0.46
46.13,0.52
46.60,0.57
47.06,0.63
47.53,0.68
48.01,0.74
48.49,0.80
48.97,0.86
49.46,0.91
49.96,0.96
50.46,1.00
50.96,1.04
51.47,1.08
51.99,1.13
52.51,1.17
53.03,1.20
53.56,1.23
54.10,1.26
54.64,1.29
55.18,1.31
55.74,1.33
56.29,1.35
56.86,1.36
57.42,1.37
58.00,1.39
58.58,1.40
59.16,1.41
59.76,1.40
60.35,1.40
60.96,1.40
61.57,1.39
62.18,1.39
62.80,1.38
63.43,1.37
64.07,1.36
64.71,1.35
65.35,1.35
66.01,1.34
66.67,1.34
67.33,1.34
68.01,1.34
68.69,1.34
69.37,1.34
70.07,1.34
70.77,1.34
71.48,1.34
72.19,1.34
72.91,1.34
73.64,1.34
74.38,1.34
75.12,1.35
75.87,1.36
76.63,1.38
77.40,1.40
78.17,1.42
78.95,1.44
79.74,1.45
80.54,1.47
81.35,1.49
82.16,1.51
82.98,1.53
83.81,1.56
84.65,1.60
85.50,1.63
86.35,1.67
87.22,1.71
88.09,1.75
88.97,1.80
89.86,1.83
90.76,1.87
91.66,1.90
92.58,1.92
93.51,1.94
94.44,1.96
95.39,1.99
96.34,2.02
97.30,2.04
98.28,2.05
99.26,2.06
100.25,2.06
101.25,2.05
102.27,2.04
103.29,2.04
104.32,2.04
105.37,2.04
106.42,2.04
107.48,2.04
108.56,2.04
109.64,2.04
110.74,2.04
111.85,2.04
112.97,2.04
114.10,2.04
115.24,2.04
116.39,2.04
117.55,2.04
118.73,2.04
119.92,2.04
121.12,2.04
122.33,2.04
123.55,2.04
124.79,2.04
126.03,2.04
127.29,2.04
128.57,2.04
129.85,2.04
131.15,2.04
132.46,2.04
133.79,2.04
135.12,2.04
136.48,2.04
137.84,2.04
139.22,2.04
140.61,2.04
142.02,2.04
143.44,2.05
144.87,2.06
146.32,2.06
147.78,2.05
149.26,2.04
150.75,2.02
152.26,2.00
153.78,1.97
155.32,1.94
156.88,1.90
158.44,1.87
160.03,1.83
161.63,1.81
163.24,1.79
164.88,1.76
166.53,1.74
168.19,1.72
169.87,1.69
171.57,1.67
173.29,1.66
175.02,1.63
176.77,1.60
178.54,1.58
180.32,1.56
182.13,1.53
183.95,1.49
185.79,1.45
187.65,1.42
189.52,1.38
191.42,1.34
193.33,1.30
195.27,1.28
197.22,1.26
199.19,1.24
201.18,1.21
203.19,1.17
205.23,1.12
207.28,1.07
209.35,1.03
211.44,0.98
213.56,0.93
215.69,0.89
217.85,0.84
220.03,0.81
222.23,0.76
224.45,0.69
226.70,0.61
228.96,0.54
231.25,0.49
233.57,0.43
235.90,0.35
238.26,0.30
240.64,0.23
243.05,0.18
245.48,0.12
247.93,0.03
250.41,-0.02
252.92,-0.09
255.45,-0.14
258.00,-0.19
260.58,-0.26
263.19,-0.31
265.82,-0.37
268.48,-0.42
271.16,-0.47
273.87,-0.55
276.61,-0.59
279.38,-0.64
282.17,-0.68
284.99,-0.72
287.84,-0.77
290.72,-0.80
293.63,-0.82
296.57,-0.85
299.53,-0.88
302.53,-0.92
305.55,-0.96
308.61,-1.00
311.69,-1.03
314.81,-1.05
317.96,-1.08
321.14,-1.11
324.35,-1.14
327.59,-1.18
330.87,-1.19
334.18,-1.21
337.52,-1.23
340.90,-1.23
344.30,-1.23
347.75,-1.22
351.23,-1.21
354.74,-1.21
358.28,-1.22
361.87,-1.23
365.49,-1.23
369.14,-1.22
372.83,-1.21
376.56,-1.19
380.33,-1.17
384.13,-1.15
387.97,-1.14
391.85,-1.11
395.77,-1.07
399.73,-1.03
403.72,-0.99
407.76,-0.93
411.84,-0.87
415.96,-0.82
420.12,-0.77
424.32,-0.74
428.56,-0.70
432.85,-0.67
437.18,-0.63
441.55,-0.59
445.96,-0.55
450.42,-0.50
454.93,-0.46
459.48,-0.42
464.07,-0.40
468.71,-0.38
473.40,-0.34
478.13,-0.30
482.91,-0.27
487.74,-0.23
492.62,-0.18
497.55,-0.13
502.52,-0.08
507.55,-0.04
512.62,0.00
517.75,0.06
522.93,0.12
528.16,0.19
533.44,0.25
538.77,0.32
544.16,0.40
549.60,0.46
555.10,0.53
560.65,0.59
566.25,0.67
571.92,0.75
577.64,0.83
583.41,0.90
589.25,0.97
595.14,1.06
601.09,1.15
607.10,1.23
613.17,1.29
619.30,1.35
625.50,1.42
631.75,1.50
638.07,1.57
644.45,1.63
650.89,1.70
657.40,1.76
663.98,1.81
670.62,1.85
677.32,1.90
684.10,1.94
690.94,1.97
697.85,2.01
704.83,2.02
711.87,2.04
718.99,2.05
726.18,2.06
733.44,2.06
740.78,2.06
748.19,2.06
755.67,2.06
763.23,2.06
770.86,2.05
778.57,2.04
786.35,2.02
794.22,2.00
802.16,1.97
810.18,1.94
818.28,1.89
826.46,1.84
834.73,1.79
843.08,1.72
851.51,1.63
860.02,1.56
868.62,1.47
877.31,1.37
886.08,1.28
894.94,1.18
903.89,1.08
912.93,0.98
922.06,0.86
931.28,0.74
940.59,0.63
950.00,0.51
959.50,0.40
969.09,0.28
978.78,0.18
988.57,0.09
998.46,0.01
1008.44,-0.06
1018.53,-0.13
1028.71,-0.19
1039.00,-0.22
1049.39,-0.25
1059.88,-0.26
1070.48,-0.26
1081.19,-0.25
1092.00,-0.22
1102.92,-0.16
1113.95,-0.10
1125.09,-0.04
1136.34,0.02
1147.70,0.09
1159.18,0.15
1170.77,0.22
1182.48,0.27
1194.30,0.32
1206.25,0.37
1218.31,0.40
1230.49,0.42
1242.80,0.43
1255.22,0.44
1267.78,0.44
1280.45,0.45
1293.26,0.45
1306.19,0.44
1319.25,0.43
1332.45,0.42
1345.77,0.40
1359.23,0.39
1372.82,0.37
1386.55,0.35
1400.41,0.30
1414.42,0.26
1428.56,0.21
1442.85,0.16
1457.28,0.10
1471.85,0.04
1486.57,-0.03
1501.43,-0.09
1516.45,-0.15
1531.61,-0.22
1546.93,-0.29
1562.40,-0.34
1578.02,-0.40
1593.80,-0.48
1609.74,-0.56
1625.84,-0.64
1642.10,-0.72
1658.52,-0.80
1675.10,-0.90
1691.85,-1.00
1708.77,-1.10
1725.86,-1.19
1743.12,-1.28
1760.55,-1.38
1778.15,-1.48
1795.94,-1.58
1813.90,-1.69
1832.03,-1.78
1850.36,-1.88
1868.86,-1.97
1887.55,-2.06
1906.42,-2.16
1925.49,-2.26
1944.74,-2.35
1964.19,-2.44
1983.83,-2.51
2003.67,-2.58
2023.71,-2.64
2043.94,-2.71
2064.38,-2.76
2085.03,-2.81
2105.88,-2.86
2126.94,-2.90
2148.20,-2.94
2169.69,-2.98
2191.38,-3.02
2213.30,-3.05
2235.43,-3.07
2257.78,-3.09
2280.36,-3.12
2303.17,-3.14
2326.20,-3.17
2349.46,-3.20
2372.95,-3.20
2396.68,-3.18
2420.65,-3.16
2444.86,-3.14
2469.31,-3.11
2494.00,-3.10
2518.94,-3.08
2544.13,-3.04
2569.57,-3.00
2595.27,-2.94
2621.22,-2.89
2647.43,-2.83
2673.90,-2.77
2700.64,-2.72
2727.65,-2.67
2754.93,-2.62
2782.48,-2.59
2810.30,-2.56
2838.40,-2.53
2866.79,-2.52
2895.46,-2.50
2924.41,-2.48
2953.65,-2.48
2983.19,-2.48
3013.02,-2.49
3043.15,-2.49
3073.58,-2.49
3104.32,-2.48
3135.36,-2.49
3166.72,-2.50
3198.38,-2.51
3230.37,-2.52
3262.67,-2.54
3295.30,-2.57
3328.25,-2.61
3361.53,-2.65
3395.15,-2.70
3429.10,-2.76
3463.39,-2.84
3498.03,-2.93
3533.01,-3.03
3568.34,-3.13
3604.02,-3.22
3640.06,-3.29
3676.46,-3.34
3713.22,-3.36
3750.36,-3.32
3787.86,-3.23
3825.74,-3.08
3864.00,-2.87
3902.64,-2.59
3941.66,-2.24
3981.08,-1.85
4020.89,-1.41
4061.10,-0.93
4101.71,-0.43
4142.73,0.08
4184.15,0.57
4226.00,1.04
4268.26,1.47
4310.94,1.87
4354.05,2.22
4397.59,2.55
4441.56,2.83
4485.98,3.07
4530.84,3.28
4576.15,3.45
4621.91,3.59
4668.13,3.70
4714.81,3.79
4761.96,3.87
4809.58,3.93
4857.67,3.98
4906.25,4.01
4955.31,4.04
5004.87,4.03
5054.91,4.01
5105.46,3.99
5156.52,3.94
5208.08,3.89
5260.16,3.85
5312.77,3.82
5365.89,3.79
5419.55,3.76
5473.75,3.74
5528.49,3.75
5583.77,3.77
5639.61,3.79
5696.00,3.83
5752.96,3.89
5810.49,3.95
5868.60,4.02
5927.28,4.09
5986.56,4.16
6046.42,4.21
6106.89,4.26
6167.96,4.29
6229.64,4.32
6291.93,4.32
6354.85,4.33
6418.40,4.35
6482.58,4.35
6547.41,4.33
6612.88,4.31
6679.01,4.28
6745.80,4.26
6813.26,4.23
6881.39,4.20
6950.21,4.17
7019.71,4.15
7089.91,4.16
7160.81,4.18
7232.41,4.22
7304.74,4.28
7377.79,4.39
7451.56,4.53
7526.08,4.69
7601.34,4.86
7677.35,5.06
7754.13,5.26
7831.67,5.47
7909.98,5.67
7989.08,5.85
8068.98,6.00
8149.67,6.14
8231.16,6.25
8313.47,6.36
8396.61,6.45
8480.57,6.52
8565.38,6.59
8651.03,6.64
8737.54,6.69
8824.92,6.73
8913.17,6.78
9002.30,6.83
9092.32,6.86
9183.25,6.88
9275.08,6.87
9367.83,6.86
9461.51,6.85
9556.12,6.83
9651.68,6.80
9748.20,6.74
9845.68,6.69
9944.14,6.65
10043.58,6.62
10144.02,6.59
10245.46,6.59
10347.91,6.61
10451.39,6.63
10555.91,6.68
10661.46,6.74
10768.08,6.83
10875.76,6.91
10984.52,6.98
11094.36,7.05
11205.31,7.10
11317.36,7.13
11430.53,7.16
11544.84,7.17
11660.29,7.15
11776.89,7.12
11894.66,7.06
12013.60,6.99
12133.74,6.89
12255.08,6.75
12377.63,6.59
12501.41,6.39
12626.42,6.18
12752.68,5.92
12880.21,5.63
13009.01,5.31
13139.10,4.94
13270.49,4.51
13403.20,4.04
13537.23,3.54
13672.60,3.02
13809.33,2.49
13947.42,1.97
14086.90,1.48
14227.77,1.02
14370.04,0.60
14513.74,0.21
14658.88,-0.13
14805.47,-0.43
14953.52,-0.68
15103.06,-0.89
15254.09,-1.08
15406.63,-1.24
15560.70,-1.39
15716.30,-1.54
15873.47,-1.72
16032.20,-1.94
16192.52,-2.21
16354.45,-2.53
16517.99,-2.92
16683.17,-3.37
16850.01,-3.87
17018.51,-4.42
17188.69,-5.02
17360.58,-5.69
17534.18,-6.40
17709.53,-7.13
17886.62,-7.88
18065.49,-8.61
18246.14,-9.25
18428.60,-9.85
18612.89,-10.42
18799.02,-10.98
18987.01,-11.53
19176.88,-12.05
19368.65,-12.57
19562.33,-13.06
19757.96,-13.53
19955.54,-14.00
