frequency,raw,error,smoothed,error_smoothed,equalization,parametric_eq,fixed_band_eq,equalized_raw,equalized_smoothed,target
20.00,4.94,-2.27,4.94,-2.27,2.26,2.25,0.53,7.20,7.20,7.20
20.20,4.93,-2.27,4.93,-2.26,2.26,2.22,0.54,7.19,7.19,7.19
20.40,4.93,-2.26,4.92,-2.26,2.26,2.19,0.56,7.18,7.18,7.18
20.61,4.93,-2.25,4.92,-2.24,2.25,2.16,0.58,7.17,7.17,7.17
20.81,4.93,-2.22,4.93,-2.22,2.23,2.13,0.60,7.16,7.16,7.15
21.02,4.94,-2.20,4.94,-2.21,2.21,2.10,0.62,7.15,7.15,7.14
21.23,4.95,-2.18,4.95,-2.19,2.19,2.07,0.64,7.14,7.14,7.13
21.44,4.97,-2.17,4.96,-2.17,2.17,2.04,0.66,7.13,7.13,7.14
21.66,4.99,-2.13,4.98,-2.14,2.14,2.02,0.68,7.12,7.12,7.12
21.87,5.01,-2.11,5.01,-2.11,2.10,1.99,0.70,7.11,7.11,7.12
22.09,5.04,-2.06,5.03,-2.07,2.07,1.95,0.73,7.10,7.10,7.10
22.31,5.07,-2.03,5.07,-2.03,2.02,1.92,0.75,7.09,7.09,7.10
22.54,5.11,-1.98,5.11,-1.98,1.98,1.89,0.77,7.08,7.08,7.09
22.76,5.16,-1.93,5.15,-1.93,1.93,1.86,0.80,7.08,7.08,7.09
22.99,5.21,-1.87,5.21,-1.87,1.87,1.83,0.82,7.08,7.08,7.08
23.22,5.26,-1.81,5.26,-1.82,1.82,1.80,0.85,7.08,7.08,7.07
23.45,5.31,-1.77,5.30,-1.76,1.77,1.77,0.88,7.08,7.08,7.08
23.69,5.35,-1.72,5.35,-1.72,1.72,1.74,0.90,7.07,7.07,7.07
23.92,5.39,-1.67,5.39,-1.68,1.68,1.71,0.93,7.06,7.06,7.05
24.16,5.43,-1.64,5.43,-1.63,1.63,1.67,0.96,7.06,7.06,7.06
24.40,5.47,-1.60,5.47,-1.59,1.59,1.64,0.99,7.06,7.06,7.06
24.65,5.52,-1.55,5.51,-1.55,1.55,1.61,1.01,7.06,7.06,7.06
24.89,5.55,-1.51,5.55,-1.51,1.50,1.58,1.04,7.05,7.05,7.06
25.14,5.59,-1.46,5.59,-1.47,1.46,1.55,1.07,7.05,7.05,7.05
25.39,5.63,-1.42,5.63,-1.42,1.42,1.51,1.10,7.05,7.05,7.05
25.65,5.68,-1.37,5.67,-1.37,1.38,1.48,1.13,7.05,7.05,7.05
25.91,5.72,-1.33,5.72,-1.34,1.34,1.45,1.15,7.06,7.06,7.05
26.16,5.76,-1.30,5.75,-1.30,1.30,1.41,1.18,7.06,7.06,7.06
26.43,5.79,-1.27,5.79,-1.27,1.27,1.38,1.21,7.06,7.06,7.06
26.69,5.82,-1.24,5.81,-1.24,1.24,1.35,1.23,7.06,7.05,7.06
26.96,5.84,-1.22,5.84,-1.22,1.22,1.31,1.26,7.05,7.05,7.05
27.23,5.86,-1.20,5.86,-1.20,1.20,1.28,1.28,7.05,7.05,7.05
27.50,5.88,-1.18,5.88,-1.18,1.18,1.25,1.31,7.06,7.06,7.05
27.77,5.90,-1.16,5.89,-1.17,1.17,1.21,1.33,7.07,7.06,7.06
28.05,5.91,-1.15,5.90,-1.16,1.17,1.18,1.35,7.07,7.07,7.06
28.33,5.91,-1.16,5.91,-1.16,1.16,1.15,1.36,7.07,7.07,7.07
28.62,5.92,-1.15,5.91,-1.16,1.16,1.11,1.38,7.07,7.07,7.07
28.90,5.92,-1.16,5.92,-1.16,1.15,1.08,1.39,7.07,7.07,7.08
29.19,5.92,-1.16,5.92,-1.16,1.15,1.04,1.40,7.06,7.06,7.07
29.48,5.93,-1.15,5.93,-1.15,1.14,1.01,1.41,7.06,7.06,7.07
29.78,5.94,-1.14,5.94,-1.13,1.12,0.98,1.42,7.06,7.06,7.07
30.08,5.97,-1.10,5.96,-1.11,1.10,0.94,1.42,7.07,7.06,7.07
30.38,5.99,-1.07,5.99,-1.07,1.08,0.91,1.42,7.06,7.07,7.06
30.68,6.02,-1.04,6.02,-1.04,1.05,0.87,1.42,7.07,7.07,7.06
30.99,6.05,-1.01,6.04,-1.01,1.02,0.84,1.41,7.07,7.06,7.05
31.30,6.07,-0.99,6.06,-0.99,0.99,0.80,1.40,7.05,7.05,7.05
31.61,6.09,-0.96,6.09,-0.96,0.95,0.77,1.39,7.04,7.04,7.05
31.93,6.12,-0.91,6.12,-0.92,0.91,0.73,1.37,7.03,7.03,7.03
32.24,6.16,-0.88,6.15,-0.88,0.88,0.70,1.35,7.03,7.03,7.04
32.57,6.19,-0.84,6.19,-0.84,0.84,0.66,1.33,7.02,7.02,7.02
32.89,6.23,-0.80,6.23,-0.80,0.79,0.63,1.30,7.02,7.02,7.02
33.22,6.27,-0.75,6.27,-0.75,0.75,0.59,1.27,7.02,7.02,7.02
33.55,6.31,-0.71,6.30,-0.71,0.71,0.56,1.24,7.02,7.02,7.02
33.89,6.34,-0.67,6.34,-0.67,0.68,0.52,1.20,7.02,7.02,7.00
34.23,6.37,-0.63,6.37,-0.63,0.65,0.49,1.17,7.01,7.01,6.99
34.57,6.39,-0.60,6.39,-0.60,0.61,0.45,1.13,7.00,7.00,6.99
34.92,6.41,-0.57,6.40,-0.58,0.58,0.42,1.09,6.99,6.98,6.98
35.27,6.42,-0.58,6.42,-0.56,0.55,0.38,1.04,6.96,6.97,6.99
35.62,6.45,-0.52,6.45,-0.53,0.51,0.35,1.00,6.96,6.96,6.97
35.97,6.49,-0.48,6.48,-0.48,0.47,0.31,0.95,6.95,6.95,6.97
36.33,6.53,-0.43,6.52,-0.43,0.42,0.28,0.90,6.95,6.95,6.95
36.70,6.56,-0.37,6.56,-0.37,0.38,0.24,0.85,6.93,6.94,6.93
37.06,6.60,-0.32,6.60,-0.32,0.32,0.21,0.80,6.92,6.92,6.92
37.43,6.64,-0.27,6.64,-0.26,0.27,0.17,0.74,6.91,6.91,6.90
37.81,6.68,-0.21,6.67,-0.21,0.22,0.14,0.69,6.90,6.89,6.89
38.19,6.71,-0.16,6.70,-0.17,0.17,0.10,0.64,6.88,6.87,6.86
38.57,6.73,-0.12,6.73,-0.12,0.12,0.07,0.58,6.85,6.85,6.85
38.95,6.75,-0.09,6.75,-0.08,0.07,0.03,0.52,6.82,6.83,6.84
39.34,6.78,-0.03,6.78,-0.04,0.03,-0.00,0.47,6.80,6.80,6.81
39.74,6.81,0.02,6.80,0.01,-0.02,-0.04,0.41,6.79,6.79,6.79
40.14,6.83,0.05,6.83,0.06,-0.06,-0.07,0.35,6.76,6.77,6.77
40.54,6.86,0.10,6.85,0.10,-0.10,-0.11,0.30,6.75,6.75,6.76
40.94,6.88,0.15,6.88,0.14,-0.14,-0.14,0.24,6.74,6.74,6.73
41.35,6.90,0.18,6.89,0.18,-0.17,-0.18,0.18,6.72,6.72,6.71
41.76,6.91,0.22,6.91,0.21,-0.20,-0.21,0.12,6.71,6.71,6.69
42.18,6.91,0.22,6.91,0.23,-0.22,-0.25,0.06,6.69,6.69,6.68
42.60,6.91,0.25,6.90,0.24,-0.23,-0.28,0.01,6.67,6.67,6.66
43.03,6.89,0.25,6.88,0.25,-0.25,-0.32,-0.05,6.64,6.64,6.64
43.46,6.87,0.25,6.87,0.25,-0.26,-0.35,-0.11,6.60,6.61,6.61
43.90,6.86,0.26,6.86,0.27,-0.28,-0.39,-0.17,6.58,6.58,6.60
44.33,6.87,0.30,6.86,0.29,-0.30,-0.42,-0.23,6.57,6.56,6.57
44.78,6.88,0.32,6.87,0.32,-0.33,-0.46,-0.29,6.55,6.55,6.55
45.23,6.89,0.35,6.89,0.36,-0.36,-0.49,-0.35,6.52,6.52,6.53
45.68,6.91,0.41,6.91,0.41,-0.41,-0.53,-0.41,6.50,6.50,6.50
46.13,6.93,0.46,6.93,0.46,-0.46,-0.56,-0.46,6.47,6.47,6.47
46.60,6.96,0.52,6.96,0.52,-0.52,-0.60,-0.52,6.44,6.44,6.44
47.06,6.99,0.58,6.99,0.58,-0.58,-0.63,-0.58,6.41,6.41,6.41
47.53,7.02,0.64,7.02,0.64,-0.64,-0.67,-0.64,6.37,6.37,6.38
48.01,7.05,0.72,7.05,0.71,-0.71,-0.70,-0.70,6.33,6.33,6.33
48.49,7.08,0.78,7.08,0.78,-0.78,-0.74,-0.76,6.30,6.30,6.30
48.97,7.11,0.85,7.11,0.85,-0.85,-0.77,-0.82,6.26,6.26,6.26
49.46,7.14,0.91,7.14,0.91,-0.91,-0.81,-0.88,6.22,6.22,6.23
49.96,7.17,0.99,7.16,0.98,-0.97,-0.84,-0.94,6.19,6.19,6.18
50.46,7.19,1.03,7.19,1.03,-1.03,-0.88,-1.00,6.16,6.16,6.15
50.96,7.21,1.08,7.20,1.09,-1.08,-0.91,-1.06,6.12,6.12,6.12
51.47,7.22,1.13,7.22,1.13,-1.13,-0.95,-1.12,6.09,6.09,6.09
51.99,7.23,1.18,7.23,1.17,-1.17,-0.98,-1.17,6.06,6.06,6.05
52.51,7.24,1.21,7.23,1.21,-1.20,-1.02,-1.23,6.03,6.03,6.02
53.03,7.23,1.23,7.23,1.23,-1.24,-1.05,-1.29,5.99,5.99,6.00
53.56,7.22,1.25,7.22,1.26,-1.26,-1.09,-1.35,5.95,5.96,5.96
54.10,7.22,1.30,7.21,1.29,-1.29,-1.13,-1.40,5.92,5.92,5.92
54.64,7.21,1.31,7.21,1.32,-1.32,-1.16,-1.46,5.88,5.89,5.89
55.18,7.21,1.35,7.21,1.35,-1.35,-1.20,-1.51,5.86,5.86,5.86
55.74,7.21,1.39,7.21,1.38,-1.38,-1.23,-1.56,5.83,5.83,5.82
56.29,7.21,1.40,7.21,1.41,-1.41,-1.27,-1.61,5.80,5.80,5.80
56.86,7.21,1.43,7.21,1.44,-1.43,-1.30,-1.66,5.77,5.77,5.78
57.42,7.21,1.47,7.21,1.46,-1.46,-1.34,-1.71,5.75,5.75,5.74
58.00,7.21,1.50,7.21,1.49,-1.49,-1.38,-1.76,5.72,5.72,5.71
58.58,7.21,1.52,7.21,1.52,-1.51,-1.41,-1.80,5.70,5.69,5.69
59.16,7.21,1.54,7.20,1.54,-1.54,-1.45,-1.85,5.67,5.66,5.67
59.76,7.20,1.56,7.20,1.56,-1.57,-1.48,-1.89,5.63,5.63,5.64
60.35,7.20,1.60,7.19,1.60,-1.60,-1.52,-1.93,5.59,5.59,5.60
60.96,7.19,1.63,7.19,1.64,-1.64,-1.56,-1.97,5.54,5.54,5.55
61.57,7.19,1.68,7.19,1.68,-1.69,-1.59,-2.00,5.50,5.50,5.50
62.18,7.20,1.74,7.19,1.74,-1.74,-1.63,-2.03,5.46,5.46,5.46
62.80,7.21,1.79,7.21,1.80,-1.79,-1.67,-2.06,5.41,5.41,5.41
63.43,7.23,1.86,7.23,1.85,-1.85,-1.71,-2.09,5.37,5.37,5.37
64.07,7.25,1.91,7.25,1.92,-1.92,-1.74,-2.12,5.33,5.33,5.33
64.71,7.28,1.98,7.28,1.98,-1.98,-1.78,-2.15,5.30,5.30,5.30
65.35,7.31,2.05,7.31,2.05,-2.05,-1.82,-2.17,5.26,5.26,5.26
66.01,7.34,2.12,7.34,2.11,-2.11,-1.86,-2.19,5.22,5.22,5.22
66.67,7.37,2.17,7.37,2.18,-2.18,-1.90,-2.21,5.18,5.18,5.19
67.33,7.40,2.25,7.40,2.25,-2.25,-1.93,-2.23,5.15,5.15,5.14
68.01,7.43,2.31,7.43,2.32,-2.32,-1.97,-2.25,5.11,5.11,5.11
68.69,7.46,2.39,7.46,2.38,-2.39,-2.01,-2.26,5.07,5.07,5.07
69.37,7.49,2.45,7.48,2.45,-2.45,-2.05,-2.28,5.04,5.03,5.04
70.07,7.51,2.51,7.51,2.51,-2.51,-2.09,-2.29,4.99,4.99,4.99
70.77,7.53,2.58,7.53,2.57,-2.57,-2.13,-2.31,4.95,4.95,4.95
71.48,7.55,2.63,7.54,2.63,-2.63,-2.17,-2.32,4.92,4.92,4.92
72.19,7.56,2.69,7.55,2.69,-2.68,-2.21,-2.33,4.88,4.88,4.87
72.91,7.56,2.73,7.56,2.73,-2.72,-2.25,-2.35,4.84,4.84,4.82
73.64,7.56,2.77,7.55,2.77,-2.76,-2.29,-2.36,4.80,4.79,4.79
74.38,7.55,2.80,7.55,2.79,-2.80,-2.33,-2.38,4.75,4.75,4.75
75.12,7.54,2.82,7.54,2.82,-2.83,-2.37,-2.39,4.71,4.71,4.72
75.87,7.54,2.85,7.54,2.85,-2.86,-2.41,-2.41,4.68,4.68,4.69
76.63,7.54,2.89,7.54,2.88,-2.89,-2.45,-2.42,4.65,4.65,4.65
77.40,7.54,2.91,7.54,2.91,-2.91,-2.50,-2.44,4.62,4.62,4.63
78.17,7.54,2.95,7.54,2.94,-2.94,-2.54,-2.46,4.60,4.60,4.59
78.95,7.54,2.96,7.54,2.97,-2.97,-2.58,-2.48,4.57,4.57,4.57
79.74,7.54,3.00,7.54,3.00,-3.00,-2.62,-2.50,4.54,4.54,4.54
80.54,7.54,3.02,7.54,3.02,-3.03,-2.66,-2.53,4.51,4.51,4.51
81.35,7.54,3.06,7.54,3.05,-3.05,-2.71,-2.55,4.48,4.48,4.48
82.16,7.54,3.08,7.54,3.08,-3.08,-2.75,-2.58,4.45,4.45,4.46
82.98,7.54,3.11,7.54,3.11,-3.11,-2.79,-2.61,4.42,4.42,4.42
83.81,7.54,3.14,7.54,3.14,-3.14,-2.84,-2.64,4.39,4.39,4.40
84.65,7.54,3.18,7.54,3.18,-3.17,-2.88,-2.67,4.36,4.36,4.36
85.50,7.54,3.21,7.54,3.21,-3.21,-2.92,-2.70,4.33,4.33,4.33
86.35,7.54,3.24,7.54,3.24,-3.24,-2.96,-2.74,4.30,4.30,4.30
87.22,7.54,3.27,7.54,3.27,-3.27,-3.01,-2.78,4.27,4.27,4.27
88.09,7.54,3.30,7.54,3.30,-3.30,-3.05,-2.82,4.23,4.23,4.23
88.97,7.54,3.33,7.54,3.33,-3.33,-3.09,-2.87,4.20,4.20,4.20
89.86,7.54,3.37,7.54,3.37,-3.37,-3.14,-2.91,4.17,4.17,4.17
90.76,7.54,3.40,7.54,3.40,-3.40,-3.18,-2.96,4.14,4.14,4.14
91.66,7.54,3.44,7.54,3.44,-3.44,-3.22,-3.01,4.10,4.10,4.09
92.58,7.54,3.47,7.54,3.47,-3.47,-3.27,-3.06,4.06,4.06,4.07
93.51,7.54,3.50,7.54,3.50,-3.51,-3.31,-3.11,4.02,4.02,4.03
94.44,7.54,3.54,7.54,3.54,-3.56,-3.35,-3.17,3.98,3.98,4.00
95.39,7.55,3.59,7.55,3.59,-3.60,-3.39,-3.23,3.95,3.95,3.95
96.34,7.56,3.64,7.55,3.64,-3.63,-3.44,-3.29,3.92,3.92,3.92
97.30,7.56,3.68,7.55,3.68,-3.67,-3.48,-3.35,3.88,3.88,3.88
98.28,7.55,3.71,7.55,3.71,-3.70,-3.52,-3.41,3.84,3.84,3.83
99.26,7.54,3.74,7.53,3.74,-3.73,-3.56,-3.48,3.81,3.80,3.80
100.25,7.52,3.76,7.52,3.76,-3.75,-3.60,-3.54,3.76,3.77,3.76
101.25,7.50,3.77,7.50,3.77,-3.77,-3.64,-3.61,3.73,3.73,3.73
102.27,7.48,3.77,7.47,3.77,-3.78,-3.68,-3.68,3.70,3.70,3.70
103.29,7.45,3.78,7.45,3.78,-3.78,-3.72,-3.75,3.67,3.67,3.66
104.32,7.42,3.78,7.42,3.78,-3.78,-3.76,-3.82,3.64,3.64,3.64
105.37,7.39,3.78,7.39,3.78,-3.78,-3.79,-3.89,3.61,3.61,3.61
106.42,7.36,3.78,7.36,3.78,-3.78,-3.83,-3.96,3.58,3.58,3.58
107.48,7.33,3.78,7.33,3.78,-3.78,-3.87,-4.03,3.55,3.55,3.54
108.56,7.30,3.78,7.30,3.78,-3.78,-3.90,-4.09,3.52,3.52,3.52
109.64,7.27,3.78,7.26,3.78,-3.78,-3.94,-4.16,3.48,3.48,3.49
110.74,7.24,3.79,7.24,3.79,-3.79,-3.97,-4.23,3.45,3.45,3.45
111.85,7.22,3.80,7.22,3.80,-3.81,-4.00,-4.29,3.41,3.41,3.41
112.97,7.21,3.82,7.20,3.82,-3.83,-4.03,-4.35,3.38,3.37,3.39
114.10,7.19,3.84,7.19,3.84,-3.85,-4.06,-4.41,3.33,3.34,3.35
115.24,7.19,3.88,7.19,3.88,-3.89,-4.09,-4.47,3.30,3.30,3.30
116.39,7.19,3.92,7.19,3.92,-3.92,-4.12,-4.52,3.27,3.27,3.27
117.55,7.20,3.96,7.20,3.97,-3.95,-4.15,-4.57,3.24,3.24,3.23
118.73,7.21,4.01,7.20,4.00,-3.99,-4.17,-4.61,3.22,3.21,3.20
119.92,7.21,4.03,7.21,4.04,-4.02,-4.20,-4.65,3.18,3.18,3.17
121.12,7.21,4.06,7.21,4.06,-4.06,-4.22,-4.69,3.15,3.15,3.15
122.33,7.21,4.09,7.21,4.09,-4.09,-4.24,-4.72,3.12,3.12,3.11
123.55,7.21,4.11,7.21,4.12,-4.12,-4.26,-4.75,3.08,3.08,3.09
124.79,7.21,4.15,7.21,4.15,-4.16,-4.28,-4.77,3.05,3.05,3.06
126.03,7.21,4.18,7.21,4.18,-4.19,-4.30,-4.78,3.02,3.02,3.03
127.29,7.22,4.22,7.21,4.22,-4.23,-4.32,-4.79,2.99,2.99,3.00
128.57,7.22,4.26,7.22,4.26,-4.26,-4.33,-4.80,2.95,2.96,2.96
129.85,7.23,4.30,7.23,4.30,-4.30,-4.35,-4.80,2.93,2.93,2.93
131.15,7.24,4.35,7.23,4.34,-4.33,-4.36,-4.80,2.90,2.90,2.89
132.46,7.23,4.37,7.23,4.37,-4.36,-4.38,-4.79,2.86,2.87,2.86
133.79,7.22,4.39,7.22,4.39,-4.39,-4.39,-4.78,2.83,2.83,2.82
135.12,7.21,4.41,7.20,4.40,-4.40,-4.41,-4.77,2.80,2.80,2.80
136.48,7.18,4.41,7.18,4.42,-4.42,-4.42,-4.75,2.76,2.76,2.77
137.84,7.16,4.42,7.15,4.42,-4.42,-4.44,-4.73,2.73,2.73,2.73
139.22,7.13,4.43,7.13,4.42,-4.42,-4.46,-4.71,2.70,2.70,2.70
140.61,7.10,4.42,7.10,4.42,-4.42,-4.47,-4.68,2.67,2.68,2.68
142.02,7.07,4.42,7.07,4.42,-4.42,-4.49,-4.65,2.65,2.65,2.64
143.44,7.04,4.41,7.04,4.41,-4.41,-4.51,-4.62,2.62,2.62,2.62
144.87,7.01,4.41,7.01,4.41,-4.41,-4.54,-4.60,2.60,2.60,2.60
146.32,6.98,4.41,6.98,4.40,-4.40,-4.56,-4.57,2.57,2.57,2.57
147.78,6.95,4.39,6.95,4.40,-4.40,-4.58,-4.54,2.55,2.55,2.55
149.26,6.93,4.40,6.92,4.40,-4.40,-4.61,-4.51,2.53,2.52,2.52
150.75,6.90,4.40,6.90,4.40,-4.40,-4.63,-4.48,2.50,2.50,2.50
152.26,6.89,4.41,6.88,4.41,-4.41,-4.66,-4.46,2.48,2.47,2.48
153.78,6.87,4.41,6.87,4.42,-4.42,-4.69,-4.43,2.44,2.45,2.45
155.32,6.87,4.44,6.86,4.43,-4.44,-4.71,-4.41,2.42,2.42,2.43
156.88,6.86,4.45,6.86,4.46,-4.47,-4.74,-4.38,2.39,2.39,2.40
158.44,6.87,4.50,6.87,4.49,-4.49,-4.76,-4.36,2.37,2.37,2.37
160.03,6.88,4.53,6.87,4.53,-4.53,-4.79,-4.35,2.35,2.35,2.35
161.63,6.89,4.57,6.88,4.57,-4.56,-4.81,-4.33,2.33,2.32,2.32
163.24,6.89,4.60,6.89,4.60,-4.59,-4.83,-4.32,2.29,2.29,2.29
164.88,6.89,4.63,6.89,4.63,-4.63,-4.86,-4.31,2.26,2.26,2.26
166.53,6.89,4.67,6.89,4.66,-4.66,-4.88,-4.30,2.22,2.22,2.22
168.19,6.89,4.69,6.89,4.69,-4.70,-4.89,-4.30,2.19,2.19,2.20
169.87,6.89,4.73,6.89,4.73,-4.73,-4.91,-4.30,2.16,2.16,2.16
171.57,6.89,4.76,6.89,4.76,-4.76,-4.93,-4.30,2.13,2.13,2.12
173.29,6.89,4.79,6.89,4.79,-4.79,-4.94,-4.31,2.09,2.09,2.10
175.02,6.89,4.82,6.89,4.82,-4.82,-4.96,-4.32,2.06,2.06,2.06
176.77,6.89,4.86,6.89,4.86,-4.86,-4.97,-4.33,2.03,2.03,2.03
178.54,6.89,4.89,6.89,4.89,-4.89,-4.98,-4.35,1.99,1.99,1.99
180.32,6.89,4.93,6.89,4.93,-4.93,-4.99,-4.37,1.96,1.96,1.95
182.13,6.89,4.96,6.89,4.96,-4.96,-4.99,-4.39,1.93,1.93,1.93
183.95,6.89,4.99,6.89,4.99,-4.99,-5.00,-4.42,1.89,1.89,1.90
185.79,6.89,5.03,6.89,5.03,-5.03,-5.00,-4.45,1.86,1.86,1.86
187.65,6.89,5.06,6.89,5.06,-5.06,-5.01,-4.48,1.83,1.83,1.83
189.52,6.89,5.09,6.89,5.09,-5.09,-5.01,-4.51,1.80,1.80,1.80
191.42,6.89,5.12,6.89,5.12,-5.12,-5.01,-4.55,1.76,1.76,1.77
193.33,6.89,5.15,6.89,5.15,-5.16,-5.01,-4.59,1.73,1.73,1.74
195.27,6.89,5.19,6.89,5.18,-5.19,-5.01,-4.64,1.70,1.70,1.70
197.22,6.89,5.22,6.89,5.22,-5.22,-5.00,-4.68,1.67,1.67,1.66
199.19,6.89,5.24,6.89,5.25,-5.25,-5.00,-4.73,1.63,1.64,1.65
201.18,6.90,5.29,6.90,5.28,-5.28,-5.00,-4.78,1.62,1.62,1.61
203.19,6.91,5.31,6.90,5.31,-5.31,-4.99,-4.84,1.60,1.60,1.59
205.23,6.91,5.33,6.91,5.33,-5.33,-4.98,-4.89,1.58,1.58,1.58
207.28,6.91,5.35,6.90,5.35,-5.34,-4.97,-4.94,1.56,1.56,1.55
209.35,6.89,5.36,6.89,5.36,-5.36,-4.96,-5.00,1.53,1.54,1.53
211.44,6.88,5.37,6.88,5.37,-5.36,-4.96,-5.06,1.52,1.51,1.51
213.56,6.86,5.36,6.85,5.36,-5.36,-4.94,-5.11,1.49,1.49,1.49
215.69,6.83,5.36,6.83,5.36,-5.36,-4.93,-5.17,1.47,1.47,1.47
217.85,6.80,5.35,6.80,5.35,-5.35,-4.92,-5.22,1.44,1.45,1.45
220.03,6.77,5.34,6.77,5.34,-5.34,-4.91,-5.28,1.42,1.42,1.43
222.23,6.74,5.33,6.74,5.33,-5.33,-4.89,-5.33,1.40,1.40,1.40
224.45,6.71,5.31,6.71,5.32,-5.32,-4.88,-5.37,1.38,1.38,1.39
226.70,6.69,5.31,6.69,5.31,-5.31,-4.86,-5.42,1.37,1.37,1.37
228.96,6.67,5.29,6.67,5.30,-5.30,-4.84,-5.46,1.37,1.37,1.37
231.25,6.65,5.29,6.64,5.29,-5.28,-4.83,-5.50,1.36,1.36,1.35
233.57,6.62,5.27,6.62,5.27,-5.26,-4.81,-5.53,1.35,1.35,1.34
235.90,6.59,5.25,6.58,5.25,-5.25,-4.79,-5.56,1.34,1.34,1.33
238.26,6.55,5.23,6.55,5.22,-5.23,-4.77,-5.58,1.32,1.32,1.31
240.64,6.52,5.19,6.52,5.20,-5.21,-4.75,-5.60,1.31,1.31,1.33
243.05,6.49,5.17,6.49,5.17,-5.19,-4.73,-5.61,1.30,1.30,1.32
245.48,6.47,5.16,6.47,5.15,-5.17,-4.71,-5.61,1.30,1.30,1.31
247.93,6.45,5.14,6.45,5.14,-5.14,-4.68,-5.60,1.30,1.31,1.30
250.41,6.44,5.12,6.43,5.12,-5.12,-4.66,-5.59,1.32,1.32,1.31
252.92,6.42,5.10,6.41,5.10,-5.09,-4.64,-5.58,1.33,1.33,1.32
255.45,6.39,5.08,6.38,5.07,-5.06,-4.61,-5.55,1.33,1.33,1.31
258.00,6.35,5.03,6.35,5.03,-5.02,-4.59,-5.52,1.33,1.33,1.31
260.58,6.30,4.98,6.30,4.98,-4.98,-4.56,-5.48,1.31,1.32,1.32
263.19,6.26,4.93,6.25,4.93,-4.94,-4.54,-5.43,1.32,1.31,1.32
265.82,6.21,4.89,6.21,4.89,-4.90,-4.51,-5.38,1.31,1.31,1.32
268.48,6.17,4.85,6.17,4.85,-4.86,-4.48,-5.33,1.30,1.31,1.32
271.16,6.14,4.81,6.13,4.81,-4.83,-4.46,-5.26,1.31,1.31,1.32
273.87,6.11,4.79,6.11,4.78,-4.79,-4.43,-5.20,1.32,1.32,1.32
276.61,6.08,4.75,6.08,4.76,-4.76,-4.40,-5.12,1.32,1.32,1.32
279.38,6.05,4.74,6.05,4.73,-4.72,-4.37,-5.05,1.33,1.33,1.31
282.17,6.02,4.70,6.01,4.69,-4.68,-4.34,-4.97,1.33,1.33,1.31
284.99,5.98,4.65,5.98,4.65,-4.64,-4.31,-4.89,1.33,1.33,1.33
287.84,5.94,4.60,5.93,4.60,-4.60,-4.28,-4.81,1.34,1.34,1.34
290.72,5.89,4.55,5.89,4.55,-4.55,-4.25,-4.72,1.33,1.34,1.33
293.63,5.85,4.50,5.85,4.50,-4.51,-4.21,-4.64,1.34,1.34,1.35
296.57,5.81,4.45,5.80,4.45,-4.46,-4.18,-4.55,1.35,1.34,1.35
299.53,5.77,4.41,5.77,4.41,-4.42,-4.15,-4.46,1.35,1.35,1.36
302.53,5.74,4.36,5.74,4.37,-4.37,-4.12,-4.38,1.36,1.37,1.38
305.55,5.71,4.33,5.71,4.33,-4.33,-4.08,-4.29,1.38,1.38,1.37
308.61,5.69,4.30,5.68,4.29,-4.28,-4.05,-4.20,1.40,1.40,1.39
311.69,5.65,4.25,5.65,4.25,-4.24,-4.01,-4.12,1.40,1.40,1.40
314.81,5.61,4.20,5.61,4.20,-4.20,-3.98,-4.03,1.41,1.41,1.40
317.96,5.57,4.16,5.57,4.15,-4.16,-3.94,-3.95,1.41,1.41,1.41
321.14,5.53,4.10,5.53,4.11,-4.11,-3.91,-3.87,1.41,1.42,1.43
324.35,5.50,4.07,5.50,4.06,-4.07,-3.87,-3.79,1.43,1.43,1.42
327.59,5.47,4.01,5.46,4.02,-4.02,-3.83,-3.71,1.44,1.44,1.45
330.87,5.43,3.98,5.43,3.98,-3.98,-3.79,-3.64,1.45,1.45,1.45
334.18,5.40,3.94,5.39,3.93,-3.93,-3.76,-3.57,1.47,1.46,1.46
337.52,5.36,3.89,5.36,3.89,-3.89,-3.72,-3.50,1.47,1.47,1.46
340.90,5.32,3.83,5.32,3.84,-3.84,-3.68,-3.43,1.48,1.48,1.48
344.30,5.28,3.79,5.28,3.79,-3.79,-3.64,-3.36,1.49,1.49,1.49
347.75,5.24,3.74,5.24,3.74,-3.74,-3.60,-3.30,1.50,1.50,1.50
351.23,5.20,3.70,5.19,3.69,-3.68,-3.56,-3.24,1.51,1.51,1.50
354.74,5.15,3.62,5.15,3.64,-3.63,-3.52,-3.18,1.51,1.52,1.52
358.28,5.11,3.58,5.10,3.58,-3.58,-3.48,-3.13,1.53,1.52,1.52
361.87,5.06,3.53,5.05,3.52,-3.53,-3.44,-3.07,1.53,1.53,1.53
365.49,5.01,3.47,5.01,3.47,-3.48,-3.40,-3.02,1.53,1.53,1.54
369.14,4.97,3.41,4.97,3.42,-3.42,-3.35,-2.97,1.54,1.55,1.56
372.83,4.94,3.37,4.93,3.37,-3.37,-3.31,-2.93,1.57,1.56,1.57
376.56,4.90,3.33,4.89,3.32,-3.31,-3.27,-2.89,1.58,1.58,1.56
380.33,4.85,3.27,4.85,3.27,-3.26,-3.22,-2.84,1.59,1.59,1.57
384.13,4.80,3.20,4.79,3.21,-3.20,-3.18,-2.80,1.59,1.59,1.59
387.97,4.74,3.14,4.74,3.14,-3.15,-3.14,-2.77,1.59,1.59,1.60
391.85,4.69,3.08,4.69,3.08,-3.09,-3.09,-2.73,1.59,1.60,1.61
395.77,4.65,3.03,4.65,3.03,-3.03,-3.05,-2.70,1.61,1.61,1.62
399.73,4.62,2.99,4.61,2.98,-2.98,-3.00,-2.67,1.64,1.64,1.63
403.72,4.58,2.92,4.57,2.93,-2.92,-2.95,-2.64,1.66,1.65,1.66
407.76,4.53,2.87,4.53,2.87,-2.86,-2.91,-2.61,1.66,1.66,1.65
411.84,4.48,2.81,4.48,2.81,-2.81,-2.86,-2.58,1.67,1.67,1.66
415.96,4.43,2.74,4.42,2.75,-2.76,-2.81,-2.55,1.67,1.67,1.68
420.12,4.38,2.69,4.38,2.69,-2.71,-2.77,-2.53,1.67,1.67,1.68
424.32,4.34,2.65,4.34,2.64,-2.65,-2.72,-2.50,1.69,1.69,1.69
428.56,4.31,2.60,4.30,2.60,-2.59,-2.67,-2.48,1.71,1.71,1.71
432.85,4.27,2.55,4.26,2.55,-2.54,-2.62,-2.46,1.73,1.73,1.72
437.18,4.22,2.50,4.21,2.49,-2.48,-2.57,-2.43,1.74,1.74,1.72
441.55,4.16,2.43,4.15,2.43,-2.42,-2.52,-2.41,1.74,1.73,1.73
445.96,4.09,2.35,4.09,2.36,-2.36,-2.47,-2.39,1.72,1.73,1.74
450.42,4.04,2.29,4.03,2.29,-2.30,-2.42,-2.36,1.74,1.73,1.75
454.93,3.98,2.22,3.98,2.23,-2.24,-2.37,-2.34,1.74,1.75,1.76
459.48,3.95,2.18,3.94,2.18,-2.18,-2.31,-2.31,1.77,1.77,1.76
464.07,3.91,2.12,3.90,2.12,-2.11,-2.26,-2.28,1.79,1.79,1.78
468.71,3.86,2.06,3.86,2.06,-2.05,-2.21,-2.26,1.80,1.80,1.79
473.40,3.81,2.00,3.80,2.00,-2.00,-2.15,-2.23,1.81,1.80,1.80
478.13,3.75,1.93,3.75,1.94,-1.94,-2.10,-2.19,1.80,1.81,1.81
482.91,3.70,1.87,3.70,1.88,-1.89,-2.04,-2.16,1.81,1.81,1.82
487.74,3.66,1.83,3.66,1.83,-1.83,-1.99,-2.13,1.82,1.82,1.83
492.62,3.62,1.78,3.62,1.78,-1.78,-1.93,-2.09,1.84,1.84,1.84
497.55,3.59,1.74,3.58,1.73,-1.72,-1.87,-2.05,1.87,1.86,1.85
502.52,3.54,1.68,3.54,1.67,-1.67,-1.82,-2.01,1.87,1.87,1.86
507.55,3.49,1.61,3.49,1.61,-1.61,-1.76,-1.97,1.87,1.88,1.88
512.62,3.44,1.55,3.44,1.55,-1.56,-1.70,-1.92,1.88,1.88,1.89
517.75,3.40,1.49,3.40,1.49,-1.50,-1.64,-1.87,1.90,1.90,1.91
522.93,3.36,1.44,3.36,1.44,-1.44,-1.58,-1.82,1.92,1.92,1.92
528.16,3.32,1.39,3.31,1.39,-1.38,-1.52,-1.77,1.94,1.94,1.93
533.44,3.27,1.33,3.26,1.33,-1.31,-1.46,-1.72,1.95,1.95,1.94
538.77,3.21,1.26,3.21,1.26,-1.25,-1.39,-1.66,1.96,1.96,1.95
544.16,3.15,1.18,3.15,1.18,-1.18,-1.33,-1.60,1.96,1.96,1.97
549.60,3.09,1.11,3.09,1.11,-1.12,-1.26,-1.54,1.97,1.97,1.98
555.10,3.04,1.04,3.04,1.04,-1.05,-1.20,-1.48,1.98,1.98,2.00
