frequency,raw,error,smoothed,error_smoothed,equalization,parametric_eq,fixed_band_eq,equalized_raw,equalized_smoothed,target
20.00,-3.42,-6.38,-3.48,-6.44,6.00,5.82,2.62,2.58,2.52,2.96
20.20,-3.42,-6.37,-3.45,-6.40,6.00,5.84,2.69,2.58,2.55,2.95
20.40,-3.42,-6.37,-3.42,-6.37,6.00,5.85,2.77,2.58,2.58,2.95
20.61,-3.42,-6.37,-3.39,-6.34,6.00,5.87,2.85,2.58,2.61,2.95
20.81,-3.42,-6.35,-3.36,-6.31,6.00,5.89,2.93,2.58,2.64,2.93
21.02,-3.42,-6.35,-3.34,-6.28,6.00,5.90,3.02,2.58,2.66,2.93
21.23,-3.37,-6.30,-3.32,-6.25,6.00,5.92,3.11,2.63,2.68,2.93
21.44,-3.32,-6.26,-3.29,-6.23,6.00,5.93,3.20,2.68,2.71,2.94
21.66,-3.27,-6.20,-3.27,-6.21,6.00,5.94,3.29,2.73,2.73,2.93
21.87,-3.22,-6.16,-3.26,-6.19,6.00,5.96,3.39,2.78,2.74,2.94
22.09,-3.19,-6.12,-3.24,-6.17,6.00,5.97,3.48,2.81,2.76,2.93
22.31,-3.19,-6.13,-3.23,-6.16,6.00,5.98,3.58,2.81,2.77,2.94
22.54,-3.19,-6.12,-3.21,-6.14,6.00,5.99,3.69,2.81,2.79,2.93
22.76,-3.19,-6.13,-3.19,-6.13,6.00,6.00,3.79,2.81,2.81,2.94
22.99,-3.19,-6.13,-3.18,-6.12,6.00,6.01,3.90,2.81,2.82,2.94
23.22,-3.19,-6.12,-3.18,-6.12,6.00,6.01,4.01,2.81,2.82,2.94
23.45,-3.19,-6.13,-3.17,-6.12,6.00,6.02,4.13,2.81,2.83,2.95
23.69,-3.19,-6.13,-3.18,-6.13,6.00,6.03,4.24,2.81,2.82,2.95
23.92,-3.19,-6.13,-3.19,-6.14,6.00,6.03,4.36,2.81,2.81,2.95
24.16,-3.19,-6.14,-3.19,-6.15,6.00,6.04,4.48,2.81,2.81,2.95
24.40,-3.19,-6.15,-3.20,-6.15,6.00,6.04,4.60,2.81,2.80,2.96
24.65,-3.19,-6.15,-3.20,-6.16,6.00,6.05,4.73,2.81,2.80,2.96
24.89,-3.19,-6.15,-3.19,-6.15,6.00,6.05,4.86,2.81,2.81,2.96
25.14,-3.19,-6.15,-3.18,-6.15,6.00,6.05,4.98,2.81,2.82,2.96
25.39,-3.19,-6.16,-3.17,-6.14,6.00,6.05,5.11,2.81,2.83,2.97
25.65,-3.19,-6.16,-3.16,-6.12,6.00,6.05,5.24,2.81,2.84,2.97
25.91,-3.19,-6.15,-3.14,-6.10,6.00,6.05,5.37,2.81,2.86,2.96
26.16,-3.16,-6.13,-3.12,-6.09,6.00,6.05,5.50,2.84,2.88,2.97
26.43,-3.12,-6.09,-3.10,-6.06,6.00,6.05,5.63,2.88,2.90,2.97
26.69,-3.07,-6.03,-3.08,-6.04,5.99,6.05,5.76,2.92,2.91,2.97
26.96,-3.03,-5.98,-3.06,-6.02,5.98,6.05,5.89,2.95,2.93,2.96
27.23,-3.01,-5.96,-3.04,-6.00,5.97,6.04,6.01,2.96,2.94,2.95
27.50,-2.99,-5.94,-3.02,-5.97,5.96,6.04,6.14,2.97,2.94,2.95
27.77,-2.97,-5.93,-3.00,-5.95,5.94,6.03,6.25,2.98,2.95,2.96
28.05,-2.96,-5.91,-2.98,-5.93,5.93,6.03,6.37,2.97,2.95,2.95
28.33,-2.96,-5.91,-2.97,-5.91,5.91,6.02,6.48,2.96,2.95,2.95
28.62,-2.96,-5.90,-2.96,-5.90,5.90,6.01,6.58,2.94,2.94,2.94
28.90,-2.96,-5.90,-2.95,-5.89,5.89,6.00,6.68,2.93,2.94,2.95
29.19,-2.96,-5.89,-2.95,-5.88,5.88,6.00,6.77,2.92,2.93,2.94
29.48,-2.96,-5.88,-2.95,-5.87,5.87,5.99,6.85,2.92,2.93,2.92
29.78,-2.96,-5.88,-2.95,-5.87,5.87,5.97,6.92,2.91,2.92,2.92
30.08,-2.96,-5.88,-2.95,-5.86,5.86,5.96,6.98,2.91,2.91,2.92
30.38,-2.96,-5.86,-2.95,-5.86,5.86,5.95,7.03,2.90,2.90,2.90
30.68,-2.96,-5.86,-2.96,-5.85,5.85,5.94,7.07,2.89,2.89,2.90
30.99,-2.96,-5.84,-2.96,-5.84,5.84,5.93,7.10,2.88,2.89,2.89
31.30,-2.96,-5.83,-2.96,-5.84,5.84,5.91,7.12,2.88,2.88,2.87
31.61,-2.96,-5.83,-2.96,-5.83,5.83,5.90,7.13,2.87,2.87,2.87
31.93,-2.96,-5.81,-2.96,-5.82,5.82,5.88,7.13,2.86,2.86,2.85
32.24,-2.96,-5.82,-2.96,-5.82,5.82,5.86,7.11,2.86,2.86,2.86
32.57,-2.96,-5.80,-2.96,-5.81,5.81,5.85,7.09,2.85,2.85,2.85
32.89,-2.96,-5.80,-2.96,-5.81,5.81,5.83,7.05,2.85,2.85,2.84
33.22,-2.96,-5.80,-2.96,-5.81,5.81,5.81,7.01,2.85,2.85,2.84
33.55,-2.96,-5.80,-2.96,-5.81,5.81,5.79,6.96,2.85,2.84,2.84
33.89,-2.96,-5.80,-2.97,-5.81,5.81,5.77,6.90,2.86,2.84,2.85
34.23,-2.96,-5.79,-2.97,-5.81,5.81,5.75,6.83,2.86,2.84,2.83
34.57,-2.96,-5.80,-2.97,-5.81,5.81,5.73,6.75,2.85,2.84,2.84
34.92,-2.96,-5.80,-2.97,-5.80,5.80,5.71,6.67,2.84,2.83,2.84
35.27,-2.96,-5.80,-2.96,-5.79,5.79,5.69,6.59,2.83,2.83,2.84
35.62,-2.96,-5.78,-2.95,-5.77,5.77,5.67,6.50,2.81,2.82,2.82
35.97,-2.96,-5.78,-2.93,-5.74,5.74,5.64,6.41,2.79,2.82,2.82
36.33,-2.96,-5.77,-2.91,-5.72,5.72,5.62,6.32,2.76,2.81,2.81
36.70,-2.96,-5.75,-2.89,-5.68,5.68,5.59,6.22,2.73,2.79,2.79
37.06,-2.95,-5.72,-2.87,-5.65,5.65,5.57,6.12,2.70,2.78,2.78
37.43,-2.86,-5.62,-2.85,-5.61,5.61,5.54,6.02,2.75,2.76,2.76
37.81,-2.77,-5.51,-2.82,-5.56,5.56,5.52,5.93,2.79,2.74,2.74
38.19,-2.73,-5.45,-2.80,-5.52,5.52,5.49,5.83,2.79,2.72,2.73
38.57,-2.73,-5.43,-2.78,-5.47,5.47,5.46,5.73,2.75,2.69,2.70
38.95,-2.73,-5.40,-2.76,-5.43,5.43,5.43,5.64,2.70,2.67,2.68
39.34,-2.73,-5.36,-2.75,-5.39,5.39,5.41,5.55,2.66,2.64,2.63
39.74,-2.73,-5.33,-2.73,-5.35,5.35,5.38,5.46,2.62,2.62,2.61
40.14,-2.73,-5.31,-2.72,-5.31,5.31,5.35,5.37,2.58,2.59,2.58
40.54,-2.73,-5.28,-2.71,-5.27,5.27,5.32,5.28,2.55,2.56,2.56
40.94,-2.73,-5.25,-2.71,-5.25,5.25,5.29,5.20,2.52,2.54,2.52
41.35,-2.73,-5.23,-2.71,-5.22,5.22,5.26,5.12,2.50,2.51,2.51
41.76,-2.73,-5.21,-2.72,-5.21,5.21,5.22,5.05,2.48,2.49,2.48
42.18,-2.73,-5.19,-2.73,-5.19,5.19,5.19,4.97,2.46,2.46,2.46
42.60,-2.73,-5.17,-2.73,-5.16,5.16,5.16,4.90,2.43,2.43,2.44
43.03,-2.73,-5.14,-2.73,-5.14,5.14,5.13,4.84,2.41,2.41,2.41
43.46,-2.73,-5.11,-2.73,-5.12,5.12,5.09,4.78,2.39,2.39,2.38
43.90,-2.73,-5.10,-2.73,-5.09,5.09,5.06,4.72,2.37,2.37,2.37
44.33,-2.73,-5.07,-2.73,-5.07,5.07,5.03,4.66,2.34,2.34,2.34
44.78,-2.73,-5.04,-2.73,-5.04,5.04,4.99,4.61,2.32,2.32,2.31
45.23,-2.73,-5.03,-2.73,-5.02,5.02,4.96,4.56,2.29,2.29,2.30
45.68,-2.73,-4.99,-2.73,-4.99,4.99,4.92,4.52,2.26,2.26,2.27
46.13,-2.73,-4.96,-2.73,-4.96,4.96,4.89,4.48,2.23,2.23,2.23
46.60,-2.73,-4.93,-2.73,-4.93,4.93,4.85,4.44,2.20,2.20,2.20
47.06,-2.73,-4.91,-2.73,-4.90,4.90,4.81,4.40,2.17,2.17,2.18
47.53,-2.73,-4.88,-2.73,-4.86,4.86,4.78,4.37,2.14,2.14,2.15
48.01,-2.73,-4.83,-2.73,-4.83,4.83,4.74,4.35,2.10,2.10,2.10
48.49,-2.73,-4.80,-2.73,-4.80,4.80,4.70,4.32,2.07,2.07,2.07
48.97,-2.73,-4.76,-2.73,-4.76,4.76,4.67,4.30,2.04,2.04,2.03
49.46,-2.73,-4.73,-2.73,-4.73,4.73,4.63,4.28,2.00,2.00,2.00
49.96,-2.73,-4.68,-2.73,-4.69,4.69,4.59,4.26,1.96,1.96,1.95
50.46,-2.73,-4.64,-2.73,-4.66,4.66,4.55,4.25,1.93,1.93,1.92
50.96,-2.73,-4.62,-2.73,-4.62,4.62,4.51,4.23,1.89,1.89,1.89
51.47,-2.73,-4.59,-2.73,-4.58,4.58,4.47,4.22,1.85,1.85,1.86
51.99,-2.73,-4.55,-2.73,-4.54,4.54,4.44,4.22,1.81,1.81,1.82
52.51,-2.73,-4.51,-2.73,-4.50,4.50,4.40,4.21,1.78,1.78,1.78
53.03,-2.73,-4.49,-2.73,-4.46,4.46,4.36,4.20,1.74,1.74,1.76
53.56,-2.73,-4.43,-2.73,-4.43,4.43,4.32,4.20,1.70,1.70,1.71
54.10,-2.73,-4.39,-2.73,-4.39,4.39,4.28,4.19,1.66,1.66,1.66
54.64,-2.73,-4.35,-2.73,-4.36,4.36,4.24,4.19,1.63,1.63,1.62
55.18,-2.73,-4.31,-2.73,-4.32,4.32,4.20,4.18,1.59,1.59,1.58
55.74,-2.73,-4.27,-2.73,-4.29,4.29,4.16,4.18,1.56,1.56,1.54
56.29,-2.73,-4.23,-2.74,-4.26,4.26,4.11,4.17,1.53,1.52,1.50
56.86,-2.73,-4.21,-2.74,-4.23,4.23,4.07,4.16,1.50,1.49,1.49
57.42,-2.73,-4.17,-2.74,-4.20,4.20,4.03,4.15,1.47,1.45,1.44
58.00,-2.73,-4.14,-2.74,-4.16,4.16,3.99,4.14,1.43,1.42,1.41
58.58,-2.73,-4.12,-2.73,-4.11,4.11,3.95,4.13,1.38,1.38,1.39
59.16,-2.73,-4.10,-2.72,-4.06,4.06,3.91,4.12,1.33,1.34,1.37
59.76,-2.73,-4.06,-2.71,-4.01,4.01,3.87,4.10,1.28,1.30,1.33
60.35,-2.73,-4.00,-2.69,-3.95,3.95,3.83,4.08,1.23,1.27,1.28
60.96,-2.73,-3.96,-2.67,-3.90,3.90,3.78,4.06,1.17,1.23,1.24
61.57,-2.73,-3.91,-2.65,-3.83,3.83,3.74,4.03,1.11,1.18,1.18
62.18,-2.69,-3.82,-2.63,-3.77,3.77,3.70,4.00,1.08,1.14,1.13
62.80,-2.55,-3.63,-2.61,-3.71,3.71,3.66,3.97,1.16,1.10,1.08
63.43,-2.51,-3.55,-2.59,-3.64,3.64,3.62,3.94,1.13,1.05,1.04
64.07,-2.51,-3.51,-2.57,-3.57,3.57,3.57,3.90,1.07,1.01,1.00
64.71,-2.51,-3.47,-2.55,-3.51,3.51,3.53,3.86,1.00,0.96,0.97
65.35,-2.51,-3.43,-2.53,-3.45,3.45,3.49,3.81,0.94,0.92,0.92
66.01,-2.51,-3.38,-2.51,-3.39,3.39,3.45,3.76,0.88,0.87,0.87
66.67,-2.51,-3.34,-2.50,-3.33,3.33,3.41,3.71,0.82,0.83,0.83
67.33,-2.51,-3.29,-2.49,-3.28,3.28,3.36,3.66,0.77,0.78,0.78
68.01,-2.51,-3.25,-2.49,-3.23,3.23,3.32,3.60,0.72,0.74,0.74
68.69,-2.51,-3.20,-2.49,-3.18,3.18,3.28,3.54,0.68,0.69,0.69
69.37,-2.51,-3.17,-2.50,-3.14,3.14,3.24,3.48,0.64,0.65,0.66
70.07,-2.51,-3.11,-2.51,-3.10,3.10,3.19,3.42,0.60,0.60,0.61
70.77,-2.51,-3.07,-2.51,-3.06,3.06,3.15,3.36,0.55,0.55,0.56
71.48,-2.51,-3.01,-2.51,-3.01,3.01,3.11,3.29,0.51,0.51,0.51
72.19,-2.51,-2.97,-2.51,-2.97,2.97,3.07,3.23,0.46,0.46,0.46
72.91,-2.51,-2.92,-2.51,-2.93,2.93,3.03,3.16,0.42,0.42,0.41
73.64,-2.51,-2.87,-2.51,-2.88,2.88,2.98,3.10,0.38,0.38,0.36
74.38,-2.51,-2.83,-2.51,-2.84,2.84,2.94,3.03,0.33,0.33,0.32
75.12,-2.51,-2.79,-2.51,-2.80,2.80,2.90,2.96,0.30,0.30,0.28
75.87,-2.51,-2.77,-2.51,-2.77,2.77,2.86,2.90,0.26,0.26,0.26
76.63,-2.51,-2.73,-2.51,-2.73,2.73,2.81,2.83,0.23,0.23,0.22
77.40,-2.51,-2.70,-2.51,-2.70,2.70,2.77,2.76,0.19,0.19,0.19
78.17,-2.51,-2.66,-2.51,-2.67,2.67,2.73,2.70,0.16,0.16,0.16
78.95,-2.51,-2.64,-2.51,-2.64,2.64,2.69,2.64,0.13,0.13,0.13
79.74,-2.51,-2.61,-2.51,-2.61,2.61,2.65,2.57,0.10,0.10,0.10
80.54,-2.51,-2.58,-2.51,-2.58,2.58,2.61,2.51,0.07,0.07,0.07
81.35,-2.51,-2.55,-2.51,-2.55,2.55,2.56,2.45,0.04,0.04,0.04
82.16,-2.51,-2.53,-2.51,-2.52,2.52,2.52,2.39,0.01,0.01,0.02
82.98,-2.51,-2.49,-2.51,-2.48,2.48,2.48,2.33,-0.03,-0.03,-0.02
83.81,-2.51,-2.45,-2.51,-2.45,2.45,2.44,2.28,-0.06,-0.06,-0.05
84.65,-2.51,-2.42,-2.51,-2.41,2.41,2.40,2.22,-0.10,-0.10,-0.09
85.50,-2.51,-2.37,-2.51,-2.37,2.37,2.36,2.17,-0.13,-0.13,-0.14
86.35,-2.51,-2.34,-2.51,-2.34,2.34,2.32,2.11,-0.17,-0.17,-0.17
87.22,-2.51,-2.29,-2.51,-2.30,2.30,2.27,2.06,-0.21,-0.21,-0.21
88.09,-2.51,-2.25,-2.51,-2.26,2.26,2.23,2.01,-0.25,-0.25,-0.25
88.97,-2.51,-2.21,-2.51,-2.22,2.22,2.19,1.97,-0.29,-0.29,-0.30
89.86,-2.51,-2.17,-2.51,-2.17,2.17,2.15,1.92,-0.34,-0.34,-0.34
90.76,-2.51,-2.12,-2.51,-2.13,2.13,2.11,1.87,-0.38,-0.38,-0.38
91.66,-2.51,-2.08,-2.51,-2.08,2.08,2.07,1.83,-0.42,-0.42,-0.43
92.58,-2.51,-2.05,-2.51,-2.04,2.04,2.03,1.79,-0.47,-0.47,-0.46
93.51,-2.51,-2.00,-2.51,-1.99,1.99,1.99,1.75,-0.51,-0.51,-0.51
94.44,-2.51,-1.97,-2.51,-1.95,1.95,1.95,1.71,-0.56,-0.56,-0.54
95.39,-2.51,-1.91,-2.51,-1.90,1.90,1.91,1.67,-0.60,-0.60,-0.60
96.34,-2.51,-1.85,-2.51,-1.86,1.86,1.87,1.63,-0.65,-0.65,-0.65
97.30,-2.51,-1.82,-2.51,-1.81,1.81,1.83,1.60,-0.69,-0.69,-0.69
98.28,-2.51,-1.76,-2.51,-1.77,1.77,1.79,1.57,-0.74,-0.74,-0.75
99.26,-2.51,-1.71,-2.51,-1.73,1.73,1.75,1.53,-0.78,-0.78,-0.79
100.25,-2.51,-1.68,-2.51,-1.69,1.69,1.71,1.50,-0.82,-0.82,-0.83
101.25,-2.51,-1.64,-2.51,-1.65,1.65,1.67,1.47,-0.86,-0.86,-0.87
102.27,-2.51,-1.60,-2.51,-1.61,1.61,1.63,1.44,-0.90,-0.90,-0.91
103.29,-2.51,-1.56,-2.51,-1.57,1.57,1.59,1.41,-0.94,-0.94,-0.94
104.32,-2.51,-1.54,-2.51,-1.53,1.53,1.55,1.38,-0.97,-0.97,-0.97
105.37,-2.51,-1.50,-2.51,-1.50,1.50,1.51,1.35,-1.01,-1.01,-1.01
106.42,-2.51,-1.47,-2.51,-1.47,1.47,1.48,1.33,-1.04,-1.04,-1.04
107.48,-2.51,-1.42,-2.51,-1.43,1.43,1.44,1.30,-1.07,-1.07,-1.09
108.56,-2.51,-1.40,-2.51,-1.40,1.40,1.40,1.28,-1.11,-1.11,-1.10
109.64,-2.51,-1.37,-2.51,-1.37,1.37,1.36,1.25,-1.14,-1.14,-1.14
110.74,-2.51,-1.34,-2.51,-1.33,1.33,1.32,1.22,-1.17,-1.17,-1.17
111.85,-2.51,-1.30,-2.51,-1.30,1.30,1.28,1.20,-1.21,-1.21,-1.21
112.97,-2.51,-1.28,-2.51,-1.26,1.26,1.24,1.18,-1.25,-1.25,-1.23
114.10,-2.51,-1.24,-2.51,-1.23,1.23,1.21,1.15,-1.28,-1.28,-1.27
115.24,-2.51,-1.19,-2.51,-1.19,1.19,1.17,1.13,-1.32,-1.32,-1.32
116.39,-2.51,-1.15,-2.51,-1.15,1.15,1.13,1.10,-1.36,-1.36,-1.36
117.55,-2.51,-1.11,-2.51,-1.11,1.11,1.09,1.08,-1.39,-1.39,-1.40
118.73,-2.51,-1.07,-2.51,-1.07,1.07,1.05,1.05,-1.43,-1.43,-1.44
119.92,-2.51,-1.02,-2.51,-1.03,1.03,1.02,1.03,-1.48,-1.48,-1.49
121.12,-2.51,-1.00,-2.51,-0.99,0.99,0.98,1.00,-1.52,-1.52,-1.51
122.33,-2.51,-0.94,-2.51,-0.95,0.95,0.94,0.98,-1.56,-1.56,-1.56
123.55,-2.51,-0.91,-2.51,-0.90,0.90,0.90,0.95,-1.60,-1.60,-1.60
124.79,-2.51,-0.87,-2.51,-0.86,0.86,0.87,0.92,-1.65,-1.65,-1.64
126.03,-2.51,-0.83,-2.51,-0.82,0.82,0.83,0.90,-1.69,-1.69,-1.68
127.29,-2.51,-0.78,-2.51,-0.77,0.77,0.79,0.87,-1.73,-1.73,-1.73
128.57,-2.51,-0.73,-2.51,-0.73,0.73,0.75,0.84,-1.78,-1.78,-1.77
129.85,-2.51,-0.69,-2.51,-0.69,0.69,0.72,0.81,-1.82,-1.82,-1.82
131.15,-2.51,-0.65,-2.51,-0.65,0.65,0.68,0.78,-1.86,-1.86,-1.86
132.46,-2.51,-0.60,-2.51,-0.61,0.61,0.64,0.75,-1.90,-1.90,-1.91
133.79,-2.51,-0.56,-2.51,-0.56,0.56,0.61,0.72,-1.94,-1.94,-1.95
135.12,-2.51,-0.51,-2.51,-0.52,0.52,0.57,0.69,-1.98,-1.98,-1.99
136.48,-2.51,-0.49,-2.51,-0.49,0.49,0.53,0.66,-2.02,-2.02,-2.02
137.84,-2.51,-0.45,-2.51,-0.45,0.45,0.50,0.63,-2.06,-2.06,-2.06
139.22,-2.51,-0.41,-2.51,-0.41,0.41,0.46,0.59,-2.09,-2.09,-2.10
140.61,-2.51,-0.37,-2.51,-0.38,0.38,0.42,0.56,-2.13,-2.13,-2.13
142.02,-2.51,-0.34,-2.51,-0.35,0.35,0.39,0.53,-2.16,-2.16,-2.17
143.44,-2.51,-0.31,-2.51,-0.31,0.31,0.35,0.49,-2.19,-2.19,-2.20
144.87,-2.51,-0.29,-2.51,-0.28,0.28,0.31,0.46,-2.22,-2.22,-2.22
146.32,-2.51,-0.26,-2.51,-0.25,0.25,0.28,0.43,-2.26,-2.26,-2.25
147.78,-2.51,-0.22,-2.51,-0.22,0.22,0.24,0.39,-2.29,-2.29,-2.29
149.26,-2.51,-0.19,-2.51,-0.19,0.19,0.21,0.36,-2.31,-2.31,-2.32
150.75,-2.51,-0.15,-2.51,-0.16,0.16,0.17,0.32,-2.35,-2.35,-2.35
152.26,-2.51,-0.14,-2.51,-0.13,0.13,0.13,0.28,-2.38,-2.38,-2.37
153.78,-2.51,-0.10,-2.51,-0.10,0.10,0.10,0.25,-2.41,-2.41,-2.41
155.32,-2.51,-0.08,-2.51,-0.07,0.07,0.06,0.21,-2.44,-2.44,-2.43
156.88,-2.51,-0.04,-2.51,-0.04,0.04,0.03,0.18,-2.47,-2.47,-2.47
158.44,-2.51,-0.01,-2.51,-0.01,0.01,-0.01,0.14,-2.50,-2.50,-2.50
160.03,-2.51,0.02,-2.51,0.02,-0.02,-0.04,0.10,-2.53,-2.53,-2.53
161.63,-2.51,0.05,-2.51,0.06,-0.06,-0.08,0.07,-2.56,-2.56,-2.56
163.24,-2.51,0.10,-2.51,0.09,-0.09,-0.11,0.03,-2.60,-2.60,-2.60
164.88,-2.51,0.13,-2.51,0.12,-0.12,-0.15,-0.01,-2.63,-2.63,-2.63
166.53,-2.51,0.16,-2.51,0.15,-0.15,-0.18,-0.05,-2.66,-2.66,-2.67
168.19,-2.51,0.18,-2.51,0.19,-0.19,-0.22,-0.09,-2.70,-2.70,-2.69
169.87,-2.51,0.22,-2.51,0.23,-0.23,-0.25,-0.12,-2.73,-2.73,-2.73
171.57,-2.51,0.26,-2.51,0.26,-0.26,-0.29,-0.16,-2.77,-2.77,-2.76
173.29,-2.51,0.29,-2.51,0.30,-0.30,-0.32,-0.20,-2.81,-2.81,-2.80
175.02,-2.51,0.33,-2.51,0.34,-0.34,-0.35,-0.24,-2.84,-2.84,-2.84
176.77,-2.51,0.37,-2.51,0.37,-0.37,-0.39,-0.28,-2.88,-2.88,-2.88
178.54,-2.51,0.41,-2.51,0.41,-0.41,-0.42,-0.32,-2.92,-2.92,-2.91
180.32,-2.51,0.45,-2.51,0.45,-0.45,-0.46,-0.36,-2.96,-2.96,-2.96
182.13,-2.51,0.49,-2.51,0.49,-0.49,-0.49,-0.40,-3.00,-3.00,-3.00
183.95,-2.51,0.52,-2.51,0.53,-0.53,-0.52,-0.44,-3.04,-3.04,-3.03
185.79,-2.51,0.58,-2.51,0.57,-0.57,-0.56,-0.48,-3.08,-3.08,-3.08
187.65,-2.51,0.61,-2.51,0.61,-0.61,-0.59,-0.52,-3.11,-3.11,-3.11
189.52,-2.51,0.65,-2.51,0.64,-0.64,-0.62,-0.56,-3.15,-3.15,-3.15
191.42,-2.51,0.67,-2.51,0.68,-0.68,-0.65,-0.60,-3.19,-3.19,-3.18
193.33,-2.51,0.71,-2.51,0.71,-0.71,-0.68,-0.65,-3.22,-3.22,-3.22
195.27,-2.51,0.75,-2.51,0.75,-0.75,-0.72,-0.69,-3.26,-3.26,-3.26
197.22,-2.51,0.79,-2.51,0.78,-0.78,-0.75,-0.73,-3.29,-3.29,-3.30
199.19,-2.51,0.82,-2.51,0.81,-0.81,-0.78,-0.77,-3.32,-3.32,-3.32
201.18,-2.51,0.85,-2.51,0.84,-0.84,-0.81,-0.81,-3.35,-3.35,-3.36
203.19,-2.51,0.88,-2.51,0.87,-0.87,-0.84,-0.85,-3.38,-3.38,-3.39
205.23,-2.51,0.89,-2.51,0.90,-0.90,-0.87,-0.90,-3.41,-3.41,-3.40
207.28,-2.51,0.92,-2.51,0.92,-0.92,-0.90,-0.94,-3.43,-3.43,-3.42
209.35,-2.51,0.95,-2.51,0.95,-0.95,-0.93,-0.98,-3.46,-3.46,-3.46
211.44,-2.51,0.98,-2.51,0.98,-0.98,-0.95,-1.02,-3.49,-3.49,-3.48
213.56,-2.51,1.00,-2.51,1.00,-1.00,-0.98,-1.06,-3.51,-3.51,-3.51
215.69,-2.51,1.02,-2.51,1.03,-1.03,-1.01,-1.10,-3.54,-3.54,-3.53
217.85,-2.51,1.04,-2.51,1.05,-1.05,-1.04,-1.13,-3.56,-3.56,-3.55
220.03,-2.51,1.08,-2.51,1.08,-1.08,-1.06,-1.17,-3.58,-3.58,-3.58
222.23,-2.51,1.11,-2.51,1.10,-1.10,-1.09,-1.21,-3.61,-3.61,-3.61
224.45,-2.51,1.13,-2.51,1.12,-1.12,-1.11,-1.24,-3.63,-3.63,-3.64
226.70,-2.51,1.15,-2.51,1.15,-1.15,-1.14,-1.27,-3.65,-3.65,-3.66
228.96,-2.51,1.17,-2.51,1.17,-1.17,-1.16,-1.30,-3.68,-3.68,-3.68
231.25,-2.51,1.19,-2.51,1.19,-1.19,-1.19,-1.33,-3.70,-3.70,-3.70
233.57,-2.51,1.21,-2.51,1.21,-1.21,-1.21,-1.36,-3.72,-3.72,-3.72
235.90,-2.51,1.23,-2.51,1.23,-1.23,-1.23,-1.39,-3.74,-3.74,-3.74
238.26,-2.51,1.26,-2.51,1.25,-1.25,-1.25,-1.41,-3.75,-3.75,-3.76
240.64,-2.51,1.26,-2.51,1.26,-1.26,-1.27,-1.43,-3.77,-3.77,-3.76
243.05,-2.51,1.27,-2.51,1.28,-1.28,-1.29,-1.45,-3.79,-3.79,-3.78
245.48,-2.51,1.29,-2.51,1.29,-1.29,-1.31,-1.47,-3.80,-3.80,-3.80
247.93,-2.51,1.31,-2.51,1.30,-1.30,-1.33,-1.48,-3.81,-3.81,-3.82
250.41,-2.51,1.31,-2.51,1.31,-1.31,-1.35,-1.49,-3.82,-3.82,-3.81
252.92,-2.51,1.32,-2.51,1.33,-1.33,-1.37,-1.50,-3.83,-3.83,-3.83
255.45,-2.51,1.34,-2.51,1.34,-1.34,-1.38,-1.51,-3.84,-3.84,-3.85
258.00,-2.51,1.35,-2.51,1.34,-1.34,-1.40,-1.51,-3.85,-3.85,-3.86
260.58,-2.51,1.35,-2.51,1.35,-1.35,-1.41,-1.52,-3.86,-3.86,-3.86
263.19,-2.51,1.36,-2.51,1.36,-1.36,-1.43,-1.52,-3.87,-3.87,-3.87
265.82,-2.51,1.37,-2.51,1.37,-1.37,-1.44,-1.51,-3.87,-3.87,-3.87
268.48,-2.51,1.37,-2.51,1.37,-1.37,-1.45,-1.51,-3.88,-3.88,-3.88
271.16,-2.51,1.37,-2.51,1.38,-1.38,-1.46,-1.50,-3.88,-3.88,-3.87
273.87,-2.51,1.37,-2.51,1.38,-1.38,-1.47,-1.50,-3.89,-3.89,-3.88
276.61,-2.51,1.38,-2.51,1.38,-1.38,-1.48,-1.49,-3.89,-3.89,-3.89
279.38,-2.51,1.39,-2.51,1.38,-1.38,-1.49,-1.48,-3.89,-3.89,-3.90
282.17,-2.51,1.39,-2.51,1.38,-1.38,-1.50,-1.47,-3.89,-3.89,-3.89
284.99,-2.51,1.38,-2.51,1.38,-1.38,-1.51,-1.45,-3.89,-3.89,-3.89
287.84,-2.51,1.38,-2.51,1.38,-1.38,-1.52,-1.44,-3.89,-3.89,-3.88
290.72,-2.51,1.38,-2.51,1.38,-1.38,-1.52,-1.43,-3.88,-3.88,-3.89
293.63,-2.51,1.37,-2.51,1.37,-1.37,-1.53,-1.41,-3.88,-3.88,-3.88
296.57,-2.51,1.37,-2.51,1.37,-1.37,-1.53,-1.40,-3.88,-3.88,-3.88
299.53,-2.51,1.37,-2.51,1.37,-1.37,-1.54,-1.38,-3.88,-3.88,-3.88
302.53,-2.51,1.36,-2.51,1.37,-1.37,-1.54,-1.36,-3.87,-3.87,-3.86
305.55,-2.51,1.36,-2.51,1.36,-1.36,-1.54,-1.35,-3.87,-3.87,-3.87
308.61,-2.51,1.35,-2.52,1.35,-1.35,-1.54,-1.33,-3.86,-3.87,-3.86
311.69,-2.51,1.36,-2.52,1.34,-1.34,-1.55,-1.32,-3.84,-3.86,-3.86
314.81,-2.51,1.35,-2.53,1.33,-1.33,-1.55,-1.30,-3.84,-3.86,-3.86
317.96,-2.51,1.35,-2.52,1.33,-1.33,-1.55,-1.29,-3.84,-3.85,-3.86
321.14,-2.51,1.34,-2.51,1.33,-1.33,-1.55,-1.28,-3.84,-3.85,-3.85
324.35,-2.51,1.35,-2.50,1.34,-1.34,-1.54,-1.26,-3.85,-3.84,-3.85
327.59,-2.51,1.32,-2.49,1.35,-1.35,-1.54,-1.25,-3.86,-3.84,-3.83
330.87,-2.51,1.32,-2.47,1.36,-1.36,-1.54,-1.24,-3.87,-3.83,-3.83
334.18,-2.51,1.32,-2.45,1.37,-1.37,-1.54,-1.23,-3.88,-3.82,-3.83
337.52,-2.51,1.32,-2.43,1.39,-1.39,-1.54,-1.22,-3.90,-3.82,-3.82
340.90,-2.50,1.31,-2.41,1.40,-1.40,-1.53,-1.21,-3.90,-3.81,-3.81
344.30,-2.33,1.47,-2.39,1.42,-1.42,-1.53,-1.20,-3.74,-3.80,-3.80
347.75,-2.28,1.51,-2.36,1.43,-1.43,-1.53,-1.20,-3.71,-3.79,-3.79
351.23,-2.28,1.52,-2.34,1.44,-1.44,-1.52,-1.19,-3.72,-3.78,-3.79
354.74,-2.28,1.49,-2.32,1.45,-1.45,-1.52,-1.18,-3.73,-3.77,-3.76
358.28,-2.28,1.49,-2.31,1.46,-1.46,-1.51,-1.18,-3.74,-3.77,-3.77
361.87,-2.28,1.48,-2.30,1.46,-1.46,-1.51,-1.18,-3.74,-3.76,-3.76
365.49,-2.28,1.47,-2.29,1.46,-1.46,-1.50,-1.17,-3.74,-3.75,-3.75
369.14,-2.28,1.46,-2.28,1.46,-1.46,-1.50,-1.17,-3.74,-3.75,-3.74
372.83,-2.28,1.46,-2.27,1.47,-1.47,-1.50,-1.17,-3.74,-3.74,-3.73
376.56,-2.28,1.46,-2.26,1.47,-1.47,-1.49,-1.17,-3.75,-3.73,-3.73
380.33,-2.28,1.45,-2.26,1.47,-1.47,-1.49,-1.17,-3.75,-3.73,-3.73
384.13,-2.28,1.44,-2.25,1.47,-1.47,-1.49,-1.17,-3.75,-3.72,-3.72
387.97,-2.28,1.44,-2.24,1.48,-1.48,-1.49,-1.18,-3.76,-3.72,-3.72
391.85,-2.28,1.43,-2.22,1.50,-1.50,-1.48,-1.18,-3.78,-3.71,-3.71
395.77,-2.28,1.44,-2.19,1.51,-1.51,-1.48,-1.19,-3.79,-3.71,-3.72
399.73,-2.22,1.49,-2.17,1.53,-1.53,-1.48,-1.19,-3.75,-3.70,-3.71
403.72,-2.09,1.61,-2.15,1.55,-1.55,-1.49,-1.20,-3.63,-3.69,-3.69
407.76,-2.05,1.65,-2.13,1.56,-1.56,-1.49,-1.20,-3.61,-3.69,-3.69
411.84,-2.05,1.63,-2.11,1.57,-1.57,-1.49,-1.21,-3.62,-3.68,-3.68
415.96,-2.05,1.62,-2.09,1.58,-1.58,-1.50,-1.22,-3.63,-3.67,-3.67
420.12,-2.05,1.62,-2.07,1.59,-1.59,-1.51,-1.22,-3.64,-3.66,-3.67
424.32,-2.05,1.60,-2.05,1.60,-1.60,-1.51,-1.23,-3.64,-3.65,-3.65
428.56,-2.05,1.58,-2.04,1.60,-1.60,-1.52,-1.24,-3.64,-3.64,-3.63
432.85,-2.05,1.57,-2.03,1.59,-1.59,-1.52,-1.25,-3.64,-3.62,-3.62
437.18,-2.05,1.56,-2.03,1.58,-1.58,-1.53,-1.26,-3.63,-3.61,-3.61
441.55,-2.05,1.55,-2.03,1.57,-1.57,-1.53,-1.26,-3.61,-3.60,-3.60
445.96,-2.05,1.53,-2.04,1.55,-1.55,-1.53,-1.27,-3.59,-3.58,-3.58
450.42,-2.05,1.53,-2.05,1.52,-1.52,-1.52,-1.28,-3.57,-3.57,-3.57
454.93,-2.05,1.51,-2.05,1.51,-1.51,-1.51,-1.28,-3.56,-3.56,-3.55
459.48,-2.05,1.50,-2.05,1.49,-1.49,-1.49,-1.29,-3.54,-3.54,-3.54
464.07,-2.05,1.48,-2.05,1.48,-1.48,-1.47,-1.30,-3.53,-3.53,-3.53
468.71,-2.05,1.46,-2.05,1.47,-1.47,-1.45,-1.30,-3.51,-3.51,-3.51
