frequency,raw,error,smoothed,error_smoothed,equalization,parametric_eq,equalized_raw,equalized_smoothed,target
20,4.77,0.53,4.90,0.70,-0.70,-0.79,4.07,4.20,4.24
21,4.99,0.76,5.05,0.85,-0.85,-0.92,4.15,4.20,4.23
22,5.22,1.00,5.18,0.98,-0.98,-1.05,4.24,4.20,4.23
23,5.38,1.16,5.31,1.11,-1.11,-1.21,4.27,4.20,4.22
24,5.52,1.31,5.43,1.24,-1.24,-1.37,4.28,4.20,4.21
25,5.62,1.42,5.55,1.36,-1.36,-1.53,4.27,4.19,4.20
26,5.70,1.51,5.65,1.47,-1.47,-1.70,4.24,4.19,4.19
27,5.75,1.57,5.75,1.57,-1.57,-1.86,4.18,4.18,4.18
28,5.83,1.66,5.84,1.67,-1.67,-2.01,4.16,4.17,4.17
29,5.90,1.74,5.92,1.76,-1.76,-2.14,4.14,4.16,4.16
30,5.96,1.82,6.00,1.85,-1.85,-2.24,4.12,4.15,4.15
31,6.05,1.92,6.05,1.92,-1.92,-2.31,4.13,4.13,4.14
32,6.09,1.97,6.09,1.98,-1.98,-2.35,4.11,4.11,4.12
33,6.14,2.04,6.14,2.04,-2.04,-2.37,4.10,4.09,4.11
34,6.18,2.09,6.18,2.10,-2.10,-2.37,4.08,4.08,4.09
35,6.22,2.15,6.22,2.15,-2.15,-2.35,4.07,4.07,4.08
36,6.22,2.17,6.26,2.21,-2.21,-2.33,4.02,4.06,4.06
37,6.27,2.23,6.29,2.25,-2.25,-2.30,4.02,4.04,4.04
38,6.31,2.29,6.31,2.29,-2.29,-2.27,4.02,4.02,4.02
39,6.35,2.35,6.33,2.33,-2.33,-2.25,4.02,4.00,4.00
40,6.35,2.37,6.34,2.36,-2.36,-2.24,3.99,3.97,3.98
41,6.37,2.42,6.34,2.39,-2.39,-2.23,3.98,3.95,3.96
42,6.37,2.44,6.34,2.42,-2.42,-2.23,3.96,3.92,3.93
43,6.35,2.44,6.34,2.44,-2.44,-2.24,3.91,3.90,3.91
44,6.31,2.43,6.34,2.46,-2.46,-2.26,3.85,3.88,3.89
45,6.31,2.46,6.33,2.48,-2.48,-2.29,3.83,3.85,3.86
46,6.27,2.44,6.32,2.50,-2.50,-2.33,3.78,3.82,3.83
47,6.27,2.47,6.31,2.52,-2.52,-2.37,3.76,3.79,3.80
48,6.27,2.50,6.29,2.53,-2.53,-2.42,3.74,3.76,3.77
49,6.27,2.53,6.28,2.55,-2.55,-2.47,3.73,3.73,3.74
50,6.27,2.56,6.27,2.57,-2.57,-2.53,3.71,3.70,3.71
51,6.27,2.60,6.25,2.58,-2.58,-2.59,3.69,3.67,3.68
52,6.27,2.63,6.24,2.60,-2.60,-2.65,3.67,3.64,3.64
53,6.23,2.62,6.23,2.62,-2.62,-2.72,3.62,3.61,3.61
54,6.19,2.62,6.21,2.63,-2.63,-2.78,3.56,3.57,3.57
55,6.18,2.65,6.18,2.65,-2.65,-2.84,3.54,3.54,3.54
56,6.18,2.69,6.16,2.66,-2.66,-2.90,3.52,3.50,3.50
57,6.14,2.69,6.13,2.68,-2.68,-2.95,3.47,3.46,3.46
58,6.09,2.68,6.10,2.69,-2.69,-3.00,3.41,3.41,3.42
59,6.08,2.71,6.07,2.70,-2.70,-3.04,3.38,3.37,3.38
60,6.04,2.71,6.04,2.71,-2.71,-3.07,3.33,3.33,3.34
61,5.99,2.70,6.01,2.73,-2.73,-3.10,3.27,3.29,3.29
62,5.96,2.72,5.98,2.74,-2.74,-3.12,3.22,3.24,3.25
63,5.92,2.72,5.96,2.76,-2.76,-3.14,3.16,3.20,3.20
64,5.92,2.77,5.93,2.78,-2.78,-3.14,3.14,3.15,3.16
65,5.92,2.81,5.91,2.80,-2.80,-3.14,3.12,3.10,3.11
66,5.88,2.82,5.88,2.82,-2.82,-3.14,3.06,3.06,3.06
67,5.88,2.87,5.86,2.85,-2.85,-3.13,3.04,3.01,3.02
68,5.83,2.87,5.84,2.87,-2.87,-3.12,2.96,2.97,2.97
69,5.81,2.90,5.82,2.90,-2.90,-3.10,2.91,2.92,2.92
70,5.79,2.93,5.79,2.93,-2.93,-3.08,2.87,2.87,2.87
71,5.75,2.94,5.77,2.95,-2.95,-3.06,2.80,2.82,2.82
72,5.75,2.99,5.75,2.98,-2.98,-3.04,2.78,2.77,2.77
73,5.71,3.00,5.72,3.00,-3.00,-3.02,2.71,2.72,2.72
74,5.70,3.04,5.69,3.02,-3.02,-3.00,2.68,2.66,2.66
75,5.66,3.05,5.65,3.04,-3.04,-2.98,2.62,2.61,2.61
76,5.62,3.07,5.62,3.06,-3.06,-2.97,2.56,2.56,2.56
77,5.59,3.09,5.59,3.08,-3.08,-2.95,2.51,2.50,2.51
78,5.54,3.09,5.55,3.10,-3.10,-2.94,2.44,2.45,2.45
79,5.52,3.12,5.52,3.12,-3.12,-2.93,2.40,2.40,2.40
80,5.48,3.14,5.48,3.14,-3.14,-2.93,2.35,2.34,2.35
81,5.43,3.14,5.44,3.15,-3.15,-2.92,2.28,2.29,2.29
82,5.39,3.16,5.40,3.17,-3.17,-2.92,2.22,2.23,2.24
83,5.36,3.18,5.37,3.19,-3.19,-2.92,2.18,2.18,2.18
84,5.31,3.18,5.33,3.20,-3.20,-2.93,2.11,2.13,2.13
85,5.29,3.22,5.29,3.22,-3.22,-2.94,2.08,2.07,2.08
86,5.25,3.23,5.26,3.23,-3.23,-2.95,2.02,2.02,2.02
87,5.23,3.27,5.22,3.25,-3.25,-2.96,1.98,1.97,1.97
88,5.18,3.27,5.18,3.27,-3.27,-2.98,1.92,1.91,1.92
89,5.14,3.28,5.14,3.28,-3.28,-3.00,1.86,1.86,1.86
90,5.11,3.31,5.11,3.30,-3.30,-3.02,1.82,1.81,1.81
91,5.07,3.32,5.07,3.31,-3.31,-3.05,1.76,1.76,1.76
92,5.03,3.33,5.03,3.33,-3.33,-3.07,1.70,1.70,1.70
93,4.99,3.34,5.00,3.35,-3.35,-3.10,1.65,1.65,1.65
94,4.95,3.35,4.96,3.36,-3.36,-3.14,1.59,1.60,1.60
95,4.91,3.37,4.93,3.38,-3.38,-3.17,1.53,1.55,1.55
96,4.88,3.39,4.89,3.40,-3.40,-3.21,1.49,1.50,1.50
97,4.85,3.41,4.86,3.41,-3.41,-3.24,1.44,1.44,1.45
98,4.82,3.43,4.82,3.43,-3.43,-3.28,1.39,1.39,1.40
99,4.79,3.45,4.79,3.45,-3.45,-3.32,1.34,1.34,1.35
100,4.75,3.46,4.75,3.47,-3.47,-3.37,1.28,1.28,1.30
101,4.72,3.48,4.72,3.49,-3.49,-3.41,1.23,1.23,1.25
102,4.71,3.52,4.69,3.51,-3.51,-3.45,1.20,1.18,1.20
104,4.64,3.54,4.65,3.53,-3.53,-3.54,1.12,1.12,1.10
105,4.61,3.56,4.62,3.54,-3.54,-3.58,1.07,1.07,1.06
106,4.56,3.55,4.58,3.56,-3.56,-3.62,1.01,1.02,1.01
107,4.53,3.57,4.54,3.57,-3.57,-3.66,0.96,0.97,0.96
108,4.51,3.59,4.51,3.58,-3.58,-3.71,0.93,0.92,0.92
109,4.46,3.59,4.47,3.59,-3.59,-3.75,0.87,0.88,0.87
110,4.42,3.59,4.43,3.60,-3.60,-3.78,0.83,0.83,0.83
111,4.39,3.61,4.39,3.60,-3.60,-3.82,0.79,0.78,0.79
112,4.34,3.60,4.34,3.61,-3.61,-3.86,0.74,0.74,0.74
113,4.30,3.60,4.30,3.61,-3.61,-3.89,0.69,0.69,0.70
114,4.27,3.61,4.26,3.61,-3.61,-3.92,0.66,0.65,0.66
115,4.23,3.61,4.22,3.61,-3.61,-3.95,0.62,0.60,0.62
117,4.16,3.62,4.17,3.62,-3.62,-4.00,0.55,0.56,0.54
118,4.11,3.61,4.13,3.62,-3.62,-4.02,0.50,0.51,0.50
119,4.08,3.62,4.08,3.62,-3.62,-4.03,0.46,0.46,0.46
120,4.03,3.61,4.04,3.62,-3.62,-4.05,0.41,0.42,0.43
121,4.00,3.62,4.00,3.62,-3.62,-4.06,0.38,0.37,0.39
123,3.94,3.63,3.95,3.63,-3.63,-4.07,0.32,0.33,0.32
124,3.90,3.62,3.91,3.63,-3.63,-4.07,0.27,0.28,0.28
125,3.86,3.62,3.87,3.63,-3.63,-4.07,0.23,0.24,0.25
126,3.84,3.63,3.83,3.63,-3.63,-4.06,0.21,0.20,0.21
128,3.78,3.64,3.79,3.63,-3.63,-4.04,0.15,0.16,0.15
129,3.74,3.63,3.75,3.63,-3.63,-4.03,0.11,0.12,0.11
130,3.72,3.64,3.71,3.63,-3.63,-4.01,0.09,0.08,0.08
131,3.68,3.63,3.67,3.63,-3.63,-3.99,0.05,0.04,0.05
133,3.62,3.63,3.63,3.63,-3.63,-3.95,-0.01,-0.00,-0.01
134,3.58,3.62,3.58,3.62,-3.62,-3.92,-0.04,-0.04,-0.04
135,3.56,3.63,3.54,3.62,-3.62,-3.89,-0.05,-0.08,-0.07
137,3.47,3.60,3.49,3.61,-3.61,-3.83,-0.14,-0.12,-0.12
138,3.45,3.61,3.45,3.60,-3.60,-3.80,-0.15,-0.15,-0.15
140,3.38,3.59,3.40,3.59,-3.59,-3.73,-0.21,-0.19,-0.20
141,3.34,3.57,3.35,3.58,-3.58,-3.69,-0.24,-0.23,-0.23
142,3.31,3.57,3.30,3.57,-3.57,-3.66,-0.25,-0.27,-0.26
144,3.25,3.56,3.25,3.55,-3.55,-3.58,-0.30,-0.30,-0.30
145,3.21,3.54,3.20,3.54,-3.54,-3.54,-0.32,-0.34,-0.33
147,3.13,3.51,3.15,3.52,-3.52,-3.47,-0.39,-0.37,-0.37
148,3.11,3.51,3.10,3.51,-3.51,-3.43,-0.39,-0.40,-0.40
150,3.04,3.49,3.05,3.49,-3.49,-3.35,-0.45,-0.44,-0.44
151,3.01,3.48,3.01,3.47,-3.47,-3.32,-0.46,-0.47,-0.46
153,2.94,3.45,2.96,3.46,-3.46,-3.24,-0.51,-0.50,-0.50
154,2.91,3.44,2.91,3.44,-3.44,-3.21,-0.52,-0.53,-0.52
156,2.84,3.41,2.86,3.42,-3.42,-3.14,-0.57,-0.56,-0.56
157,2.82,3.40,2.81,3.40,-3.40,-3.10,-0.57,-0.59,-0.58
159,2.75,3.37,2.76,3.38,-3.38,-3.03,-0.62,-0.62,-0.62
160,2.73,3.37,2.71,3.35,-3.35,-3.00,-0.62,-0.64,-0.63
162,2.65,3.32,2.66,3.33,-3.33,-2.94,-0.68,-0.67,-0.67
164,2.60,3.31,2.61,3.31,-3.31,-2.88,-0.70,-0.70,-0.70
165,2.56,3.28,2.56,3.28,-3.28,-2.85,-0.72,-0.72,-0.72
167,2.50,3.25,2.51,3.26,-3.26,-2.80,-0.75,-0.75,-0.75
169,2.43,3.21,2.46,3.23,-3.23,-2.75,-0.80,-0.77,-0.78
170,2.42,3.22,2.41,3.20,-3.20,-2.72,-0.78,-0.80,-0.79
172,2.36,3.19,2.36,3.18,-3.18,-2.67,-0.81,-0.82,-0.82
174,2.29,3.14,2.30,3.15,-3.15,-2.63,-0.85,-0.85,-0.85
175,2.26,3.13,2.25,3.12,-3.12,-2.61,-0.85,-0.87,-0.86
177,2.20,3.09,2.20,3.09,-3.09,-2.57,-0.88,-0.89,-0.89
179,2.13,3.05,2.15,3.06,-3.06,-2.54,-0.92,-0.91,-0.91
181,2.08,3.02,2.09,3.03,-3.03,-2.50,-0.94,-0.93,-0.94
183,2.03,2.99,2.04,2.99,-2.99,-2.47,-0.96,-0.95,-0.96
184,2.00,2.97,1.99,2.96,-2.96,-2.46,-0.96,-0.97,-0.97
186,1.93,2.92,1.93,2.93,-2.93,-2.43,-0.99,-0.99,-0.99
188,1.87,2.89,1.88,2.89,-2.89,-2.41,-1.02,-1.02,-1.01
190,1.82,2.85,1.83,2.86,-2.86,-2.39,-1.04,-1.03,-1.03
192,1.76,2.81,1.78,2.83,-2.83,-2.37,-1.06,-1.05,-1.05
194,1.73,2.80,1.72,2.79,-2.79,-2.35,-1.06,-1.07,-1.07
196,1.66,2.75,1.67,2.76,-2.76,-2.34,-1.09,-1.09,-1.09
198,1.61,2.72,1.62,2.72,-2.72,-2.32,-1.11,-1.10,-1.10
200,1.56,2.68,1.57,2.69,-2.69,-2.31,-1.12,-1.12,-1.12
202,1.52,2.66,1.51,2.65,-2.65,-2.30,-1.13,-1.14,-1.14
204,1.47,2.62,1.46,2.61,-2.61,-2.29,-1.14,-1.15,-1.15
206,1.41,2.58,1.41,2.57,-2.57,-2.28,-1.16,-1.17,-1.17
208,1.35,2.53,1.35,2.54,-2.54,-2.28,-1.18,-1.18,-1.18
210,1.30,2.50,1.30,2.50,-2.50,-2.27,-1.19,-1.19,-1.19
212,1.24,2.45,1.25,2.46,-2.46,-2.26,-1.21,-1.21,-1.21
214,1.19,2.41,1.20,2.42,-2.42,-2.26,-1.22,-1.22,-1.22
216,1.13,2.37,1.14,2.38,-2.38,-2.25,-1.25,-1.24,-1.23
218,1.09,2.34,1.09,2.34,-2.34,-2.25,-1.25,-1.25,-1.24
221,1.03,2.29,1.04,2.30,-2.30,-2.24,-1.27,-1.26,-1.26
223,0.98,2.26,0.99,2.26,-2.26,-2.23,-1.28,-1.27,-1.27
225,0.93,2.22,0.94,2.22,-2.22,-2.23,-1.29,-1.28,-1.28
227,0.90,2.20,0.89,2.19,-2.19,-2.22,-1.28,-1.29,-1.29
229,0.85,2.16,0.84,2.15,-2.15,-2.21,-1.29,-1.31,-1.30
232,0.78,2.10,0.79,2.11,-2.11,-2.20,-1.32,-1.32,-1.32
234,0.74,2.07,0.74,2.07,-2.07,-2.19,-1.33,-1.33,-1.33
236,0.70,2.04,0.70,2.03,-2.03,-2.18,-1.33,-1.34,-1.33
239,0.65,2.00,0.65,1.99,-1.99,-2.17,-1.34,-1.35,-1.35
241,0.61,1.97,0.60,1.95,-1.95,-2.16,-1.34,-1.36,-1.35
244,0.52,1.89,0.55,1.91,-1.91,-2.14,-1.39,-1.37,-1.37
246,0.48,1.86,0.50,1.88,-1.88,-2.12,-1.39,-1.37,-1.37
248,0.46,1.85,0.45,1.84,-1.84,-2.11,-1.37,-1.38,-1.38
251,0.40,1.80,0.41,1.80,-1.80,-2.08,-1.39,-1.39,-1.39
253,0.36,1.76,0.36,1.76,-1.76,-2.06,-1.40,-1.40,-1.40
256,0.31,1.72,0.31,1.72,-1.72,-2.03,-1.41,-1.41,-1.41
259,0.26,1.68,0.27,1.69,-1.69,-2.00,-1.42,-1.42,-1.42
261,0.22,1.65,0.22,1.65,-1.65,-1.97,-1.43,-1.42,-1.42
264,0.18,1.62,0.18,1.61,-1.61,-1.94,-1.43,-1.43,-1.43
266,0.14,1.58,0.14,1.58,-1.58,-1.91,-1.43,-1.44,-1.44
269,0.09,1.54,0.10,1.54,-1.54,-1.87,-1.45,-1.44,-1.45
272,0.05,1.51,0.06,1.51,-1.51,-1.83,-1.45,-1.45,-1.45
274,0.01,1.47,0.01,1.47,-1.47,-1.81,-1.46,-1.46,-1.46
277,-0.03,1.44,-0.03,1.44,-1.44,-1.76,-1.47,-1.47,-1.46
280,-0.06,1.42,-0.07,1.41,-1.41,-1.72,-1.46,-1.47,-1.47
283,-0.12,1.36,-0.11,1.37,-1.37,-1.68,-1.49,-1.48,-1.48
286,-0.15,1.34,-0.14,1.34,-1.34,-1.63,-1.49,-1.48,-1.48
288,-0.19,1.30,-0.18,1.31,-1.31,-1.60,-1.49,-1.49,-1.49
291,-0.22,1.28,-0.22,1.28,-1.28,-1.56,-1.49,-1.50,-1.49
294,-0.27,1.23,-0.26,1.24,-1.24,-1.51,-1.51,-1.50,-1.50
297,-0.30,1.21,-0.30,1.21,-1.21,-1.47,-1.51,-1.51,-1.51
300,-0.33,1.19,-0.33,1.18,-1.18,-1.42,-1.51,-1.51,-1.51
303,-0.36,1.16,-0.37,1.15,-1.15,-1.38,-1.50,-1.52,-1.52
306,-0.41,1.12,-0.41,1.11,-1.11,-1.33,-1.52,-1.53,-1.52
309,-0.44,1.09,-0.45,1.08,-1.08,-1.29,-1.52,-1.53,-1.53
312,-0.49,1.05,-0.48,1.05,-1.05,-1.24,-1.54,-1.53,-1.53
316,-0.54,1.00,-0.52,1.02,-1.02,-1.19,-1.56,-1.54,-1.54
319,-0.56,0.98,-0.55,0.99,-0.99,-1.14,-1.55,-1.54,-1.54
322,-0.59,0.96,-0.58,0.96,-0.96,-1.10,-1.55,-1.54,-1.54
325,-0.62,0.93,-0.61,0.93,-0.93,-1.06,-1.55,-1.54,-1.54
328,-0.64,0.91,-0.64,0.90,-0.90,-1.02,-1.54,-1.55,-1.54
332,-0.68,0.87,-0.67,0.87,-0.87,-0.97,-1.55,-1.55,-1.54
335,-0.71,0.84,-0.70,0.85,-0.85,-0.93,-1.55,-1.55,-1.54
338,-0.71,0.84,-0.72,0.82,-0.82,-0.89,-1.53,-1.55,-1.54
342,-0.75,0.80,-0.75,0.80,-0.80,-0.84,-1.54,-1.54,-1.54
345,-0.77,0.77,-0.77,0.77,-0.77,-0.81,-1.54,-1.54,-1.54
349,-0.80,0.74,-0.79,0.75,-0.75,-0.76,-1.54,-1.54,-1.54
352,-0.83,0.71,-0.81,0.72,-0.72,-0.72,-1.55,-1.54,-1.54
356,-0.84,0.70,-0.84,0.70,-0.70,-0.68,-1.54,-1.54,-1.54
359,-0.85,0.69,-0.85,0.68,-0.68,-0.65,-1.52,-1.53,-1.53
363,-0.88,0.65,-0.88,0.66,-0.66,-0.60,-1.53,-1.53,-1.53
366,-0.88,0.65,-0.90,0.63,-0.63,-0.57,-1.51,-1.53,-1.53
370,-0.93,0.60,-0.91,0.61,-0.61,-0.53,-1.54,-1.53,-1.53
374,-0.93,0.60,-0.93,0.59,-0.59,-0.49,-1.51,-1.52,-1.52
377,-0.97,0.55,-0.95,0.57,-0.57,-0.46,-1.53,-1.52,-1.52
381,-0.97,0.55,-0.97,0.54,-0.54,-0.42,-1.51,-1.52,-1.51
385,-1.00,0.51,-0.99,0.52,-0.52,-0.38,-1.52,-1.51,-1.51
389,-1.01,0.50,-1.01,0.50,-0.50,-0.35,-1.51,-1.51,-1.51
393,-1.01,0.50,-1.02,0.48,-0.48,-0.31,-1.49,-1.50,-1.50
397,-1.06,0.44,-1.04,0.46,-0.46,-0.28,-1.51,-1.50,-1.50
401,-1.06,0.43,-1.05,0.44,-0.44,-0.24,-1.49,-1.49,-1.49
405,-1.06,0.43,-1.07,0.41,-0.41,-0.21,-1.47,-1.48,-1.48
409,-1.10,0.38,-1.08,0.39,-0.39,-0.18,-1.49,-1.47,-1.48
413,-1.10,0.37,-1.10,0.37,-0.37,-0.15,-1.47,-1.47,-1.47
417,-1.10,0.37,-1.11,0.35,-0.35,-0.12,-1.45,-1.46,-1.46
421,-1.12,0.34,-1.12,0.33,-0.33,-0.09,-1.45,-1.46,-1.45
425,-1.14,0.31,-1.14,0.31,-0.31,-0.06,-1.45,-1.45,-1.44
430,-1.14,0.30,-1.15,0.30,-0.30,-0.03,-1.43,-1.44,-1.44
434,-1.17,0.26,-1.16,0.28,-0.28,-0.00,-1.45,-1.44,-1.43
438,-1.17,0.26,-1.16,0.27,-0.27,0.02,-1.43,-1.43,-1.42
443,-1.19,0.23,-1.17,0.25,-0.25,0.05,-1.44,-1.42,-1.42
447,-1.19,0.22,-1.17,0.24,-0.24,0.07,-1.43,-1.41,-1.41
451,-1.19,0.22,-1.18,0.23,-0.23,0.09,-1.41,-1.41,-1.40
456,-1.19,0.21,-1.18,0.22,-0.22,0.11,-1.40,-1.40,-1.40
460,-1.19,0.20,-1.19,0.21,-0.21,0.13,-1.39,-1.39,-1.39
465,-1.19,0.20,-1.19,0.19,-0.19,0.15,-1.38,-1.39,-1.38
470,-1.19,0.19,-1.20,0.18,-0.18,0.17,-1.37,-1.38,-1.38
474,-1.19,0.18,-1.20,0.17,-0.17,0.18,-1.36,-1.37,-1.37
479,-1.19,0.18,-1.20,0.16,-0.16,0.20,-1.35,-1.36,-1.36
484,-1.19,0.17,-1.20,0.15,-0.15,0.21,-1.33,-1.35,-1.35
489,-1.23,0.12,-1.21,0.13,-0.13,0.22,-1.36,-1.34,-1.34
494,-1.23,0.10,-1.21,0.12,-0.12,0.23,-1.34,-1.33,-1.33
499,-1.23,0.09,-1.22,0.10,-0.10,0.24,-1.33,-1.32,-1.32
504,-1.23,0.08,-1.22,0.09,-0.09,0.25,-1.31,-1.31,-1.30
509,-1.23,0.06,-1.22,0.07,-0.07,0.25,-1.30,-1.29,-1.29
514,-1.23,0.05,-1.23,0.05,-0.05,0.25,-1.28,-1.28,-1.28
519,-1.23,0.04,-1.23,0.04,-0.04,0.25,-1.27,-1.27,-1.26
524,-1.23,0.02,-1.23,0.03,-0.03,0.25,-1.25,-1.26,-1.25
529,-1.23,0.01,-1.23,0.01,-0.01,0.25,-1.24,-1.24,-1.24
535,-1.23,-0.00,-1.23,-0.00,0.00,0.24,-1.23,-1.23,-1.23
540,-1.23,-0.01,-1.23,-0.01,0.01,0.24,-1.21,-1.21,-1.21
545,-1.23,-0.03,-1.22,-0.02,0.02,0.23,-1.20,-1.20,-1.20
551,-1.23,-0.04,-1.22,-0.04,0.04,0.22,-1.19,-1.19,-1.19
556,-1.23,-0.05,-1.22,-0.05,0.05,0.21,-1.18,-1.17,-1.17
562,-1.23,-0.07,-1.21,-0.06,0.06,0.20,-1.17,-1.15,-1.16
568,-1.23,-0.08,-1.21,-0.07,0.07,0.19,-1.15,-1.14,-1.14
573,-1.20,-0.07,-1.20,-0.09,0.09,0.18,-1.11,-1.12,-1.12
579,-1.19,-0.08,-1.20,-0.10,0.10,0.16,-1.09,-1.10,-1.10
585,-1.19,-0.10,-1.20,-0.11,0.11,0.15,-1.07,-1.08,-1.08
591,-1.19,-0.12,-1.19,-0.13,0.13,0.13,-1.06,-1.06,-1.06
596,-1.19,-0.14,-1.19,-0.14,0.14,0.12,-1.04,-1.05,-1.04
602,-1.19,-0.16,-1.19,-0.16,0.16,0.10,-1.03,-1.03,-1.03
608,-1.19,-0.18,-1.19,-0.17,0.17,0.08,-1.01,-1.01,-1.01
615,-1.19,-0.19,-1.19,-0.19,0.19,0.06,-1.00,-1.00,-0.99
621,-1.19,-0.21,-1.19,-0.20,0.20,0.04,-0.99,-0.99,-0.98
627,-1.19,-0.22,-1.19,-0.21,0.21,0.02,-0.98,-0.98,-0.97
633,-1.19,-0.23,-1.19,-0.22,0.22,0.00,-0.97,-0.97,-0.96
639,-1.19,-0.24,-1.19,-0.23,0.23,-0.01,-0.96,-0.96,-0.95
646,-1.19,-0.25,-1.18,-0.23,0.23,-0.04,-0.95,-0.95,-0.94
652,-1.19,-0.25,-1.18,-0.24,0.24,-0.06,-0.95,-0.94,-0.93
659,-1.19,-0.26,-1.17,-0.24,0.24,-0.08,-0.94,-0.93,-0.93
665,-1.19,-0.27,-1.16,-0.25,0.25,-0.10,-0.94,-0.92,-0.92
672,-1.14,-0.22,-1.15,-0.25,0.25,-0.12,-0.89,-0.91,-0.91
679,-1.14,-0.23,-1.15,-0.25,0.25,-0.14,-0.89,-0.90,-0.90
686,-1.14,-0.25,-1.14,-0.25,0.25,-0.17,-0.88,-0.89,-0.89
692,-1.14,-0.26,-1.13,-0.26,0.26,-0.19,-0.88,-0.87,-0.87
699,-1.12,-0.26,-1.12,-0.26,0.26,-0.21,-0.85,-0.86,-0.86
706,-1.10,-0.25,-1.11,-0.27,0.27,-0.23,-0.83,-0.85,-0.84
713,-1.10,-0.27,-1.10,-0.27,0.27,-0.25,-0.82,-0.83,-0.83
721,-1.10,-0.29,-1.09,-0.28,0.28,-0.28,-0.81,-0.81,-0.81
728,-1.10,-0.30,-1.09,-0.29,0.29,-0.30,-0.80,-0.80,-0.79
735,-1.10,-0.32,-1.08,-0.30,0.30,-0.32,-0.79,-0.78,-0.78
742,-1.10,-0.34,-1.08,-0.32,0.32,-0.35,-0.78,-0.76,-0.76
750,-1.06,-0.31,-1.07,-0.33,0.33,-0.37,-0.72,-0.74,-0.74
757,-1.06,-0.33,-1.07,-0.35,0.35,-0.39,-0.70,-0.72,-0.72
765,-1.06,-0.35,-1.07,-0.37,0.37,-0.42,-0.69,-0.70,-0.70
773,-1.06,-0.37,-1.07,-0.39,0.39,-0.44,-0.67,-0.68,-0.68
780,-1.06,-0.39,-1.07,-0.41,0.41,-0.47,-0.65,-0.66,-0.66
788,-1.06,-0.42,-1.07,-0.43,0.43,-0.49,-0.63,-0.64,-0.64
796,-1.06,-0.44,-1.07,-0.45,0.45,-0.51,-0.61,-0.62,-0.62
804,-1.06,-0.46,-1.06,-0.46,0.46,-0.54,-0.60,-0.60,-0.59
812,-1.06,-0.49,-1.05,-0.47,0.47,-0.56,-0.58,-0.58,-0.57
820,-1.06,-0.51,-1.04,-0.48,0.48,-0.58,-0.58,-0.56,-0.55
828,-1.06,-0.53,-1.02,-0.48,0.48,-0.60,-0.58,-0.54,-0.52
837,-1.02,-0.52,-0.99,-0.48,0.48,-0.63,-0.54,-0.51,-0.50
845,-0.99,-0.51,-0.95,-0.47,0.47,-0.65,-0.52,-0.49,-0.47
853,-0.93,-0.48,-0.91,-0.45,0.45,-0.67,-0.47,-0.46,-0.45
862,-0.86,-0.44,-0.86,-0.43,0.43,-0.69,-0.42,-0.43,-0.42
871,-0.81,-0.41,-0.81,-0.41,0.41,-0.70,-0.40,-0.41,-0.40
879,-0.75,-0.38,-0.75,-0.38,0.38,-0.72,-0.37,-0.38,-0.37
888,-0.69,-0.34,-0.69,-0.35,0.35,-0.74,-0.34,-0.34,-0.34
897,-0.61,-0.29,-0.63,-0.32,0.32,-0.75,-0.29,-0.31,-0.32
906,-0.56,-0.27,-0.57,-0.28,0.28,-0.76,-0.27,-0.28,-0.29
915,-0.51,-0.25,-0.50,-0.25,0.25,-0.77,-0.25,-0.25,-0.26
924,-0.43,-0.19,-0.44,-0.22,0.22,-0.78,-0.20,-0.22,-0.23
933,-0.39,-0.19,-0.39,-0.19,0.19,-0.79,-0.19,-0.19,-0.20
943,-0.32,-0.15,-0.33,-0.17,0.17,-0.79,-0.15,-0.16,-0.17
952,-0.27,-0.13,-0.28,-0.14,0.14,-0.79,-0.13,-0.14,-0.14
962,-0.21,-0.10,-0.22,-0.11,0.11,-0.79,-0.09,-0.11,-0.11
971,-0.17,-0.09,-0.16,-0.09,0.09,-0.79,-0.08,-0.08,-0.07
981,-0.13,-0.09,-0.11,-0.06,0.06,-0.78,-0.07,-0.05,-0.04
991,-0.04,-0.03,-0.05,-0.03,0.03,-0.78,-0.00,-0.02,-0.01
1001,0.00,-0.02,0.02,0.00,-0.00,-0.76,0.00,0.02,0.03
1011,0.07,0.01,0.08,0.03,-0.03,-0.75,0.04,0.05,0.06
1021,0.14,0.05,0.15,0.07,-0.07,-0.73,0.07,0.08,0.09
1031,0.22,0.10,0.23,0.12,-0.12,-0.72,0.11,0.12,0.13
1041,0.29,0.13,0.31,0.16,-0.16,-0.69,0.13,0.15,0.16
1052,0.40,0.21,0.40,0.21,-0.21,-0.67,0.19,0.19,0.20
1062,0.47,0.24,0.49,0.26,-0.26,-0.64,0.21,0.23,0.23
1073,0.58,0.31,0.58,0.32,-0.32,-0.61,0.27,0.27,0.27
1084,0.69,0.39,0.68,0.38,-0.38,-0.58,0.32,0.31,0.31
1094,0.78,0.44,0.78,0.43,-0.43,-0.55,0.35,0.35,0.35
1105,0.89,0.50,0.88,0.49,-0.49,-0.51,0.40,0.39,0.39
1116,0.99,0.56,0.99,0.55,-0.55,-0.48,0.44,0.44,0.44
1128,1.10,0.62,1.10,0.61,-0.61,-0.43,0.50,0.49,0.49
1139,1.20,0.67,1.20,0.67,-0.67,-0.39,0.54,0.54,0.54
1150,1.30,0.72,1.31,0.72,-0.72,-0.35,0.58,0.59,0.59
1162,1.41,0.77,1.42,0.77,-0.77,-0.30,0.64,0.65,0.64
1173,1.51,0.81,1.53,0.82,-0.82,-0.26,0.69,0.71,0.70
1185,1.63,0.87,1.64,0.87,-0.87,-0.21,0.76,0.77,0.77
1197,1.75,0.92,1.75,0.92,-0.92,-0.16,0.84,0.83,0.83
1209,1.86,0.97,1.85,0.96,-0.96,-0.11,0.91,0.90,0.90
1221,1.96,1.00,1.96,0.99,-0.99,-0.06,0.97,0.96,0.96
1233,2.07,1.04,2.06,1.03,-1.03,-0.01,1.04,1.04,1.03
1246,2.17,1.07,2.17,1.06,-1.06,0.04,1.11,1.11,1.11
1258,2.27,1.09,2.27,1.09,-1.09,0.10,1.19,1.18,1.18
1271,2.36,1.11,2.37,1.11,-1.11,0.15,1.25,1.26,1.26
1283,2.46,1.13,2.47,1.13,-1.13,0.20,1.33,1.33,1.33
1296,2.55,1.14,2.56,1.15,-1.15,0.26,1.40,1.41,1.41
1309,2.64,1.15,2.65,1.16,-1.16,0.32,1.48,1.49,1.49
1322,2.74,1.18,2.74,1.18,-1.18,0.37,1.57,1.56,1.57
1335,2.82,1.18,2.82,1.18,-1.18,0.43,1.64,1.64,1.65
1349,2.91,1.19,2.90,1.19,-1.19,0.49,1.73,1.72,1.72
1362,2.98,1.19,2.98,1.19,-1.19,0.55,1.79,1.79,1.80
1376,3.05,1.18,3.06,1.19,-1.19,0.61,1.86,1.87,1.87
1390,3.13,1.19,3.13,1.18,-1.18,0.67,1.95,1.95,1.95
1404,3.19,1.17,3.20,1.17,-1.17,0.73,2.02,2.02,2.02
1418,3.25,1.16,3.26,1.16,-1.16,0.80,2.09,2.10,2.10
1432,3.31,1.14,3.32,1.14,-1.14,0.86,2.17,2.17,2.17
1446,3.37,1.13,3.37,1.12,-1.12,0.92,2.25,2.25,2.25
1461,3.43,1.11,3.42,1.09,-1.09,0.98,2.34,2.32,2.32
1475,3.46,1.06,3.46,1.06,-1.06,1.05,2.41,2.40,2.40
1490,3.51,1.03,3.50,1.02,-1.02,1.11,2.49,2.48,2.48
1505,3.54,0.98,3.54,0.98,-0.98,1.18,2.57,2.56,2.56
1520,3.58,0.94,3.58,0.93,-0.93,1.24,2.65,2.65,2.65
1535,3.60,0.87,3.62,0.88,-0.88,1.31,2.73,2.74,2.73
1550,3.63,0.81,3.65,0.82,-0.82,1.37,2.81,2.83,2.82
1566,3.66,0.75,3.68,0.76,-0.76,1.44,2.90,2.92,2.92
1582,3.69,0.68,3.71,0.70,-0.70,1.51,3.00,3.02,3.01
1597,3.74,0.63,3.74,0.63,-0.63,1.57,3.11,3.11,3.11
1613,3.77,0.56,3.77,0.56,-0.56,1.64,3.22,3.21,3.22
1629,3.80,0.48,3.80,0.48,-0.48,1.71,3.32,3.31,3.32
1646,3.83,0.41,3.82,0.40,-0.40,1.78,3.43,3.42,3.42
1662,3.86,0.33,3.85,0.32,-0.32,1.84,3.54,3.52,3.53
1679,3.88,0.25,3.87,0.24,-0.24,1.91,3.65,3.64,3.64
1696,3.88,0.14,3.89,0.15,-0.15,1.98,3.74,3.75,3.75
1713,3.88,0.02,3.91,0.05,-0.05,2.04,3.83,3.86,3.86
1730,3.93,-0.04,3.93,-0.05,0.05,2.10,3.98,3.98,3.97
1747,3.93,-0.15,3.94,-0.15,0.15,2.16,4.09,4.09,4.09
1764,3.93,-0.27,3.95,-0.26,0.26,2.22,4.20,4.21,4.21
1782,3.96,-0.36,3.95,-0.38,0.38,2.28,4.34,4.33,4.32
1800,3.97,-0.47,3.96,-0.50,0.50,2.34,4.47,4.45,4.45
1818,3.97,-0.60,3.96,-0.62,0.62,2.39,4.59,4.58,4.57
1836,3.97,-0.72,3.95,-0.75,0.75,2.44,4.72,4.70,4.70
