frequency,raw,error,smoothed,error_smoothed,equalization,parametric_eq,fixed_band_eq,equalized_raw,equalized_smoothed,target
20.00,6.30,3.94,6.30,3.94,-3.91,-3.56,-1.37,2.39,2.39,2.36
20.20,6.26,3.91,6.26,3.91,-3.89,-3.55,-1.41,2.36,2.36,2.35
20.40,6.22,3.88,6.21,3.87,-3.88,-3.54,-1.46,2.34,2.33,2.34
20.61,6.18,3.84,6.17,3.84,-3.86,-3.54,-1.50,2.32,2.31,2.34
20.81,6.14,3.82,6.14,3.81,-3.84,-3.53,-1.54,2.29,2.29,2.32
21.02,6.10,3.78,6.11,3.79,-3.83,-3.52,-1.59,2.27,2.28,2.32
21.23,6.10,3.79,6.10,3.78,-3.81,-3.51,-1.63,2.29,2.29,2.31
21.44,6.10,3.78,6.10,3.79,-3.79,-3.50,-1.68,2.30,2.30,2.32
21.66,6.10,3.79,6.10,3.80,-3.78,-3.50,-1.73,2.32,2.32,2.31
21.87,6.10,3.80,6.09,3.80,-3.77,-3.49,-1.78,2.33,2.32,2.30
22.09,6.08,3.79,6.07,3.79,-3.75,-3.48,-1.84,2.33,2.32,2.29
22.31,6.04,3.75,6.04,3.76,-3.74,-3.47,-1.89,2.30,2.30,2.28
22.54,5.99,3.71,5.99,3.71,-3.72,-3.46,-1.94,2.27,2.27,2.27
22.76,5.95,3.67,5.94,3.67,-3.70,-3.45,-2.00,2.25,2.24,2.27
22.99,5.90,3.64,5.91,3.65,-3.68,-3.44,-2.06,2.21,2.23,2.26
23.22,5.90,3.65,5.90,3.64,-3.66,-3.43,-2.12,2.23,2.23,2.25
23.45,5.90,3.64,5.90,3.64,-3.64,-3.42,-2.18,2.26,2.25,2.26
23.69,5.90,3.65,5.90,3.65,-3.62,-3.41,-2.24,2.28,2.28,2.25
23.92,5.90,3.65,5.89,3.63,-3.60,-3.40,-2.30,2.30,2.29,2.25
24.16,5.87,3.61,5.86,3.60,-3.57,-3.39,-2.37,2.30,2.29,2.26
24.40,5.82,3.55,5.82,3.55,-3.55,-3.38,-2.43,2.27,2.27,2.27
24.65,5.77,3.50,5.77,3.50,-3.52,-3.37,-2.50,2.25,2.24,2.27
24.89,5.72,3.45,5.73,3.46,-3.50,-3.36,-2.56,2.22,2.23,2.27
25.14,5.70,3.43,5.70,3.44,-3.47,-3.35,-2.63,2.23,2.24,2.27
25.39,5.70,3.43,5.70,3.43,-3.44,-3.34,-2.70,2.26,2.26,2.27
25.65,5.70,3.43,5.70,3.43,-3.41,-3.32,-2.77,2.29,2.29,2.27
25.91,5.70,3.42,5.69,3.42,-3.38,-3.31,-2.83,2.32,2.31,2.27
26.16,5.67,3.38,5.66,3.38,-3.35,-3.30,-2.90,2.32,2.31,2.28
26.43,5.61,3.33,5.61,3.33,-3.33,-3.29,-2.97,2.28,2.29,2.28
26.69,5.56,3.28,5.56,3.28,-3.30,-3.27,-3.03,2.26,2.26,2.28
26.96,5.51,3.23,5.52,3.24,-3.28,-3.26,-3.10,2.23,2.24,2.28
27.23,5.50,3.22,5.50,3.22,-3.25,-3.25,-3.16,2.25,2.25,2.28
27.50,5.50,3.22,5.50,3.22,-3.21,-3.23,-3.22,2.28,2.29,2.28
27.77,5.50,3.21,5.50,3.21,-3.18,-3.22,-3.28,2.32,2.31,2.29
28.05,5.49,3.20,5.47,3.19,-3.16,-3.21,-3.34,2.33,2.32,2.29
28.33,5.43,3.15,5.43,3.15,-3.13,-3.19,-3.39,2.30,2.30,2.28
28.62,5.38,3.11,5.38,3.10,-3.11,-3.18,-3.44,2.27,2.27,2.27
28.90,5.32,3.04,5.33,3.05,-3.08,-3.16,-3.49,2.23,2.24,2.28
29.19,5.30,3.02,5.31,3.03,-3.05,-3.15,-3.53,2.25,2.25,2.28
29.48,5.30,3.02,5.30,3.02,-3.02,-3.13,-3.57,2.28,2.28,2.28
29.78,5.30,3.02,5.29,3.01,-2.98,-3.11,-3.61,2.32,2.31,2.28
30.08,5.28,2.99,5.27,2.99,-2.96,-3.10,-3.64,2.32,2.31,2.29
30.38,5.22,2.94,5.22,2.94,-2.93,-3.08,-3.67,2.29,2.28,2.28
30.68,5.16,2.90,5.16,2.89,-2.92,-3.07,-3.68,2.24,2.24,2.26
30.99,5.10,2.84,5.12,2.86,-2.89,-3.05,-3.70,2.20,2.22,2.26
31.30,5.10,2.85,5.10,2.85,-2.87,-3.03,-3.71,2.23,2.23,2.25
31.61,5.10,2.85,5.10,2.85,-2.84,-3.02,-3.72,2.26,2.25,2.25
31.93,5.10,2.86,5.09,2.85,-2.81,-3.00,-3.72,2.28,2.27,2.24
32.24,5.06,2.82,5.05,2.82,-2.79,-2.98,-3.71,2.27,2.26,2.23
32.57,5.00,2.78,5.00,2.78,-2.77,-2.96,-3.70,2.23,2.23,2.22
32.89,4.94,2.72,4.95,2.73,-2.75,-2.94,-3.69,2.19,2.20,2.22
33.22,4.91,2.69,4.91,2.70,-2.72,-2.93,-3.67,2.18,2.19,2.22
33.55,4.90,2.68,4.90,2.68,-2.69,-2.91,-3.64,2.20,2.20,2.21
33.89,4.89,2.67,4.88,2.67,-2.66,-2.89,-3.62,2.22,2.22,2.22
34.23,4.87,2.66,4.86,2.65,-2.63,-2.87,-3.59,2.23,2.23,2.21
34.57,4.83,2.62,4.83,2.62,-2.61,-2.85,-3.55,2.22,2.22,2.21
34.92,4.80,2.60,4.80,2.59,-2.59,-2.83,-3.51,2.21,2.21,2.20
35.27,4.76,2.55,4.76,2.56,-2.56,-2.81,-3.47,2.20,2.20,2.21
35.62,4.73,2.53,4.73,2.53,-2.54,-2.79,-3.43,2.19,2.19,2.20
35.97,4.69,2.49,4.69,2.50,-2.51,-2.77,-3.39,2.18,2.18,2.19
36.33,4.67,2.49,4.67,2.49,-2.49,-2.75,-3.34,2.18,2.18,2.18
36.70,4.65,2.48,4.64,2.48,-2.47,-2.73,-3.30,2.18,2.18,2.17
37.06,4.62,2.47,4.61,2.46,-2.45,-2.71,-3.25,2.17,2.16,2.15
37.43,4.57,2.44,4.57,2.43,-2.44,-2.69,-3.20,2.13,2.13,2.13
37.81,4.52,2.40,4.52,2.41,-2.43,-2.67,-3.15,2.08,2.09,2.12
38.19,4.49,2.40,4.50,2.41,-2.43,-2.65,-3.11,2.06,2.07,2.09
38.57,4.49,2.42,4.49,2.42,-2.42,-2.63,-3.06,2.07,2.07,2.07
38.95,4.49,2.45,4.47,2.43,-2.41,-2.61,-3.01,2.08,2.06,2.04
39.34,4.44,2.43,4.44,2.42,-2.41,-2.59,-2.97,2.03,2.03,2.01
39.74,4.39,2.40,4.40,2.41,-2.40,-2.57,-2.92,1.99,1.99,1.99
40.14,4.35,2.38,4.35,2.39,-2.39,-2.55,-2.88,1.95,1.96,1.97
40.54,4.32,2.38,4.32,2.37,-2.38,-2.53,-2.84,1.93,1.93,1.94
40.94,4.29,2.37,4.29,2.37,-2.37,-2.51,-2.80,1.92,1.92,1.92
41.35,4.26,2.36,4.26,2.37,-2.35,-2.49,-2.76,1.90,1.91,1.90
41.76,4.23,2.36,4.23,2.35,-2.34,-2.47,-2.72,1.89,1.88,1.87
42.18,4.19,2.34,4.18,2.33,-2.33,-2.45,-2.68,1.85,1.85,1.85
42.60,4.14,2.30,4.14,2.31,-2.33,-2.43,-2.65,1.81,1.81,1.83
43.03,4.09,2.28,4.11,2.30,-2.32,-2.41,-2.62,1.77,1.79,1.81
43.46,4.09,2.31,4.09,2.31,-2.31,-2.39,-2.59,1.78,1.78,1.78
43.90,4.09,2.33,4.08,2.32,-2.30,-2.37,-2.56,1.79,1.78,1.76
44.33,4.06,2.32,4.05,2.32,-2.29,-2.35,-2.53,1.77,1.76,1.74
44.78,4.01,2.30,4.01,2.30,-2.29,-2.34,-2.51,1.72,1.72,1.71
45.23,3.97,2.27,3.96,2.27,-2.29,-2.32,-2.48,1.68,1.67,1.70
45.68,3.92,2.26,3.92,2.26,-2.29,-2.30,-2.46,1.63,1.64,1.66
46.13,3.89,2.27,3.90,2.27,-2.29,-2.29,-2.44,1.60,1.62,1.62
46.60,3.89,2.29,3.88,2.29,-2.28,-2.27,-2.43,1.60,1.60,1.59
47.06,3.88,2.31,3.86,2.30,-2.28,-2.26,-2.41,1.59,1.58,1.57
47.53,3.83,2.29,3.83,2.30,-2.29,-2.24,-2.40,1.54,1.54,1.54
48.01,3.78,2.29,3.78,2.29,-2.29,-2.23,-2.39,1.49,1.49,1.49
48.49,3.74,2.29,3.73,2.29,-2.30,-2.22,-2.38,1.44,1.44,1.45
48.97,3.69,2.28,3.70,2.29,-2.29,-2.21,-2.37,1.39,1.41,1.41
49.46,3.67,2.29,3.67,2.30,-2.29,-2.19,-2.36,1.38,1.38,1.37
49.96,3.64,2.33,3.62,2.30,-2.29,-2.18,-2.36,1.35,1.33,1.31
50.46,3.58,2.30,3.58,2.29,-2.30,-2.18,-2.35,1.28,1.28,1.28
50.96,3.51,2.26,3.53,2.28,-2.30,-2.17,-2.35,1.21,1.23,1.25
51.47,3.50,2.28,3.50,2.28,-2.31,-2.16,-2.35,1.19,1.19,1.22
51.99,3.49,2.32,3.49,2.31,-2.31,-2.15,-2.35,1.18,1.18,1.17
52.51,3.48,2.34,3.48,2.34,-2.32,-2.15,-2.35,1.16,1.17,1.14
53.03,3.48,2.36,3.45,2.35,-2.32,-2.14,-2.35,1.15,1.13,1.12
53.56,3.41,2.34,3.41,2.34,-2.34,-2.14,-2.36,1.07,1.07,1.07
54.10,3.34,2.31,3.35,2.32,-2.35,-2.14,-2.36,0.99,1.01,1.03
54.64,3.31,2.32,3.31,2.33,-2.35,-2.14,-2.36,0.96,0.96,0.99
55.18,3.29,2.34,3.29,2.35,-2.35,-2.14,-2.37,0.94,0.95,0.94
55.74,3.29,2.38,3.28,2.37,-2.34,-2.14,-2.37,0.95,0.94,0.91
56.29,3.26,2.38,3.25,2.37,-2.34,-2.14,-2.38,0.92,0.91,0.88
56.86,3.20,2.35,3.20,2.35,-2.34,-2.15,-2.38,0.86,0.86,0.85
57.42,3.14,2.33,3.14,2.32,-2.34,-2.15,-2.39,0.80,0.80,0.80
58.00,3.08,2.29,3.10,2.31,-2.34,-2.16,-2.39,0.73,0.75,0.79
58.58,3.08,2.31,3.08,2.32,-2.35,-2.17,-2.40,0.73,0.73,0.77
59.16,3.08,2.34,3.07,2.34,-2.35,-2.17,-2.40,0.73,0.73,0.74
59.76,3.08,2.37,3.08,2.38,-2.35,-2.18,-2.41,0.73,0.73,0.70
60.35,3.06,2.41,3.06,2.40,-2.37,-2.20,-2.41,0.69,0.69,0.65
60.96,3.03,2.42,3.01,2.40,-2.39,-2.21,-2.41,0.64,0.62,0.61
61.57,2.94,2.38,2.95,2.39,-2.41,-2.22,-2.42,0.53,0.54,0.56
62.18,2.88,2.37,2.90,2.40,-2.43,-2.24,-2.42,0.45,0.47,0.50
62.80,2.88,2.43,2.88,2.42,-2.44,-2.25,-2.42,0.44,0.43,0.45
63.43,2.88,2.47,2.88,2.47,-2.45,-2.27,-2.42,0.43,0.43,0.40
64.07,2.88,2.51,2.87,2.51,-2.46,-2.29,-2.42,0.42,0.41,0.37
64.71,2.84,2.52,2.82,2.50,-2.47,-2.31,-2.41,0.37,0.36,0.32
65.35,2.77,2.48,2.76,2.48,-2.49,-2.33,-2.41,0.28,0.28,0.29
66.01,2.68,2.44,2.71,2.47,-2.51,-2.35,-2.41,0.17,0.20,0.24
66.67,2.68,2.47,2.68,2.48,-2.53,-2.37,-2.40,0.15,0.15,0.21
67.33,2.68,2.53,2.67,2.52,-2.54,-2.39,-2.40,0.14,0.13,0.15
68.01,2.68,2.57,2.68,2.57,-2.55,-2.42,-2.40,0.13,0.13,0.11
68.69,2.68,2.62,2.67,2.61,-2.56,-2.44,-2.39,0.12,0.11,0.06
69.37,2.65,2.62,2.64,2.62,-2.59,-2.47,-2.39,0.06,0.05,0.02
70.07,2.59,2.62,2.58,2.61,-2.61,-2.50,-2.38,-0.03,-0.03,-0.03
70.77,2.51,2.58,2.53,2.60,-2.64,-2.52,-2.38,-0.13,-0.11,-0.07
71.48,2.48,2.60,2.49,2.61,-2.65,-2.55,-2.38,-0.17,-0.16,-0.12
72.19,2.48,2.65,2.48,2.65,-2.66,-2.58,-2.37,-0.18,-0.18,-0.17
72.91,2.48,2.70,2.48,2.70,-2.66,-2.61,-2.37,-0.18,-0.18,-0.22
73.64,2.48,2.74,2.45,2.72,-2.67,-2.63,-2.37,-0.19,-0.22,-0.27
74.38,2.41,2.71,2.39,2.70,-2.68,-2.66,-2.36,-0.27,-0.29,-0.30
75.12,2.30,2.65,2.33,2.68,-2.70,-2.69,-2.36,-0.40,-0.37,-0.35
75.87,2.28,2.66,2.28,2.67,-2.72,-2.72,-2.36,-0.44,-0.44,-0.38
76.63,2.28,2.70,2.27,2.69,-2.74,-2.75,-2.37,-0.46,-0.47,-0.42
77.40,2.28,2.73,2.28,2.73,-2.74,-2.78,-2.37,-0.46,-0.47,-0.46
78.17,2.28,2.78,2.29,2.78,-2.75,-2.81,-2.37,-0.47,-0.46,-0.50
78.95,2.28,2.80,2.28,2.81,-2.75,-2.84,-2.38,-0.47,-0.47,-0.52
79.74,2.28,2.83,2.25,2.80,-2.76,-2.87,-2.38,-0.48,-0.51,-0.56
80.54,2.19,2.78,2.19,2.78,-2.77,-2.90,-2.39,-0.59,-0.59,-0.59
81.35,2.10,2.72,2.13,2.75,-2.79,-2.93,-2.40,-0.69,-0.66,-0.63
82.16,2.08,2.73,2.08,2.74,-2.80,-2.96,-2.41,-0.72,-0.72,-0.65
82.98,2.08,2.77,2.07,2.76,-2.80,-2.99,-2.43,-0.72,-0.73,-0.69
83.81,2.08,2.81,2.08,2.81,-2.80,-3.02,-2.44,-0.72,-0.72,-0.73
84.65,2.08,2.84,2.09,2.86,-2.80,-3.05,-2.46,-0.73,-0.72,-0.77
85.50,2.08,2.89,2.06,2.87,-2.81,-3.08,-2.48,-0.73,-0.75,-0.82
86.35,2.03,2.87,2.01,2.85,-2.83,-3.11,-2.50,-0.80,-0.82,-0.85
87.22,1.92,2.80,1.94,2.82,-2.84,-3.14,-2.52,-0.92,-0.90,-0.88
88.09,1.88,2.80,1.89,2.81,-2.86,-3.17,-2.54,-0.98,-0.97,-0.92
88.97,1.88,2.83,1.87,2.83,-2.88,-3.19,-2.57,-1.00,-1.01,-0.95
89.86,1.88,2.88,1.87,2.87,-2.89,-3.22,-2.60,-1.02,-1.02,-1.00
90.76,1.88,2.92,1.88,2.92,-2.91,-3.25,-2.63,-1.04,-1.03,-1.04
91.66,1.88,2.97,1.88,2.97,-2.94,-3.27,-2.66,-1.06,-1.06,-1.09
92.58,1.88,3.00,1.88,3.00,-2.96,-3.30,-2.69,-1.09,-1.09,-1.13
93.51,1.86,3.03,1.86,3.03,-2.99,-3.32,-2.73,-1.13,-1.14,-1.17
94.44,1.82,3.03,1.81,3.02,-3.02,-3.35,-2.76,-1.20,-1.21,-1.22
95.39,1.75,3.02,1.75,3.02,-3.04,-3.37,-2.80,-1.29,-1.29,-1.27
96.34,1.68,3.01,1.70,3.02,-3.07,-3.40,-2.84,-1.39,-1.37,-1.33
97.30,1.67,3.05,1.67,3.05,-3.09,-3.42,-2.89,-1.42,-1.42,-1.38
98.28,1.66,3.10,1.65,3.10,-3.12,-3.44,-2.93,-1.46,-1.46,-1.44
99.26,1.65,3.16,1.65,3.15,-3.14,-3.46,-2.97,-1.49,-1.49,-1.51
100.25,1.63,3.19,1.63,3.19,-3.16,-3.49,-3.02,-1.53,-1.52,-1.57
101.25,1.61,3.22,1.60,3.22,-3.18,-3.51,-3.07,-1.57,-1.57,-1.61
102.27,1.56,3.23,1.55,3.22,-3.19,-3.53,-3.11,-1.63,-1.64,-1.67
103.29,1.48,3.21,1.48,3.20,-3.20,-3.55,-3.16,-1.73,-1.73,-1.73
104.32,1.40,3.17,1.41,3.18,-3.22,-3.57,-3.21,-1.82,-1.81,-1.78
105.37,1.34,3.17,1.35,3.19,-3.23,-3.59,-3.26,-1.89,-1.88,-1.83
106.42,1.32,3.21,1.31,3.21,-3.24,-3.60,-3.31,-1.92,-1.92,-1.89
107.48,1.30,3.26,1.29,3.24,-3.25,-3.62,-3.36,-1.95,-1.96,-1.96
108.56,1.27,3.27,1.27,3.28,-3.26,-3.64,-3.41,-2.00,-1.99,-2.00
109.64,1.25,3.30,1.26,3.31,-3.28,-3.66,-3.46,-2.03,-2.02,-2.06
110.74,1.23,3.34,1.22,3.33,-3.29,-3.68,-3.50,-2.07,-2.07,-2.11
111.85,1.20,3.36,1.18,3.34,-3.31,-3.69,-3.55,-2.11,-2.13,-2.16
112.97,1.10,3.31,1.11,3.32,-3.32,-3.71,-3.60,-2.22,-2.21,-2.21
114.10,1.05,3.30,1.05,3.31,-3.34,-3.72,-3.64,-2.29,-2.29,-2.25
115.24,1.00,3.31,1.01,3.32,-3.36,-3.74,-3.68,-2.36,-2.35,-2.31
116.39,1.00,3.36,1.00,3.36,-3.38,-3.76,-3.72,-2.38,-2.38,-2.37
117.55,1.00,3.40,1.00,3.41,-3.41,-3.77,-3.76,-2.42,-2.42,-2.40
118.73,1.01,3.46,1.00,3.45,-3.45,-3.79,-3.79,-2.44,-2.45,-2.46
119.92,1.01,3.50,1.01,3.50,-3.49,-3.80,-3.82,-2.48,-2.48,-2.49
121.12,1.02,3.53,1.02,3.55,-3.53,-3.82,-3.85,-2.51,-2.50,-2.51
122.33,1.03,3.59,1.03,3.58,-3.56,-3.83,-3.88,-2.53,-2.53,-2.56
123.55,1.04,3.63,1.02,3.61,-3.58,-3.84,-3.90,-2.54,-2.56,-2.59
124.79,0.99,3.61,0.99,3.62,-3.60,-3.86,-3.92,-2.61,-2.61,-2.62
126.03,0.95,3.61,0.94,3.61,-3.61,-3.87,-3.94,-2.67,-2.67,-2.67
127.29,0.89,3.59,0.90,3.60,-3.63,-3.89,-3.95,-2.74,-2.73,-2.71
128.57,0.86,3.61,0.87,3.62,-3.65,-3.90,-3.96,-2.79,-2.78,-2.75
129.85,0.87,3.66,0.86,3.65,-3.67,-3.91,-3.96,-2.80,-2.81,-2.79
131.15,0.87,3.69,0.87,3.69,-3.70,-3.93,-3.97,-2.83,-2.84,-2.83
132.46,0.88,3.74,0.88,3.74,-3.74,-3.94,-3.97,-2.86,-2.86,-2.86
133.79,0.88,3.78,0.88,3.78,-3.78,-3.95,-3.97,-2.90,-2.90,-2.90
135.12,0.89,3.83,0.89,3.82,-3.81,-3.97,-3.96,-2.92,-2.92,-2.94
136.48,0.89,3.85,0.89,3.86,-3.84,-3.98,-3.96,-2.95,-2.95,-2.96
137.84,0.89,3.89,0.88,3.89,-3.86,-3.99,-3.95,-2.97,-2.98,-3.00
139.22,0.86,3.91,0.85,3.90,-3.87,-4.01,-3.94,-3.02,-3.02,-3.05
140.61,0.81,3.89,0.81,3.89,-3.88,-4.02,-3.93,-3.07,-3.07,-3.08
142.02,0.76,3.88,0.76,3.88,-3.89,-4.03,-3.92,-3.13,-3.13,-3.12
143.44,0.71,3.87,0.72,3.87,-3.90,-4.05,-3.91,-3.19,-3.18,-3.16
144.87,0.69,3.88,0.69,3.89,-3.91,-4.06,-3.90,-3.22,-3.22,-3.19
146.32,0.69,3.91,0.68,3.91,-3.93,-4.07,-3.88,-3.24,-3.25,-3.22
147.78,0.69,3.95,0.69,3.95,-3.96,-4.09,-3.87,-3.27,-3.27,-3.26
149.26,0.69,3.99,0.69,3.99,-3.99,-4.10,-3.86,-3.30,-3.30,-3.30
150.75,0.69,4.04,0.69,4.03,-4.02,-4.12,-3.85,-3.34,-3.34,-3.35
152.26,0.69,4.06,0.69,4.07,-4.05,-4.13,-3.84,-3.37,-3.36,-3.37
153.78,0.69,4.10,0.69,4.10,-4.08,-4.15,-3.84,-3.39,-3.39,-3.41
155.32,0.69,4.13,0.68,4.13,-4.10,-4.16,-3.83,-3.41,-3.42,-3.45
156.88,0.65,4.14,0.64,4.13,-4.11,-4.17,-3.83,-3.46,-3.47,-3.49
158.44,0.60,4.13,0.59,4.12,-4.12,-4.19,-3.83,-3.53,-3.53,-3.53
160.03,0.52,4.09,0.54,4.11,-4.14,-4.20,-3.83,-3.62,-3.60,-3.58
161.63,0.50,4.12,0.50,4.12,-4.15,-4.22,-3.83,-3.65,-3.65,-3.62
163.24,0.49,4.16,0.48,4.15,-4.17,-4.24,-3.83,-3.68,-3.69,-3.67
164.88,0.49,4.20,0.48,4.19,-4.20,-4.25,-3.84,-3.71,-3.71,-3.71
166.53,0.48,4.23,0.48,4.23,-4.23,-4.27,-3.85,-3.75,-3.75,-3.76
168.19,0.48,4.27,0.48,4.27,-4.27,-4.28,-3.87,-3.79,-3.80,-3.79
169.87,0.47,4.31,0.47,4.31,-4.31,-4.30,-3.88,-3.84,-3.84,-3.84
171.57,0.46,4.35,0.46,4.35,-4.35,-4.32,-3.90,-3.89,-3.89,-3.89
173.29,0.46,4.39,0.46,4.39,-4.38,-4.33,-3.92,-3.92,-3.92,-3.94
175.02,0.45,4.42,0.45,4.42,-4.40,-4.35,-3.95,-3.95,-3.95,-3.97
176.77,0.45,4.46,0.42,4.44,-4.42,-4.37,-3.98,-3.97,-4.00,-4.02
178.54,0.37,4.43,0.39,4.45,-4.43,-4.39,-4.01,-4.06,-4.04,-4.06
180.32,0.35,4.45,0.35,4.44,-4.45,-4.40,-4.04,-4.10,-4.10,-4.10
182.13,0.32,4.45,0.30,4.44,-4.46,-4.42,-4.08,-4.14,-4.16,-4.13
183.95,0.27,4.43,0.29,4.46,-4.48,-4.44,-4.12,-4.21,-4.19,-4.17
185.79,0.28,4.49,0.28,4.48,-4.50,-4.46,-4.16,-4.22,-4.22,-4.21
187.65,0.29,4.53,0.29,4.53,-4.53,-4.48,-4.21,-4.24,-4.25,-4.24
189.52,0.31,4.59,0.30,4.58,-4.57,-4.50,-4.26,-4.26,-4.27,-4.28
191.42,0.32,4.62,0.32,4.62,-4.62,-4.52,-4.31,-4.30,-4.30,-4.30
193.33,0.33,4.66,0.33,4.67,-4.67,-4.54,-4.36,-4.34,-4.34,-4.34
195.27,0.35,4.72,0.35,4.72,-4.72,-4.56,-4.42,-4.37,-4.38,-4.37
197.22,0.36,4.77,0.36,4.77,-4.77,-4.58,-4.48,-4.41,-4.41,-4.41
199.19,0.38,4.82,0.38,4.82,-4.81,-4.60,-4.54,-4.43,-4.43,-4.44
201.18,0.38,4.85,0.39,4.86,-4.84,-4.62,-4.60,-4.46,-4.45,-4.47
203.19,0.39,4.89,0.38,4.87,-4.86,-4.64,-4.66,-4.47,-4.48,-4.50
205.23,0.36,4.88,0.35,4.88,-4.87,-4.66,-4.73,-4.51,-4.52,-4.52
207.28,0.31,4.86,0.33,4.88,-4.88,-4.68,-4.79,-4.57,-4.55,-4.55
209.35,0.29,4.87,0.29,4.88,-4.88,-4.70,-4.86,-4.59,-4.59,-4.58
211.44,0.28,4.90,0.26,4.88,-4.88,-4.72,-4.93,-4.60,-4.62,-4.62
213.56,0.23,4.87,0.23,4.87,-4.88,-4.74,-4.99,-4.65,-4.65,-4.64
215.69,0.19,4.86,0.20,4.87,-4.88,-4.77,-5.06,-4.69,-4.69,-4.67
217.85,0.17,4.86,0.17,4.87,-4.89,-4.79,-5.13,-4.72,-4.72,-4.70
220.03,0.17,4.91,0.17,4.90,-4.90,-4.81,-5.19,-4.74,-4.74,-4.74
222.23,0.17,4.93,0.17,4.93,-4.92,-4.83,-5.25,-4.75,-4.76,-4.76
224.45,0.17,4.95,0.17,4.95,-4.94,-4.85,-5.31,-4.78,-4.78,-4.78
226.70,0.17,4.97,0.17,4.96,-4.97,-4.87,-5.37,-4.80,-4.80,-4.80
228.96,0.17,4.98,0.17,4.98,-4.99,-4.89,-5.42,-4.82,-4.82,-4.81
231.25,0.18,5.00,0.18,5.00,-5.00,-4.91,-5.47,-4.83,-4.83,-4.82
233.57,0.19,5.03,0.19,5.03,-5.02,-4.93,-5.52,-4.83,-4.82,-4.84
235.90,0.20,5.05,0.19,5.04,-5.03,-4.95,-5.56,-4.83,-4.83,-4.85
238.26,0.20,5.06,0.18,5.03,-5.03,-4.96,-5.59,-4.83,-4.85,-4.86
240.64,0.15,5.00,0.17,5.02,-5.03,-4.98,-5.62,-4.88,-4.86,-4.85
243.05,0.15,5.00,0.16,5.02,-5.02,-4.99,-5.65,-4.88,-4.86,-4.86
245.48,0.17,5.03,0.16,5.02,-5.02,-5.00,-5.66,-4.85,-4.86,-4.86
247.93,0.18,5.05,0.15,5.02,-5.01,-5.02,-5.68,-4.83,-4.86,-4.87
250.41,0.12,4.98,0.14,5.01,-5.01,-5.03,-5.68,-4.89,-4.87,-4.86
252.92,0.13,4.98,0.13,5.00,-5.01,-5.04,-5.68,-4.88,-4.88,-4.86
255.45,0.14,5.01,0.13,5.00,-5.01,-5.04,-5.67,-4.87,-4.88,-4.87
258.00,0.15,5.02,0.15,5.02,-5.02,-5.05,-5.66,-4.87,-4.87,-4.87
260.58,0.15,5.02,0.15,5.03,-5.03,-5.05,-5.64,-4.88,-4.88,-4.88
263.19,0.16,5.04,0.15,5.04,-5.04,-5.06,-5.61,-4.88,-4.88,-4.88
265.82,0.15,5.05,0.15,5.05,-5.04,-5.06,-5.58,-4.90,-4.89,-4.90
268.48,0.15,5.05,0.15,5.06,-5.05,-5.06,-5.55,-4.90,-4.89,-4.90
271.16,0.15,5.07,0.15,5.06,-5.05,-5.06,-5.50,-4.90,-4.90,-4.92
273.87,0.14,5.06,0.13,5.06,-5.04,-5.05,-5.46,-4.90,-4.91,-4.92
276.61,0.11,5.05,0.10,5.04,-5.04,-5.05,-5.41,-4.93,-4.94,-4.94
279.38,0.05,5.01,0.07,5.02,-5.03,-5.04,-5.36,-4.98,-4.97,-4.96
282.17,0.04,5.00,0.04,5.01,-5.03,-5.04,-5.31,-4.99,-4.99,-4.96
284.99,0.05,5.01,0.04,5.01,-5.03,-5.03,-5.25,-4.98,-4.99,-4.96
287.84,0.06,5.02,0.06,5.02,-5.03,-5.02,-5.19,-4.97,-4.98,-4.96
290.72,0.07,5.04,0.07,5.03,-5.04,-5.01,-5.13,-4.97,-4.97,-4.97
293.63,0.08,5.04,0.08,5.05,-5.04,-5.00,-5.07,-4.96,-4.95,-4.97
296.57,0.09,5.05,0.09,5.06,-5.04,-4.99,-5.01,-4.95,-4.94,-4.96
299.53,0.11,5.07,0.09,5.05,-5.03,-4.98,-4.95,-4.92,-4.94,-4.96
302.53,0.08,5.04,0.08,5.04,-5.02,-4.97,-4.90,-4.94,-4.94,-4.96
305.55,0.04,5.00,0.06,5.01,-5.01,-4.96,-4.84,-4.97,-4.95,-4.96
308.61,0.04,4.99,0.02,4.98,-4.99,-4.95,-4.78,-4.95,-4.97,-4.95
311.69,-0.01,4.96,-0.01,4.95,-4.97,-4.93,-4.72,-4.98,-4.98,-4.97
314.81,-0.04,4.92,-0.03,4.93,-4.95,-4.92,-4.67,-4.99,-4.98,-4.96
317.96,-0.05,4.92,-0.05,4.92,-4.93,-4.91,-4.62,-4.98,-4.98,-4.97
321.14,-0.05,4.91,-0.05,4.91,-4.92,-4.90,-4.57,-4.97,-4.98,-4.97
324.35,-0.05,4.92,-0.05,4.91,-4.92,-4.88,-4.52,-4.97,-4.97,-4.97
327.59,-0.05,4.91,-0.05,4.91,-4.91,-4.87,-4.48,-4.97,-4.97,-4.96
330.87,-0.05,4.91,-0.05,4.91,-4.91,-4.86,-4.44,-4.96,-4.97,-4.96
334.18,-0.06,4.91,-0.06,4.91,-4.90,-4.85,-4.40,-4.96,-4.96,-4.98
337.52,-0.06,4.91,-0.06,4.92,-4.89,-4.83,-4.36,-4.95,-4.95,-4.97
340.90,-0.06,4.91,-0.07,4.90,-4.88,-4.82,-4.33,-4.94,-4.95,-4.97
344.30,-0.08,4.88,-0.10,4.87,-4.86,-4.81,-4.30,-4.94,-4.96,-4.96
347.75,-0.14,4.81,-0.13,4.83,-4.85,-4.80,-4.27,-4.99,-4.97,-4.96
351.23,-0.16,4.81,-0.15,4.80,-4.83,-4.78,-4.25,-5.00,-4.99,-4.97
354.74,-0.16,4.79,-0.16,4.79,-4.82,-4.77,-4.23,-4.98,-4.98,-4.95
358.28,-0.15,4.80,-0.16,4.79,-4.81,-4.76,-4.21,-4.96,-4.96,-4.95
361.87,-0.15,4.79,-0.14,4.80,-4.79,-4.75,-4.20,-4.94,-4.93,-4.94
365.49,-0.14,4.79,-0.14,4.80,-4.77,-4.74,-4.19,-4.91,-4.91,-4.93
369.14,-0.13,4.79,-0.14,4.78,-4.74,-4.72,-4.18,-4.88,-4.89,-4.93
372.83,-0.17,4.75,-0.17,4.75,-4.72,-4.71,-4.18,-4.89,-4.89,-4.92
376.56,-0.21,4.71,-0.22,4.70,-4.70,-4.70,-4.18,-4.91,-4.92,-4.92
380.33,-0.28,4.64,-0.27,4.65,-4.68,-4.69,-4.18,-4.96,-4.94,-4.92
384.13,-0.30,4.61,-0.30,4.62,-4.66,-4.68,-4.18,-4.96,-4.95,-4.91
387.97,-0.30,4.61,-0.31,4.61,-4.64,-4.66,-4.19,-4.94,-4.94,-4.91
391.85,-0.30,4.61,-0.30,4.62,-4.62,-4.65,-4.20,-4.93,-4.92,-4.91
395.77,-0.29,4.63,-0.30,4.62,-4.61,-4.64,-4.21,-4.90,-4.91,-4.93
399.73,-0.30,4.63,-0.29,4.63,-4.60,-4.63,-4.23,-4.91,-4.90,-4.93
403.72,-0.30,4.62,-0.30,4.63,-4.60,-4.62,-4.25,-4.90,-4.90,-4.92
407.76,-0.30,4.64,-0.33,4.60,-4.59,-4.60,-4.26,-4.89,-4.92,-4.94
411.84,-0.37,4.57,-0.36,4.58,-4.58,-4.59,-4.28,-4.96,-4.95,-4.94
415.96,-0.41,4.53,-0.39,4.56,-4.57,-4.58,-4.31,-4.98,-4.97,-4.94
420.12,-0.40,4.55,-0.41,4.54,-4.56,-4.56,-4.33,-4.96,-4.97,-4.95
424.32,-0.40,4.54,-0.40,4.53,-4.54,-4.55,-4.35,-4.95,-4.95,-4.94
428.56,-0.39,4.53,-0.39,4.54,-4.53,-4.54,-4.38,-4.92,-4.92,-4.92
432.85,-0.38,4.52,-0.38,4.53,-4.51,-4.52,-4.40,-4.89,-4.89,-4.90
437.18,-0.35,4.54,-0.37,4.52,-4.50,-4.51,-4.42,-4.85,-4.87,-4.90
441.55,-0.36,4.49,-0.36,4.50,-4.49,-4.50,-4.45,-4.86,-4.86,-4.86
445.96,-0.36,4.46,-0.35,4.47,-4.49,-4.48,-4.47,-4.85,-4.83,-4.82
450.42,-0.32,4.46,-0.32,4.46,-4.48,-4.47,-4.49,-4.80,-4.80,-4.78
454.93,-0.26,4.47,-0.27,4.46,-4.48,-4.45,-4.51,-4.74,-4.75,-4.73
459.48,-0.20,4.47,-0.20,4.46,-4.47,-4.44,-4.53,-4.67,-4.68,-4.67
464.07,-0.14,4.46,-0.14,4.47,-4.46,-4.42,-4.54,-4.60,-4.60,-4.60
468.71,-0.08,4.47,-0.07,4.47,-4.45,-4.41,-4.56,-4.53,-4.52,-4.55
473.40,-0.02,4.47,-0.02,4.46,-4.43,-4.39,-4.57,-4.45,-4.45,-4.49
478.13,0.02,4.45,0.00,4.44,-4.40,-4.37,-4.57,-4.38,-4.40,-4.43
482.91,-0.00,4.38,0.00,4.39,-4.37,-4.36,-4.58,-4.38,-4.37,-4.38
487.74,-0.02,4.32,-0.02,4.32,-4.34,-4.34,-4.58,-4.37,-4.36,-4.34
