frequency,raw,error,smoothed,error_smoothed,equalization,equalized_raw,equalized_smoothed,target
20,-14.072516434345154,-14.088995596739343,-14.056380163734731,-14.07284495025918,5.999999999999999,-8.072516434345154,-8.056380163734733,0.016479162394188673
21,-13.379494755982702,-13.397140842452,-13.405751793056147,-13.423399510672356,6.0,-7.3794947559827015,-7.405751793056147,0.017646086469297995
22,-12.78392614396379,-12.80268871495636,-12.785054885445273,-12.80382851344568,5.999999999999999,-6.78392614396379,-6.785054885445274,0.01876257099257117
23,-12.195393251191586,-12.215220460926728,-12.194289440902107,-12.214131958579154,6.000000000000002,-6.195393251191584,-6.194289440902105,0.01982720973514196
24,-11.657795020018543,-11.67863336356633,-11.633455459426632,-11.654309846072769,5.999999999999997,-5.657795020018546,-5.633455459426634,0.020838343547786575
25,-11.051585084370759,-11.073379113285474,-11.104679755543359,-11.126491055595203,6.0,-5.051585084370759,-5.1046797555433585,0.02179402891471538
26,-10.5633265890662,-10.586018593276178,-10.605473692103654,-10.62818506299686,6.0,-4.5633265890662,-4.605473692103654,0.022692004209976968
27,-10.087080944439093,-10.110615091986096,-10.133530538969538,-10.157082945780804,6.0,-4.0870809444390925,-4.133530538969538,0.023534147547003226
28,-9.788678428666184,-9.812991903634117,-9.685621775504632,-9.709952346342723,6.000000000000001,-3.7886784286661834,-3.6856217755046314,0.02431347496793279
29,-9.310927977105822,-9.335952696450596,-9.257981355447482,-9.283021565483619,6.000000000000001,-3.3109279771058207,-3.2579813554474812,0.02502471934477457
30,-8.854904202520002,-8.880565455990965,-8.847593582098467,-8.87326812609883,6.0,-2.854904202520002,-2.847593582098467,0.025661253470963263
31,-8.418292994606553,-8.444508054166725,-8.452102366735733,-8.478327795638005,5.999999999999997,-2.4182929946065554,-2.452102366735736,0.026215059560172893
32,-8.000261896713683,-8.026938705655818,-8.070234876574194,-8.09691858676747,6.0,-2.000261896713683,-2.070234876574194,0.0266768089421352
33,-7.723688662089805,-7.750724727463442,-7.701842034260291,-7.728881513087046,6.0,-1.7236886620898053,-1.7018420342602907,0.027036065373637452
34,-7.418791011837289,-7.446073397829492,-7.347656074710832,-7.374938349330307,5.999999999999997,-1.4187910118372917,-1.3476560747108346,0.027282385992203118
35,-7.074107589454501,-7.101512381749138,-7.009031496664198,-7.036432897866273,6.000000000000002,-1.0741075894544991,-1.0090314966641962,0.02740479229463677
36,-6.662318004241923,-6.689710331555818,-6.687495499716936,-6.71488167948378,6.000000000000001,-0.6623180042419223,-0.6874954997169347,0.02739232731389496
37,-6.316616578391127,-6.343850929996927,-6.384285363565377,-6.411511562342596,5.953585236500403,-0.36303134189072406,-0.4307001270649744,0.02723435160580001
38,-6.041375136845911,-6.068295914660914,-6.099952725474151,-6.126864258976379,5.856807354064535,-0.1845677827813761,-0.24314537140961612,0.026920777815003127
39,-5.798801775208628,-5.825243993337789,-5.83410735260277,-5.860540252920033,5.713776496568077,-0.08502527864055143,-0.12033085603469296,0.026442218129161255
40,-5.614721223252898,-5.640511252847101,-5.58539666811901,-5.611178415327352,5.543031265751585,-0.07168995750131302,-0.04236540236742492,0.0257900295942024
41,-5.431663731997043,-5.456620120004257,-5.351717449100074,-5.376667710492029,5.356195157152314,-0.07546857484472902,0.004477708052239571,0.024956388007214336
42,-5.122683677414239,-5.1466178629781005,-5.1305959681190565,-5.15452725714275,5.15452725714275,0.03184357972851082,0.023931289023693125,0.023934185563861288
43,-4.886071580557349,-4.908788438078563,-4.919616025655717,-4.942334193269049,4.942334193269049,0.0562626127117003,0.02271816761333234,0.02271685752121444
44,-4.740141839208286,-4.761439964260298,-4.716756165130261,-4.738060638178403,4.7380606381784025,-0.00208120102988385,0.02130447304814176,0.02129812505201123
45,-4.502967862409095,-4.522639524119256,-4.520542926978294,-4.540226616988566,4.540226616988564,0.0372587545794687,0.019683690010269927,0.019671661710161104
46,-4.345168172540944,-4.362998864367494,-4.330002025513737,-4.347850842828537,4.347850842828539,0.002682670287594391,0.01784881731480148,0.017830691826550282
47,-4.1409061480948886,-4.1566736777110815,-4.144470423241128,-4.160262346135059,4.160262346135058,0.019356198040169303,0.015791922893930277,0.015767529616192544
48,-3.998592744028536,-4.0120658354147745,-3.9633837356040424,-3.976887401684279,3.9768874016842792,-0.021705342344256806,0.013503666080236787,0.013473091386238423
49,-3.745338799973018,-3.7562751921516577,-3.786151650920985,-3.7971244572688287,3.7971244572688283,0.05178565729581042,0.010972806347843367,0.010936392178639842
50,-3.582243952618426,-3.590388001523338,-3.6121837090341837,-3.6203694276936114,3.6203694276936105,0.03812547507518449,0.008185718659426744,0.008144048904911827
51,-3.448088480788539,-3.453168291662243,-3.44105315468083,-3.4461790901435707,3.44617909014357,-0.0019093906449692,0.005125935462739761,0.005079810873704016
52,-3.388004251637331,-3.389728389353814,-3.2727209415636436,-3.2744946758394304,3.274494675839431,-0.11350957579790011,0.0017737342757873087,0.001724137716482943
53,-3.072748996437231,-3.0708028388028166,-3.1077120836656302,-3.1058178715390428,3.1058178715390437,0.033068875101812445,-0.0018942121265865808,-0.0019461576344146359
54,-2.8834169588885854,-2.8774587716309847,-2.947152661612864,-2.9412475529761393,2.94124755297614,0.057830594087554754,-0.005905108636723888,-0.005958187257600667
55,-2.871231248522143,-2.8608880725976196,-2.792630597197416,-2.78234037433629,2.7823403743362904,-0.08889087418585273,-0.010290222861125464,-0.010343175924523607
56,-2.6059180752103783,-2.59078152431189,-2.6459121873228355,-2.630827212318481,2.6308272123184815,0.024909137108103163,-0.015084975004354018,-0.015136550898488199
57,-2.535661257401788,-2.5152833267973356,-2.508599224557731,-2.4882702953412683,2.488270295341268,-0.04739096206052018,-0.02032892921646301,-0.020377930604452477
58,-2.2467199057337175,-2.220608892753624,-2.3818277179385268,-2.3557620310051206,2.3557620310051215,0.109042125271404,-0.026065686933405274,-0.026111012980093662
59,-2.3759642438608344,-2.3435808757701935,-2.266086912180334,-2.2337442257419813,2.2337442257419817,-0.14222001811885265,-0.03234268643835225,-0.03238336809064091
60,-2.068760547889018,-2.029514404938059,-2.1611883328650365,-2.121977416683962,2.1219774166839622,0.05321686879494436,-0.03921091618107431,-0.03924614295095896
61,-2.214915640854083,-2.1681619513919843,-2.066360704464176,-2.01963615230725,2.0196361523072506,-0.19527948854683252,-0.04672455215692528,-0.04675368946209879
62,-1.8529687131115928,-1.7980055846692775,-1.9804105868208661,-1.9254700550721342,1.925470055072134,0.07250134196054114,-0.054940531748732147,-0.05496312844231532
63,-1.9346912272507673,-1.8707573631505434,-1.901884448893937,-1.8379663710931124,1.8379663710931127,-0.09672485615765458,-0.06391807780082437,-0.06393386410022384
64,-1.8365048228393899,-1.7627777589800149,-1.8291925223476349,-1.7554743350891702,1.7554743350891706,-0.08103048775021926,-0.07371818725846424,-0.073727063859375
65,-1.7387971835131995,-1.6543920652887014,-1.760691706850128,-1.676288608133064,1.6762886081330637,-0.06250857538013577,-0.0844030987170643,-0.08440511822449803
66,-1.7409948538220503,-1.6449637593869177,-1.694755373973846,-1.5987196219158075,1.5987196219158077,-0.14227523190624258,-0.09603575205803816,-0.09603109443513258
67,-1.5434820593175058,-1.4348138632359702,-1.6298701956100725,-1.5211909437680768,1.5211909437680766,-0.022291115549429197,-0.1086792518419959,-0.10866819608153566
68,-1.6744431923392262,-1.5520639535188316,-1.5647879803658271,-1.4423916353549329,1.442391635354933,-0.23205155698429314,-0.12239634501089403,-0.12237923882039459
69,-1.4736422847030202,-1.3364161347438444,-1.4987288799509528,-1.3614799583401238,1.3614799583401236,-0.11216232636289658,-0.13724892161082924,-0.1372261499591758
70,-1.419515263606429,-1.2662457664572633,-1.4315942397552597,-1.2782966964409161,1.2782966964409161,-0.14121856716551284,-0.15329754331434353,-0.1532694971491657
71,-1.4060376263011223,-1.2354695773989135,-1.3641180896961353,-1.1935170900022598,1.19351709000226,-0.21252053629886225,-0.17060099969387532,-0.17056804890220878
72,-1.3034719216697768,-1.1142935543920014,-1.297877380444214,-1.108661490184435,1.108661490184435,-0.19481043148534183,-0.18921589025977914,-0.18917836727777537
73,-1.2056553619483734,-0.9965009309426736,-1.2350989102400267,-1.0259026752932643,1.0259026752932643,-0.17975268665510913,-0.20919623494676243,-0.20915443100569986
74,-1.1605106535169616,-0.9299633679002064,-1.1782482205197469,-0.9476551013234557,0.9476551013234559,-0.21285555219350571,-0.230593119196291,-0.2305472856167552
75,-1.1498056054420431,-0.8964008895223172,-1.1294566479982429,-0.8760022656297424,0.8760022656297421,-0.273803339812301,-0.2534543823685007,-0.2534047159197259
76,-1.1330483865317358,-0.8552774511069912,-1.0899164721808399,-0.8120921223533875,0.8120921223533875,-0.3209562641783483,-0.2778243498274524,-0.2777709354247446
77,-0.9169838103503264,-0.6132975232803889,-1.059422893584302,-0.7556793201635565,0.7556793201635568,-0.16130449018676962,-0.3037435734207452,-0.3036862870699375
78,-1.0343447065746345,-0.7031577567413019,-1.0362376960798405,-0.7049892026512046,0.7049892026512045,-0.32935550392343005,-0.33124849342863605,-0.33118694983333263
79,-1.0296010880146584,-0.66929644156415,-1.0173781535092523,-0.6570072259023347,0.6570072259023348,-0.3725938621123236,-0.36037092760691747,-0.3603046464505084
80,-1.0211228374205412,-0.6300564889818709,-0.9993062750014006,-0.6081688727316307,0.6081688727316307,-0.41295396468891055,-0.3911374022697699,-0.3910663484386703
81,-1.0075487811425357,-0.5840548052766608,-0.9788468624015507,-0.5552782906536262,0.5552782906536263,-0.4522704904889093,-0.4235685717479244,-0.4234939758658749
82,-0.9890187921303788,-0.531414701417408,-0.954057295512647,-0.49637810760884493,0.49637810760884504,-0.49264068452153376,-0.4576791879038019,-0.4576040907129708
83,-0.9671726241497114,-0.47376503997881936,-0.92475852232702,-0.43127943944141833,0.43127943944141844,-0.535893184708293,-0.4934790828856016,-0.49340758417089203
84,-0.9445692795232868,-0.4136599198021008,-0.8925321830919588,-0.3615570224385207,0.3615570224385207,-0.5830122570847661,-0.5309751606534381,-0.530909359721186
85,-0.8484940830540946,-0.2783860677551482,-0.8601662422726086,-0.2899928642318341,0.2899928642318341,-0.5585012188222604,-0.5701733780407745,-0.5701080152989464
86,-0.7689032439440054,-0.1579077147593818,-0.8307247702964782,-0.21964624097746532,0.21964624097746527,-0.5492570029665402,-0.6110785293190129,-0.6109955291846236
87,-0.691783931369579,-0.03822697589077717,-0.8065495816898025,-0.15286033629652718,0.15286033629652718,-0.5389235950730519,-0.6536892453932753,-0.6535569554788019
88,-0.6984991297827864,-0.0007289937240765321,-0.7885197645561248,-0.09053279199251069,0.09053279199251069,-0.6079663377902758,-0.6979869725636141,-0.6977701360587099
89,-0.9137596686397509,-0.17015423185585155,-0.7757961124561608,-0.03187498034318624,0.03187498034318625,-0.8818846882965646,-0.7439211321129745,-0.7436054367838993
90,-0.8114676624385528,-0.020442146034342468,-0.7661072364690524,0.025289983431090513,-0.025289983431090513,-0.8367576458696433,-0.7913972199001429,-0.7910255164042104
91,-0.7538742171408515,0.08611091998040687,-0.7564617770742768,0.08381630332976653,-0.08381630332976653,-0.837690520470618,-0.8402780804040433,-0.8399851371212583
92,-0.7417887504939255,0.14864227556563125,-0.7440577071422495,0.14635029131628075,-0.14635029131628072,-0.8881390418102062,-0.8904079984585302,-0.8904310260595567
93,-0.727482752988019,0.21481904401692709,-0.7271339700733024,0.2145285688638162,-0.21452856886381622,-0.9420113218518352,-0.9416625389371186,-0.9423017970049461
94,-0.7111359107488837,0.284392030901792,-0.7055580014936202,0.28845697351162064,-0.2884569735116207,-0.9995928842605044,-0.9940149750052409,-0.9955279416506757
95,-0.6934611090165684,0.35657079021656635,-0.6810269828352817,0.3665700141714509,-0.3665700141714509,-1.0600311231880193,-1.0475969970067327,-1.0500318992331348
96,-0.6757397723784175,0.42998844043502715,-0.6568451642367108,0.4458785815126258,-0.44587858151262577,-1.1216183538910434,-1.1027237457493366,-1.1057282128134447
97,-0.6596593657234294,0.5028644138151298,-0.6373095184192754,0.5225474497852907,-0.5225474497852904,-1.18220681550872,-1.1598569682045659,-1.1625237795385592
98,-0.6468988845132304,0.5734193164557744,-0.6267971688878948,0.5927000876625279,-0.5927000876625279,-1.2395989721757583,-1.2194972565504227,-1.2203182009690048
99,-0.5823299533393196,0.696674284629744,-0.6287107234346596,0.6533122501119529,-0.6533122501119528,-1.2356422034512724,-1.2820229735466124,-1.2790042379690636
100,-0.49408313967742834,0.8443852330320596,-0.6445005210552672,0.7030192394934549,-0.7030192394934551,-1.1971023791708835,-1.3475197605487224,-1.338468372709488
101,-0.6709924643947829,0.7275990136448665,-0.673023698340436,0.7426349182203664,-0.7426349182203666,-1.4136273826151495,-1.4156586165608025,-1.3985914780396493
102,-0.7374822368353152,0.7217673550378368,-0.7104794960777333,0.7751945444099279,-0.7751945444099277,-1.512676781245243,-1.4856740404876612,-1.459249591873152
104,-0.7396120358403037,0.842667380671085,-0.751048713172018,0.8054175035805267,-0.8054175035805266,-1.5450295394208302,-1.5564662167525447,-1.5822794165113887
105,-0.7403106292562565,0.9033910345918841,-0.788170194829936,0.8386408610313294,-0.8386408610313294,-1.5789514902875859,-1.6268110558612654,-1.6437016638481405
106,-0.9512863525475381,0.7538583834534667,-0.8161637774095156,0.8794596818860064,-0.8794596818860063,-1.8307460344335444,-1.695623459295522,-1.7051447360010048
107,-0.9457327936143636,0.8207447630934106,-0.8317433380275697,0.9304540470326341,-0.9304540470326342,-1.876186840646998,-1.762197385060204,-1.7664775567077742
108,-0.8306738971426817,0.9968963140972777,-0.8349372661964278,0.9914131109099563,-0.991413110909956,-1.8220870080526377,-1.8263503771063838,-1.8275702112399594
109,-0.8250571124555095,1.0632379483706744,-0.8290848210933532,1.0593445227004554,-1.0593445227004556,-1.8844016351559651,-1.888429343793809,-1.888295060826184
110,-0.8195576237877008,1.1289702295989028,-0.8198721740826593,1.12930590966378,-1.12930590966378,-1.948863533451481,-1.9491780837464394,-1.9485278533866035
111,-0.8144120085395037,1.1937368002429634,-0.8137055537785693,1.195804147282733,-1.1958041472827332,-2.0102161558222367,-2.0095097010613028,-2.008148808782467
112,-0.7860749213108579,1.2809687346646141,-0.8159555180345636,1.2542985014071102,-1.2542985014071104,-2.0403734227179684,-2.070254019441674,-2.067043655975472
113,-0.6649464316167655,1.4601581678215934,-0.8296431260020158,1.3023096853344094,-1.302309685334409,-1.9672561169511744,-2.131952811336425,-2.125104599438359
114,-0.734195364469497,1.4480358284623227,-0.8549556012719921,1.3397989400654287,-1.3397989400654287,-2.0739943045349256,-2.1947545413374208,-2.1822311929318197
115,-0.8958163521960323,1.3425147481997923,-0.8896519494101437,1.3687724669058712,-1.3687724669058714,-2.2645888191019035,-2.258424416316015,-2.2383311003958246
117,-1.1333093652189978,1.2147240770768826,-0.9300890269188075,1.392359532985107,-1.3923595329851068,-2.5256688982041045,-2.3224485599039144,-2.3480334422958804
118,-1.130348995225534,1.27036481134945,-0.9724085837571794,1.4137773372288722,-1.4137773372288716,-2.5441263324544057,-2.386185920986051,-2.400713806574984
119,-1.004396609530761,1.447701308807135,-1.0134508286958148,1.4355644418159517,-1.4355644418159512,-2.439961051346712,-2.449015270511766,-2.452097918337896
120,-0.9860722350673163,1.516065377965893,-1.0511657120233264,1.4592712927374067,-1.4592712927374067,-2.445343527804723,-2.510437004760733,-2.5021376130332094
121,-0.8972067107759112,1.6535875296230351,-1.0845596438610459,1.4855538988585848,-1.4855538988585848,-2.382760609634496,-2.5701135427196307,-2.5507942403989463
123,-1.0089264680419676,1.6365103789259918,-1.1134049613138215,1.5144521028332905,-1.5144521028332905,-2.5233785708752583,-2.627857064147112,-2.6454368469679594
124,-1.2971535589683227,1.3927884269350932,-1.1379687616391978,1.5456204977469852,-1.5456204977469852,-2.842774056715308,-2.683589259386183,-2.689941985903416
125,-1.3068687032738493,1.4261245369243734,-1.158897836438344,1.5784020098257958,-1.5784020098257958,-2.8852707130996453,-2.73729984626414,-2.7329932401982227
126,-1.1965598868713248,1.578031849626319,-1.1772203639840233,1.6118003685843383,-1.6118003685843378,-2.8083602554556624,-2.7890207325683614,-2.774591736497644
128,-1.1792170538449693,1.6763520565635321,-1.1943109687832643,1.6445068605094133,-1.6445068605094135,-2.8237239143543826,-2.838817829292678,-2.8555691104085015
129,-1.1764711004638133,1.7165157127678652,-1.2116847622346887,1.6751057347762115,-1.6751057347762117,-2.8515768352400253,-2.8867904970109004,-2.8929868132316785
130,-1.1729128493940084,1.7560927199392429,-1.2306167348241086,1.7024482832292032,-1.7024482832292036,-2.875361132623212,-2.933065018053312,-2.9290055693332513
131,-1.1466121667362859,1.8170402277996565,-1.2517332776407346,1.726040966500317,-1.726040966500317,-2.8726531332366028,-2.9777742441410515,-2.9636523945359423
133,-1.1875979305654925,1.8438115828187795,-1.2747908835421853,1.7462354840432184,-1.7462354840432186,-2.933833414608711,-3.021026367585404,-3.031409513384272
134,-1.4501765317922835,1.6120148231831974,-1.2987934929378309,1.7640813700201028,-1.764081370020103,-3.2142579018123865,-3.062874862957934,-3.062191354975481
135,-1.4386402069194604,1.6530838929424785,-1.322435776097783,1.7808680000397072,-1.7808680000397075,-3.219508206959168,-3.1033037761374906,-3.091724099861939
137,-1.3523849461859656,1.7974095191519364,-1.3446877899207879,1.797548883164076,-1.7975488831640756,-3.149933829350041,-3.1422366730848634,-3.149794465337902
138,-1.348690311917179,1.8271448257025769,-1.3652569002464903,1.814310198617806,-1.814310198617806,-3.163000510534985,-3.1795670988642963,-3.1758351376197558
140,-1.3453935379495106,1.8818954321104815,-1.3847214110866908,1.8304771083652285,-1.8304771083652285,-3.1758706463147393,-3.2151985194519193,-3.227288970059992
141,-1.3427564165862624,1.907381519846028,-1.4042907495215142,1.844786748112078,-1.844786748112078,-3.1875431646983405,-3.2490774976335923,-3.2501379364322904
142,-1.4107165368819465,1.8612685224717536,-1.425320389103531,1.8558870601956516,-1.855887060195652,-3.266603597077599,-3.281207449299183,-3.2719850593537
144,-1.4413646372593993,1.8741442210312622,-1.4488078795618393,1.8628317920864794,-1.8628317920864792,-3.3041964293458785,-3.3116396716483187,-3.3155088582906616
145,-1.511718086068613,1.8228465685418682,-1.475078133585653,1.8653704167549772,-1.8653704167549772,-3.3770885028235904,-3.3404485503406303,-3.3345646546104812
147,-1.543864504071042,1.8289443973019375,-1.50375420848978,1.8639498185078047,-1.8639498185078047,-3.4078143225788464,-3.3677040269975844,-3.3728089013729794
148,-1.5445964279192572,1.8447563678745378,-1.5339723012870776,1.8594817941830541,-1.859481794183054,-3.404078222102311,-3.3934540954701315,-3.389352795793795
150,-1.5441062616903405,1.878748665443957,-1.5647086762670523,1.853015460869166,-1.853015460869166,-3.3971217225595067,-3.4177241371362186,-3.4228549271342974
151,-1.542129471364564,1.895014853668194,-1.5950763273081554,1.845454938037327,-1.8454549380373269,-3.3875844094018905,-3.4405312653454825,-3.437144325032758
153,-1.6379551987486445,1.8284481914360424,-1.6245041640765652,1.837400688824712,-1.837400688824712,-3.4753558875733566,-3.4619048529012773,-3.466403390184687
154,-1.6466166604972166,1.8320545596616433,-1.6527863376504246,1.8291158755729877,-1.8291158755729877,-3.475732536070204,-3.481902213223412,-3.47867122015886
