frequency,raw,smoothed,error,error_smoothed,equalization,parametric_eq,fixed_band_eq,equalized_raw,equalized_smoothed,target
20.00,-0.39,-0.38,-7.02,-7.01,5.99,6.38,1.55,5.60,5.60,6.63
20.20,-0.34,-0.35,-6.96,-6.98,5.99,6.31,1.60,5.66,5.65,6.63
20.40,-0.30,-0.30,-6.92,-6.92,6.00,6.24,1.65,5.70,5.70,6.63
20.61,-0.25,-0.23,-6.87,-6.86,6.01,6.16,1.70,5.76,5.77,6.62
20.81,-0.15,-0.15,-6.77,-6.77,6.01,6.09,1.75,5.86,5.86,6.62
21.02,-0.05,-0.05,-6.67,-6.67,6.01,6.01,1.81,5.96,5.96,6.62
21.23,0.05,0.04,-6.57,-6.58,6.01,5.94,1.86,6.06,6.05,6.62
21.44,0.12,0.12,-6.50,-6.50,6.01,5.86,1.92,6.13,6.13,6.62
21.66,0.19,0.19,-6.43,-6.43,6.02,5.79,1.98,6.21,6.21,6.62
21.87,0.26,0.26,-6.36,-6.36,6.03,5.71,2.04,6.29,6.29,6.62
22.09,0.33,0.33,-6.29,-6.29,6.02,5.64,2.10,6.36,6.36,6.62
22.31,0.41,0.41,-6.21,-6.21,6.00,5.56,2.17,6.42,6.42,6.62
22.54,0.50,0.50,-6.12,-6.11,5.97,5.48,2.23,6.47,6.47,6.62
22.76,0.61,0.62,-6.00,-6.00,5.90,5.41,2.30,6.52,6.52,6.62
22.99,0.74,0.74,-5.87,-5.87,5.82,5.33,2.37,6.56,6.56,6.62
23.22,0.89,0.89,-5.72,-5.73,5.72,5.25,2.44,6.61,6.60,6.61
23.45,1.03,1.03,-5.58,-5.58,5.60,5.18,2.51,6.63,6.63,6.61
23.69,1.18,1.18,-5.43,-5.43,5.46,5.10,2.58,6.64,6.65,6.61
23.92,1.32,1.32,-5.29,-5.29,5.33,5.02,2.66,6.65,6.65,6.61
24.16,1.44,1.44,-5.17,-5.17,5.20,4.95,2.73,6.64,6.64,6.61
24.40,1.55,1.55,-5.06,-5.06,5.08,4.87,2.81,6.63,6.63,6.61
24.65,1.65,1.65,-4.96,-4.96,4.97,4.79,2.89,6.62,6.62,6.61
24.89,1.73,1.73,-4.87,-4.87,4.87,4.71,2.96,6.61,6.61,6.61
25.14,1.81,1.82,-4.79,-4.79,4.78,4.63,3.04,6.59,6.60,6.61
25.39,1.90,1.90,-4.70,-4.70,4.69,4.56,3.12,6.59,6.59,6.60
25.65,1.99,1.99,-4.61,-4.61,4.59,4.48,3.20,6.58,6.59,6.60
25.91,2.09,2.09,-4.51,-4.51,4.49,4.40,3.28,6.58,6.59,6.60
26.16,2.20,2.20,-4.40,-4.40,4.39,4.32,3.36,6.59,6.59,6.60
26.43,2.32,2.32,-4.28,-4.28,4.28,4.24,3.44,6.60,6.59,6.60
26.69,2.43,2.43,-4.16,-4.16,4.16,4.16,3.51,6.60,6.60,6.60
26.96,2.55,2.55,-4.04,-4.04,4.05,4.08,3.58,6.60,6.60,6.59
27.23,2.66,2.66,-3.93,-3.93,3.94,4.01,3.66,6.60,6.60,6.59
27.50,2.77,2.77,-3.82,-3.82,3.83,3.93,3.72,6.60,6.60,6.59
27.77,2.86,2.86,-3.73,-3.72,3.73,3.85,3.79,6.59,6.60,6.59
28.05,2.95,2.96,-3.63,-3.63,3.64,3.77,3.85,6.59,6.59,6.59
28.33,3.04,3.04,-3.54,-3.55,3.55,3.69,3.91,6.59,6.59,6.58
28.62,3.12,3.12,-3.46,-3.46,3.46,3.61,3.96,6.59,6.58,6.58
28.90,3.19,3.20,-3.39,-3.38,3.39,3.53,4.00,6.58,6.58,6.58
29.19,3.27,3.27,-3.31,-3.31,3.31,3.45,4.05,6.58,6.58,6.58
29.48,3.34,3.34,-3.23,-3.23,3.23,3.37,4.08,6.57,6.57,6.58
29.78,3.42,3.42,-3.15,-3.16,3.15,3.29,4.11,6.57,6.57,6.57
30.08,3.49,3.49,-3.08,-3.08,3.07,3.21,4.12,6.56,6.56,6.57
30.38,3.57,3.57,-3.00,-2.99,2.98,3.13,4.14,6.55,6.56,6.57
30.68,3.66,3.66,-2.90,-2.91,2.90,3.05,4.14,6.56,6.56,6.56
30.99,3.75,3.75,-2.81,-2.81,2.81,2.97,4.14,6.56,6.56,6.56
31.30,3.84,3.84,-2.72,-2.72,2.72,2.89,4.12,6.56,6.56,6.56
31.61,3.93,3.93,-2.62,-2.63,2.63,2.81,4.11,6.56,6.56,6.56
31.93,4.01,4.01,-2.54,-2.54,2.55,2.73,4.08,6.56,6.56,6.55
32.24,4.09,4.09,-2.46,-2.46,2.47,2.65,4.04,6.56,6.56,6.55
32.57,4.16,4.16,-2.38,-2.39,2.39,2.58,3.99,6.55,6.55,6.55
32.89,4.22,4.22,-2.32,-2.32,2.32,2.50,3.94,6.54,6.55,6.54
33.22,4.28,4.28,-2.26,-2.26,2.26,2.42,3.88,6.54,6.54,6.54
33.55,4.34,4.34,-2.19,-2.19,2.19,2.34,3.82,6.53,6.53,6.53
33.89,4.40,4.40,-2.13,-2.13,2.13,2.26,3.74,6.53,6.53,6.53
34.23,4.46,4.46,-2.06,-2.06,2.06,2.18,3.66,6.52,6.52,6.53
34.57,4.52,4.52,-2.00,-2.00,1.99,2.10,3.58,6.52,6.52,6.52
34.92,4.59,4.59,-1.93,-1.93,1.92,2.02,3.49,6.51,6.51,6.52
35.27,4.66,4.66,-1.85,-1.85,1.85,1.94,3.39,6.51,6.51,6.51
35.62,4.73,4.73,-1.78,-1.77,1.77,1.86,3.29,6.50,6.50,6.51
35.97,4.81,4.81,-1.69,-1.69,1.69,1.78,3.19,6.50,6.50,6.50
36.33,4.89,4.89,-1.60,-1.60,1.61,1.71,3.09,6.50,6.50,6.50
36.70,4.97,4.97,-1.52,-1.52,1.53,1.63,2.98,6.50,6.50,6.49
37.06,5.05,5.05,-1.43,-1.44,1.45,1.55,2.87,6.50,6.50,6.49
37.43,5.12,5.12,-1.36,-1.36,1.37,1.47,2.76,6.49,6.49,6.48
37.81,5.18,5.18,-1.29,-1.29,1.29,1.39,2.64,6.47,6.47,6.47
38.19,5.25,5.25,-1.22,-1.22,1.21,1.32,2.53,6.46,6.46,6.47
38.57,5.31,5.32,-1.15,-1.14,1.14,1.24,2.41,6.45,6.45,6.46
38.95,5.39,5.39,-1.06,-1.06,1.06,1.16,2.29,6.45,6.45,6.45
39.34,5.46,5.46,-0.98,-0.98,0.98,1.09,2.18,6.44,6.44,6.45
39.74,5.54,5.54,-0.90,-0.90,0.90,1.01,2.06,6.44,6.44,6.44
40.14,5.61,5.61,-0.82,-0.82,0.82,0.93,1.94,6.43,6.43,6.43
40.54,5.68,5.68,-0.74,-0.74,0.74,0.86,1.83,6.43,6.43,6.42
40.94,5.75,5.75,-0.66,-0.66,0.67,0.78,1.71,6.42,6.42,6.42
41.35,5.82,5.82,-0.59,-0.59,0.59,0.71,1.60,6.42,6.41,6.41
41.76,5.88,5.88,-0.52,-0.52,0.52,0.63,1.48,6.40,6.40,6.40
42.18,5.94,5.94,-0.45,-0.45,0.45,0.56,1.37,6.39,6.39,6.39
42.60,5.99,6.00,-0.39,-0.39,0.38,0.48,1.25,6.37,6.38,6.38
43.03,6.05,6.05,-0.32,-0.32,0.31,0.41,1.14,6.36,6.36,6.37
43.46,6.11,6.11,-0.25,-0.25,0.25,0.33,1.02,6.36,6.36,6.36
43.90,6.17,6.17,-0.18,-0.18,0.18,0.26,0.91,6.35,6.35,6.35
44.33,6.23,6.23,-0.11,-0.11,0.12,0.19,0.80,6.35,6.35,6.34
44.78,6.28,6.28,-0.05,-0.05,0.06,0.12,0.69,6.34,6.33,6.33
45.23,6.32,6.33,0.00,0.01,-0.01,0.04,0.58,6.32,6.32,6.32
45.68,6.37,6.37,0.07,0.06,-0.07,-0.03,0.47,6.31,6.30,6.30
46.13,6.41,6.41,0.12,0.12,-0.12,-0.10,0.36,6.29,6.29,6.29
46.60,6.46,6.46,0.18,0.18,-0.18,-0.17,0.25,6.28,6.28,6.28
47.06,6.50,6.50,0.24,0.24,-0.24,-0.24,0.15,6.26,6.26,6.27
47.53,6.55,6.55,0.30,0.30,-0.31,-0.31,0.04,6.25,6.25,6.25
48.01,6.60,6.60,0.36,0.36,-0.37,-0.38,-0.06,6.23,6.23,6.24
48.49,6.65,6.65,0.43,0.43,-0.43,-0.45,-0.17,6.22,6.22,6.22
48.97,6.70,6.70,0.49,0.49,-0.49,-0.51,-0.27,6.21,6.21,6.21
49.46,6.75,6.75,0.56,0.56,-0.55,-0.58,-0.38,6.20,6.20,6.19
49.96,6.79,6.79,0.62,0.62,-0.61,-0.65,-0.48,6.18,6.19,6.18
50.46,6.83,6.83,0.67,0.67,-0.66,-0.72,-0.58,6.17,6.17,6.16
50.96,6.86,6.86,0.72,0.72,-0.71,-0.78,-0.68,6.15,6.15,6.14
51.47,6.88,6.89,0.76,0.76,-0.76,-0.85,-0.78,6.12,6.12,6.12
51.99,6.91,6.91,0.81,0.81,-0.81,-0.91,-0.88,6.10,6.10,6.10
52.51,6.94,6.94,0.86,0.86,-0.87,-0.98,-0.98,6.07,6.07,6.09
53.03,6.97,6.98,0.91,0.91,-0.92,-1.04,-1.07,6.05,6.06,6.07
53.56,7.02,7.02,0.98,0.97,-0.98,-1.11,-1.17,6.04,6.04,6.04
54.10,7.06,7.06,1.04,1.04,-1.04,-1.17,-1.26,6.03,6.03,6.02
54.64,7.10,7.10,1.10,1.10,-1.09,-1.23,-1.35,6.01,6.01,6.00
55.18,7.14,7.14,1.16,1.16,-1.15,-1.29,-1.44,5.99,5.99,5.98
55.74,7.17,7.17,1.22,1.22,-1.21,-1.35,-1.53,5.96,5.96,5.96
56.29,7.20,7.20,1.27,1.27,-1.27,-1.42,-1.61,5.93,5.93,5.93
56.86,7.23,7.23,1.32,1.32,-1.33,-1.48,-1.70,5.91,5.90,5.91
57.42,7.25,7.26,1.37,1.37,-1.38,-1.54,-1.78,5.87,5.87,5.88
58.00,7.28,7.29,1.43,1.43,-1.44,-1.60,-1.85,5.84,5.85,5.85
58.58,7.32,7.32,1.49,1.49,-1.49,-1.66,-1.93,5.83,5.82,5.83
59.16,7.35,7.35,1.55,1.55,-1.55,-1.71,-2.00,5.80,5.80,5.80
59.76,7.38,7.38,1.61,1.61,-1.61,-1.77,-2.07,5.77,5.78,5.77
60.35,7.41,7.41,1.67,1.67,-1.66,-1.83,-2.13,5.75,5.75,5.74
60.96,7.43,7.43,1.72,1.72,-1.72,-1.89,-2.19,5.71,5.71,5.71
61.57,7.45,7.45,1.77,1.77,-1.77,-1.94,-2.25,5.68,5.68,5.68
62.18,7.47,7.47,1.83,1.83,-1.83,-2.00,-2.31,5.64,5.64,5.65
62.80,7.49,7.49,1.88,1.88,-1.88,-2.06,-2.36,5.61,5.61,5.61
63.43,7.51,7.51,1.93,1.93,-1.94,-2.11,-2.41,5.58,5.57,5.58
64.07,7.53,7.53,1.99,1.99,-1.99,-2.17,-2.46,5.54,5.54,5.54
64.71,7.55,7.55,2.04,2.05,-2.05,-2.22,-2.50,5.50,5.50,5.51
65.35,7.58,7.58,2.11,2.11,-2.11,-2.28,-2.54,5.47,5.47,5.47
66.01,7.60,7.60,2.17,2.17,-2.17,-2.33,-2.57,5.43,5.43,5.43
66.67,7.62,7.62,2.23,2.23,-2.23,-2.39,-2.61,5.39,5.40,5.39
67.33,7.64,7.64,2.29,2.29,-2.29,-2.44,-2.64,5.36,5.36,5.35
68.01,7.66,7.66,2.35,2.35,-2.34,-2.50,-2.67,5.32,5.31,5.31
68.69,7.67,7.67,2.40,2.40,-2.40,-2.55,-2.70,5.27,5.27,5.27
69.37,7.68,7.68,2.45,2.46,-2.45,-2.60,-2.73,5.23,5.23,5.23
70.07,7.69,7.69,2.51,2.51,-2.51,-2.66,-2.75,5.18,5.18,5.18
70.77,7.70,7.70,2.56,2.56,-2.56,-2.71,-2.78,5.14,5.14,5.14
71.48,7.70,7.70,2.61,2.61,-2.62,-2.76,-2.80,5.09,5.09,5.09
72.19,7.71,7.71,2.67,2.67,-2.67,-2.82,-2.82,5.04,5.04,5.04
72.91,7.72,7.72,2.73,2.72,-2.73,-2.87,-2.85,4.99,4.99,5.00
73.64,7.73,7.73,2.78,2.79,-2.79,-2.92,-2.87,4.94,4.94,4.95
74.38,7.74,7.75,2.84,2.85,-2.85,-2.97,-2.89,4.89,4.90,4.90
75.12,7.76,7.76,2.92,2.91,-2.91,-3.03,-2.92,4.85,4.85,4.85
75.87,7.77,7.77,2.98,2.98,-2.97,-3.08,-2.94,4.80,4.80,4.79
76.63,7.77,7.78,3.03,3.04,-3.03,-3.13,-2.97,4.74,4.74,4.74
77.40,7.78,7.78,3.10,3.09,-3.09,-3.18,-3.00,4.69,4.69,4.69
78.17,7.78,7.78,3.15,3.15,-3.15,-3.24,-3.03,4.63,4.63,4.63
78.95,7.78,7.78,3.21,3.21,-3.21,-3.29,-3.06,4.57,4.58,4.57
79.74,7.78,7.78,3.27,3.26,-3.26,-3.34,-3.09,4.52,4.52,4.52
80.54,7.78,7.78,3.32,3.32,-3.32,-3.39,-3.12,4.46,4.46,4.46
81.35,7.77,7.77,3.37,3.38,-3.38,-3.45,-3.16,4.39,4.40,4.40
82.16,7.77,7.77,3.43,3.43,-3.44,-3.50,-3.20,4.33,4.33,4.34
82.98,7.77,7.77,3.49,3.49,-3.50,-3.55,-3.24,4.27,4.27,4.28
83.81,7.77,7.77,3.56,3.56,-3.56,-3.61,-3.28,4.21,4.21,4.22
84.65,7.77,7.77,3.62,3.62,-3.62,-3.66,-3.33,4.15,4.15,4.15
85.50,7.78,7.78,3.69,3.69,-3.69,-3.71,-3.38,4.09,4.09,4.09
86.35,7.78,7.78,3.76,3.76,-3.75,-3.76,-3.43,4.03,4.03,4.03
87.22,7.78,7.78,3.82,3.82,-3.81,-3.82,-3.48,3.97,3.97,3.96
88.09,7.77,7.77,3.88,3.88,-3.87,-3.87,-3.54,3.90,3.90,3.89
88.97,7.76,7.76,3.93,3.93,-3.93,-3.92,-3.60,3.83,3.83,3.83
89.86,7.75,7.75,3.99,3.99,-3.99,-3.97,-3.66,3.76,3.76,3.76
90.76,7.73,7.73,4.04,4.04,-4.04,-4.03,-3.72,3.69,3.69,3.69
91.66,7.72,7.72,4.10,4.10,-4.10,-4.08,-3.79,3.62,3.62,3.62
92.58,7.70,7.70,4.15,4.15,-4.15,-4.13,-3.86,3.55,3.55,3.55
93.51,7.69,7.69,4.21,4.21,-4.21,-4.19,-3.93,3.49,3.48,3.48
94.44,7.67,7.67,4.26,4.26,-4.26,-4.24,-4.01,3.41,3.41,3.41
95.39,7.66,7.66,4.32,4.32,-4.31,-4.29,-4.08,3.35,3.35,3.34
96.34,7.64,7.64,4.37,4.37,-4.37,-4.34,-4.16,3.27,3.27,3.27
97.30,7.62,7.62,4.42,4.42,-4.42,-4.40,-4.25,3.20,3.20,3.20
98.28,7.60,7.60,4.47,4.47,-4.47,-4.45,-4.33,3.13,3.13,3.13
99.26,7.58,7.58,4.53,4.53,-4.53,-4.50,-4.42,3.05,3.05,3.06
100.25,7.56,7.56,4.58,4.58,-4.58,-4.55,-4.51,2.98,2.98,2.98
101.25,7.55,7.55,4.64,4.64,-4.64,-4.61,-4.59,2.91,2.91,2.91
102.27,7.53,7.53,4.69,4.69,-4.69,-4.66,-4.69,2.84,2.84,2.84
103.29,7.51,7.51,4.75,4.75,-4.75,-4.71,-4.78,2.76,2.76,2.77
104.32,7.50,7.50,4.81,4.81,-4.81,-4.76,-4.87,2.69,2.69,2.69
105.37,7.48,7.48,4.86,4.87,-4.87,-4.81,-4.96,2.62,2.62,2.62
106.42,7.47,7.47,4.93,4.92,-4.92,-4.86,-5.05,2.55,2.55,2.55
107.48,7.45,7.45,4.98,4.98,-4.98,-4.91,-5.14,2.48,2.48,2.47
108.56,7.43,7.43,5.03,5.03,-5.03,-4.96,-5.23,2.40,2.40,2.40
109.64,7.41,7.41,5.08,5.08,-5.08,-5.01,-5.32,2.33,2.33,2.33
110.74,7.38,7.38,5.13,5.13,-5.13,-5.06,-5.41,2.26,2.26,2.26
111.85,7.35,7.35,5.17,5.17,-5.17,-5.11,-5.49,2.18,2.18,2.18
112.97,7.32,7.32,5.21,5.21,-5.21,-5.15,-5.57,2.11,2.11,2.11
114.10,7.29,7.29,5.25,5.25,-5.25,-5.20,-5.65,2.04,2.04,2.04
115.24,7.26,7.26,5.29,5.29,-5.29,-5.25,-5.72,1.97,1.97,1.97
116.39,7.22,7.22,5.32,5.33,-5.33,-5.29,-5.78,1.90,1.90,1.90
117.55,7.19,7.19,5.36,5.36,-5.36,-5.33,-5.84,1.83,1.83,1.83
118.73,7.15,7.15,5.39,5.40,-5.40,-5.38,-5.90,1.75,1.76,1.76
119.92,7.12,7.12,5.43,5.43,-5.43,-5.42,-5.95,1.69,1.68,1.69
121.12,7.08,7.08,5.46,5.47,-5.47,-5.45,-5.99,1.61,1.61,1.62
122.33,7.05,7.05,5.50,5.50,-5.51,-5.49,-6.02,1.55,1.55,1.55
123.55,7.02,7.02,5.54,5.54,-5.54,-5.53,-6.05,1.48,1.48,1.48
124.79,6.99,6.99,5.58,5.58,-5.58,-5.56,-6.07,1.42,1.42,1.42
126.03,6.96,6.96,5.61,5.61,-5.61,-5.59,-6.08,1.35,1.35,1.35
127.29,6.93,6.93,5.65,5.64,-5.64,-5.62,-6.08,1.29,1.29,1.28
128.57,6.89,6.89,5.67,5.67,-5.67,-5.65,-6.08,1.22,1.22,1.22
129.85,6.85,6.85,5.70,5.70,-5.70,-5.68,-6.07,1.15,1.16,1.16
131.15,6.81,6.81,5.72,5.72,-5.72,-5.71,-6.05,1.09,1.09,1.09
132.46,6.77,6.77,5.74,5.74,-5.74,-5.73,-6.03,1.03,1.03,1.03
133.79,6.73,6.73,5.76,5.76,-5.76,-5.75,-6.00,0.97,0.97,0.97
135.12,6.69,6.69,5.78,5.78,-5.78,-5.77,-5.96,0.91,0.91,0.91
136.48,6.64,6.65,5.79,5.80,-5.79,-5.79,-5.92,0.85,0.85,0.85
137.84,6.60,6.60,5.81,5.81,-5.81,-5.80,-5.87,0.80,0.79,0.79
139.22,6.55,6.55,5.82,5.82,-5.82,-5.82,-5.83,0.73,0.73,0.73
140.61,6.50,6.50,5.82,5.82,-5.83,-5.83,-5.77,0.67,0.67,0.68
142.02,6.45,6.45,5.83,5.83,-5.83,-5.84,-5.72,0.62,0.62,0.62
143.44,6.40,6.40,5.84,5.84,-5.84,-5.85,-5.66,0.56,0.56,0.57
144.87,6.36,6.36,5.85,5.85,-5.85,-5.85,-5.60,0.52,0.51,0.51
146.32,6.31,6.31,5.85,5.85,-5.85,-5.86,-5.54,0.46,0.46,0.46
147.78,6.26,6.26,5.85,5.85,-5.85,-5.86,-5.48,0.41,0.41,0.41
149.26,6.21,6.21,5.85,5.85,-5.85,-5.86,-5.42,0.36,0.36,0.36
150.75,6.16,6.16,5.85,5.85,-5.85,-5.86,-5.36,0.31,0.31,0.31
152.26,6.11,6.11,5.85,5.85,-5.85,-5.86,-5.30,0.26,0.26,0.26
153.78,6.06,6.06,5.85,5.85,-5.85,-5.86,-5.24,0.21,0.21,0.21
155.32,6.01,6.01,5.85,5.85,-5.85,-5.85,-5.19,0.16,0.16,0.17
156.88,5.97,5.97,5.85,5.85,-5.85,-5.85,-5.13,0.12,0.12,0.12
158.44,5.92,5.92,5.85,5.85,-5.85,-5.84,-5.08,0.07,0.07,0.08
160.03,5.88,5.88,5.85,5.85,-5.85,-5.83,-5.03,0.03,0.03,0.03
161.63,5.83,5.83,5.85,5.85,-5.85,-5.82,-4.99,-0.01,-0.01,-0.02
163.24,5.78,5.78,5.84,5.84,-5.84,-5.81,-4.94,-0.06,-0.06,-0.06
164.88,5.73,5.73,5.83,5.83,-5.83,-5.79,-4.90,-0.10,-0.10,-0.10
166.53,5.68,5.68,5.82,5.82,-5.82,-5.78,-4.86,-0.14,-0.14,-0.14
168.19,5.63,5.63,5.81,5.81,-5.81,-5.76,-4.83,-0.18,-0.18,-0.18
169.87,5.57,5.57,5.79,5.79,-5.79,-5.75,-4.80,-0.22,-0.22,-0.22
171.57,5.51,5.52,5.76,5.77,-5.77,-5.73,-4.77,-0.26,-0.26,-0.25
173.29,5.46,5.46,5.75,5.75,-5.75,-5.71,-4.74,-0.29,-0.29,-0.29
175.02,5.40,5.40,5.72,5.72,-5.73,-5.69,-4.72,-0.33,-0.33,-0.32
176.77,5.34,5.34,5.70,5.70,-5.70,-5.66,-4.71,-0.36,-0.36,-0.36
178.54,5.28,5.28,5.67,5.67,-5.67,-5.64,-4.69,-0.39,-0.39,-0.39
180.32,5.22,5.22,5.64,5.64,-5.63,-5.61,-4.68,-0.41,-0.41,-0.42
182.13,5.15,5.15,5.60,5.60,-5.59,-5.59,-4.68,-0.44,-0.44,-0.45
183.95,5.07,5.07,5.55,5.56,-5.55,-5.56,-4.68,-0.47,-0.47,-0.48
185.79,4.99,4.99,5.50,5.50,-5.49,-5.53,-4.68,-0.50,-0.51,-0.51
187.65,4.90,4.90,5.44,5.44,-5.44,-5.50,-4.68,-0.54,-0.54,-0.54
189.52,4.81,4.81,5.38,5.38,-5.38,-5.46,-4.69,-0.57,-0.57,-0.57
191.42,4.73,4.73,5.32,5.32,-5.32,-5.43,-4.70,-0.59,-0.60,-0.59
193.33,4.64,4.65,5.26,5.27,-5.27,-5.40,-4.71,-0.63,-0.62,-0.62
195.27,4.57,4.57,5.22,5.21,-5.22,-5.36,-4.73,-0.65,-0.65,-0.64
197.22,4.50,4.50,5.17,5.17,-5.17,-5.32,-4.75,-0.67,-0.67,-0.67
199.19,4.43,4.44,5.12,5.13,-5.14,-5.29,-4.77,-0.70,-0.70,-0.69
201.18,4.38,4.38,5.10,5.10,-5.10,-5.25,-4.80,-0.72,-0.72,-0.71
203.19,4.33,4.33,5.07,5.07,-5.08,-5.21,-4.82,-0.75,-0.75,-0.74
205.23,4.30,4.30,5.06,5.06,-5.06,-5.17,-4.85,-0.76,-0.76,-0.76
207.28,4.26,4.26,5.04,5.04,-5.04,-5.13,-4.88,-0.78,-0.78,-0.78
209.35,4.23,4.23,5.03,5.03,-5.03,-5.08,-4.91,-0.79,-0.79,-0.80
211.44,4.20,4.20,5.02,5.02,-5.01,-5.04,-4.95,-0.81,-0.81,-0.82
213.56,4.16,4.16,5.00,5.00,-4.99,-5.00,-4.98,-0.83,-0.83,-0.84
215.69,4.11,4.11,4.97,4.97,-4.96,-4.95,-5.01,-0.85,-0.85,-0.86
217.85,4.06,4.06,4.94,4.94,-4.94,-4.91,-5.04,-0.87,-0.87,-0.87
220.03,4.01,4.01,4.90,4.90,-4.90,-4.86,-5.07,-0.89,-0.89,-0.89
222.23,3.96,3.96,4.87,4.87,-4.87,-4.82,-5.10,-0.91,-0.91,-0.91
224.45,3.90,3.91,4.82,4.83,-4.83,-4.77,-5.13,-0.93,-0.92,-0.92
226.70,3.85,3.85,4.79,4.79,-4.79,-4.72,-5.16,-0.94,-0.94,-0.94
228.96,3.79,3.79,4.75,4.74,-4.75,-4.68,-5.18,-0.95,-0.95,-0.95
231.25,3.73,3.73,4.70,4.70,-4.70,-4.63,-5.20,-0.97,-0.97,-0.97
233.57,3.67,3.67,4.65,4.66,-4.66,-4.59,-5.22,-0.99,-0.99,-0.98
235.90,3.61,3.61,4.62,4.61,-4.61,-4.54,-5.24,-1.00,-1.00,-1.01
238.26,3.55,3.55,4.57,4.57,-4.57,-4.50,-5.25,-1.02,-1.02,-1.02
240.64,3.49,3.49,4.52,4.53,-4.52,-4.45,-5.25,-1.03,-1.03,-1.03
243.05,3.44,3.44,4.48,4.48,-4.48,-4.41,-5.25,-1.04,-1.04,-1.04
245.48,3.38,3.38,4.44,4.44,-4.44,-4.37,-5.24,-1.06,-1.06,-1.06
247.93,3.32,3.33,4.39,4.39,-4.39,-4.32,-5.24,-1.07,-1.07,-1.07
250.41,3.27,3.27,4.35,4.35,-4.35,-4.28,-5.22,-1.08,-1.08,-1.08
252.92,3.22,3.22,4.31,4.31,-4.31,-4.24,-5.20,-1.09,-1.09,-1.09
255.45,3.17,3.17,4.27,4.27,-4.27,-4.20,-5.17,-1.10,-1.10,-1.10
258.00,3.12,3.12,4.23,4.23,-4.23,-4.16,-5.14,-1.11,-1.11,-1.11
260.58,3.07,3.07,4.19,4.19,-4.19,-4.13,-5.10,-1.12,-1.12,-1.12
263.19,3.02,3.02,4.15,4.15,-4.15,-4.09,-5.06,-1.13,-1.13,-1.13
265.82,2.97,2.97,4.11,4.11,-4.11,-4.05,-5.02,-1.14,-1.14,-1.14
268.48,2.93,2.93,4.08,4.07,-4.07,-4.02,-4.97,-1.14,-1.15,-1.14
271.16,2.88,2.88,4.03,4.04,-4.04,-3.98,-4.91,-1.16,-1.15,-1.15
273.87,2.84,2.84,4.00,4.00,-4.00,-3.95,-4.86,-1.16,-1.16,-1.16
276.61,2.80,2.80,3.97,3.97,-3.97,-3.92,-4.80,-1.17,-1.17,-1.17
279.38,2.76,2.76,3.94,3.94,-3.93,-3.89,-4.73,-1.17,-1.17,-1.18
282.17,2.72,2.72,3.90,3.90,-3.90,-3.86,-4.67,-1.18,-1.18,-1.18
284.99,2.68,2.68,3.86,3.86,-3.87,-3.83,-4.60,-1.18,-1.18,-1.18
287.84,2.65,2.65,3.83,3.83,-3.83,-3.80,-4.53,-1.18,-1.19,-1.18
290.72,2.61,2.61,3.79,3.80,-3.80,-3.77,-4.46,-1.19,-1.19,-1.18
293.63,2.58,2.58,3.77,3.77,-3.77,-3.74,-4.39,-1.18,-1.18,-1.19
296.57,2.55,2.55,3.74,3.73,-3.73,-3.71,-4.32,-1.18,-1.18,-1.18
299.53,2.51,2.51,3.69,3.70,-3.69,-3.68,-4.25,-1.18,-1.18,-1.18
302.53,2.48,2.48,3.67,3.66,-3.65,-3.66,-4.17,-1.17,-1.18,-1.19
305.55,2.43,2.43,3.61,3.62,-3.61,-3.63,-4.10,-1.18,-1.18,-1.18
308.61,2.39,2.39,3.58,3.57,-3.57,-3.60,-4.03,-1.18,-1.18,-1.19
311.69,2.34,2.34,3.52,3.53,-3.53,-3.58,-3.97,-1.19,-1.19,-1.18
314.81,2.30,2.30,3.49,3.49,-3.50,-3.55,-3.90,-1.19,-1.19,-1.19
317.96,2.27,2.27,3.45,3.45,-3.46,-3.52,-3.83,-1.19,-1.19,-1.18
321.14,2.24,2.24,3.43,3.42,-3.43,-3.50,-3.77,-1.19,-1.19,-1.18
324.35,2.22,2.22,3.40,3.40,-3.40,-3.47,-3.71,-1.18,-1.18,-1.18
327.59,2.20,2.20,3.37,3.38,-3.38,-3.45,-3.65,-1.17,-1.17,-1.17
330.87,2.18,2.18,3.36,3.36,-3.35,-3.42,-3.59,-1.17,-1.17,-1.18
334.18,2.16,2.16,3.33,3.33,-3.33,-3.39,-3.54,-1.17,-1.17,-1.17
337.52,2.14,2.14,3.32,3.31,-3.31,-3.37,-3.48,-1.17,-1.17,-1.17
340.90,2.12,2.12,3.29,3.29,-3.29,-3.34,-3.43,-1.17,-1.17,-1.17
344.30,2.11,2.11,3.27,3.27,-3.27,-3.32,-3.38,-1.16,-1.17,-1.16
347.75,2.09,2.09,3.25,3.25,-3.25,-3.29,-3.34,-1.16,-1.16,-1.15
351.23,2.08,2.08,3.24,3.23,-3.24,-3.27,-3.30,-1.15,-1.15,-1.16
354.74,2.07,2.07,3.21,3.22,-3.22,-3.25,-3.26,-1.15,-1.15,-1.14
358.28,2.06,2.06,3.21,3.20,-3.20,-3.22,-3.22,-1.14,-1.14,-1.14
361.87,2.05,2.05,3.19,3.19,-3.18,-3.20,-3.18,-1.13,-1.13,-1.14
365.49,2.03,2.03,3.16,3.17,-3.16,-3.17,-3.15,-1.13,-1.13,-1.13
369.14,2.02,2.02,3.15,3.15,-3.14,-3.15,-3.12,-1.12,-1.13,-1.13
372.83,2.00,2.00,3.12,3.12,-3.12,-3.13,-3.09,-1.12,-1.12,-1.11
376.56,1.99,1.99,3.11,3.10,-3.10,-3.11,-3.06,-1.11,-1.12,-1.12
380.33,1.97,1.97,3.08,3.08,-3.08,-3.08,-3.04,-1.11,-1.11,-1.11
384.13,1.95,1.96,3.06,3.06,-3.06,-3.06,-3.02,-1.11,-1.11,-1.11
387.97,1.94,1.94,3.05,3.04,-3.04,-3.04,-3.00,-1.10,-1.10,-1.10
391.85,1.93,1.93,3.02,3.02,-3.03,-3.02,-2.98,-1.09,-1.10,-1.09
395.77,1.92,1.92,3.01,3.01,-3.01,-3.00,-2.97,-1.09,-1.09,-1.09
399.73,1.91,1.91,2.99,2.99,-2.99,-2.98,-2.95,-1.08,-1.08,-1.08
403.72,1.90,1.90,2.97,2.98,-2.98,-2.96,-2.94,-1.08,-1.08,-1.07
407.76,1.90,1.90,2.98,2.97,-2.97,-2.94,-2.93,-1.06,-1.07,-1.07
411.84,1.89,1.89,2.96,2.96,-2.95,-2.92,-2.92,-1.06,-1.06,-1.07
415.96,1.88,1.88,2.94,2.94,-2.94,-2.91,-2.91,-1.06,-1.06,-1.06
420.12,1.87,1.87,2.93,2.93,-2.93,-2.89,-2.90,-1.06,-1.06,-1.06
424.32,1.86,1.86,2.91,2.91,-2.92,-2.87,-2.90,-1.05,-1.05,-1.05
428.56,1.85,1.85,2.89,2.90,-2.90,-2.86,-2.89,-1.05,-1.05,-1.04
432.85,1.85,1.85,2.89,2.89,-2.89,-2.84,-2.88,-1.03,-1.04,-1.03
437.18,1.84,1.84,2.88,2.87,-2.87,-2.83,-2.88,-1.03,-1.03,-1.04
441.55,1.83,1.83,2.86,2.86,-2.85,-2.81,-2.87,-1.02,-1.02,-1.03
445.96,1.82,1.82,2.84,2.84,-2.83,-2.80,-2.86,-1.01,-1.01,-1.02
450.42,1.81,1.81,2.81,2.81,-2.82,-2.79,-2.86,-1.00,-1.00,-1.00
454.93,1.80,1.80,2.79,2.79,-2.80,-2.78,-2.85,-1.00,-1.00,-0.99
459.48,1.79,1.79,2.77,2.78,-2.78,-2.76,-2.84,-0.99,-0.99,-0.98
464.07,1.78,1.78,2.76,2.76,-2.76,-2.75,-2.83,-0.98,-0.98,-0.98
468.71,1.77,1.77,2.75,2.75,-2.75,-2.74,-2.81,-0.97,-0.97,-0.97
473.40,1.76,1.76,2.73,2.73,-2.73,-2.73,-2.80,-0.97,-0.96,-0.96
478.13,1.76,1.76,2.72,2.71,-2.71,-2.72,-2.78,-0.95,-0.96,-0.96
482.91,1.75,1.75,2.70,2.70,-2.70,-2.70,-2.76,-0.95,-0.95,-0.95
487.74,1.74,1.74,2.68,2.68,-2.68,-2.69,-2.74,-0.94,-0.94,-0.94
492.62,1.73,1.73,2.66,2.66,-2.66,-2.68,-2.72,-0.93,-0.93,-0.93
497.55,1.72,1.72,2.64,2.64,-2.64,-2.66,-2.69,-0.92,-0.92,-0.92
502.52,1.71,1.71,2.62,2.62,-2.62,-2.65,-2.66,-0.90,-0.90,-0.91
507.55,1.70,1.70,2.59,2.59,-2.59,-2.63,-2.63,-0.89,-0.89,-0.89
512.62,1.68,1.68,2.56,2.57,-2.57,-2.62,-2.60,-0.89,-0.89,-0.88
517.75,1.67,1.67,2.54,2.54,-2.55,-2.60,-2.56,-0.87,-0.88,-0.87
522.93,1.65,1.65,2.52,2.52,-2.52,-2.58,-2.52,-0.87,-0.87,-0.86
