frequency,raw
20.00,-31.45
20.20,-31.28
20.40,-31.11
20.61,-30.94
20.81,-30.76
21.02,-30.61
21.23,-30.59
21.44,-30.58
21.66,-30.56
21.87,-30.55
22.09,-30.46
22.31,-30.27
22.54,-30.08
22.76,-29.89
22.99,-29.70
23.22,-29.47
23.45,-29.23
23.69,-29.00
23.92,-28.77
24.16,-28.51
24.40,-28.25
24.65,-27.99
24.89,-27.72
25.14,-27.47
25.39,-27.23
25.65,-26.98
25.91,-26.74
26.16,-26.66
26.43,-26.67
26.69,-26.68
26.96,-26.69
27.23,-26.37
27.50,-25.99
27.77,-25.60
28.05,-25.33
28.33,-25.52
28.62,-25.72
28.90,-25.91
29.19,-25.78
29.48,-25.46
29.78,-25.15
30.08,-24.86
30.38,-24.62
30.68,-24.37
30.99,-24.13
31.30,-24.12
31.61,-24.11
31.93,-24.11
32.24,-23.97
32.57,-23.80
32.89,-23.62
33.22,-23.48
33.55,-23.36
33.89,-23.25
34.23,-23.10
34.57,-22.93
34.92,-22.77
35.27,-22.50
35.62,-22.21
35.97,-21.91
36.33,-21.88
36.70,-21.86
37.06,-21.79
37.43,-21.43
37.81,-21.08
38.19,-20.84
38.57,-20.71
38.95,-20.58
39.34,-20.61
39.74,-20.67
40.14,-20.65
40.54,-20.48
40.94,-20.31
41.35,-20.06
41.76,-19.80
42.18,-19.56
42.60,-19.35
43.03,-19.15
43.46,-19.13
43.90,-19.11
44.33,-18.91
44.78,-18.65
45.23,-18.51
45.68,-18.48
46.13,-18.44
46.60,-18.36
47.06,-18.24
47.53,-17.89
48.01,-17.55
48.49,-17.49
48.97,-17.42
49.46,-17.07
49.96,-16.70
50.46,-16.66
50.96,-16.64
51.47,-16.62
51.99,-16.59
52.51,-16.33
53.03,-16.08
53.56,-16.01
54.10,-15.93
54.64,-15.81
55.18,-15.64
55.74,-15.39
56.29,-15.20
56.86,-15.06
57.42,-14.94
58.00,-14.81
58.58,-14.68
59.16,-14.55
59.76,-14.42
60.35,-14.28
60.96,-14.14
61.57,-14.00
62.18,-13.86
62.80,-13.72
63.43,-13.54
64.07,-13.34
64.71,-13.22
65.35,-13.11
66.01,-12.99
66.67,-12.84
67.33,-12.65
68.01,-12.44
68.69,-12.35
69.37,-12.31
70.07,-12.29
70.77,-12.13
71.48,-11.97
72.19,-11.80
72.91,-11.64
73.64,-11.48
74.38,-11.34
75.12,-11.22
75.87,-11.13
76.63,-11.00
77.40,-10.92
78.17,-10.85
78.95,-10.72
79.74,-10.54
80.54,-10.40
81.35,-10.31
82.16,-10.21
82.98,-10.03
83.81,-10.03
84.65,-9.88
85.50,-9.74
86.35,-9.63
87.22,-9.52
88.09,-9.34
88.97,-9.34
89.86,-9.19
90.76,-9.13
91.66,-9.12
92.58,-9.04
93.51,-8.84
94.44,-8.68
95.39,-8.66
96.34,-8.63
97.30,-8.52
98.28,-8.38
99.26,-8.24
100.25,-8.21
101.25,-8.21
102.27,-8.18
103.29,-8.06
104.32,-7.98
105.37,-7.92
106.42,-7.79
107.48,-7.75
108.56,-7.75
109.64,-7.60
110.74,-7.52
111.85,-7.52
112.97,-7.50
114.10,-7.29
115.24,-7.29
116.39,-7.29
117.55,-7.28
118.73,-7.12
119.92,-7.07
121.12,-7.07
122.33,-7.07
123.55,-6.97
124.79,-6.85
126.03,-6.84
127.29,-6.84
128.57,-6.79
129.85,-6.63
131.15,-6.61
132.46,-6.61
133.79,-6.61
135.12,-6.60
136.48,-6.55
137.84,-6.40
139.22,-6.38
140.61,-6.38
142.02,-6.38
143.44,-6.38
144.87,-6.38
146.32,-6.38
147.78,-6.38
149.26,-6.38
150.75,-6.38
152.26,-6.37
153.78,-6.23
155.32,-6.16
156.88,-6.15
158.44,-6.15
160.03,-6.15
161.63,-6.15
163.24,-6.15
164.88,-6.15
166.53,-6.11
168.19,-6.00
169.87,-5.93
171.57,-5.93
173.29,-5.93
175.02,-5.93
176.77,-5.93
178.54,-5.75
180.32,-5.70
182.13,-5.70
183.95,-5.70
185.79,-5.70
187.65,-5.70
189.52,-5.52
191.42,-5.47
193.33,-5.47
195.27,-5.47
197.22,-5.47
199.19,-5.46
201.18,-5.33
203.19,-5.24
205.23,-5.24
207.28,-5.24
209.35,-5.24
211.44,-5.24
213.56,-5.24
215.69,-5.24
217.85,-5.24
220.03,-5.24
222.23,-5.24
224.45,-5.24
226.70,-5.24
228.96,-5.24
231.25,-5.24
233.57,-5.24
235.90,-5.24
238.26,-5.24
240.64,-5.24
243.05,-5.24
245.48,-5.24
247.93,-5.24
250.41,-5.24
252.92,-5.24
255.45,-5.24
258.00,-5.24
260.58,-5.10
263.19,-5.02
265.82,-5.01
268.48,-5.01
271.16,-5.01
273.87,-5.01
276.61,-4.88
279.38,-4.80
282.17,-4.79
284.99,-4.79
287.84,-4.79
290.72,-4.79
293.63,-4.68
296.57,-4.57
299.53,-4.56
302.53,-4.56
305.55,-4.56
308.61,-4.56
311.69,-4.56
314.81,-4.42
317.96,-4.34
321.14,-4.33
324.35,-4.33
327.59,-4.30
330.87,-4.15
334.18,-4.10
337.52,-4.10
340.90,-4.10
344.30,-3.92
347.75,-3.81
351.23,-3.69
354.74,-3.65
358.28,-3.65
361.87,-3.65
365.49,-3.48
369.14,-3.43
372.83,-3.42
376.56,-3.42
380.33,-3.42
384.13,-3.42
387.97,-3.27
391.85,-3.20
395.77,-3.19
399.73,-3.19
403.72,-3.11
407.76,-2.99
411.84,-2.96
415.96,-2.96
420.12,-2.96
424.32,-2.96
428.56,-2.96
432.85,-2.96
437.18,-3.07
441.55,-3.16
445.96,-3.35
450.42,-3.42
454.93,-3.60
459.48,-3.70
464.07,-3.84
468.71,-3.87
473.40,-4.01
478.13,-4.09
482.91,-4.10
487.74,-4.10
492.62,-4.02
497.55,-3.90
502.52,-3.87
507.55,-3.87
512.62,-3.71
517.75,-3.65
522.93,-3.59
528.16,-3.45
533.44,-3.42
538.77,-3.42
544.16,-3.26
549.60,-3.20
555.10,-3.19
560.65,-3.19
566.25,-3.09
571.92,-2.98
577.64,-2.96
583.41,-2.96
589.25,-2.80
595.14,-2.74
601.09,-2.67
607.10,-2.53
613.17,-2.51
619.30,-2.51
625.50,-2.51
631.75,-2.49
638.07,-2.31
644.45,-2.28
650.89,-2.17
657.40,-2.07
663.98,-2.05
670.62,-2.05
677.32,-2.01
684.10,-1.87
690.94,-1.82
697.85,-1.82
704.83,-1.82
711.87,-1.82
718.99,-1.65
726.18,-1.60
733.44,-1.60
740.78,-1.60
748.19,-1.47
755.67,-1.38
763.23,-1.37
770.86,-1.37
778.57,-1.32
786.35,-1.17
794.22,-1.14
802.16,-1.14
810.18,-1.14
818.28,-0.96
826.46,-0.91
834.73,-0.91
843.08,-0.91
851.51,-0.91
860.02,-0.77
868.62,-0.69
877.31,-0.68
886.08,-0.68
894.94,-0.61
903.89,-0.49
912.93,-0.46
922.06,-0.46
931.28,-0.28
940.59,-0.23
950.00,-0.23
959.50,-0.23
969.09,-0.13
978.78,-0.02
988.57,0.00
998.46,0.00
1008.44,0.04
1018.53,0.19
1028.71,0.23
1039.00,0.23
1049.39,0.23
1059.88,0.39
1070.48,0.45
1081.19,0.46
1092.00,0.46
1102.92,0.46
1113.95,0.57
1125.09,0.66
1136.34,0.68
1147.70,0.86
1159.18,0.91
1170.77,0.91
1182.48,1.01
1194.30,1.12
1206.25,1.14
1218.31,1.32
1230.49,1.37
1242.80,1.37
1255.22,1.45
1267.78,1.57
1280.45,1.73
1293.26,1.81
1306.19,1.84
1319.25,2.01
1332.45,2.11
1345.77,2.25
1359.23,2.28
1372.82,2.43
1386.55,2.50
1400.41,2.68
1414.42,2.78
1428.56,2.92
1442.85,3.06
1457.28,3.29
1471.85,3.41
1486.57,3.60
1501.43,3.68
1516.45,3.83
1531.61,3.96
1546.93,4.18
1562.40,4.31
1578.02,4.49
1593.80,4.56
1609.74,4.78
1625.84,5.04
1642.10,5.25
1658.52,5.51
1675.10,5.81
1691.85,5.92
1708.77,6.12
1725.86,6.40
1743.12,6.73
1760.55,7.07
1778.15,7.38
1795.94,7.50
1813.90,7.70
1832.03,8.05
1850.36,8.44
1868.86,8.84
1887.55,9.18
1906.42,9.46
1925.49,9.72
1944.74,9.98
1964.19,10.34
1983.83,10.74
2003.67,11.13
2023.71,11.53
2043.94,11.85
2064.38,12.21
2085.03,12.60
2105.88,12.99
2126.94,13.38
2148.20,13.72
2169.69,14.01
2191.38,14.34
2213.30,14.63
2235.43,15.00
2257.78,15.37
2280.36,15.69
2303.17,16.01
2326.20,16.29
2349.46,16.55
2372.95,16.81
2396.68,17.17
2420.65,17.48
2444.86,17.81
2469.31,17.98
2494.00,18.15
2518.94,18.22
2544.13,18.41
2569.57,18.50
2595.27,18.71
2621.22,18.89
2647.43,18.92
2673.90,18.92
2700.64,19.09
2727.65,19.15
2754.93,19.10
2782.48,18.96
2810.30,18.92
2838.40,18.92
2866.79,18.76
2895.46,18.69
2924.41,18.48
2953.65,18.27
2983.19,18.15
3013.02,18.04
3043.15,17.87
3073.58,17.63
3104.32,17.37
3135.36,17.11
3166.72,16.84
3198.38,16.58
3230.37,16.26
3262.67,15.88
3295.30,15.48
3328.25,15.30
3361.53,15.27
3395.15,15.27
3429.10,15.17
3463.39,15.06
3498.03,14.89
3533.01,14.64
3568.34,14.38
3604.02,14.12
3640.06,13.86
3676.46,13.71
3713.22,13.55
3750.36,13.30
3787.86,13.04
3825.74,12.81
3864.00,12.70
3902.64,12.57
3941.66,12.42
3981.08,12.33
4020.89,12.14
4061.10,11.90
4101.71,11.80
4142.73,11.66
4184.15,11.53
4226.00,11.42
4268.26,11.40
4310.94,11.22
4354.05,11.17
4397.59,11.17
4441.56,11.09
4485.98,10.97
4530.84,10.94
4576.15,10.94
4621.91,10.94
4668.13,10.94
4714.81,10.94
4761.96,10.94
4809.58,10.94
4857.67,10.94
4906.25,10.94
4955.31,10.94
5004.87,10.98
5054.91,11.13
5105.46,11.17
5156.52,11.17
5208.08,11.32
5260.16,11.39
5312.77,11.42
5365.89,11.58
5419.55,11.70
5473.75,11.82
5528.49,11.85
5583.77,12.01
5639.61,12.07
5696.00,12.08
5752.96,12.02
5810.49,11.80
5868.60,11.54
5927.28,11.28
5986.56,11.02
6046.42,10.76
6106.89,10.50
6167.96,10.30
6229.64,10.17
6291.93,10.05
6354.85,9.88
6418.40,9.64
6482.58,9.54
6547.41,9.23
6612.88,8.80
6679.01,8.29
6745.80,7.89
6813.26,7.54
6881.39,7.15
6950.21,6.78
7019.71,6.52
7089.91,6.10
7160.81,5.69
7232.41,5.36
7304.74,5.09
7377.79,4.73
7451.56,4.33
7526.08,3.80
7601.34,3.20
7677.35,2.66
7754.13,2.14
7831.67,1.70
7909.98,1.22
7989.08,0.84
8068.98,0.63
8149.67,0.58
8231.16,0.79
8313.47,1.28
8396.61,1.99
8480.57,3.11
8565.38,4.47
8651.03,5.76
8737.54,6.65
8824.92,6.79
8913.17,6.66
9002.30,6.80
9092.32,7.09
9183.25,7.53
9275.08,7.81
9367.83,7.57
9461.51,6.77
9556.12,5.75
9651.68,4.54
9748.20,3.61
9845.68,3.12
9944.14,2.98
10043.58,2.96
10144.02,3.11
10245.46,3.36
10347.91,3.60
10451.39,3.60
10555.91,3.38
10661.46,3.22
10768.08,3.19
10875.76,3.19
10984.52,3.38
11094.36,3.56
11205.31,3.34
11317.36,2.77
11430.53,2.08
11544.84,1.20
11660.29,0.02
11776.89,-1.17
11894.66,-2.06
12013.60,-2.45
12133.74,-2.42
12255.08,-2.30
12377.63,-2.13
12501.41,-2.06
12626.42,-1.87
12752.68,-1.75
12880.21,-1.46
13009.01,-1.13
13139.10,-0.82
13270.49,-0.54
13403.20,-0.64
13537.23,-0.68
13672.60,-0.74
13809.33,-0.96
13947.42,-1.22
14086.90,-1.48
14227.77,-1.59
14370.04,-1.58
14513.74,-1.27
14658.88,-0.81
14805.47,-0.19
14953.52,0.46
15103.06,1.04
15254.09,0.98
15406.63,0.10
15560.70,-1.22
15716.30,-2.85
15873.47,-4.60
16032.20,-6.55
16192.52,-8.47
16354.45,-10.23
16517.99,-11.45
16683.17,-11.94
16850.01,-11.81
17018.51,-11.44
17188.69,-10.94
17360.58,-10.49
17534.18,-10.12
17709.53,-10.30
17886.62,-10.91
18065.49,-11.73
18246.14,-12.69
18428.60,-13.79
18612.89,-14.96
18799.02,-16.15
18987.01,-17.43
19176.88,-18.70
19368.65,-19.86
19562.33,-21.41
19757.96,-23.19
19955.54,-24.83
