frequency,raw
20.00,-8.28
20.20,-8.19
20.40,-8.12
20.61,-8.03
20.81,-7.94
21.02,-7.87
21.23,-7.78
21.44,-7.70
21.66,-7.62
21.87,-7.53
22.09,-7.44
22.31,-7.36
22.54,-7.27
22.76,-7.18
22.99,-7.09
23.22,-7.00
23.45,-6.91
23.69,-6.82
23.92,-6.72
24.16,-6.62
24.40,-6.54
24.65,-6.44
24.89,-6.34
25.14,-6.25
25.39,-6.15
25.65,-6.05
25.91,-5.95
26.16,-5.85
26.43,-5.75
26.69,-5.64
26.96,-5.54
27.23,-5.44
27.50,-5.34
27.77,-5.24
28.05,-5.13
28.33,-5.03
28.62,-4.93
28.90,-4.83
29.19,-4.74
29.48,-4.63
29.78,-4.53
30.08,-4.42
30.38,-4.33
30.68,-4.22
30.99,-4.12
31.30,-4.03
31.61,-3.93
31.93,-3.84
32.24,-3.76
32.57,-3.66
32.89,-3.57
33.22,-3.48
33.55,-3.39
33.89,-3.30
34.23,-3.21
34.57,-3.12
34.92,-3.03
35.27,-2.94
35.62,-2.85
35.97,-2.77
36.33,-2.68
36.70,-2.60
37.06,-2.50
37.43,-2.42
37.81,-2.33
38.19,-2.24
38.57,-2.16
38.95,-2.08
39.34,-1.99
39.74,-1.91
40.14,-1.83
40.54,-1.75
40.94,-1.66
41.35,-1.59
41.76,-1.51
42.18,-1.43
42.60,-1.36
43.03,-1.28
43.46,-1.20
43.90,-1.12
44.33,-1.05
44.78,-0.98
45.23,-0.90
45.68,-0.83
46.13,-0.75
46.60,-0.68
47.06,-0.61
47.53,-0.54
48.01,-0.48
48.49,-0.41
48.97,-0.35
49.46,-0.28
49.96,-0.22
50.46,-0.15
50.96,-0.09
51.47,-0.03
51.99,0.03
52.51,0.08
53.03,0.14
53.56,0.20
54.10,0.26
54.64,0.30
55.18,0.36
55.74,0.42
56.29,0.46
56.86,0.51
57.42,0.57
58.00,0.61
58.58,0.65
59.16,0.71
59.76,0.74
60.35,0.79
60.96,0.82
61.57,0.86
62.18,0.91
62.80,0.94
63.43,0.98
64.07,1.01
64.71,1.04
65.35,1.07
66.01,1.10
66.67,1.14
67.33,1.17
68.01,1.19
68.69,1.22
69.37,1.24
70.07,1.26
70.77,1.28
71.48,1.31
72.19,1.32
72.91,1.34
73.64,1.36
74.38,1.37
75.12,1.39
75.87,1.40
76.63,1.41
77.40,1.42
78.17,1.43
78.95,1.44
79.74,1.45
80.54,1.45
81.35,1.46
82.16,1.47
82.98,1.47
83.81,1.47
84.65,1.46
85.50,1.47
86.35,1.47
87.22,1.46
88.09,1.46
88.97,1.45
89.86,1.45
90.76,1.44
91.66,1.43
92.58,1.42
93.51,1.41
94.44,1.41
95.39,1.40
96.34,1.39
97.30,1.37
98.28,1.36
99.26,1.35
100.25,1.34
101.25,1.32
102.27,1.31
103.29,1.29
104.32,1.27
105.37,1.26
106.42,1.23
107.48,1.21
108.56,1.20
109.64,1.18
110.74,1.16
111.85,1.14
112.97,1.11
114.10,1.09
115.24,1.07
116.39,1.05
117.55,1.02
118.73,1.00
119.92,0.98
121.12,0.95
122.33,0.93
123.55,0.91
124.79,0.88
126.03,0.86
127.29,0.83
128.57,0.81
129.85,0.79
131.15,0.76
132.46,0.74
133.79,0.71
135.12,0.68
136.48,0.65
137.84,0.62
139.22,0.60
140.61,0.57
142.02,0.54
143.44,0.51
144.87,0.48
146.32,0.46
147.78,0.43
149.26,0.40
150.75,0.36
152.26,0.34
153.78,0.31
155.32,0.27
156.88,0.24
158.44,0.20
160.03,0.17
161.63,0.13
163.24,0.10
164.88,0.06
166.53,0.02
168.19,-0.02
169.87,-0.06
171.57,-0.10
173.29,-0.14
175.02,-0.18
176.77,-0.23
178.54,-0.27
180.32,-0.31
182.13,-0.35
183.95,-0.39
185.79,-0.42
187.65,-0.45
189.52,-0.49
191.42,-0.51
193.33,-0.53
195.27,-0.55
197.22,-0.57
199.19,-0.58
201.18,-0.60
203.19,-0.62
205.23,-0.64
207.28,-0.66
209.35,-0.69
211.44,-0.71
213.56,-0.74
215.69,-0.77
217.85,-0.79
220.03,-0.81
222.23,-0.83
224.45,-0.84
226.70,-0.86
228.96,-0.86
231.25,-0.87
233.57,-0.87
235.90,-0.87
238.26,-0.86
240.64,-0.86
243.05,-0.86
245.48,-0.87
247.93,-0.87
250.41,-0.87
252.92,-0.88
255.45,-0.90
258.00,-0.91
260.58,-0.92
263.19,-0.94
265.82,-0.95
268.48,-0.97
271.16,-0.98
273.87,-1.01
276.61,-1.02
279.38,-1.04
282.17,-1.06
284.99,-1.08
287.84,-1.10
290.72,-1.11
293.63,-1.13
296.57,-1.15
299.53,-1.17
302.53,-1.19
305.55,-1.21
308.61,-1.22
311.69,-1.24
314.81,-1.25
317.96,-1.26
321.14,-1.26
324.35,-1.26
327.59,-1.24
330.87,-1.22
334.18,-1.19
337.52,-1.13
340.90,-1.07
344.30,-1.01
347.75,-0.93
351.23,-0.84
354.74,-0.75
358.28,-0.66
361.87,-0.58
365.49,-0.51
369.14,-0.45
372.83,-0.42
376.56,-0.39
380.33,-0.38
384.13,-0.38
387.97,-0.40
391.85,-0.42
395.77,-0.45
399.73,-0.47
403.72,-0.49
407.76,-0.52
411.84,-0.54
415.96,-0.55
420.12,-0.57
424.32,-0.58
428.56,-0.59
432.85,-0.60
437.18,-0.60
441.55,-0.60
445.96,-0.61
450.42,-0.62
454.93,-0.64
459.48,-0.65
464.07,-0.66
468.71,-0.68
473.40,-0.68
478.13,-0.69
482.91,-0.70
487.74,-0.70
492.62,-0.70
497.55,-0.70
502.52,-0.71
507.55,-0.71
512.62,-0.71
517.75,-0.70
522.93,-0.71
528.16,-0.70
533.44,-0.70
538.77,-0.70
544.16,-0.69
549.60,-0.69
555.10,-0.68
560.65,-0.68
566.25,-0.67
571.92,-0.66
577.64,-0.66
583.41,-0.65
589.25,-0.64
595.14,-0.64
601.09,-0.63
607.10,-0.62
613.17,-0.62
619.30,-0.60
625.50,-0.59
631.75,-0.59
638.07,-0.58
644.45,-0.57
650.89,-0.56
657.40,-0.55
663.98,-0.54
670.62,-0.53
677.32,-0.52
684.10,-0.52
690.94,-0.51
697.85,-0.49
704.83,-0.48
711.87,-0.47
718.99,-0.46
726.18,-0.45
733.44,-0.44
740.78,-0.43
748.19,-0.42
755.67,-0.40
763.23,-0.40
770.86,-0.39
778.57,-0.38
786.35,-0.37
794.22,-0.36
802.16,-0.35
810.18,-0.35
818.28,-0.33
826.46,-0.33
834.73,-0.32
843.08,-0.31
851.51,-0.29
860.02,-0.28
868.62,-0.27
877.31,-0.25
886.08,-0.23
894.94,-0.22
903.89,-0.20
912.93,-0.18
922.06,-0.16
931.28,-0.14
940.59,-0.12
950.00,-0.10
959.50,-0.09
969.09,-0.07
978.78,-0.04
988.57,-0.02
998.46,-0.00
1008.44,0.02
1018.53,0.04
1028.71,0.07
1039.00,0.10
1049.39,0.13
1059.88,0.16
1070.48,0.18
1081.19,0.22
1092.00,0.25
1102.92,0.29
1113.95,0.32
1125.09,0.37
1136.34,0.40
1147.70,0.45
1159.18,0.50
1170.77,0.55
1182.48,0.61
1194.30,0.67
1206.25,0.73
1218.31,0.80
1230.49,0.86
1242.80,0.93
1255.22,1.01
1267.78,1.09
1280.45,1.16
1293.26,1.25
1306.19,1.33
1319.25,1.41
1332.45,1.50
1345.77,1.59
1359.23,1.68
1372.82,1.79
1386.55,1.89
1400.41,2.00
1414.42,2.11
1428.56,2.23
1442.85,2.35
1457.28,2.47
1471.85,2.60
1486.57,2.73
1501.43,2.87
1516.45,3.01
1531.61,3.15
1546.93,3.30
1562.40,3.46
1578.02,3.62
1593.80,3.79
1609.74,3.96
1625.84,4.15
1642.10,4.35
1658.52,4.55
1675.10,4.79
1691.85,5.05
1708.77,5.34
1725.86,5.69
1743.12,6.07
1760.55,6.50
1778.15,7.00
1795.94,7.55
1813.90,8.13
1832.03,8.73
1850.36,9.31
1868.86,9.86
1887.55,10.37
1906.42,10.79
1925.49,11.15
1944.74,11.45
1964.19,11.66
1983.83,11.83
2003.67,11.98
2023.71,12.11
2043.94,12.22
2064.38,12.33
2085.03,12.41
2105.88,12.48
2126.94,12.55
2148.20,12.59
2169.69,12.64
2191.38,12.68
2213.30,12.73
2235.43,12.79
2257.78,12.86
2280.36,12.93
2303.17,13.00
2326.20,13.07
2349.46,13.11
2372.95,13.13
2396.68,13.12
2420.65,13.08
2444.86,13.01
2469.31,12.93
2494.00,12.85
2518.94,12.77
2544.13,12.73
2569.57,12.69
2595.27,12.67
2621.22,12.66
2647.43,12.64
2673.90,12.62
2700.64,12.59
2727.65,12.53
2754.93,12.47
2782.48,12.35
2810.30,12.22
2838.40,12.08
2866.79,11.93
2895.46,11.77
2924.41,11.62
2953.65,11.48
2983.19,11.35
3013.02,11.22
3043.15,11.11
3073.58,11.01
3104.32,10.91
3135.36,10.81
3166.72,10.70
3198.38,10.58
3230.37,10.45
3262.67,10.32
3295.30,10.22
3328.25,10.13
3361.53,10.09
3395.15,10.13
3429.10,10.22
3463.39,10.39
3498.03,10.65
3533.01,10.96
3568.34,11.31
3604.02,11.67
3640.06,12.02
3676.46,12.32
3713.22,12.54
3750.36,12.67
3787.86,12.73
3825.74,12.66
3864.00,12.52
3902.64,12.31
3941.66,12.03
3981.08,11.68
4020.89,11.28
4061.10,10.85
4101.71,10.35
4142.73,9.84
4184.15,9.30
4226.00,8.72
4268.26,8.15
4310.94,7.58
4354.05,7.02
4397.59,6.50
4441.56,6.00
4485.98,5.55
4530.84,5.17
4576.15,4.84
4621.91,4.58
4668.13,4.42
4714.81,4.33
4761.96,4.31
4809.58,4.39
4857.67,4.54
4906.25,4.74
4955.31,5.00
5004.87,5.27
5054.91,5.55
5105.46,5.84
5156.52,6.11
5208.08,6.36
5260.16,6.57
5312.77,6.73
5365.89,6.86
5419.55,6.94
5473.75,6.99
5528.49,7.02
5583.77,7.04
5639.61,7.05
5696.00,7.08
5752.96,7.11
5810.49,7.17
5868.60,7.23
5927.28,7.30
5986.56,7.37
6046.42,7.44
6106.89,7.52
6167.96,7.61
6229.64,7.71
6291.93,7.82
6354.85,7.94
6418.40,8.07
6482.58,8.24
6547.41,8.41
6612.88,8.60
6679.01,8.80
6745.80,9.01
6813.26,9.24
6881.39,9.47
6950.21,9.69
7019.71,9.91
7089.91,10.12
7160.81,10.31
7232.41,10.48
7304.74,10.62
7377.79,10.73
7451.56,10.84
7526.08,10.93
7601.34,11.03
7677.35,11.14
7754.13,11.29
7831.67,11.47
7909.98,11.67
7989.08,11.91
8068.98,12.18
8149.67,12.44
8231.16,12.71
8313.47,12.94
8396.61,13.16
8480.57,13.34
8565.38,13.49
8651.03,13.64
8737.54,13.78
8824.92,13.89
8913.17,13.96
9002.30,13.99
9092.32,13.89
9183.25,13.64
9275.08,13.27
9367.83,12.72
9461.51,11.99
9556.12,11.16
9651.68,10.24
9748.20,9.26
9845.68,8.30
9944.14,7.35
10043.58,6.50
10144.02,5.72
10245.46,4.99
10347.91,4.40
10451.39,3.87
10555.91,3.43
10661.46,3.09
10768.08,2.80
10875.76,2.54
10984.52,2.31
11094.36,2.05
11205.31,1.75
11317.36,1.43
11430.53,1.03
11544.84,0.59
11660.29,0.11
11776.89,-0.37
11894.66,-0.82
12013.60,-1.27
12133.74,-1.69
12255.08,-2.10
12377.63,-2.53
12501.41,-3.02
12626.42,-3.61
12752.68,-4.27
12880.21,-5.02
13009.01,-5.74
13139.10,-6.38
13270.49,-6.89
13403.20,-7.15
13537.23,-7.28
13672.60,-7.30
13809.33,-7.23
13947.42,-7.20
14086.90,-7.23
14227.77,-7.47
14370.04,-7.88
14513.74,-8.40
14658.88,-9.08
14805.47,-9.75
14953.52,-10.37
15103.06,-10.88
15254.09,-11.22
15406.63,-11.49
15560.70,-11.70
15716.30,-11.86
15873.47,-11.99
16032.20,-12.10
16192.52,-12.14
16354.45,-12.15
16517.99,-12.13
16683.17,-12.08
16850.01,-12.04
17018.51,-12.01
17188.69,-12.01
17360.58,-12.12
17534.18,-12.32
17709.53,-12.61
17886.62,-13.06
18065.49,-13.57
18246.14,-14.11
18428.60,-14.67
18612.89,-15.19
18799.02,-15.68
18987.01,-16.12
19176.88,-16.44
19368.65,-16.65
19562.33,-16.65
19757.96,-16.46
19955.54,-16.13
