frequency,raw,error,smoothed,error_smoothed,equalization,parametric_eq,fixed_band_eq,equalized_raw,equalized_smoothed,target
20.00,-10.94,-11.93,-10.95,-11.94,6.00,5.78,2.67,-4.94,-4.95,0.99
20.20,-10.84,-11.92,-10.84,-11.92,6.00,5.78,2.74,-4.84,-4.84,1.08
20.40,-10.74,-11.90,-10.74,-11.90,6.00,5.78,2.82,-4.74,-4.74,1.16
20.61,-10.64,-11.86,-10.64,-11.88,6.00,5.78,2.90,-4.64,-4.64,1.23
20.81,-10.53,-11.85,-10.54,-11.85,6.00,5.78,2.98,-4.53,-4.54,1.32
21.02,-10.43,-11.83,-10.43,-11.83,6.00,5.77,3.07,-4.43,-4.43,1.40
21.23,-10.33,-11.79,-10.33,-11.79,6.00,5.77,3.16,-4.33,-4.33,1.46
21.44,-10.22,-11.74,-10.23,-11.74,6.00,5.77,3.25,-4.22,-4.23,1.52
21.66,-10.13,-11.69,-10.13,-11.69,6.00,5.77,3.34,-4.13,-4.13,1.57
21.87,-10.02,-11.64,-10.02,-11.64,6.00,5.77,3.44,-4.02,-4.02,1.62
22.09,-9.92,-11.59,-9.92,-11.59,6.00,5.77,3.53,-3.92,-3.92,1.67
22.31,-9.81,-11.53,-9.82,-11.53,6.00,5.77,3.63,-3.81,-3.82,1.72
22.54,-9.72,-11.47,-9.71,-11.47,6.00,5.77,3.74,-3.72,-3.71,1.76
22.76,-9.60,-11.40,-9.60,-11.40,6.00,5.77,3.84,-3.60,-3.60,1.80
22.99,-9.49,-11.32,-9.50,-11.33,6.00,5.77,3.95,-3.49,-3.50,1.83
23.22,-9.39,-11.26,-9.39,-11.26,6.00,5.77,4.06,-3.39,-3.39,1.87
23.45,-9.28,-11.19,-9.29,-11.19,6.00,5.77,4.18,-3.28,-3.29,1.91
23.69,-9.19,-11.13,-9.18,-11.13,6.00,5.77,4.29,-3.19,-3.18,1.94
23.92,-9.07,-11.06,-9.08,-11.07,6.00,5.77,4.41,-3.07,-3.08,1.98
24.16,-8.97,-11.01,-8.97,-11.00,6.00,5.77,4.53,-2.97,-2.97,2.03
24.40,-8.86,-10.93,-8.86,-10.93,6.00,5.76,4.65,-2.86,-2.86,2.06
24.65,-8.76,-10.85,-8.76,-10.85,6.00,5.76,4.78,-2.76,-2.76,2.09
24.89,-8.65,-10.78,-8.65,-10.78,6.00,5.76,4.90,-2.65,-2.65,2.12
25.14,-8.54,-10.71,-8.55,-10.71,6.00,5.76,5.03,-2.54,-2.55,2.16
25.39,-8.44,-10.63,-8.44,-10.64,6.00,5.76,5.16,-2.44,-2.44,2.19
25.65,-8.34,-10.57,-8.34,-10.56,6.00,5.76,5.29,-2.34,-2.34,2.23
25.91,-8.24,-10.49,-8.23,-10.49,6.00,5.76,5.42,-2.24,-2.23,2.25
26.16,-8.12,-10.40,-8.13,-10.41,6.00,5.76,5.55,-2.12,-2.13,2.28
26.43,-8.03,-10.34,-8.02,-10.34,6.00,5.76,5.68,-2.03,-2.02,2.32
26.69,-7.91,-10.26,-7.92,-10.27,6.00,5.75,5.81,-1.91,-1.92,2.35
26.96,-7.82,-10.19,-7.81,-10.20,6.00,5.75,5.93,-1.82,-1.81,2.38
27.23,-7.71,-10.12,-7.71,-10.12,6.00,5.75,6.06,-1.71,-1.71,2.42
27.50,-7.61,-10.05,-7.60,-10.05,6.00,5.75,6.18,-1.61,-1.60,2.45
27.77,-7.49,-9.96,-7.50,-9.97,6.00,5.75,6.30,-1.49,-1.50,2.47
28.05,-7.39,-9.90,-7.39,-9.89,6.00,5.75,6.41,-1.39,-1.39,2.51
28.33,-7.29,-9.82,-7.29,-9.82,6.00,5.75,6.52,-1.29,-1.29,2.52
28.62,-7.19,-9.74,-7.19,-9.74,6.00,5.74,6.63,-1.19,-1.19,2.55
28.90,-7.08,-9.68,-7.08,-9.67,6.00,5.74,6.72,-1.08,-1.08,2.59
29.19,-6.97,-9.59,-6.98,-9.60,6.00,5.74,6.81,-0.97,-0.98,2.61
29.48,-6.87,-9.53,-6.87,-9.53,6.00,5.74,6.89,-0.87,-0.87,2.66
29.78,-6.78,-9.46,-6.77,-9.46,6.00,5.74,6.97,-0.78,-0.77,2.68
30.08,-6.68,-9.38,-6.68,-9.39,6.00,5.74,7.03,-0.68,-0.68,2.71
30.38,-6.58,-9.31,-6.57,-9.31,6.00,5.73,7.09,-0.58,-0.57,2.74
30.68,-6.47,-9.24,-6.48,-9.24,6.00,5.73,7.13,-0.47,-0.48,2.77
30.99,-6.38,-9.16,-6.38,-9.17,6.00,5.73,7.17,-0.38,-0.38,2.79
31.30,-6.29,-9.10,-6.28,-9.10,6.00,5.73,7.19,-0.29,-0.28,2.81
31.61,-6.19,-9.04,-6.19,-9.03,6.00,5.73,7.21,-0.19,-0.19,2.84
31.93,-6.10,-8.96,-6.10,-8.96,6.00,5.72,7.21,-0.10,-0.10,2.86
32.24,-6.00,-8.88,-6.00,-8.89,6.00,5.72,7.20,-0.00,-0.00,2.88
32.57,-5.91,-8.81,-5.91,-8.82,6.00,5.72,7.18,0.09,0.09,2.91
32.89,-5.81,-8.75,-5.81,-8.75,6.00,5.72,7.16,0.19,0.19,2.94
33.22,-5.72,-8.68,-5.72,-8.67,6.00,5.71,7.12,0.28,0.28,2.96
33.55,-5.62,-8.60,-5.63,-8.60,6.00,5.71,7.08,0.38,0.37,2.97
33.89,-5.53,-8.52,-5.54,-8.53,6.00,5.71,7.03,0.47,0.46,2.98
34.23,-5.45,-8.46,-5.44,-8.45,6.00,5.70,6.98,0.55,0.56,3.01
34.57,-5.35,-8.37,-5.35,-8.37,6.00,5.70,6.91,0.65,0.65,3.02
34.92,-5.26,-8.28,-5.26,-8.29,6.00,5.70,6.85,0.74,0.74,3.03
35.27,-5.17,-8.21,-5.17,-8.20,6.00,5.69,6.78,0.83,0.83,3.04
35.62,-5.08,-8.12,-5.08,-8.12,6.00,5.69,6.70,0.92,0.92,3.04
35.97,-4.99,-8.04,-4.99,-8.05,6.00,5.69,6.62,1.01,1.01,3.05
36.33,-4.90,-7.97,-4.90,-7.96,6.00,5.68,6.54,1.10,1.10,3.07
36.70,-4.82,-7.88,-4.81,-7.88,6.00,5.68,6.46,1.18,1.19,3.07
37.06,-4.72,-7.79,-4.73,-7.80,6.00,5.68,6.38,1.28,1.27,3.06
37.43,-4.63,-7.71,-4.64,-7.70,6.00,5.67,6.30,1.37,1.36,3.07
37.81,-4.55,-7.62,-4.55,-7.62,6.00,5.67,6.22,1.45,1.45,3.07
38.19,-4.46,-7.52,-4.46,-7.53,6.00,5.66,6.14,1.54,1.54,3.07
38.57,-4.36,-7.44,-4.37,-7.44,6.00,5.66,6.06,1.64,1.63,3.07
38.95,-4.27,-7.34,-4.27,-7.34,6.00,5.65,5.98,1.73,1.73,3.07
39.34,-4.18,-7.24,-4.19,-7.25,6.00,5.65,5.91,1.82,1.81,3.06
39.74,-4.11,-7.16,-4.10,-7.16,6.00,5.64,5.84,1.89,1.90,3.05
40.14,-4.02,-7.07,-4.01,-7.06,6.00,5.64,5.77,1.98,1.99,3.05
40.54,-3.93,-6.97,-3.93,-6.98,6.00,5.63,5.70,2.07,2.07,3.05
40.94,-3.83,-6.88,-3.84,-6.88,6.00,5.63,5.64,2.17,2.16,3.04
41.35,-3.75,-6.80,-3.75,-6.79,6.00,5.62,5.58,2.25,2.25,3.04
41.76,-3.66,-6.70,-3.66,-6.70,6.00,5.61,5.52,2.34,2.34,3.04
42.18,-3.57,-6.61,-3.58,-6.61,6.00,5.61,5.47,2.43,2.43,3.03
42.60,-3.49,-6.51,-3.49,-6.52,6.01,5.60,5.42,2.52,2.52,3.02
43.03,-3.40,-6.43,-3.41,-6.43,6.01,5.59,5.38,2.61,2.61,3.03
43.46,-3.32,-6.34,-3.32,-6.33,6.01,5.59,5.34,2.69,2.69,3.01
43.90,-3.24,-6.23,-3.24,-6.24,6.01,5.58,5.31,2.77,2.77,3.00
44.33,-3.15,-6.14,-3.16,-6.14,5.99,5.57,5.27,2.83,2.83,2.98
44.78,-3.08,-6.05,-3.07,-6.05,5.96,5.56,5.25,2.88,2.88,2.98
45.23,-3.00,-5.96,-2.99,-5.96,5.92,5.55,5.22,2.92,2.92,2.96
45.68,-2.92,-5.87,-2.91,-5.87,5.86,5.55,5.20,2.95,2.95,2.96
46.13,-2.83,-5.79,-2.84,-5.79,5.80,5.54,5.18,2.97,2.97,2.95
46.60,-2.77,-5.72,-2.76,-5.71,5.74,5.53,5.17,2.97,2.97,2.96
47.06,-2.69,-5.64,-2.70,-5.65,5.66,5.52,5.16,2.97,2.96,2.95
47.53,-2.63,-5.58,-2.63,-5.58,5.59,5.51,5.16,2.95,2.95,2.94
48.01,-2.57,-5.52,-2.57,-5.52,5.51,5.50,5.16,2.94,2.94,2.95
48.49,-2.51,-5.46,-2.51,-5.45,5.45,5.49,5.16,2.93,2.93,2.94
48.97,-2.45,-5.39,-2.46,-5.39,5.39,5.48,5.16,2.94,2.93,2.93
49.46,-2.41,-5.33,-2.41,-5.33,5.34,5.46,5.17,2.92,2.93,2.92
49.96,-2.36,-5.27,-2.37,-5.28,5.29,5.45,5.18,2.92,2.92,2.91
50.46,-2.32,-5.25,-2.33,-5.25,5.25,5.44,5.20,2.92,2.92,2.92
50.96,-2.28,-5.22,-2.29,-5.21,5.21,5.43,5.21,2.92,2.92,2.93
51.47,-2.25,-5.18,-2.25,-5.18,5.17,5.41,5.23,2.92,2.92,2.93
51.99,-2.21,-5.14,-2.22,-5.15,5.15,5.40,5.25,2.93,2.93,2.93
52.51,-2.18,-5.12,-2.19,-5.12,5.12,5.39,5.27,2.94,2.94,2.94
53.03,-2.16,-5.10,-2.16,-5.10,5.11,5.37,5.29,2.94,2.94,2.94
53.56,-2.15,-5.09,-2.15,-5.09,5.10,5.36,5.31,2.94,2.94,2.94
54.10,-2.14,-5.08,-2.15,-5.09,5.09,5.34,5.33,2.95,2.94,2.94
54.64,-2.15,-5.08,-2.15,-5.09,5.09,5.33,5.36,2.93,2.94,2.93
55.18,-2.16,-5.09,-2.16,-5.09,5.09,5.31,5.38,2.93,2.93,2.93
55.74,-2.17,-5.09,-2.18,-5.10,5.10,5.29,5.40,2.92,2.92,2.92
56.29,-2.19,-5.11,-2.19,-5.11,5.10,5.27,5.41,2.91,2.91,2.92
56.86,-2.21,-5.12,-2.21,-5.12,5.11,5.26,5.43,2.90,2.90,2.91
57.42,-2.22,-5.12,-2.22,-5.12,5.12,5.24,5.44,2.90,2.90,2.89
58.00,-2.23,-5.13,-2.24,-5.13,5.13,5.22,5.45,2.90,2.90,2.89
58.58,-2.25,-5.13,-2.25,-5.14,5.14,5.20,5.46,2.89,2.89,2.88
59.16,-2.27,-5.15,-2.27,-5.15,5.15,5.18,5.46,2.87,2.87,2.88
59.76,-2.29,-5.16,-2.30,-5.16,5.15,5.16,5.45,2.85,2.85,2.86
60.35,-2.31,-5.15,-2.31,-5.16,5.14,5.13,5.45,2.83,2.83,2.84
60.96,-2.32,-5.16,-2.32,-5.14,5.14,5.11,5.43,2.81,2.82,2.83
61.57,-2.32,-5.12,-2.33,-5.13,5.13,5.09,5.42,2.80,2.80,2.80
62.18,-2.32,-5.10,-2.33,-5.11,5.12,5.06,5.39,2.79,2.79,2.77
62.80,-2.33,-5.10,-2.33,-5.09,5.10,5.04,5.37,2.77,2.77,2.77
63.43,-2.33,-5.07,-2.33,-5.08,5.08,5.01,5.33,2.75,2.75,2.74
64.07,-2.32,-5.06,-2.33,-5.06,5.06,4.99,5.29,2.74,2.74,2.73
64.71,-2.31,-5.04,-2.32,-5.04,5.04,4.96,5.25,2.72,2.72,2.73
65.35,-2.29,-5.01,-2.30,-5.02,5.01,4.93,5.20,2.72,2.71,2.72
66.01,-2.27,-4.99,-2.27,-4.99,4.98,4.90,5.14,2.70,2.71,2.72
66.67,-2.22,-4.95,-2.23,-4.95,4.94,4.87,5.08,2.72,2.71,2.72
67.33,-2.17,-4.90,-2.18,-4.90,4.90,4.84,5.02,2.72,2.72,2.72
68.01,-2.12,-4.85,-2.12,-4.84,4.85,4.81,4.95,2.72,2.73,2.72
68.69,-2.06,-4.78,-2.07,-4.79,4.79,4.78,4.87,2.73,2.72,2.72
69.37,-2.00,-4.73,-2.00,-4.73,4.73,4.74,4.80,2.72,2.72,2.73
70.07,-1.93,-4.66,-1.93,-4.66,4.66,4.71,4.72,2.72,2.72,2.73
70.77,-1.85,-4.60,-1.85,-4.59,4.58,4.68,4.64,2.73,2.73,2.74
71.48,-1.77,-4.51,-1.77,-4.51,4.51,4.64,4.56,2.74,2.74,2.74
72.19,-1.68,-4.42,-1.68,-4.42,4.43,4.60,4.47,2.75,2.75,2.74
72.91,-1.59,-4.34,-1.60,-4.34,4.35,4.57,4.39,2.76,2.75,2.74
73.64,-1.52,-4.26,-1.53,-4.27,4.27,4.53,4.30,2.75,2.75,2.74
74.38,-1.45,-4.20,-1.46,-4.20,4.20,4.49,4.21,2.74,2.74,2.74
75.12,-1.39,-4.13,-1.39,-4.13,4.12,4.45,4.12,2.73,2.73,2.74
75.87,-1.31,-4.06,-1.32,-4.06,4.05,4.40,4.04,2.74,2.73,2.74
76.63,-1.24,-3.99,-1.25,-3.98,3.98,4.36,3.95,2.74,2.73,2.74
77.40,-1.17,-3.91,-1.17,-3.91,3.91,4.32,3.87,2.74,2.74,2.74
78.17,-1.11,-3.84,-1.11,-3.85,3.85,4.27,3.78,2.74,2.74,2.73
78.95,-1.04,-3.79,-1.05,-3.79,3.79,4.23,3.70,2.75,2.74,2.75
79.74,-0.99,-3.74,-0.99,-3.74,3.74,4.18,3.61,2.74,2.75,2.75
80.54,-0.93,-3.68,-0.94,-3.69,3.69,4.13,3.53,2.75,2.75,2.75
81.35,-0.88,-3.64,-0.88,-3.64,3.65,4.08,3.45,2.76,2.77,2.76
82.16,-0.83,-3.60,-0.84,-3.61,3.62,4.03,3.38,2.78,2.78,2.77
82.98,-0.79,-3.58,-0.80,-3.58,3.59,3.98,3.30,2.79,2.79,2.79
83.81,-0.77,-3.57,-0.77,-3.56,3.56,3.93,3.23,2.79,2.79,2.79
84.65,-0.74,-3.54,-0.74,-3.55,3.55,3.87,3.15,2.80,2.80,2.80
85.50,-0.71,-3.54,-0.71,-3.53,3.53,3.82,3.08,2.81,2.82,2.83
86.35,-0.67,-3.52,-0.67,-3.51,3.51,3.76,3.02,2.84,2.84,2.84
87.22,-0.63,-3.48,-0.64,-3.49,3.49,3.70,2.95,2.85,2.85,2.85
88.09,-0.60,-3.47,-0.61,-3.47,3.47,3.64,2.89,2.86,2.86,2.86
88.97,-0.57,-3.45,-0.57,-3.45,3.44,3.58,2.83,2.87,2.87,2.88
89.86,-0.54,-3.43,-0.54,-3.42,3.41,3.52,2.77,2.87,2.88,2.88
90.76,-0.49,-3.37,-0.50,-3.38,3.38,3.46,2.71,2.89,2.89,2.88
91.66,-0.45,-3.33,-0.46,-3.34,3.35,3.39,2.65,2.90,2.89,2.88
92.58,-0.43,-3.30,-0.43,-3.30,3.32,3.32,2.60,2.88,2.88,2.86
93.51,-0.41,-3.28,-0.41,-3.28,3.27,3.26,2.55,2.86,2.86,2.87
94.44,-0.39,-3.24,-0.39,-3.24,3.23,3.18,2.50,2.83,2.83,2.85
95.39,-0.36,-3.19,-0.36,-3.19,3.17,3.11,2.45,2.80,2.81,2.83
96.34,-0.32,-3.13,-0.32,-3.12,3.11,3.04,2.41,2.78,2.78,2.80
97.30,-0.27,-3.04,-0.28,-3.05,3.04,2.97,2.36,2.76,2.76,2.76
98.28,-0.23,-2.97,-0.23,-2.96,2.97,2.89,2.32,2.73,2.74,2.73
99.26,-0.18,-2.88,-0.19,-2.88,2.89,2.81,2.28,2.71,2.71,2.70
100.25,-0.14,-2.80,-0.14,-2.80,2.82,2.73,2.25,2.68,2.68,2.66
101.25,-0.10,-2.72,-0.11,-2.73,2.75,2.65,2.21,2.64,2.64,2.62
102.27,-0.08,-2.66,-0.09,-2.66,2.68,2.57,2.17,2.59,2.59,2.58
103.29,-0.07,-2.60,-0.07,-2.61,2.60,2.49,2.14,2.53,2.53,2.53
104.32,-0.05,-2.55,-0.06,-2.55,2.53,2.42,2.11,2.48,2.48,2.50
105.37,-0.03,-2.48,-0.03,-2.48,2.46,2.34,2.08,2.42,2.43,2.45
106.42,0.02,-2.40,0.01,-2.40,2.38,2.26,2.05,2.39,2.39,2.41
107.48,0.07,-2.31,0.07,-2.30,2.30,2.19,2.02,2.36,2.37,2.37
108.56,0.13,-2.21,0.12,-2.21,2.22,2.12,1.99,2.34,2.34,2.33
109.64,0.18,-2.12,0.17,-2.12,2.14,2.06,1.96,2.31,2.31,2.29
110.74,0.22,-2.05,0.22,-2.04,2.06,2.00,1.93,2.27,2.27,2.26
111.85,0.26,-1.98,0.25,-1.98,1.98,1.94,1.91,2.23,2.23,2.23
112.97,0.29,-1.90,0.28,-1.91,1.91,1.90,1.88,2.19,2.19,2.19
114.10,0.31,-1.86,0.31,-1.85,1.85,1.85,1.86,2.15,2.16,2.17
115.24,0.34,-1.79,0.33,-1.80,1.80,1.81,1.83,2.13,2.13,2.13
116.39,0.36,-1.75,0.36,-1.75,1.75,1.77,1.81,2.11,2.11,2.10
117.55,0.38,-1.71,0.38,-1.70,1.71,1.74,1.78,2.09,2.09,2.08
118.73,0.40,-1.66,0.39,-1.67,1.68,1.71,1.76,2.08,2.07,2.06
119.92,0.40,-1.65,0.40,-1.65,1.66,1.68,1.73,2.05,2.05,2.05
121.12,0.41,-1.63,0.40,-1.63,1.63,1.65,1.71,2.04,2.04,2.03
122.33,0.41,-1.61,0.40,-1.62,1.61,1.62,1.68,2.02,2.02,2.02
123.55,0.41,-1.60,0.41,-1.60,1.59,1.59,1.66,2.00,2.00,2.01
124.79,0.42,-1.58,0.42,-1.58,1.57,1.56,1.63,1.98,1.98,1.99
126.03,0.44,-1.55,0.43,-1.55,1.54,1.54,1.60,1.97,1.97,1.99
127.29,0.46,-1.52,0.46,-1.51,1.51,1.51,1.58,1.96,1.96,1.98
128.57,0.49,-1.47,0.49,-1.47,1.47,1.48,1.55,1.95,1.96,1.95
129.85,0.53,-1.42,0.52,-1.42,1.42,1.45,1.52,1.95,1.95,1.95
131.15,0.57,-1.37,0.56,-1.37,1.38,1.42,1.50,1.94,1.94,1.93
132.46,0.60,-1.32,0.60,-1.32,1.33,1.39,1.47,1.92,1.92,1.91
133.79,0.63,-1.28,0.63,-1.28,1.28,1.35,1.44,1.90,1.90,1.91
135.12,0.67,-1.22,0.66,-1.23,1.23,1.32,1.41,1.89,1.89,1.89
136.48,0.69,-1.19,0.69,-1.19,1.18,1.29,1.38,1.87,1.87,1.88
137.84,0.72,-1.14,0.71,-1.14,1.14,1.25,1.36,1.86,1.86,1.86
139.22,0.73,-1.10,0.73,-1.10,1.11,1.22,1.33,1.84,1.84,1.83
140.61,0.75,-1.06,0.74,-1.07,1.08,1.19,1.30,1.83,1.83,1.81
142.02,0.76,-1.04,0.75,-1.05,1.06,1.15,1.27,1.81,1.81,1.80
143.44,0.75,-1.04,0.75,-1.03,1.03,1.12,1.24,1.78,1.78,1.78
144.87,0.74,-1.02,0.74,-1.02,1.01,1.08,1.21,1.75,1.75,1.75
146.32,0.73,-1.00,0.73,-1.00,0.99,1.05,1.18,1.72,1.72,1.73
147.78,0.73,-0.99,0.72,-0.98,0.98,1.01,1.15,1.70,1.70,1.71
149.26,0.73,-0.96,0.72,-0.96,0.95,0.97,1.12,1.68,1.68,1.69
150.75,0.73,-0.93,0.73,-0.93,0.93,0.94,1.09,1.66,1.66,1.65
152.26,0.73,-0.90,0.73,-0.90,0.91,0.90,1.07,1.63,1.63,1.63
153.78,0.73,-0.88,0.73,-0.88,0.88,0.87,1.04,1.60,1.60,1.60
155.32,0.73,-0.84,0.73,-0.85,0.84,0.83,1.01,1.57,1.57,1.57
156.88,0.73,-0.82,0.73,-0.82,0.81,0.79,0.98,1.54,1.54,1.55
158.44,0.73,-0.78,0.73,-0.78,0.78,0.76,0.95,1.51,1.51,1.51
160.03,0.73,-0.75,0.73,-0.75,0.75,0.72,0.93,1.48,1.48,1.47
161.63,0.73,-0.71,0.73,-0.71,0.72,0.68,0.90,1.45,1.45,1.43
163.24,0.73,-0.68,0.72,-0.68,0.69,0.65,0.88,1.42,1.41,1.40
164.88,0.72,-0.66,0.72,-0.66,0.66,0.61,0.85,1.38,1.38,1.37
166.53,0.71,-0.64,0.71,-0.64,0.63,0.58,0.82,1.34,1.34,1.34
168.19,0.71,-0.61,0.70,-0.61,0.60,0.54,0.80,1.31,1.31,1.31
169.87,0.71,-0.58,0.71,-0.58,0.57,0.50,0.78,1.27,1.28,1.29
171.57,0.73,-0.53,0.72,-0.54,0.53,0.47,0.75,1.25,1.25,1.26
173.29,0.74,-0.50,0.74,-0.49,0.49,0.43,0.73,1.22,1.23,1.23
175.02,0.77,-0.44,0.76,-0.44,0.44,0.39,0.70,1.21,1.21,1.21
176.77,0.80,-0.38,0.79,-0.39,0.39,0.36,0.68,1.19,1.18,1.18
178.54,0.82,-0.34,0.82,-0.34,0.34,0.32,0.66,1.16,1.16,1.15
180.32,0.85,-0.29,0.85,-0.29,0.29,0.29,0.64,1.13,1.14,1.14
182.13,0.88,-0.25,0.88,-0.24,0.24,0.25,0.62,1.11,1.12,1.12
183.95,0.93,-0.18,0.92,-0.19,0.19,0.22,0.60,1.12,1.11,1.11
185.79,0.96,-0.14,0.95,-0.14,0.15,0.18,0.57,1.10,1.10,1.10
187.65,0.98,-0.11,0.98,-0.10,0.11,0.15,0.55,1.08,1.09,1.08
189.52,1.01,-0.07,1.00,-0.07,0.07,0.12,0.53,1.08,1.08,1.08
191.42,1.03,-0.04,1.03,-0.04,0.04,0.08,0.52,1.07,1.07,1.07
193.33,1.05,-0.02,1.05,-0.02,0.02,0.05,0.50,1.06,1.07,1.07
195.27,1.07,0.00,1.06,0.00,-0.00,0.03,0.48,1.07,1.06,1.06
197.22,1.08,0.02,1.07,0.02,-0.01,-0.00,0.46,1.06,1.06,1.05
199.19,1.07,0.03,1.07,0.03,-0.02,-0.03,0.44,1.04,1.05,1.03
201.18,1.07,0.03,1.06,0.03,-0.03,-0.05,0.42,1.03,1.03,1.03
203.19,1.06,0.02,1.06,0.03,-0.04,-0.07,0.41,1.02,1.02,1.03
205.23,1.06,0.03,1.06,0.03,-0.04,-0.08,0.39,1.02,1.02,1.02
207.28,1.06,0.03,1.05,0.04,-0.04,-0.10,0.38,1.01,1.01,1.02
209.35,1.06,0.04,1.06,0.05,-0.05,-0.10,0.36,1.01,1.01,1.01
211.44,1.06,0.06,1.05,0.05,-0.06,-0.11,0.35,1.00,1.00,0.99
213.56,1.06,0.06,1.05,0.06,-0.07,-0.12,0.33,0.99,0.99,0.99
215.69,1.06,0.06,1.06,0.07,-0.08,-0.12,0.32,0.98,0.98,1.00
217.85,1.07,0.09,1.07,0.09,-0.09,-0.12,0.31,0.98,0.98,0.98
220.03,1.08,0.10,1.07,0.10,-0.10,-0.11,0.29,0.98,0.98,0.97
222.23,1.08,0.12,1.07,0.11,-0.10,-0.11,0.28,0.98,0.97,0.95
224.45,1.07,0.11,1.06,0.11,-0.10,-0.10,0.27,0.97,0.96,0.96
226.70,1.05,0.10,1.05,0.10,-0.10,-0.09,0.26,0.95,0.95,0.95
228.96,1.03,0.08,1.03,0.09,-0.09,-0.07,0.25,0.94,0.94,0.94
231.25,1.01,0.07,1.00,0.07,-0.08,-0.06,0.25,0.93,0.93,0.94
233.57,0.99,0.07,0.98,0.06,-0.06,-0.04,0.24,0.92,0.91,0.92
235.90,0.94,0.03,0.95,0.04,-0.04,-0.03,0.23,0.89,0.90,0.90
238.26,0.92,0.03,0.91,0.03,-0.02,-0.01,0.23,0.89,0.89,0.89
240.64,0.89,0.01,0.88,0.01,0.00,0.01,0.23,0.89,0.88,0.87
243.05,0.85,-0.02,0.85,-0.02,0.02,0.03,0.22,0.87,0.87,0.87
245.48,0.82,-0.05,0.81,-0.05,0.05,0.04,0.22,0.86,0.86,0.86
247.93,0.78,-0.08,0.78,-0.07,0.07,0.06,0.22,0.85,0.85,0.86
250.41,0.76,-0.09,0.75,-0.10,0.10,0.08,0.22,0.85,0.85,0.84
252.92,0.73,-0.13,0.73,-0.13,0.12,0.10,0.22,0.84,0.85,0.86
255.45,0.72,-0.15,0.71,-0.15,0.14,0.12,0.22,0.85,0.85,0.86
258.00,0.71,-0.16,0.71,-0.16,0.15,0.14,0.23,0.86,0.86,0.87
260.58,0.71,-0.17,0.71,-0.17,0.17,0.16,0.23,0.87,0.88,0.87
263.19,0.72,-0.18,0.71,-0.17,0.18,0.18,0.24,0.89,0.89,0.89
265.82,0.73,-0.17,0.72,-0.18,0.19,0.19,0.25,0.92,0.91,0.90
268.48,0.73,-0.20,0.73,-0.19,0.20,0.21,0.25,0.93,0.93,0.92
271.16,0.73,-0.21,0.73,-0.21,0.22,0.23,0.26,0.94,0.94,0.94
273.87,0.73,-0.23,0.73,-0.23,0.23,0.25,0.27,0.96,0.96,0.96
276.61,0.73,-0.26,0.73,-0.25,0.25,0.27,0.28,0.97,0.97,0.98
279.38,0.73,-0.26,0.73,-0.27,0.26,0.29,0.29,0.99,0.99,0.99
282.17,0.73,-0.28,0.73,-0.28,0.28,0.30,0.31,1.01,1.01,1.01
284.99,0.73,-0.30,0.73,-0.30,0.30,0.32,0.32,1.03,1.03,1.02
287.84,0.73,-0.32,0.73,-0.32,0.32,0.34,0.33,1.04,1.04,1.04
290.72,0.73,-0.34,0.73,-0.34,0.34,0.36,0.35,1.06,1.06,1.07
293.63,0.73,-0.35,0.73,-0.36,0.35,0.38,0.37,1.08,1.08,1.08
296.57,0.73,-0.38,0.73,-0.37,0.37,0.40,0.38,1.10,1.10,1.10
299.53,0.73,-0.40,0.73,-0.39,0.40,0.42,0.40,1.12,1.12,1.12
302.53,0.73,-0.40,0.73,-0.41,0.42,0.44,0.42,1.14,1.14,1.13
305.55,0.73,-0.44,0.73,-0.43,0.44,0.46,0.44,1.17,1.17,1.17
308.61,0.73,-0.46,0.73,-0.46,0.46,0.48,0.45,1.19,1.19,1.18
311.69,0.73,-0.49,0.72,-0.49,0.49,0.51,0.47,1.21,1.21,1.21
314.81,0.73,-0.53,0.73,-0.52,0.51,0.53,0.49,1.23,1.23,1.25
317.96,0.73,-0.54,0.73,-0.54,0.53,0.55,0.52,1.25,1.26,1.27
321.14,0.74,-0.55,0.73,-0.56,0.55,0.58,0.54,1.28,1.28,1.29
324.35,0.74,-0.57,0.74,-0.57,0.57,0.61,0.56,1.30,1.31,1.31
327.59,0.75,-0.59,0.74,-0.59,0.59,0.63,0.58,1.34,1.33,1.33
330.87,0.75,-0.61,0.75,-0.61,0.61,0.66,0.60,1.36,1.36,1.35
334.18,0.75,-0.64,0.75,-0.63,0.64,0.69,0.63,1.39,1.39,1.38
337.52,0.74,-0.66,0.74,-0.67,0.67,0.73,0.65,1.41,1.41,1.40
340.90,0.73,-0.70,0.72,-0.71,0.71,0.76,0.68,1.44,1.43,1.43
344.30,0.70,-0.76,0.70,-0.76,0.76,0.80,0.70,1.46,1.46,1.46
347.75,0.67,-0.81,0.67,-0.81,0.81,0.84,0.73,1.48,1.48,1.47
351.23,0.64,-0.87,0.63,-0.87,0.87,0.88,0.75,1.50,1.50,1.50
354.74,0.61,-0.93,0.60,-0.93,0.92,0.92,0.78,1.53,1.53,1.53
358.28,0.57,-0.99,0.57,-0.99,0.98,0.96,0.81,1.55,1.55,1.55
361.87,0.54,-1.04,0.54,-1.04,1.04,1.01,0.84,1.58,1.58,1.58
365.49,0.51,-1.10,0.50,-1.10,1.10,1.05,0.87,1.61,1.61,1.61
369.14,0.48,-1.14,0.47,-1.15,1.16,1.10,0.90,1.63,1.63,1.62
372.83,0.45,-1.20,0.44,-1.20,1.21,1.14,0.92,1.65,1.65,1.65
376.56,0.42,-1.25,0.42,-1.25,1.25,1.19,0.96,1.67,1.67,1.67
380.33,0.40,-1.31,0.40,-1.30,1.29,1.23,0.99,1.68,1.68,1.71
384.13,0.39,-1.33,0.38,-1.33,1.32,1.27,1.02,1.70,1.70,1.71
387.97,0.38,-1.36,0.38,-1.35,1.34,1.30,1.05,1.72,1.72,1.73
391.85,0.39,-1.36,0.39,-1.36,1.36,1.33,1.08,1.75,1.75,1.74
395.77,0.40,-1.38,0.39,-1.37,1.38,1.35,1.11,1.77,1.77,1.77
399.73,0.41,-1.38,0.40,-1.37,1.38,1.36,1.14,1.79,1.79,1.78
403.72,0.41,-1.37,0.41,-1.38,1.39,1.37,1.18,1.79,1.79,1.78
407.76,0.41,-1.38,0.41,-1.38,1.39,1.37,1.21,1.79,1.80,1.79
411.84,0.41,-1.39,0.41,-1.39,1.39,1.37,1.24,1.80,1.80,1.80
415.96,0.41,-1.39,0.41,-1.39,1.39,1.37,1.28,1.80,1.80,1.80
420.12,0.41,-1.39,0.41,-1.39,1.39,1.36,1.31,1.80,1.80,1.80
424.32,0.41,-1.39,0.41,-1.39,1.39,1.35,1.34,1.80,1.80,1.80
428.56,0.41,-1.39,0.41,-1.39,1.39,1.34,1.37,1.79,1.79,1.80
432.85,0.41,-1.38,0.41,-1.38,1.38,1.33,1.40,1.79,1.79,1.79
437.18,0.41,-1.38,0.41,-1.38,1.38,1.33,1.43,1.79,1.79,1.79
441.55,0.41,-1.38,0.41,-1.38,1.38,1.32,1.46,1.78,1.78,1.78
445.96,0.41,-1.37,0.41,-1.37,1.37,1.32,1.49,1.78,1.78,1.77
450.42,0.41,-1.37,0.41,-1.37,1.37,1.31,1.52,1.77,1.77,1.77
454.93,0.41,-1.37,0.41,-1.36,1.37,1.31,1.55,1.77,1.77,1.77
459.48,0.41,-1.36,0.41,-1.36,1.37,1.32,1.57,1.77,1.77,1.76
464.07,0.41,-1.37,0.41,-1.36,1.37,1.32,1.60,1.77,1.77,1.77
468.71,0.41,-1.37,0.41,-1.37,1.37,1.33,1.62,1.77,1.77,1.77
473.40,0.41,-1.37,0.41,-1.37,1.37,1.34,1.64,1.77,1.77,1.77
478.13,0.41,-1.38,0.41,-1.37,1.37,1.35,1.66,1.77,1.77,1.78
482.91,0.41,-1.37,0.41,-1.37,1.37,1.36,1.68,1.78,1.78,1.77
487.74,0.41,-1.38,0.41,-1.38,1.37,1.37,1.69,1.78,1.78,1.78
492.62,0.41,-1.39,0.41,-1.38,1.38,1.39,1.71,1.78,1.78,1.79
497.55,0.41,-1.38,0.41,-1.38,1.38,1.41,1.72,1.79,1.79,1.78
502.52,0.41,-1.38,0.41,-1.38,1.38,1.42,1.73,1.79,1.79,1.79
507.55,0.41,-1.38,0.41,-1.39,1.39,1.44,1.74,1.79,1.79,1.79
512.62,0.41,-1.39,0.41,-1.40,1.40,1.46,1.74,1.80,1.80,1.80
517.75,0.41,-1.40,0.41,-1.40,1.40,1.49,1.75,1.81,1.81,1.81
522.93,0.41,-1.41,0.41,-1.41,1.41,1.51,1.75,1.81,1.81,1.82
528.16,0.41,-1.41,0.40,-1.42,1.42,1.53,1.75,1.82,1.82,1.82
