frequency,raw,error,smoothed,error_smoothed,equalization,equalized_raw,equalized_smoothed,target
20,-19.96951593313232,-24.090136683740234,-20.000032518167085,-24.12067151334529,5.999999999999999,-13.969515933132321,-14.000032518167085,4.120620750607913
21,-19.280389643716024,-23.432624788425358,-19.321271625621,-23.473496146134575,6.0,-13.280389643716024,-13.321271625621002,4.152235144709332
22,-18.68845725171905,-22.868905731742547,-18.6669462425915,-22.84737266095259,6.0,-12.68845725171905,-12.6669462425915,4.180448480023496
23,-18.23538337520634,-22.440642725527876,-18.037056369078577,-22.242301057799335,5.999999999999999,-12.23538337520634,-12.037056369078577,4.205259350321538
24,-17.39205292153395,-21.618719017988184,-17.43160200508221,-21.65828133667478,5.999999999999998,-11.392052921533951,-11.43160200508221,4.2266660964542355
25,-16.764412765887403,-21.009079540793202,-16.85200285043206,-21.09674155116643,6.000000000000001,-10.764412765887403,-10.852002850432061,4.244666774905798
26,-16.21238218891482,-20.47164131296508,-16.29674283144553,-20.55616123768699,6.0,-10.21238218891482,-10.296742831445531,4.259259124050261
27,-15.803276571393544,-20.073786045104086,-15.764230019179166,-20.034940116908647,6.0,-9.803276571393544,-9.764230019179166,4.270509473710542
28,-15.30631624507561,-19.58467788566156,-15.252022872047398,-19.530617173236358,6.0,-9.30631624507561,-9.252022872047398,4.278361640585948
29,-14.72979154836218,-19.01257823987389,-14.757047620932955,-19.040083641824324,6.000000000000001,-8.72979154836218,-8.757047620932955,4.282786691511712
30,-14.27851443627508,-18.562252124935874,-14.276472157927738,-18.560455612565505,6.0,-8.27851443627508,-8.276472157927738,4.2837376886607945
31,-13.848632256573328,-18.12977912344821,-13.807878918248662,-18.089243945088576,5.999999999999999,-7.848632256573329,-7.8078789182486625,4.281146866874879
32,-13.33821153438602,-17.613135815912486,-13.349704044777095,-17.624793577743702,5.999999999999999,-7.33821153438602,-7.349704044777096,4.274924281526465
33,-12.947168398539956,-17.212127018948152,-12.901360848836585,-17.166408817221622,6.0,-6.947168398539956,-6.901360848836585,4.264958620408194
34,-12.465203503336207,-16.716335559271243,-12.46306549501163,-16.714182799379692,5.999999999999998,-6.465203503336209,-6.463065495011632,4.251132055935038
35,-12.040160537434563,-16.2734750986927,-12.035544217082574,-16.268710996890178,6.000000000000001,-6.040160537434562,-6.035544217082573,4.233314561258136
36,-11.534527708416126,-15.745902825919451,-11.619643498838498,-15.830709839014734,5.999999999999998,-5.534527708416128,-5.619643498838499,4.211375117503325
37,-11.197957178204383,-15.383149383141205,-11.216026509349096,-15.400723861712141,6.0,-5.197957178204383,-5.216026509349096,4.185192204936822
38,-10.880792076232217,-15.03545852737166,-10.825034139476593,-14.978999612242351,6.000000000000001,-4.880792076232216,-4.825034139476592,4.154666451139444
39,-10.436279012128306,-14.556014101974071,-10.446699121521064,-14.565514518205418,6.0,-4.436279012128306,-4.446699121521064,4.119735089845765
40,-10.11319409405186,-14.193581855971324,-10.080845674751938,-14.160092806350864,5.999999999999999,-4.1131940940518605,-4.080845674751939,4.0803877619194635
41,-9.76681798131281,-13.803502893353873,-9.727166023230104,-13.76249922345913,5.999999999999999,-3.766817981312811,-3.7271660232301054,4.036684912041063
42,-9.311814516375824,-13.30058994432941,-9.385203761875536,-13.37243976453005,6.000000000000003,-3.3118145163758212,-3.385203761875533,3.9887754279535863
43,-9.01499909001326,-12.951912975392647,-9.054248988380122,-12.989473388864734,6.0,-3.0149990900132604,-3.054248988380122,3.9369138853793864
44,-8.735899232567133,-12.617375335384493,-8.733222256370063,-12.612910713148013,6.0,-2.7358992325671334,-2.7332222563700626,3.881476102817359
45,-8.481482072017055,-12.304453912516125,-8.420655850520703,-12.241807057148975,5.999999999999998,-2.481482072017057,-2.4206558505207045,3.8229718404990702
46,-8.063959888123428,-11.826013323247796,-8.114846916480555,-11.875123255199831,6.0,-2.063959888123428,-2.1148469164805554,3.762053435124368
47,-7.829981950926423,-11.52950113965343,-7.814173664224861,-11.512044411370312,6.0,-1.829981950926423,-1.8141736642248611,3.699519188727006
48,-7.528850940396545,-11.16516167370019,-7.517474168681554,-11.152355233493726,6.0,-1.528850940396545,-1.517474168681554,3.6363107333036453
49,-7.292303352882535,-10.865806894049163,-7.224335642075197,-10.796719152099431,5.999999999999999,-1.292303352882536,-1.2243356420751983,3.573503541166627
50,-6.909989830888902,-10.422279985297983,-6.935160815844203,-10.446727476231011,5.999999999999999,-0.909989830888903,-0.9351608158442035,3.5122901544090803
51,-6.677449138510928,-10.131405177114392,-6.6509635360357215,-10.104670637443007,5.999999999999999,-0.6774491385109291,-0.6509635360357224,3.453956038603463
52,-6.335567511677485,-9.735415863155932,-6.3729607578775775,-9.773099023639162,5.999999999999999,-0.33556751167748633,-0.37296075787757843,3.3998483514784477
53,-6.047580707144474,-9.39891902277978,-6.102119150571545,-9.454332314531829,6.000000000000002,-0.04758070714447182,-0.10211915057154286,3.351338315635306
54,-5.833092382780047,-9.14287065076412,-5.838837327298931,-9.150099413610436,6.0,0.16690761721995262,0.1611626727010691,3.309778267984073
55,-5.584410960732731,-8.860865807595317,-5.582887754643085,-8.861434461296195,6.0,0.4155890392672692,0.4171122453569147,3.2764548468625856
56,-5.366913111414264,-8.619453198027792,-5.333630482527363,-8.58884280021187,6.000000000000002,0.6330868885857379,0.6663695174726385,3.2525400866135277
57,-5.097746117050853,-8.336788550873806,-5.09039482930078,-8.332634984415199,5.999999999999999,0.9022538829491458,0.9096051706992192,3.239042433822953
58,-4.910469444408137,-8.147229295030465,-4.852857154993298,-8.093259060765705,6.0,1.089530555591863,1.1471428450067016,3.2367598506223283
59,-4.613325697015947,-7.85956291279457,-4.6212520231355345,-7.8714705534839675,6.0,1.3866743029840531,1.3787479768644655,3.2462372157786232
60,-4.35861755446953,-7.626347719321569,-4.396332901188561,-7.668258358258688,6.0,1.6413824455304704,1.6036670988114388,3.26773016485204
61,-4.1416881439350055,-7.442865466785871,-4.179108221028544,-7.484554238211917,6.000000000000002,1.8583118560649963,1.8208917789714576,3.301177322850865
62,-3.9852233174880607,-7.331405903184764,-3.9704690056778142,-7.320843707613431,6.0,2.0147766825119393,2.0295309943221858,3.346182585696703
63,-3.771674846585484,-7.173683556468649,-3.7708583674126555,-7.176829803128638,6.0,2.228325153414516,2.2291416325873445,3.4020087098831655
64,-3.5791509320707457,-7.046733924236039,-3.5801016027667645,-7.051269201690167,6.000000000000001,2.420849067929255,2.4198983972332364,3.4675829921652936
65,-3.371377597491981,-6.91289288423067,-3.3974397906250986,-6.942023810250082,6.0,2.628622402508019,2.6025602093749014,3.541515286738689
66,-3.2327682062117766,-6.854896250339892,-3.221728346736673,-6.846288959147116,6.000000000000002,2.767231793788225,2.778271653263329,3.6221280441281154
67,-3.08806907331362,-6.795566567536828,-3.051710283168144,-6.760907087254305,5.999999999999999,2.911930926686379,2.948289716831855,3.707497494223208
68,-2.9053478697809094,-6.700852435915503,-2.8862673744850347,-6.682668752109981,6.000000000000001,3.0946521302190915,3.113732625514966,3.7955045661345936
69,-2.70446462387006,-6.588358293296344,-2.7245838072295268,-6.608533724483925,6.0,3.29553537612994,3.2754161927704732,3.8838936694262842
70,-2.515722965772273,-6.4860600467499445,-2.566203682780282,-6.5357513578713045,5.999999999999998,3.484277034227725,3.4337963172197163,3.970337080977672
71,-2.4295179056375424,-6.482020316225697,-2.4110023893789188,-6.461897811854291,6.000000000000002,3.5704820943624593,3.588997610621083,4.052502410588154
72,-2.294931580734864,-6.423052052303169,-2.259108691561546,-6.3848643993728835,5.999999999999999,3.7050684192651353,3.740891308438453,4.128120471568305
73,-2.1416164182972315,-6.336667286196014,-2.110811293489208,-6.302828214685446,6.0,3.8583835817027685,3.889188706510792,4.195050867898782
74,-1.9233893385552108,-6.17473206591429,-1.9664724734744552,-6.214225146124706,5.999999999999999,4.076610661444788,4.033527526525544,4.251342727359079
75,-1.8468073498608435,-6.142095602786214,-1.8264628326228123,-6.117737050736244,5.975944635999298,4.129137286138454,4.149481803376485,4.295288252925371
76,-1.6342255271299648,-5.9596926453079835,-1.6911269779232325,-6.012300989944094,5.924742330012025,4.29051680288206,4.233615352088792,4.325467118178018
77,-1.5909466456533448,-5.931726821394996,-1.5607859314624277,-5.897144855387463,5.847467924513666,4.256521278860321,4.286681993051237,4.340780175741651
78,-1.4744419457716318,-5.814913401172632,-1.435772054252617,-5.771844248237864,5.7478276565393935,4.273385710767762,4.312055602286777,4.3404714554009995
79,-1.2825441436913272,-5.6066821155386215,-1.3164757285174853,-5.6363794593363306,5.628808521753031,4.346264378061704,4.312332793235546,4.3241379718472945
80,-1.1692164181245672,-5.460943829182724,-1.2033673868184782,-5.491156160988547,5.491156160988547,4.32193974286398,4.287788774170069,4.291727411058156
81,-1.1859501247795434,-5.429474414494911,-1.0969573557131682,-5.336952576512709,5.33695257651271,4.1510024517331665,4.239995220799542,4.243524289715368
82,-0.9434333897588238,-5.123559046557918,-0.9976793436993703,-5.174779500887639,5.174779500887638,4.231346111128814,4.177100157188268,4.180125656799094
83,-0.8980001175077796,-5.000407925002699,-0.9057258645105176,-5.005682397199497,5.005682397199497,4.107682279691717,4.099956532688979,4.102407807494919
84,-0.8624787700094252,-4.873964558980048,-0.8209042444051293,-4.830555924029577,4.830555924029577,3.9680771540201514,4.009651679624447,4.011485788970623
85,-0.6357697427431082,-4.544437426441645,-0.7425964541257797,-4.650057063032314,4.650057063032314,4.014287320289206,3.9074606089065345,3.908667683698537
86,-0.6748113168973184,-4.470217070557535,-0.6698784026502196,-4.464676683175564,4.464676683175564,3.7898653662782458,3.7947982805253444,3.795405753660216
87,-0.7525514950904516,-4.425798014472577,-0.601787983970759,-4.274963436524082,4.274963436524083,3.5224119414336315,3.6731754525533242,3.673246519382126
88,-0.3896236498066541,-3.9334053886618583,-0.5376518427264175,-4.081813106788166,4.081813106788166,3.692189456981512,3.544161264061749,3.543781738855204
89,-0.5152538503836295,-3.923855906222535,-0.4773287099539234,-3.886680802349767,3.8866808023497668,3.3714269519661375,3.409352092395843,3.4086020558389056
90,-0.5479607191260497,-3.817215541000872,-0.421235762172106,-3.6915771824630346,3.6915771824630346,3.143616463336985,3.2703414202909284,3.2692548218748225
91,-0.3654139735673453,-3.492621254973441,-0.370098925886127,-3.498780602021506,3.4987806020215055,3.1333666284541604,3.1286816761353786,3.1272072814060956
92,-0.18301058650374813,-3.1668265524733834,-0.3244815176717125,-3.3103107928004967,3.3103107928004967,3.1273002062967485,2.985829275128784,2.9838159659696353
93,-0.21643692396855896,-3.056739716650786,-0.28425279324662145,-3.1273232587750623,3.127323258775062,2.910886334806503,2.8430704655284407,2.8403027926822273
94,-0.3430549328311564,-3.0407929567729,-0.24820985260064166,-2.949647199003921,2.9496471990039215,2.606592266172765,2.7014373464032797,2.697738023941744
95,-0.18435798257823535,-2.741387919175659,-0.21403457018612665,-2.7756708403440946,2.775670840344094,2.5913128577658586,2.5616362701579676,2.5570299365974236
96,-0.16668437207935494,-2.5856051556032935,-0.17865825306806482,-2.6026764818874533,2.602676481887453,2.435992109808098,2.424018228819388,2.4189207835239386
97,-0.17230270574389728,-2.456291123969037,-0.13896110875498952,-2.427577963828719,2.4275779638287185,2.255275258084821,2.288616855073729,2.2839884182251398
98,-0.14401850523776438,-2.2966713043879086,-0.09260668530093333,-2.2478690321662587,2.2478690321662587,2.103850526928494,2.1552623468653254,2.152652799150144
99,-0.09143876469799707,-2.1166252606445135,-0.0387493268631357,-2.0625022060829408,2.0625022060829408,1.9710634413849437,2.023752879219805,2.0251864959465165
100,0.03074730946849323,-1.8709809726833824,0.02162258724607794,-1.8724161374926556,1.8724161374926558,1.903163446961149,1.8940387247387338,1.9017282821518755
101,0.11512302466213685,-1.667175887161204,0.08583977031277804,-1.6805204419746018,1.6805204419746018,1.7956434666367387,1.7663602122873798,1.7822989118233408
102,0.16132169369697866,-1.5054965391373112,0.15018331446521713,-1.4911038768585878,1.4911038768585876,1.6524255705555662,1.6412871913238047,1.6668182328342898
104,0.1912742883130657,-1.3018839634786792,0.210828363689329,-1.3088068916825264,1.3088068916825262,1.500081179995592,1.5196352553718553,1.493158251791745
105,0.30208234905559184,-1.082856021172931,0.26483624871502376,-1.1374379945332416,1.1374379945332413,1.4395203435888333,1.402274243248265,1.3849383702285227
106,0.35029613444464525,-0.9298236251617574,0.3109132401525393,-0.9789698478402789,0.9789698478402787,1.329265982284924,1.289883087992818,1.2801197596064027
107,0.3817949536264377,-0.7965946810262319,0.34972318477560344,-0.8330038044235253,0.8330038044235253,1.214798758049963,1.1827269891991288,1.1783896346526697
108,0.4236517631168538,-0.655764690196364,0.3836772436792292,-0.6968516623987567,0.6968516623987566,1.1205034255156106,1.0805289060779857,1.0794164533132178
109,0.3782274152748165,-0.6046357467403599,0.41628437618381675,-0.5661939688831863,0.5661939688831864,0.9444213841580029,0.9824783450670032,0.9828631620151764
110,0.4088334602369811,-0.47956537126301935,0.4512767556335526,-0.43610003132144437,0.4361000313214443,0.8449334915584255,0.8873767869549969,0.8883988315000004
111,0.5180246113288528,-0.27768402527328406,0.491778923997955,-0.30209759918020473,0.3020975991802048,0.8201222105090575,0.7938765231781597,0.7957086366021369
112,0.3855929151053065,-0.31890926609901254,0.5397481118581402,-0.16099464361009758,0.1609946436100976,0.5465875587154041,0.7007427554682378,0.7045021812043191
113,0.5634628351521086,-0.05105736610153511,0.5957953848806805,-0.011270759071965524,0.011270759071965526,0.5747335942240741,0.607066143952646,0.6145202012536437
114,0.7801275546928229,0.25458785737394274,0.6593539178183325,0.14697978681754764,-0.14697978681754764,0.6331477678752753,0.5123741310007849,0.5255396973188802
115,0.900212754849724,0.462835197265267,0.7290509376744978,0.31242564612838697,-0.3124256461283871,0.5877871087213369,0.4166252915461107,0.43737755758445696
117,0.6491694364202966,0.35398941601764944,0.8031053029647658,0.4829973558817716,-0.4829973558817715,0.16617208053852506,0.3201079470829943,0.2951800204026471
118,0.8040826914816203,0.5946837403721906,0.8796206092363406,0.6563311107843729,-0.6563311107843728,0.14775158069724748,0.22328949845196777,0.20939895110942963
119,0.9983094390722393,0.8741214371450905,0.9567400599250615,0.8300708607723812,-0.8300708607723812,0.1682385782998581,0.12666919915268027,0.12418800192714885
120,1.050104640747741,1.0105795536658022,1.0327173446945128,1.0020426029780647,-1.0020426029780647,0.048062037769676325,0.03067474171644813,0.0395250870819388
121,1.041754704994661,1.0863285624286207,1.1059902196904396,1.1703712404954603,-1.17037124049546,-0.1286165355007991,-0.0643810208050204,-0.04457385743395981
123,1.2600001764986763,1.435457231569551,1.1753110590109808,1.3336028906478772,-1.3336028906478772,-0.07360271414920083,-0.15829183163689642,-0.17545705507087472
124,1.2771945885391698,1.5341362961484313,1.2399185526645224,1.4908413290475915,-1.4908413290475917,-0.21364674050842192,-0.25092277638306926,-0.2569417076092615
125,1.3092774505526843,1.646896804180368,1.2996725042506108,1.6418470895920687,-1.6418470895920687,-0.3325696390393844,-0.34217458534145795,-0.3376193536276837
126,1.316343012773304,1.7337158410653677,1.355059100160796,1.7870232548411318,-1.7870232548411313,-0.4706802420678273,-0.43196415468033544,-0.4173728282920637
128,1.4235062500922169,1.9604022924180133,1.4070210372523086,1.9272440895065914,-1.9272440895065923,-0.5037378394143754,-0.5202230522542837,-0.5368960423257965
129,1.4296158407349278,2.042716047468682,1.456650180768617,2.063553914918381,-2.0635539149183812,-0.6339380741834535,-0.6069037341497643,-0.6131002067337539
130,1.4753570136016814,2.163347052402235,1.5048514462923666,2.196831047160365,-2.1968310471603654,-0.721474033558684,-0.6919796008679988,-0.6879900388005535
131,1.5410667534018558,2.3025038414385697,1.5521054360195137,2.3275362189813555,-2.3275362189813555,-0.7864694655794997,-0.7754307829618419,-0.7614370880367138
133,1.646433412673518,2.514207676638706,1.5984163137817933,2.4556346748569813,-2.4556346748569817,-0.8092012621834637,-0.8572183610751885,-0.8677742639651878
134,1.650770687633058,2.5875482070580014,1.6434523310854,2.5807111850468516,-2.580711185046852,-0.9299404974137941,-0.9372588539614521,-0.9367775194249435
135,1.6546040350592977,2.6586530144461236,1.6868077756828201,2.7022207561241487,-2.702220756124149,-1.0476167210648515,-1.015412980441329,-1.0040489793868261
137,1.7584465688834894,2.8577146443324706,1.7282738275494252,2.819770717608187,-2.819770717608187,-1.0613241487246978,-1.091496890058762,-1.0992680754489812
138,1.7610922496207746,2.9228702815587955,1.7680196761502842,2.9333333333489553,-2.9333333333489553,-1.1722410837281807,-1.165313657198671,-1.161778031938021
140,1.8636570510581776,3.112606881538943,1.806639646147578,3.043332668678789,-3.043332668678789,-1.1796756176206116,-1.2366930225312112,-1.2489498304807656
141,1.836545671464219,3.14325539331026,1.8450825364100982,3.150605749367667,-3.150605749367667,-1.3140600779034481,-1.305523212957569,-1.3067097218460408
142,1.7424992248720454,3.105117879216724,1.8845162834935212,3.2562786156819072,-3.256278615681908,-1.5137793908098627,-1.371762332188387,-1.3626186543446788
144,1.932614500304964,3.3719378753323617,1.926183749771405,3.361609968341819,-3.361609968341818,-1.428995468036854,-1.435426218570413,-1.4393233750273977
145,2.17305892184616,3.6637127264358025,1.9712799633459424,3.4678398944242983,-3.4678398944242987,-1.2947809725781387,-1.4965599310783564,-1.4906538045896425
147,1.9817332826372185,3.541976437028068,2.0208449268172144,3.576051160571307,-3.5760511605713057,-1.5943178779340872,-1.5552062337540913,-1.5602431543908493
148,1.925503511421673,3.5326808758451502,2.075639813352785,3.6870239678806414,-3.687023967880641,-1.761520456458968,-1.611384154527856,-1.6071773644234773
150,2.166640111515205,3.836724048809732,2.135972882937623,3.801057619814207,-3.801057619814208,-1.634417508299003,-1.6650847368765849,-1.6700839372945269
151,2.211945322008388,3.9246971595507034,2.201464215401616,3.9177466601454105,-3.917746660145412,-1.7058013381370238,-1.7162824447437957,-1.7127518375423154
153,2.267472495634069,4.036784701272897,2.270775237328463,4.035728886333379,-4.035728886333378,-1.768256390699309,-1.764953649004915,-1.769312205638828
154,2.2896203872391707,4.097361000095571,2.3413702002461205,4.152461568443968,-4.152461568443967,-1.8628411812047965,-1.8110913681978467,-1.8077406128564002
156,2.438057307540042,4.296214004815853,2.4094119652556785,4.264120451892932,-4.264120451892933,-1.826063144352891,-1.8547084866372545,-1.8581566972758106
157,2.4705040454860976,4.362757143185672,2.469908551673652,4.365736577916353,-4.365736577916352,-1.8952325324302546,-1.8958280262427003,-1.8922530976995748
159,2.5039540292047864,4.440548873881763,2.5172022914148915,4.451667767354847,-4.451667767354846,-1.9477137381500595,-1.9344654759399544,-1.9365948446769763
160,2.571268719913297,4.537442022972394,2.545819765078952,4.516431652984038,-4.516431652984038,-1.9451629330707414,-1.9706118879050862,-1.9661733030590969
162,2.570205668208152,4.574630767424656,2.5515865029210563,4.5558126196050654,-4.5558126196050654,-1.9856069513969135,-2.004226116684009,-2.0044250992165047
