frequency,raw,error,smoothed,error_smoothed,equalization,parametric_eq,equalized_raw,equalized_smoothed,target
20,0.88,-4.67,0.93,-4.59,4.59,1.38,5.47,5.52,5.54
21,1.11,-4.43,1.12,-4.40,4.40,1.59,5.51,5.52,5.54
22,1.31,-4.22,1.29,-4.22,4.22,1.82,5.53,5.52,5.53
23,1.49,-4.04,1.46,-4.05,4.05,2.06,5.54,5.52,5.52
24,1.65,-3.87,1.62,-3.89,3.89,2.32,5.53,5.51,5.51
25,1.80,-3.71,1.77,-3.73,3.73,2.59,5.53,5.50,5.51
26,1.94,-3.56,1.92,-3.58,3.58,2.86,5.52,5.50,5.50
27,2.07,-3.42,2.05,-3.43,3.43,3.11,5.50,5.49,5.49
28,2.19,-3.29,2.18,-3.30,3.30,3.32,5.49,5.48,5.48
29,2.30,-3.17,2.30,-3.17,3.17,3.49,5.47,5.47,5.46
30,2.41,-3.04,2.41,-3.05,3.05,3.60,5.45,5.46,5.45
31,2.51,-2.93,2.50,-2.93,2.93,3.66,5.44,5.44,5.44
32,2.59,-2.84,2.59,-2.83,2.83,3.64,5.42,5.42,5.43
33,2.68,-2.73,2.67,-2.74,2.74,3.58,5.41,5.41,5.41
34,2.75,-2.65,2.75,-2.65,2.65,3.47,5.39,5.39,5.39
35,2.82,-2.56,2.82,-2.56,2.56,3.33,5.38,5.38,5.38
36,2.89,-2.47,2.88,-2.48,2.48,3.17,5.36,5.36,5.36
37,2.95,-2.40,2.94,-2.40,2.40,3.00,5.34,5.34,5.34
38,3.00,-2.33,3.00,-2.32,2.32,2.83,5.32,5.32,5.32
39,3.05,-2.26,3.05,-2.25,2.25,2.66,5.29,5.30,5.30
40,3.10,-2.18,3.10,-2.17,2.17,2.50,5.27,5.28,5.28
41,3.15,-2.11,3.15,-2.10,2.10,2.35,5.25,5.25,5.26
42,3.19,-2.05,3.20,-2.03,2.03,2.21,5.22,5.23,5.24
43,3.24,-1.98,3.25,-1.96,1.96,2.08,5.20,5.21,5.21
44,3.28,-1.91,3.29,-1.90,1.90,1.96,5.17,5.19,5.19
45,3.32,-1.84,3.33,-1.83,1.83,1.85,5.15,5.16,5.16
46,3.36,-1.78,3.36,-1.77,1.77,1.75,5.13,5.13,5.13
47,3.40,-1.71,3.39,-1.71,1.71,1.67,5.10,5.10,5.11
48,3.43,-1.65,3.42,-1.65,1.65,1.59,5.08,5.07,5.08
49,3.47,-1.58,3.45,-1.59,1.59,1.51,5.06,5.04,5.05
50,3.52,-1.50,3.48,-1.54,1.54,1.45,5.06,5.01,5.01
51,3.54,-1.44,3.49,-1.48,1.48,1.39,5.02,4.98,4.98
52,3.52,-1.43,3.51,-1.43,1.43,1.33,4.95,4.94,4.95
53,3.47,-1.44,3.52,-1.38,1.38,1.28,4.85,4.91,4.91
54,3.49,-1.39,3.54,-1.34,1.34,1.23,4.82,4.87,4.88
55,3.55,-1.29,3.55,-1.29,1.29,1.18,4.83,4.83,4.84
56,3.59,-1.21,3.56,-1.23,1.23,1.14,4.82,4.79,4.80
57,3.59,-1.17,3.57,-1.18,1.18,1.09,4.77,4.76,4.76
58,3.57,-1.15,3.59,-1.13,1.13,1.05,4.70,4.72,4.72
59,3.56,-1.12,3.60,-1.07,1.07,1.00,4.63,4.68,4.68
60,3.60,-1.04,3.61,-1.02,1.02,0.95,4.61,4.63,4.64
61,3.64,-0.96,3.63,-0.96,0.96,0.91,4.59,4.59,4.60
62,3.67,-0.88,3.65,-0.90,0.90,0.86,4.57,4.55,4.55
63,3.69,-0.82,3.67,-0.84,0.84,0.81,4.52,4.50,4.51
64,3.70,-0.76,3.68,-0.77,0.77,0.76,4.47,4.46,4.46
65,3.71,-0.71,3.69,-0.71,0.71,0.71,4.42,4.41,4.41
66,3.71,-0.66,3.71,-0.65,0.65,0.65,4.36,4.36,4.37
67,3.72,-0.60,3.73,-0.59,0.59,0.60,4.31,4.32,4.32
68,3.73,-0.54,3.74,-0.53,0.53,0.54,4.25,4.27,4.27
69,3.73,-0.49,3.76,-0.47,0.47,0.48,4.19,4.22,4.22
70,3.75,-0.42,3.76,-0.41,0.41,0.43,4.16,4.17,4.17
71,3.77,-0.35,3.76,-0.35,0.35,0.37,4.12,4.11,4.12
72,3.79,-0.28,3.77,-0.29,0.29,0.31,4.08,4.06,4.07
73,3.81,-0.21,3.77,-0.24,0.24,0.25,4.05,4.01,4.02
74,3.81,-0.16,3.77,-0.18,0.18,0.19,3.99,3.96,3.97
75,3.79,-0.13,3.78,-0.13,0.13,0.13,3.91,3.90,3.91
76,3.78,-0.08,3.78,-0.07,0.07,0.07,3.85,3.85,3.86
77,3.76,-0.05,3.79,-0.01,0.01,0.01,3.77,3.80,3.81
78,3.76,0.00,3.79,0.04,-0.04,-0.05,3.72,3.75,3.76
79,3.76,0.06,3.79,0.10,-0.10,-0.11,3.66,3.70,3.70
80,3.79,0.14,3.80,0.15,-0.15,-0.17,3.63,3.64,3.65
81,3.81,0.21,3.80,0.21,-0.21,-0.23,3.60,3.59,3.59
82,3.82,0.28,3.80,0.27,-0.27,-0.29,3.55,3.53,3.54
83,3.82,0.33,3.81,0.33,-0.33,-0.35,3.49,3.48,3.49
84,3.83,0.39,3.81,0.39,-0.39,-0.41,3.44,3.43,3.43
85,3.84,0.46,3.82,0.45,-0.45,-0.47,3.39,3.37,3.38
86,3.83,0.50,3.83,0.50,-0.50,-0.53,3.32,3.32,3.33
87,3.83,0.56,3.83,0.56,-0.56,-0.59,3.26,3.27,3.27
88,3.83,0.61,3.84,0.62,-0.62,-0.65,3.21,3.22,3.22
89,3.83,0.66,3.84,0.68,-0.68,-0.71,3.15,3.16,3.17
90,3.83,0.72,3.85,0.74,-0.74,-0.77,3.09,3.11,3.11
91,3.84,0.78,3.85,0.79,-0.79,-0.83,3.05,3.06,3.06
92,3.85,0.84,3.85,0.85,-0.85,-0.89,3.00,3.01,3.01
93,3.86,0.90,3.85,0.90,-0.90,-0.94,2.96,2.95,2.95
94,3.86,0.96,3.85,0.95,-0.95,-1.00,2.91,2.90,2.90
95,3.87,1.02,3.85,1.00,-1.00,-1.06,2.87,2.84,2.85
96,3.87,1.07,3.85,1.05,-1.05,-1.12,2.81,2.79,2.80
97,3.86,1.11,3.84,1.10,-1.10,-1.18,2.75,2.74,2.75
98,3.85,1.15,3.84,1.15,-1.15,-1.24,2.69,2.69,2.70
99,3.84,1.19,3.84,1.20,-1.20,-1.30,2.63,2.63,2.65
100,3.82,1.22,3.83,1.25,-1.25,-1.36,2.56,2.58,2.60
101,3.80,1.25,3.83,1.30,-1.30,-1.41,2.50,2.53,2.55
102,3.80,1.30,3.82,1.35,-1.35,-1.47,2.45,2.47,2.50
104,3.82,1.41,3.82,1.40,-1.40,-1.58,2.42,2.42,2.41
105,3.82,1.46,3.81,1.45,-1.45,-1.64,2.37,2.37,2.36
106,3.83,1.51,3.81,1.49,-1.49,-1.69,2.34,2.32,2.31
107,3.82,1.55,3.81,1.54,-1.54,-1.74,2.28,2.27,2.27
108,3.82,1.60,3.80,1.58,-1.58,-1.80,2.23,2.22,2.22
109,3.81,1.63,3.80,1.63,-1.63,-1.85,2.18,2.17,2.18
110,3.80,1.66,3.80,1.68,-1.68,-1.89,2.12,2.13,2.13
111,3.79,1.70,3.80,1.72,-1.72,-1.94,2.07,2.08,2.09
112,3.79,1.74,3.80,1.76,-1.76,-1.99,2.03,2.04,2.05
113,3.79,1.78,3.80,1.80,-1.80,-2.03,1.98,1.99,2.01
114,3.79,1.82,3.79,1.85,-1.85,-2.07,1.94,1.95,1.96
115,3.79,1.86,3.79,1.89,-1.89,-2.11,1.90,1.90,1.92
117,3.80,1.95,3.78,1.93,-1.93,-2.19,1.87,1.85,1.84
118,3.79,1.98,3.78,1.97,-1.97,-2.22,1.82,1.81,1.80
119,3.78,2.01,3.77,2.01,-2.01,-2.25,1.77,1.76,1.77
120,3.78,2.05,3.77,2.05,-2.05,-2.28,1.73,1.72,1.73
121,3.77,2.08,3.77,2.09,-2.09,-2.31,1.68,1.67,1.69
123,3.75,2.13,3.76,2.13,-2.13,-2.36,1.62,1.63,1.62
124,3.75,2.16,3.76,2.17,-2.17,-2.38,1.58,1.59,1.58
125,3.74,2.19,3.75,2.21,-2.21,-2.40,1.53,1.54,1.55
126,3.74,2.22,3.75,2.25,-2.25,-2.42,1.49,1.50,1.52
128,3.74,2.29,3.74,2.28,-2.28,-2.44,1.45,1.46,1.45
129,3.74,2.32,3.74,2.32,-2.32,-2.46,1.42,1.42,1.42
130,3.74,2.35,3.73,2.35,-2.35,-2.47,1.39,1.38,1.38
131,3.74,2.38,3.72,2.38,-2.38,-2.47,1.36,1.34,1.35
133,3.73,2.43,3.71,2.41,-2.41,-2.49,1.32,1.30,1.29
134,3.72,2.45,3.70,2.44,-2.44,-2.49,1.28,1.26,1.26
135,3.69,2.45,3.69,2.46,-2.46,-2.49,1.22,1.22,1.23
137,3.66,2.48,3.67,2.49,-2.49,-2.50,1.17,1.18,1.18
138,3.65,2.50,3.66,2.51,-2.51,-2.50,1.14,1.15,1.15
140,3.63,2.53,3.64,2.53,-2.53,-2.49,1.09,1.11,1.10
141,3.62,2.55,3.63,2.56,-2.56,-2.49,1.06,1.07,1.07
142,3.61,2.56,3.61,2.58,-2.58,-2.49,1.03,1.03,1.05
144,3.59,2.59,3.60,2.60,-2.60,-2.48,0.99,1.00,1.00
145,3.59,2.61,3.58,2.62,-2.62,-2.48,0.97,0.96,0.97
147,3.58,2.65,3.57,2.64,-2.64,-2.47,0.94,0.93,0.93
148,3.56,2.65,3.56,2.66,-2.66,-2.47,0.90,0.90,0.91
150,3.55,2.69,3.55,2.68,-2.68,-2.46,0.87,0.87,0.86
151,3.54,2.70,3.54,2.70,-2.70,-2.46,0.84,0.84,0.84
153,3.54,2.74,3.53,2.72,-2.72,-2.46,0.81,0.81,0.80
154,3.53,2.75,3.52,2.74,-2.74,-2.46,0.78,0.78,0.78
156,3.51,2.77,3.51,2.76,-2.76,-2.45,0.74,0.75,0.74
157,3.50,2.78,3.50,2.78,-2.78,-2.45,0.71,0.72,0.72
159,3.49,2.80,3.49,2.80,-2.80,-2.45,0.68,0.69,0.69
160,3.49,2.82,3.48,2.82,-2.82,-2.46,0.66,0.66,0.67
162,3.47,2.83,3.47,2.84,-2.84,-2.46,0.62,0.63,0.63
164,3.46,2.86,3.47,2.86,-2.86,-2.47,0.59,0.60,0.60
165,3.46,2.87,3.46,2.88,-2.88,-2.47,0.57,0.58,0.59
167,3.45,2.89,3.46,2.90,-2.90,-2.48,0.55,0.55,0.55
169,3.45,2.92,3.45,2.92,-2.92,-2.50,0.53,0.53,0.52
170,3.44,2.93,3.44,2.94,-2.94,-2.50,0.50,0.51,0.51
172,3.44,2.96,3.43,2.95,-2.95,-2.52,0.48,0.48,0.48
174,3.44,2.98,3.42,2.97,-2.97,-2.54,0.47,0.46,0.45
175,3.43,2.99,3.41,2.98,-2.98,-2.55,0.45,0.43,0.44
177,3.43,3.01,3.40,2.99,-2.99,-2.58,0.43,0.41,0.42
179,3.41,3.02,3.39,3.01,-3.01,-2.60,0.40,0.39,0.39
181,3.39,3.02,3.38,3.02,-3.02,-2.63,0.37,0.36,0.37
183,3.36,3.01,3.37,3.03,-3.03,-2.66,0.33,0.34,0.35
184,3.35,3.01,3.37,3.04,-3.04,-2.68,0.31,0.32,0.33
186,3.34,3.03,3.36,3.05,-3.05,-2.71,0.28,0.30,0.31
188,3.33,3.04,3.35,3.07,-3.07,-2.75,0.26,0.28,0.29
190,3.33,3.06,3.34,3.08,-3.08,-2.78,0.25,0.26,0.27
192,3.34,3.08,3.34,3.09,-3.09,-2.82,0.25,0.25,0.25
194,3.34,3.10,3.33,3.11,-3.11,-2.86,0.23,0.23,0.23
196,3.35,3.13,3.33,3.12,-3.12,-2.90,0.23,0.21,0.22
198,3.35,3.15,3.33,3.14,-3.14,-2.94,0.21,0.20,0.20
200,3.34,3.15,3.33,3.15,-3.15,-2.99,0.19,0.18,0.18
202,3.33,3.16,3.33,3.16,-3.16,-3.03,0.17,0.17,0.17
204,3.32,3.17,3.33,3.17,-3.17,-3.07,0.14,0.16,0.15
206,3.32,3.18,3.32,3.18,-3.18,-3.12,0.14,0.14,0.14
208,3.31,3.18,3.31,3.19,-3.19,-3.16,0.12,0.13,0.12
210,3.31,3.20,3.30,3.19,-3.19,-3.20,0.11,0.11,0.11
212,3.31,3.21,3.29,3.19,-3.19,-3.25,0.11,0.09,0.10
214,3.29,3.20,3.27,3.19,-3.19,-3.29,0.09,0.08,0.08
216,3.28,3.21,3.26,3.19,-3.19,-3.33,0.09,0.06,0.07
218,3.25,3.19,3.24,3.19,-3.19,-3.37,0.06,0.05,0.06
221,3.22,3.18,3.23,3.19,-3.19,-3.43,0.03,0.04,0.04
223,3.19,3.16,3.21,3.18,-3.18,-3.46,0.00,0.03,0.03
225,3.18,3.16,3.20,3.18,-3.18,-3.49,-0.00,0.02,0.02
227,3.17,3.16,3.18,3.17,-3.17,-3.52,-0.01,0.01,0.01
229,3.16,3.16,3.16,3.17,-3.17,-3.55,-0.01,-0.01,0.00
232,3.15,3.16,3.15,3.17,-3.17,-3.59,-0.02,-0.02,-0.01
234,3.14,3.16,3.13,3.16,-3.16,-3.61,-0.02,-0.03,-0.02
236,3.13,3.16,3.12,3.16,-3.16,-3.63,-0.03,-0.04,-0.03
239,3.12,3.16,3.11,3.15,-3.15,-3.65,-0.04,-0.05,-0.04
241,3.10,3.15,3.10,3.15,-3.15,-3.65,-0.05,-0.05,-0.05
244,3.09,3.15,3.08,3.14,-3.14,-3.66,-0.06,-0.06,-0.06
246,3.07,3.14,3.07,3.14,-3.14,-3.66,-0.07,-0.07,-0.07
248,3.05,3.13,3.05,3.13,-3.13,-3.66,-0.08,-0.08,-0.08
251,3.03,3.12,3.03,3.12,-3.12,-3.65,-0.09,-0.09,-0.09
253,3.02,3.11,3.01,3.11,-3.11,-3.64,-0.09,-0.10,-0.10
256,3.00,3.10,2.99,3.10,-3.10,-3.62,-0.10,-0.10,-0.10
259,2.97,3.08,2.97,3.09,-3.09,-3.59,-0.12,-0.11,-0.11
261,2.96,3.08,2.95,3.07,-3.07,-3.56,-0.11,-0.12,-0.12
264,2.93,3.06,2.93,3.06,-3.06,-3.52,-0.13,-0.13,-0.13
266,2.91,3.04,2.91,3.04,-3.04,-3.49,-0.13,-0.14,-0.13
269,2.88,3.02,2.88,3.03,-3.03,-3.45,-0.15,-0.14,-0.14
272,2.86,3.01,2.86,3.01,-3.01,-3.39,-0.15,-0.15,-0.15
274,2.84,2.99,2.83,2.99,-2.99,-3.36,-0.15,-0.16,-0.15
277,2.81,2.97,2.81,2.97,-2.97,-3.30,-0.16,-0.16,-0.16
280,2.78,2.95,2.78,2.95,-2.95,-3.23,-0.17,-0.17,-0.17
283,2.75,2.92,2.76,2.93,-2.93,-3.17,-0.18,-0.18,-0.18
286,2.72,2.90,2.73,2.91,-2.91,-3.10,-0.19,-0.18,-0.18
288,2.71,2.89,2.70,2.89,-2.89,-3.06,-0.18,-0.19,-0.19
291,2.68,2.87,2.67,2.86,-2.86,-2.99,-0.19,-0.19,-0.19
294,2.65,2.84,2.64,2.84,-2.84,-2.92,-0.19,-0.20,-0.20
297,2.62,2.82,2.61,2.82,-2.82,-2.85,-0.20,-0.20,-0.20
300,2.59,2.80,2.58,2.79,-2.79,-2.79,-0.20,-0.21,-0.21
303,2.55,2.76,2.55,2.77,-2.77,-2.72,-0.22,-0.21,-0.21
306,2.52,2.74,2.52,2.74,-2.74,-2.65,-0.22,-0.22,-0.22
309,2.49,2.71,2.49,2.71,-2.71,-2.58,-0.22,-0.22,-0.22
312,2.46,2.68,2.46,2.69,-2.69,-2.51,-0.23,-0.23,-0.23
316,2.42,2.65,2.42,2.66,-2.66,-2.43,-0.24,-0.23,-0.23
319,2.39,2.62,2.39,2.63,-2.63,-2.36,-0.24,-0.24,-0.24
322,2.36,2.60,2.36,2.60,-2.60,-2.30,-0.24,-0.24,-0.24
325,2.33,2.57,2.33,2.57,-2.57,-2.24,-0.24,-0.25,-0.24
328,2.30,2.55,2.29,2.54,-2.54,-2.18,-0.24,-0.25,-0.25
332,2.26,2.51,2.26,2.51,-2.51,-2.10,-0.26,-0.25,-0.25
335,2.23,2.48,2.23,2.48,-2.48,-2.05,-0.26,-0.26,-0.26
338,2.20,2.46,2.19,2.45,-2.45,-1.99,-0.26,-0.26,-0.26
342,2.16,2.42,2.16,2.42,-2.42,-1.92,-0.27,-0.26,-0.26
345,2.13,2.39,2.13,2.39,-2.39,-1.87,-0.27,-0.27,-0.27
349,2.09,2.36,2.09,2.36,-2.36,-1.80,-0.27,-0.27,-0.27
352,2.06,2.33,2.06,2.33,-2.33,-1.76,-0.27,-0.27,-0.27
356,2.02,2.29,2.02,2.30,-2.30,-1.69,-0.28,-0.28,-0.28
359,1.99,2.27,1.99,2.27,-2.27,-1.65,-0.28,-0.28,-0.28
363,1.95,2.23,1.95,2.23,-2.23,-1.59,-0.29,-0.28,-0.28
366,1.92,2.20,1.92,2.20,-2.20,-1.55,-0.28,-0.29,-0.29
370,1.88,2.17,1.88,2.17,-2.17,-1.50,-0.29,-0.29,-0.29
374,1.84,2.13,1.84,2.13,-2.13,-1.44,-0.30,-0.29,-0.29
377,1.81,2.10,1.80,2.10,-2.10,-1.41,-0.29,-0.29,-0.29
381,1.77,2.06,1.77,2.06,-2.06,-1.36,-0.29,-0.30,-0.30
385,1.73,2.03,1.73,2.03,-2.03,-1.31,-0.30,-0.30,-0.30
389,1.69,1.99,1.69,1.99,-1.99,-1.27,-0.30,-0.30,-0.30
393,1.65,1.95,1.65,1.95,-1.95,-1.23,-0.30,-0.30,-0.30
397,1.60,1.90,1.60,1.91,-1.91,-1.19,-0.31,-0.31,-0.31
401,1.56,1.87,1.56,1.87,-1.87,-1.15,-0.31,-0.31,-0.31
405,1.52,1.83,1.52,1.83,-1.83,-1.11,-0.31,-0.31,-0.31
409,1.48,1.79,1.47,1.79,-1.79,-1.07,-0.31,-0.31,-0.31
413,1.43,1.74,1.43,1.75,-1.75,-1.04,-0.32,-0.32,-0.32
417,1.39,1.71,1.38,1.70,-1.70,-1.00,-0.31,-0.32,-0.32
421,1.34,1.66,1.33,1.66,-1.66,-0.97,-0.32,-0.32,-0.32
425,1.30,1.62,1.29,1.61,-1.61,-0.94,-0.32,-0.33,-0.32
430,1.24,1.56,1.24,1.57,-1.57,-0.90,-0.33,-0.33,-0.33
434,1.19,1.52,1.19,1.52,-1.52,-0.87,-0.33,-0.33,-0.33
438,1.14,1.47,1.15,1.48,-1.48,-0.84,-0.34,-0.33,-0.33
443,1.09,1.42,1.10,1.43,-1.43,-0.80,-0.34,-0.33,-0.33
447,1.05,1.38,1.05,1.38,-1.38,-0.78,-0.33,-0.33,-0.33
451,1.01,1.33,1.01,1.34,-1.34,-0.75,-0.33,-0.33,-0.33
456,0.96,1.28,0.96,1.29,-1.29,-0.72,-0.33,-0.32,-0.32
460,0.92,1.23,0.92,1.24,-1.24,-0.69,-0.32,-0.32,-0.32
465,0.88,1.19,0.88,1.19,-1.19,-0.66,-0.31,-0.31,-0.31
470,0.84,1.14,0.83,1.14,-1.14,-0.63,-0.30,-0.30,-0.30
474,0.79,1.08,0.79,1.08,-1.08,-0.61,-0.30,-0.29,-0.29
479,0.75,1.03,0.75,1.03,-1.03,-0.58,-0.28,-0.28,-0.28
484,0.70,0.97,0.70,0.97,-0.97,-0.55,-0.27,-0.27,-0.27
489,0.66,0.92,0.65,0.91,-0.91,-0.52,-0.25,-0.26,-0.26
494,0.61,0.85,0.60,0.84,-0.84,-0.49,-0.23,-0.25,-0.25
499,0.56,0.79,0.54,0.77,-0.77,-0.47,-0.22,-0.23,-0.23
504,0.50,0.72,0.48,0.70,-0.70,-0.44,-0.21,-0.22,-0.22
509,0.44,0.64,0.42,0.63,-0.63,-0.42,-0.20,-0.21,-0.20
514,0.38,0.56,0.37,0.56,-0.56,-0.39,-0.18,-0.19,-0.19
519,0.31,0.48,0.31,0.49,-0.49,-0.36,-0.18,-0.18,-0.17
524,0.24,0.39,0.26,0.42,-0.42,-0.34,-0.18,-0.16,-0.15
529,0.18,0.31,0.20,0.34,-0.34,-0.31,-0.16,-0.14,-0.13
535,0.13,0.24,0.15,0.27,-0.27,-0.28,-0.14,-0.12,-0.11
540,0.08,0.17,0.10,0.20,-0.20,-0.26,-0.12,-0.10,-0.09
545,0.05,0.12,0.05,0.13,-0.13,-0.24,-0.08,-0.08,-0.07
551,0.02,0.07,0.01,0.06,-0.06,-0.21,-0.05,-0.05,-0.05
556,-0.01,0.01,-0.03,-0.00,0.00,-0.18,-0.01,-0.03,-0.02
562,-0.05,-0.05,-0.07,-0.07,0.07,-0.15,0.02,-0.00,0.00
568,-0.10,-0.13,-0.11,-0.13,0.13,-0.13,0.03,0.03,0.03
573,-0.13,-0.19,-0.14,-0.20,0.20,-0.10,0.06,0.06,0.06
579,-0.18,-0.27,-0.17,-0.26,0.26,-0.07,0.08,0.09,0.09
585,-0.22,-0.34,-0.21,-0.32,0.32,-0.05,0.10,0.12,0.12
591,-0.25,-0.40,-0.24,-0.39,0.39,-0.02,0.14,0.15,0.15
596,-0.28,-0.46,-0.28,-0.45,0.45,0.00,0.17,0.18,0.18
602,-0.30,-0.51,-0.32,-0.52,0.52,0.03,0.22,0.20,0.21
608,-0.33,-0.57,-0.35,-0.58,0.58,0.06,0.25,0.23,0.24
615,-0.37,-0.64,-0.39,-0.65,0.65,0.09,0.28,0.26,0.27
621,-0.41,-0.71,-0.42,-0.72,0.72,0.12,0.30,0.29,0.30
627,-0.45,-0.78,-0.46,-0.78,0.78,0.14,0.33,0.32,0.33
633,-0.50,-0.86,-0.49,-0.85,0.85,0.17,0.34,0.36,0.36
639,-0.54,-0.94,-0.52,-0.91,0.91,0.20,0.37,0.39,0.39
646,-0.57,-1.00,-0.55,-0.98,0.98,0.23,0.40,0.43,0.43
652,-0.60,-1.06,-0.58,-1.04,1.04,0.26,0.44,0.46,0.46
659,-0.61,-1.10,-0.61,-1.10,1.10,0.29,0.49,0.49,0.49
665,-0.62,-1.15,-0.64,-1.16,1.16,0.32,0.54,0.52,0.53
672,-0.64,-1.20,-0.67,-1.22,1.22,0.35,0.58,0.56,0.56
679,-0.67,-1.27,-0.69,-1.28,1.28,0.38,0.61,0.59,0.60
686,-0.71,-1.35,-0.71,-1.34,1.34,0.41,0.63,0.63,0.64
692,-0.73,-1.41,-0.73,-1.40,1.40,0.44,0.67,0.67,0.67
699,-0.77,-1.48,-0.75,-1.46,1.46,0.47,0.69,0.71,0.71
706,-0.79,-1.54,-0.77,-1.52,1.52,0.50,0.73,0.75,0.75
713,-0.81,-1.60,-0.79,-1.58,1.58,0.53,0.77,0.79,0.79
721,-0.81,-1.64,-0.81,-1.64,1.64,0.57,0.83,0.83,0.83
728,-0.82,-1.69,-0.83,-1.69,1.69,0.60,0.87,0.86,0.86
735,-0.83,-1.73,-0.86,-1.75,1.75,0.63,0.92,0.90,0.90
742,-0.84,-1.78,-0.87,-1.81,1.81,0.67,0.97,0.94,0.94
750,-0.87,-1.85,-0.89,-1.86,1.86,0.70,0.99,0.98,0.98
757,-0.89,-1.91,-0.90,-1.92,1.92,0.74,1.03,1.01,1.02
765,-0.93,-1.99,-0.92,-1.97,1.97,0.77,1.04,1.05,1.06
773,-0.95,-2.05,-0.93,-2.02,2.02,0.81,1.07,1.09,1.09
780,-0.96,-2.09,-0.94,-2.07,2.07,0.84,1.10,1.13,1.13
788,-0.96,-2.13,-0.95,-2.11,2.11,0.88,1.15,1.16,1.17
796,-0.96,-2.16,-0.96,-2.15,2.15,0.92,1.19,1.19,1.20
804,-0.95,-2.19,-0.96,-2.19,2.19,0.95,1.24,1.23,1.23
812,-0.95,-2.22,-0.96,-2.23,2.23,0.99,1.27,1.26,1.27
820,-0.95,-2.25,-0.96,-2.26,2.26,1.03,1.31,1.29,1.30
828,-0.95,-2.28,-0.96,-2.28,2.28,1.06,1.33,1.33,1.33
837,-0.94,-2.30,-0.95,-2.31,2.31,1.10,1.37,1.36,1.36
845,-0.93,-2.32,-0.93,-2.33,2.33,1.14,1.40,1.39,1.39
853,-0.92,-2.34,-0.92,-2.34,2.34,1.17,1.42,1.42,1.42
862,-0.90,-2.35,-0.90,-2.35,2.35,1.21,1.45,1.45,1.45
871,-0.87,-2.35,-0.88,-2.35,2.35,1.25,1.48,1.48,1.48
879,-0.85,-2.36,-0.85,-2.35,2.35,1.28,1.50,1.50,1.51
888,-0.82,-2.36,-0.82,-2.35,2.35,1.32,1.52,1.53,1.54
897,-0.78,-2.35,-0.78,-2.33,2.33,1.35,1.55,1.55,1.57
906,-0.73,-2.33,-0.73,-2.31,2.31,1.39,1.58,1.58,1.59
915,-0.68,-2.30,-0.68,-2.29,2.29,1.42,1.60,1.61,1.62
924,-0.63,-2.28,-0.62,-2.25,2.25,1.45,1.62,1.64,1.65
933,-0.57,-2.24,-0.55,-2.22,2.22,1.48,1.64,1.67,1.67
943,-0.49,-2.19,-0.48,-2.18,2.18,1.51,1.68,1.70,1.70
952,-0.41,-2.14,-0.41,-2.13,2.13,1.54,1.72,1.72,1.72
962,-0.32,-2.07,-0.33,-2.08,2.08,1.57,1.76,1.75,1.75
971,-0.24,-2.02,-0.25,-2.03,2.03,1.59,1.79,1.78,1.78
981,-0.15,-1.95,-0.18,-1.98,1.98,1.62,1.82,1.80,1.80
991,-0.07,-1.90,-0.09,-1.92,1.92,1.64,1.85,1.83,1.83
1001,0.01,-1.85,-0.01,-1.86,1.86,1.66,1.87,1.85,1.86
1011,0.08,-1.80,0.07,-1.81,1.81,1.68,1.88,1.88,1.88
1021,0.16,-1.75,0.16,-1.75,1.75,1.70,1.91,1.90,1.91
1031,0.22,-1.72,0.24,-1.69,1.69,1.72,1.91,1.93,1.94
1041,0.31,-1.65,0.33,-1.63,1.63,1.73,1.93,1.96,1.96
1052,0.41,-1.58,0.42,-1.56,1.56,1.75,1.97,1.98,1.99
1062,0.49,-1.53,0.51,-1.50,1.50,1.76,1.99,2.01,2.02
1073,0.59,-1.46,0.60,-1.44,1.44,1.77,2.03,2.04,2.05
1084,0.70,-1.38,0.69,-1.38,1.38,1.79,2.08,2.07,2.08
1094,0.78,-1.33,0.78,-1.32,1.32,1.80,2.10,2.10,2.11
1105,0.88,-1.26,0.87,-1.27,1.27,1.81,2.14,2.14,2.14
1116,0.98,-1.19,0.96,-1.21,1.21,1.82,2.19,2.17,2.17
1128,1.07,-1.13,1.04,-1.16,1.16,1.83,2.23,2.21,2.20
1139,1.14,-1.09,1.12,-1.12,1.12,1.84,2.26,2.24,2.23
1150,1.21,-1.05,1.19,-1.08,1.08,1.85,2.29,2.27,2.26
1162,1.27,-1.03,1.25,-1.04,1.04,1.86,2.31,2.29,2.29
1173,1.32,-1.01,1.32,-1.01,1.01,1.87,2.33,2.32,2.33
1185,1.38,-0.98,1.37,-0.98,0.98,1.88,2.36,2.35,2.36
1197,1.43,-0.96,1.43,-0.95,0.95,1.89,2.38,2.38,2.39
1209,1.48,-0.94,1.49,-0.93,0.93,1.90,2.41,2.42,2.42
1221,1.52,-0.93,1.54,-0.91,0.91,1.92,2.42,2.45,2.45
1233,1.56,-0.93,1.59,-0.89,0.89,1.93,2.44,2.48,2.48
1246,1.62,-0.90,1.65,-0.87,0.87,1.95,2.49,2.52,2.52
1258,1.68,-0.87,1.70,-0.85,0.85,1.96,2.53,2.55,2.55
1271,1.75,-0.83,1.74,-0.84,0.84,1.98,2.59,2.58,2.58
1283,1.81,-0.81,1.79,-0.83,0.83,2.00,2.64,2.62,2.62
1296,1.87,-0.78,1.83,-0.82,0.82,2.02,2.69,2.65,2.65
1309,1.91,-0.78,1.87,-0.81,0.81,2.04,2.72,2.69,2.69
1322,1.94,-0.79,1.91,-0.81,0.81,2.06,2.75,2.72,2.72
1335,1.95,-0.81,1.95,-0.81,0.81,2.09,2.76,2.76,2.76
1349,1.96,-0.84,1.98,-0.82,0.82,2.12,2.78,2.80,2.80
1362,1.98,-0.86,2.01,-0.83,0.83,2.14,2.81,2.84,2.83
1376,2.01,-0.86,2.03,-0.85,0.85,2.18,2.85,2.88,2.87
1390,2.04,-0.87,2.05,-0.86,0.86,2.21,2.90,2.91,2.91
1404,2.07,-0.88,2.06,-0.89,0.89,2.24,2.95,2.95,2.95
1418,2.10,-0.89,2.07,-0.91,0.91,2.28,3.01,2.98,2.99
1432,2.12,-0.91,2.08,-0.94,0.94,2.32,3.05,3.02,3.03
1446,2.12,-0.95,2.09,-0.97,0.97,2.35,3.08,3.06,3.07
1461,2.11,-1.00,2.10,-1.00,1.00,2.40,3.10,3.10,3.10
1475,2.10,-1.04,2.11,-1.03,1.03,2.44,3.13,3.14,3.14
1490,2.09,-1.09,2.11,-1.06,1.06,2.48,3.15,3.18,3.18
1505,2.09,-1.13,2.12,-1.10,1.10,2.53,3.18,3.21,3.22
1520,2.10,-1.16,2.12,-1.13,1.13,2.58,3.23,3.25,3.26
1535,2.12,-1.19,2.13,-1.16,1.16,2.63,3.28,3.29,3.30
1550,2.14,-1.21,2.13,-1.20,1.20,2.68,3.34,3.33,3.35
1566,2.15,-1.24,2.14,-1.23,1.23,2.73,3.38,3.37,3.39
1582,2.16,-1.28,2.14,-1.27,1.27,2.79,3.42,3.41,3.44
1597,2.17,-1.31,2.15,-1.30,1.30,2.84,3.47,3.45,3.48
1613,2.17,-1.36,2.17,-1.33,1.33,2.90,3.50,3.50,3.53
1629,2.18,-1.39,2.18,-1.36,1.36,2.95,3.54,3.54,3.57
1646,2.20,-1.42,2.19,-1.39,1.39,3.01,3.59,3.59,3.62
1662,2.20,-1.46,2.21,-1.42,1.42,3.07,3.62,3.63,3.66
1679,2.22,-1.49,2.22,-1.45,1.45,3.13,3.67,3.68,3.71
1696,2.23,-1.53,2.24,-1.48,1.48,3.18,3.71,3.72,3.76
1713,2.25,-1.56,2.26,-1.51,1.51,3.24,3.76,3.77,3.80
1730,2.27,-1.58,2.28,-1.54,1.54,3.30,3.81,3.82,3.85
1747,2.30,-1.60,2.30,-1.57,1.57,3.35,3.87,3.87,3.90
1764,2.32,-1.63,2.32,-1.61,1.61,3.40,3.93,3.93,3.95
1782,2.35,-1.65,2.34,-1.64,1.64,3.45,3.99,3.99,4.00
1800,2.37,-1.68,2.36,-1.68,1.68,3.50,4.05,4.04,4.05
1818,2.40,-1.71,2.38,-1.72,1.72,3.55,4.12,4.10,4.10
1836,2.41,-1.75,2.40,-1.77,1.77,3.59,4.18,4.17,4.16
1854,2.41,-1.81,2.41,-1.82,1.82,3.63,4.23,4.23,4.22
1873,2.42,-1.86,2.42,-1.87,1.87,3.67,4.29,4.29,4.28
1892,2.43,-1.92,2.42,-1.93,1.93,3.70,4.36,4.35,4.35
1911,2.43,-1.99,2.42,-2.00,2.00,3.73,4.43,4.42,4.42
1930,2.43,-2.06,2.42,-2.07,2.07,3.75,4.49,4.49,4.49
1949,2.44,-2.13,2.42,-2.14,2.14,3.77,4.58,4.56,4.57
1969,2.42,-2.23,2.42,-2.21,2.21,3.78,4.63,4.64,4.65
1988,2.41,-2.32,2.42,-2.30,2.30,3.79,4.70,4.72,4.73
2008,2.41,-2.41,2.42,-2.38,2.38,3.79,4.79,4.80,4.81
