frequency,raw
20.00,6.97
20.20,7.01
20.40,7.05
20.61,7.09
20.81,7.13
21.02,7.17
21.23,7.21
21.44,7.26
21.66,7.30
21.87,7.34
22.09,7.38
22.31,7.42
22.54,7.46
22.76,7.50
22.99,7.54
23.22,7.58
23.45,7.62
23.69,7.66
23.92,7.70
24.16,7.74
24.40,7.78
24.65,7.82
24.89,7.86
25.14,7.90
25.39,7.94
25.65,7.98
25.91,8.03
26.16,8.07
26.43,8.10
26.69,8.14
26.96,8.18
27.23,8.22
27.50,8.26
27.77,8.30
28.05,8.34
28.33,8.38
28.62,8.42
28.90,8.46
29.19,8.49
29.48,8.53
29.78,8.56
30.08,8.60
30.38,8.64
30.68,8.67
30.99,8.71
31.30,8.74
31.61,8.77
31.93,8.80
32.24,8.83
32.57,8.87
32.89,8.90
33.22,8.93
33.55,8.97
33.89,9.00
34.23,9.03
34.57,9.06
34.92,9.09
35.27,9.12
35.62,9.15
35.97,9.18
36.33,9.20
36.70,9.22
37.06,9.24
37.43,9.27
37.81,9.30
38.19,9.32
38.57,9.34
38.95,9.36
39.34,9.38
39.74,9.41
40.14,9.44
40.54,9.46
40.94,9.48
41.35,9.50
41.76,9.52
42.18,9.54
42.60,9.56
43.03,9.58
43.46,9.60
43.90,9.62
44.33,9.64
44.78,9.65
45.23,9.67
45.68,9.69
46.13,9.71
46.60,9.72
47.06,9.73
47.53,9.74
48.01,9.75
48.49,9.76
48.97,9.77
49.46,9.78
49.96,9.80
50.46,9.82
50.96,9.84
51.47,9.86
51.99,9.88
52.51,9.90
53.03,9.91
53.56,9.93
54.10,9.95
54.64,9.97
55.18,9.98
55.74,9.99
56.29,10.01
56.86,10.02
57.42,10.04
58.00,10.06
58.58,10.08
59.16,10.09
59.76,10.11
60.35,10.13
60.96,10.15
61.57,10.16
62.18,10.17
62.80,10.19
63.43,10.19
64.07,10.20
64.71,10.20
65.35,10.20
66.01,10.19
66.67,10.18
67.33,10.18
68.01,10.17
68.69,10.17
69.37,10.17
70.07,10.17
70.77,10.17
71.48,10.17
72.19,10.17
72.91,10.17
73.64,10.17
74.38,10.17
75.12,10.17
75.87,10.17
76.63,10.17
77.40,10.17
78.17,10.17
78.95,10.17
79.74,10.17
80.54,10.17
81.35,10.17
82.16,10.17
82.98,10.17
83.81,10.17
84.65,10.17
85.50,10.17
86.35,10.17
87.22,10.17
88.09,10.18
88.97,10.19
89.86,10.20
90.76,10.20
91.66,10.19
92.58,10.18
93.51,10.16
94.44,10.14
95.39,10.11
96.34,10.08
97.30,10.05
98.28,10.02
99.26,9.98
100.25,9.95
101.25,9.92
102.27,9.90
103.29,9.88
104.32,9.86
105.37,9.84
106.42,9.83
107.48,9.83
108.56,9.83
109.64,9.84
110.74,9.85
111.85,9.85
112.97,9.85
114.10,9.86
115.24,9.87
116.39,9.87
117.55,9.87
118.73,9.86
119.92,9.84
121.12,9.82
122.33,9.80
123.55,9.77
124.79,9.74
126.03,9.69
127.29,9.67
128.57,9.64
129.85,9.60
131.15,9.57
132.46,9.56
133.79,9.54
135.12,9.53
136.48,9.53
137.84,9.52
139.22,9.51
140.61,9.50
142.02,9.47
143.44,9.45
144.87,9.41
146.32,9.39
147.78,9.35
149.26,9.32
150.75,9.29
152.26,9.27
153.78,9.24
155.32,9.22
156.88,9.18
158.44,9.16
160.03,9.13
161.63,9.11
163.24,9.10
164.88,9.07
166.53,9.05
168.19,9.02
169.87,8.98
171.57,8.94
173.29,8.90
175.02,8.84
176.77,8.80
178.54,8.77
180.32,8.74
182.13,8.71
183.95,8.67
185.79,8.65
187.65,8.63
189.52,8.61
191.42,8.59
193.33,8.56
195.27,8.53
197.22,8.51
199.19,8.48
201.18,8.46
203.19,8.44
205.23,8.41
207.28,8.38
209.35,8.36
211.44,8.33
213.56,8.30
215.69,8.26
217.85,8.22
220.03,8.19
222.23,8.16
224.45,8.14
226.70,8.12
228.96,8.09
231.25,8.07
233.57,8.03
235.90,7.97
238.26,7.92
240.64,7.87
243.05,7.83
245.48,7.79
247.93,7.75
250.41,7.72
252.92,7.67
255.45,7.65
258.00,7.61
260.58,7.56
263.19,7.51
265.82,7.45
268.48,7.41
271.16,7.36
273.87,7.30
276.61,7.27
279.38,7.22
282.17,7.17
284.99,7.12
287.84,7.04
290.72,6.99
293.63,6.94
296.57,6.91
299.53,6.87
302.53,6.83
305.55,6.78
308.61,6.73
311.69,6.68
314.81,6.65
317.96,6.61
321.14,6.55
324.35,6.48
327.59,6.42
330.87,6.37
334.18,6.32
337.52,6.27
340.90,6.22
344.30,6.15
347.75,6.10
351.23,6.04
354.74,5.98
358.28,5.92
361.87,5.87
365.49,5.79
369.14,5.72
372.83,5.67
376.56,5.62
380.33,5.57
384.13,5.51
387.97,5.46
391.85,5.40
395.77,5.34
399.73,5.29
403.72,5.24
407.76,5.18
411.84,5.12
415.96,5.06
420.12,5.00
424.32,4.95
428.56,4.90
432.85,4.83
437.18,4.76
441.55,4.71
445.96,4.65
450.42,4.58
454.93,4.53
459.48,4.47
464.07,4.41
468.71,4.35
473.40,4.28
478.13,4.21
482.91,4.16
487.74,4.10
492.62,4.03
497.55,3.96
502.52,3.90
507.55,3.84
512.62,3.78
517.75,3.71
522.93,3.63
528.16,3.56
533.44,3.51
538.77,3.45
544.16,3.38
549.60,3.32
555.10,3.25
560.65,3.19
566.25,3.14
571.92,3.08
577.64,3.02
583.41,2.96
589.25,2.90
595.14,2.84
601.09,2.78
607.10,2.72
613.17,2.66
619.30,2.60
625.50,2.53
631.75,2.46
638.07,2.40
644.45,2.34
650.89,2.27
657.40,2.21
663.98,2.16
670.62,2.10
677.32,2.04
684.10,1.99
690.94,1.92
697.85,1.86
704.83,1.80
711.87,1.74
718.99,1.68
726.18,1.63
733.44,1.56
740.78,1.49
748.19,1.44
755.67,1.38
763.23,1.32
770.86,1.27
778.57,1.20
786.35,1.14
794.22,1.08
802.16,1.05
810.18,1.01
818.28,0.95
826.46,0.89
834.73,0.84
843.08,0.79
851.51,0.75
860.02,0.72
868.62,0.67
877.31,0.61
886.08,0.56
894.94,0.51
903.89,0.46
912.93,0.42
922.06,0.37
931.28,0.33
940.59,0.28
950.00,0.23
959.50,0.19
969.09,0.15
978.78,0.11
988.57,0.05
998.46,0.01
1008.44,-0.04
1018.53,-0.07
1028.71,-0.09
1039.00,-0.11
1049.39,-0.13
1059.88,-0.16
1070.48,-0.20
1081.19,-0.24
1092.00,-0.27
1102.92,-0.30
1113.95,-0.33
1125.09,-0.36
1136.34,-0.38
1147.70,-0.41
1159.18,-0.45
1170.77,-0.48
1182.48,-0.50
1194.30,-0.53
1206.25,-0.54
1218.31,-0.55
1230.49,-0.55
1242.80,-0.54
1255.22,-0.53
1267.78,-0.53
1280.45,-0.53
1293.26,-0.53
1306.19,-0.53
1319.25,-0.53
1332.45,-0.53
1345.77,-0.53
1359.23,-0.53
1372.82,-0.53
1386.55,-0.53
1400.41,-0.54
1414.42,-0.55
1428.56,-0.55
1442.85,-0.55
1457.28,-0.54
1471.85,-0.52
1486.57,-0.50
1501.43,-0.48
1516.45,-0.45
1531.61,-0.41
1546.93,-0.38
1562.40,-0.35
1578.02,-0.31
1593.80,-0.27
1609.74,-0.23
1625.84,-0.20
1642.10,-0.18
1658.52,-0.18
1675.10,-0.19
1691.85,-0.21
1708.77,-0.25
1725.86,-0.30
1743.12,-0.34
1760.55,-0.37
1778.15,-0.40
1795.94,-0.43
1813.90,-0.44
1832.03,-0.45
1850.36,-0.45
1868.86,-0.44
1887.55,-0.43
1906.42,-0.41
1925.49,-0.39
1944.74,-0.34
1964.19,-0.28
1983.83,-0.22
2003.67,-0.13
2023.71,-0.02
2043.94,0.11
2064.38,0.27
2085.03,0.46
2105.88,0.68
2126.94,0.94
2148.20,1.23
2169.69,1.54
2191.38,1.89
2213.30,2.26
2235.43,2.63
2257.78,3.01
2280.36,3.42
2303.17,3.79
2326.20,4.16
2349.46,4.51
2372.95,4.87
2396.68,5.19
2420.65,5.50
2444.86,5.80
2469.31,6.06
2494.00,6.30
2518.94,6.52
2544.13,6.71
2569.57,6.86
2595.27,6.98
2621.22,7.09
2647.43,7.17
2673.90,7.24
2700.64,7.29
2727.65,7.32
2754.93,7.32
2782.48,7.30
2810.30,7.27
2838.40,7.22
2866.79,7.15
2895.46,7.05
2924.41,6.94
2953.65,6.81
2983.19,6.66
3013.02,6.49
3043.15,6.30
3073.58,6.09
3104.32,5.88
3135.36,5.64
3166.72,5.41
3198.38,5.19
3230.37,4.97
3262.67,4.74
3295.30,4.52
3328.25,4.30
3361.53,4.10
3395.15,3.90
3429.10,3.73
3463.39,3.57
3498.03,3.43
3533.01,3.30
3568.34,3.19
3604.02,3.11
3640.06,3.04
3676.46,3.00
3713.22,2.98
3750.36,2.99
3787.86,3.02
3825.74,3.08
3864.00,3.18
3902.64,3.30
3941.66,3.44
3981.08,3.59
4020.89,3.75
4061.10,3.95
4101.71,4.16
4142.73,4.40
4184.15,4.65
4226.00,4.91
4268.26,5.19
4310.94,5.48
4354.05,5.80
4397.59,6.12
4441.56,6.44
4485.98,6.76
4530.84,7.08
4576.15,7.39
4621.91,7.69
4668.13,7.95
4714.81,8.19
4761.96,8.39
4809.58,8.55
4857.67,8.68
4906.25,8.79
4955.31,8.86
5004.87,8.93
5054.91,8.96
5105.46,8.98
5156.52,8.97
5208.08,8.96
5260.16,8.94
5312.77,8.89
5365.89,8.80
5419.55,8.69
5473.75,8.53
5528.49,8.34
5583.77,8.11
5639.61,7.86
5696.00,7.56
5752.96,7.24
5810.49,6.89
5868.60,6.52
5927.28,6.12
5986.56,5.72
6046.42,5.30
6106.89,4.87
6167.96,4.41
6229.64,3.95
6291.93,3.46
6354.85,2.95
6418.40,2.45
6482.58,1.91
6547.41,1.35
6612.88,0.76
6679.01,0.14
6745.80,-0.48
6813.26,-1.10
6881.39,-1.72
6950.21,-2.34
7019.71,-2.95
7089.91,-3.52
7160.81,-4.08
7232.41,-4.60
7304.74,-5.12
7377.79,-5.60
7451.56,-6.03
7526.08,-6.43
7601.34,-6.80
7677.35,-7.14
7754.13,-7.44
7831.67,-7.69
7909.98,-7.94
7989.08,-8.17
8068.98,-8.38
8149.67,-8.55
8231.16,-8.69
8313.47,-8.79
8396.61,-8.86
8480.57,-8.89
8565.38,-8.88
8651.03,-8.83
8737.54,-8.74
8824.92,-8.62
8913.17,-8.45
9002.30,-8.23
9092.32,-7.97
9183.25,-7.69
9275.08,-7.36
9367.83,-7.03
9461.51,-6.68
9556.12,-6.33
9651.68,-5.99
9748.20,-5.67
9845.68,-5.36
9944.14,-5.07
10043.58,-4.81
10144.02,-4.58
10245.46,-4.40
10347.91,-4.26
10451.39,-4.15
10555.91,-4.09
10661.46,-4.07
10768.08,-4.09
10875.76,-4.12
10984.52,-4.19
11094.36,-4.30
11205.31,-4.43
11317.36,-4.58
11430.53,-4.77
11544.84,-4.98
11660.29,-5.22
11776.89,-5.50
11894.66,-5.80
12013.60,-6.13
12133.74,-6.50
12255.08,-6.88
12377.63,-7.29
12501.41,-7.71
12626.42,-8.13
12752.68,-8.56
12880.21,-8.98
13009.01,-9.40
13139.10,-9.80
13270.49,-10.20
13403.20,-10.59
13537.23,-10.96
13672.60,-11.30
13809.33,-11.64
13947.42,-11.99
14086.90,-12.35
14227.77,-12.73
14370.04,-13.18
14513.74,-13.72
14658.88,-14.36
14805.47,-15.12
14953.52,-16.02
15103.06,-17.07
15254.09,-18.26
15406.63,-19.60
15560.70,-21.05
15716.30,-22.59
15873.47,-24.20
16032.20,-25.86
16192.52,-27.53
16354.45,-29.18
16517.99,-30.76
16683.17,-32.26
16850.01,-33.65
17018.51,-34.94
17188.69,-36.09
17360.58,-37.13
17534.18,-38.09
17709.53,-38.97
17886.62,-39.77
18065.49,-40.50
18246.14,-41.23
18428.60,-41.94
18612.89,-42.60
18799.02,-43.20
18987.01,-43.75
19176.88,-44.25
19368.65,-44.69
19562.33,-45.09
19757.96,-45.44
19955.54,-45.74
