frequency,raw,error,smoothed,error_smoothed,equalization,parametric_eq,equalized_raw,equalized_smoothed,target
20.00,8.37,0.60,8.37,0.60,-0.60,-0.40,7.77,7.77,7.77
20.20,8.38,0.61,8.38,0.61,-0.61,-0.41,7.77,7.77,7.77
20.40,8.39,0.62,8.39,0.62,-0.62,-0.42,7.78,7.77,7.78
20.61,8.40,0.62,8.40,0.62,-0.62,-0.43,7.78,7.78,7.78
20.81,8.41,0.63,8.41,0.63,-0.63,-0.44,7.78,7.78,7.78
21.02,8.42,0.64,8.42,0.64,-0.64,-0.45,7.78,7.78,7.78
21.23,8.43,0.65,8.43,0.65,-0.65,-0.47,7.78,7.78,7.78
21.44,8.44,0.65,8.44,0.66,-0.66,-0.48,7.78,7.78,7.79
21.66,8.45,0.66,8.45,0.67,-0.67,-0.49,7.78,7.79,7.79
21.87,8.46,0.67,8.46,0.67,-0.67,-0.51,7.79,7.79,7.79
22.09,8.47,0.68,8.47,0.68,-0.68,-0.52,7.79,7.79,7.79
22.31,8.49,0.70,8.49,0.69,-0.69,-0.54,7.80,7.79,7.80
22.54,8.50,0.70,8.50,0.70,-0.70,-0.55,7.80,7.80,7.80
22.76,8.51,0.71,8.51,0.71,-0.71,-0.57,7.80,7.80,7.80
22.99,8.52,0.72,8.52,0.72,-0.72,-0.58,7.80,7.80,7.80
23.22,8.53,0.73,8.53,0.73,-0.73,-0.60,7.80,7.80,7.80
23.45,8.54,0.74,8.54,0.74,-0.74,-0.62,7.80,7.80,7.80
23.69,8.55,0.74,8.55,0.74,-0.74,-0.63,7.81,7.81,7.81
23.92,8.56,0.75,8.56,0.75,-0.75,-0.65,7.81,7.81,7.81
24.16,8.57,0.76,8.57,0.76,-0.76,-0.67,7.81,7.81,7.81
24.40,8.58,0.77,8.58,0.77,-0.77,-0.68,7.81,7.81,7.81
24.65,8.59,0.77,8.59,0.78,-0.78,-0.70,7.81,7.82,7.82
24.89,8.60,0.78,8.60,0.78,-0.78,-0.72,7.82,7.82,7.82
25.14,8.61,0.79,8.61,0.79,-0.79,-0.74,7.82,7.82,7.82
25.39,8.62,0.80,8.62,0.80,-0.80,-0.76,7.82,7.82,7.82
25.65,8.63,0.80,8.63,0.80,-0.80,-0.78,7.83,7.82,7.83
25.91,8.64,0.81,8.64,0.81,-0.81,-0.79,7.83,7.83,7.83
26.16,8.65,0.82,8.65,0.82,-0.82,-0.81,7.83,7.83,7.83
26.43,8.65,0.82,8.65,0.82,-0.82,-0.83,7.83,7.83,7.83
26.69,8.66,0.83,8.66,0.83,-0.83,-0.85,7.83,7.83,7.83
26.96,8.67,0.83,8.67,0.84,-0.84,-0.87,7.83,7.83,7.83
27.23,8.68,0.84,8.68,0.84,-0.84,-0.88,7.84,7.84,7.84
27.50,8.69,0.85,8.69,0.85,-0.85,-0.90,7.84,7.84,7.84
27.77,8.69,0.85,8.70,0.86,-0.86,-0.92,7.83,7.84,7.84
28.05,8.70,0.86,8.70,0.86,-0.86,-0.93,7.84,7.84,7.84
28.33,8.71,0.87,8.71,0.87,-0.87,-0.95,7.84,7.84,7.84
28.62,8.72,0.88,8.72,0.87,-0.87,-0.96,7.84,7.84,7.84
28.90,8.73,0.89,8.72,0.88,-0.88,-0.98,7.85,7.84,7.84
29.19,8.73,0.88,8.73,0.89,-0.89,-0.99,7.84,7.84,7.85
29.48,8.74,0.89,8.74,0.89,-0.89,-1.00,7.85,7.85,7.85
29.78,8.75,0.90,8.75,0.90,-0.90,-1.01,7.85,7.85,7.85
30.08,8.75,0.90,8.75,0.91,-0.91,-1.02,7.84,7.85,7.85
30.38,8.76,0.91,8.76,0.91,-0.91,-1.03,7.85,7.85,7.85
30.68,8.76,0.91,8.76,0.92,-0.92,-1.04,7.84,7.85,7.85
30.99,8.77,0.92,8.77,0.92,-0.92,-1.05,7.85,7.85,7.85
31.30,8.78,0.93,8.78,0.93,-0.93,-1.05,7.85,7.85,7.85
31.61,8.78,0.93,8.78,0.94,-0.94,-1.06,7.84,7.85,7.85
31.93,8.79,0.94,8.79,0.94,-0.94,-1.06,7.85,7.85,7.85
32.24,8.79,0.94,8.79,0.95,-0.95,-1.06,7.84,7.85,7.85
32.57,8.80,0.95,8.80,0.95,-0.95,-1.06,7.85,7.85,7.85
32.89,8.80,0.95,8.80,0.96,-0.96,-1.06,7.84,7.84,7.85
33.22,8.80,0.96,8.81,0.97,-0.97,-1.06,7.83,7.84,7.84
33.55,8.81,0.97,8.81,0.97,-0.97,-1.06,7.84,7.84,7.84
33.89,8.82,0.98,8.82,0.97,-0.97,-1.06,7.85,7.84,7.84
34.23,8.82,0.98,8.82,0.98,-0.98,-1.05,7.84,7.84,7.84
34.57,8.83,0.99,8.82,0.98,-0.98,-1.05,7.85,7.84,7.84
34.92,8.83,0.99,8.82,0.98,-0.98,-1.04,7.85,7.84,7.84
35.27,8.82,0.98,8.82,0.98,-0.98,-1.04,7.84,7.84,7.84
35.62,8.82,0.99,8.82,0.98,-0.98,-1.03,7.84,7.83,7.83
35.97,8.81,0.98,8.81,0.98,-0.98,-1.03,7.83,7.83,7.83
36.33,8.80,0.97,8.81,0.98,-0.98,-1.02,7.82,7.83,7.83
36.70,8.80,0.97,8.80,0.98,-0.98,-1.02,7.82,7.83,7.83
37.06,8.79,0.96,8.80,0.97,-0.97,-1.01,7.82,7.82,7.83
37.43,8.79,0.97,8.79,0.97,-0.97,-1.00,7.82,7.82,7.82
37.81,8.78,0.96,8.78,0.97,-0.97,-1.00,7.81,7.82,7.82
38.19,8.78,0.96,8.77,0.96,-0.96,-0.99,7.82,7.81,7.82
38.57,8.77,0.96,8.77,0.96,-0.96,-0.99,7.81,7.81,7.81
38.95,8.76,0.95,8.76,0.95,-0.95,-0.98,7.81,7.81,7.81
39.34,8.75,0.94,8.75,0.94,-0.94,-0.97,7.81,7.80,7.80
39.74,8.74,0.94,8.74,0.94,-0.94,-0.97,7.80,7.80,7.80
40.14,8.73,0.93,8.73,0.93,-0.93,-0.97,7.80,7.80,7.80
40.54,8.71,0.92,8.72,0.92,-0.92,-0.96,7.79,7.79,7.79
40.94,8.70,0.91,8.70,0.91,-0.91,-0.96,7.79,7.79,7.79
41.35,8.69,0.91,8.69,0.91,-0.91,-0.96,7.78,7.78,7.78
41.76,8.68,0.90,8.68,0.90,-0.90,-0.95,7.78,7.78,7.78
42.18,8.66,0.89,8.66,0.89,-0.89,-0.95,7.77,7.77,7.77
42.60,8.65,0.88,8.65,0.88,-0.88,-0.95,7.77,7.77,7.77
43.03,8.63,0.87,8.63,0.87,-0.87,-0.95,7.76,7.76,7.76
43.46,8.62,0.86,8.62,0.86,-0.86,-0.95,7.76,7.76,7.76
43.90,8.60,0.85,8.60,0.85,-0.85,-0.95,7.75,7.75,7.75
44.33,8.59,0.85,8.59,0.84,-0.84,-0.95,7.75,7.74,7.74
44.78,8.57,0.83,8.57,0.83,-0.83,-0.96,7.74,7.74,7.74
45.23,8.55,0.82,8.55,0.82,-0.82,-0.96,7.73,7.73,7.73
45.68,8.54,0.82,8.54,0.82,-0.82,-0.96,7.72,7.72,7.72
46.13,8.53,0.82,8.52,0.81,-0.81,-0.97,7.72,7.71,7.71
46.60,8.51,0.81,8.51,0.81,-0.81,-0.97,7.70,7.70,7.70
47.06,8.50,0.81,8.50,0.80,-0.80,-0.98,7.70,7.69,7.69
47.53,8.48,0.80,8.48,0.80,-0.80,-0.99,7.68,7.68,7.68
48.01,8.47,0.80,8.47,0.80,-0.80,-0.99,7.67,7.67,7.67
48.49,8.46,0.80,8.46,0.81,-0.81,-1.00,7.65,7.66,7.66
48.97,8.45,0.80,8.45,0.81,-0.81,-1.01,7.64,7.65,7.65
49.46,8.45,0.81,8.45,0.82,-0.82,-1.02,7.63,7.63,7.64
49.96,8.44,0.82,8.44,0.82,-0.82,-1.03,7.62,7.62,7.62
50.46,8.44,0.83,8.44,0.83,-0.83,-1.04,7.61,7.61,7.61
50.96,8.43,0.84,8.44,0.85,-0.85,-1.05,7.58,7.59,7.59
51.47,8.43,0.85,8.44,0.86,-0.86,-1.06,7.57,7.58,7.58
51.99,8.43,0.86,8.44,0.87,-0.87,-1.07,7.56,7.56,7.57
52.51,8.44,0.89,8.44,0.89,-0.89,-1.09,7.55,7.55,7.55
53.03,8.44,0.90,8.44,0.91,-0.91,-1.10,7.53,7.53,7.54
53.56,8.45,0.93,8.44,0.92,-0.92,-1.11,7.53,7.52,7.52
54.10,8.45,0.95,8.44,0.94,-0.94,-1.12,7.51,7.50,7.50
54.64,8.45,0.96,8.45,0.96,-0.96,-1.14,7.49,7.49,7.49
55.18,8.45,0.98,8.45,0.98,-0.98,-1.15,7.47,7.47,7.47
55.74,8.45,1.00,8.45,0.99,-0.99,-1.16,7.46,7.45,7.45
56.29,8.45,1.01,8.45,1.01,-1.01,-1.18,7.44,7.44,7.44
56.86,8.45,1.03,8.45,1.03,-1.03,-1.19,7.42,7.42,7.42
57.42,8.45,1.05,8.45,1.05,-1.05,-1.20,7.40,7.40,7.40
58.00,8.45,1.07,8.45,1.07,-1.07,-1.21,7.38,7.38,7.38
58.58,8.45,1.09,8.45,1.09,-1.09,-1.23,7.36,7.36,7.36
59.16,8.45,1.11,8.45,1.11,-1.11,-1.24,7.34,7.34,7.34
59.76,8.45,1.13,8.45,1.13,-1.13,-1.25,7.32,7.32,7.32
60.35,8.45,1.15,8.45,1.15,-1.15,-1.26,7.30,7.30,7.30
60.96,8.45,1.17,8.45,1.17,-1.17,-1.27,7.28,7.28,7.28
61.57,8.45,1.19,8.45,1.20,-1.20,-1.29,7.25,7.26,7.26
62.18,8.45,1.21,8.46,1.22,-1.22,-1.30,7.23,7.23,7.24
62.80,8.45,1.24,8.46,1.25,-1.25,-1.31,7.20,7.21,7.21
63.43,8.45,1.26,8.46,1.28,-1.28,-1.32,7.17,7.19,7.19
64.07,8.46,1.30,8.47,1.31,-1.31,-1.33,7.15,7.16,7.16
64.71,8.46,1.32,8.47,1.33,-1.33,-1.34,7.13,7.13,7.14
65.35,8.47,1.36,8.47,1.36,-1.36,-1.34,7.11,7.11,7.11
66.01,8.48,1.40,8.47,1.39,-1.39,-1.35,7.09,7.08,7.08
66.67,8.48,1.42,8.47,1.42,-1.42,-1.36,7.06,7.05,7.06
67.33,8.48,1.45,8.47,1.44,-1.44,-1.37,7.04,7.03,7.03
68.01,8.47,1.47,8.46,1.47,-1.47,-1.38,7.00,7.00,7.00
68.69,8.46,1.49,8.46,1.49,-1.49,-1.39,6.97,6.97,6.97
69.37,8.45,1.51,8.45,1.51,-1.51,-1.40,6.94,6.94,6.94
70.07,8.44,1.53,8.44,1.53,-1.53,-1.41,6.91,6.91,6.91
70.77,8.42,1.55,8.42,1.54,-1.54,-1.42,6.88,6.88,6.87
71.48,8.41,1.57,8.40,1.56,-1.56,-1.43,6.85,6.84,6.84
72.19,8.38,1.57,8.38,1.57,-1.57,-1.44,6.81,6.81,6.81
72.91,8.36,1.58,8.36,1.58,-1.58,-1.45,6.78,6.78,6.78
73.64,8.34,1.60,8.33,1.59,-1.59,-1.46,6.75,6.74,6.74
74.38,8.31,1.60,8.31,1.60,-1.60,-1.47,6.71,6.71,6.71
75.12,8.29,1.62,8.28,1.61,-1.61,-1.48,6.68,6.67,6.67
75.87,8.26,1.63,8.26,1.63,-1.63,-1.50,6.63,6.63,6.63
76.63,8.23,1.63,8.23,1.64,-1.64,-1.51,6.59,6.59,6.60
77.40,8.21,1.65,8.21,1.65,-1.65,-1.53,6.56,6.55,6.56
78.17,8.18,1.66,8.19,1.67,-1.67,-1.54,6.51,6.52,6.52
78.95,8.16,1.67,8.17,1.69,-1.69,-1.56,6.47,6.48,6.49
79.74,8.15,1.70,8.16,1.72,-1.72,-1.58,6.43,6.44,6.45
80.54,8.13,1.72,8.15,1.74,-1.74,-1.60,6.39,6.40,6.41
81.35,8.12,1.75,8.14,1.78,-1.78,-1.62,6.35,6.36,6.37
82.16,8.11,1.77,8.13,1.81,-1.81,-1.64,6.30,6.33,6.34
82.98,8.11,1.81,8.13,1.84,-1.84,-1.66,6.27,6.29,6.30
83.81,8.12,1.86,8.13,1.88,-1.88,-1.69,6.24,6.25,6.26
84.65,8.13,1.91,8.13,1.92,-1.92,-1.71,6.21,6.22,6.22
85.50,8.14,1.96,8.13,1.95,-1.95,-1.74,6.19,6.18,6.18
86.35,8.15,2.00,8.13,1.99,-1.99,-1.77,6.16,6.14,6.15
87.22,8.15,2.04,8.12,2.02,-2.02,-1.80,6.13,6.11,6.11
88.09,8.14,2.07,8.12,2.05,-2.05,-1.83,6.09,6.07,6.07
88.97,8.13,2.10,8.11,2.07,-2.07,-1.86,6.06,6.03,6.03
89.86,8.10,2.11,8.09,2.09,-2.09,-1.90,6.01,6.00,5.99
90.76,8.08,2.12,8.07,2.11,-2.11,-1.93,5.97,5.96,5.96
91.66,8.06,2.14,8.05,2.13,-2.13,-1.97,5.93,5.92,5.92
92.58,8.03,2.15,8.02,2.15,-2.15,-2.01,5.88,5.88,5.88
93.51,7.99,2.15,7.99,2.16,-2.16,-2.05,5.83,5.84,5.84
94.44,7.97,2.17,7.96,2.17,-2.17,-2.09,5.80,5.79,5.80
95.39,7.93,2.17,7.93,2.18,-2.18,-2.13,5.75,5.75,5.76
96.34,7.90,2.18,7.90,2.20,-2.20,-2.18,5.70,5.71,5.72
97.30,7.87,2.20,7.88,2.21,-2.21,-2.22,5.66,5.66,5.67
98.28,7.84,2.21,7.85,2.23,-2.23,-2.27,5.61,5.62,5.63
99.26,7.82,2.23,7.83,2.26,-2.26,-2.31,5.56,5.58,5.59
100.25,7.80,2.25,7.82,2.29,-2.29,-2.36,5.51,5.54,5.55
101.25,7.79,2.28,7.81,2.32,-2.32,-2.41,5.47,5.49,5.51
102.27,7.78,2.32,7.81,2.35,-2.35,-2.46,5.43,5.45,5.46
103.29,7.78,2.36,7.80,2.39,-2.39,-2.51,5.39,5.41,5.42
104.32,7.78,2.40,7.80,2.43,-2.43,-2.56,5.35,5.37,5.38
105.37,7.80,2.46,7.80,2.47,-2.47,-2.60,5.33,5.33,5.34
106.42,7.81,2.52,7.80,2.52,-2.52,-2.65,5.29,5.29,5.29
107.48,7.82,2.57,7.80,2.55,-2.55,-2.70,5.27,5.25,5.25
108.56,7.83,2.62,7.80,2.59,-2.59,-2.75,5.24,5.21,5.21
109.64,7.82,2.66,7.79,2.62,-2.62,-2.79,5.20,5.16,5.16
110.74,7.81,2.69,7.78,2.65,-2.65,-2.84,5.16,5.12,5.12
111.85,7.78,2.70,7.76,2.68,-2.68,-2.88,5.10,5.08,5.08
112.97,7.75,2.72,7.74,2.71,-2.71,-2.92,5.04,5.04,5.03
114.10,7.72,2.73,7.72,2.73,-2.73,-2.96,4.99,4.99,4.99
115.24,7.69,2.74,7.69,2.74,-2.74,-3.00,4.95,4.94,4.95
116.39,7.66,2.76,7.66,2.76,-2.76,-3.04,4.90,4.90,4.90
117.55,7.63,2.77,7.63,2.78,-2.78,-3.07,4.85,4.85,4.86
118.73,7.59,2.77,7.60,2.79,-2.79,-3.10,4.80,4.81,4.82
119.92,7.55,2.77,7.57,2.81,-2.81,-3.12,4.74,4.76,4.78
121.12,7.52,2.78,7.55,2.83,-2.83,-3.14,4.69,4.72,4.74
122.33,7.51,2.81,7.53,2.85,-2.85,-3.16,4.66,4.68,4.70
123.55,7.49,2.83,7.52,2.87,-2.87,-3.18,4.62,4.65,4.66
124.79,7.47,2.85,7.50,2.90,-2.90,-3.19,4.57,4.61,4.62
126.03,7.47,2.89,7.49,2.92,-2.92,-3.19,4.55,4.57,4.58
127.29,7.48,2.94,7.48,2.95,-2.95,-3.20,4.53,4.54,4.54
128.57,7.49,2.98,7.47,2.97,-2.97,-3.20,4.52,4.50,4.51
129.85,7.49,3.02,7.46,2.99,-2.99,-3.19,4.50,4.47,4.47
131.15,7.48,3.04,7.45,3.01,-3.01,-3.19,4.47,4.43,4.44
132.46,7.47,3.06,7.44,3.03,-3.03,-3.18,4.44,4.41,4.41
133.79,7.44,3.07,7.42,3.04,-3.04,-3.16,4.40,4.38,4.37
135.12,7.40,3.06,7.40,3.06,-3.06,-3.15,4.34,4.35,4.34
136.48,7.38,3.07,7.38,3.06,-3.06,-3.13,4.32,4.32,4.31
137.84,7.34,3.06,7.36,3.07,-3.07,-3.11,4.27,4.29,4.28
139.22,7.32,3.07,7.33,3.07,-3.07,-3.09,4.25,4.26,4.25
140.61,7.29,3.06,7.30,3.07,-3.07,-3.06,4.22,4.23,4.23
142.02,7.26,3.06,7.26,3.07,-3.07,-3.04,4.19,4.20,4.20
143.44,7.24,3.07,7.23,3.06,-3.06,-3.01,4.18,4.17,4.17
144.87,7.20,3.05,7.20,3.06,-3.06,-2.98,4.14,4.14,4.15
146.32,7.17,3.05,7.17,3.05,-3.05,-2.95,4.12,4.12,4.12
147.78,7.13,3.03,7.14,3.04,-3.04,-2.92,4.09,4.09,4.10
149.26,7.09,3.02,7.11,3.04,-3.04,-2.90,4.05,4.07,4.07
150.75,7.06,3.01,7.08,3.03,-3.03,-2.87,4.03,4.04,4.05
152.26,7.04,3.02,7.05,3.03,-3.03,-2.84,4.01,4.02,4.02
153.78,7.01,3.01,7.02,3.02,-3.02,-2.81,3.99,3.99,4.00
155.32,6.99,3.02,6.98,3.02,-3.02,-2.79,3.97,3.97,3.97
156.88,6.96,3.01,6.95,3.01,-3.01,-2.76,3.95,3.94,3.95
158.44,6.94,3.02,6.92,3.00,-3.00,-2.74,3.94,3.92,3.92
160.03,6.90,3.00,6.89,3.00,-3.00,-2.71,3.90,3.89,3.90
161.63,6.87,3.00,6.86,2.99,-2.99,-2.69,3.88,3.87,3.87
163.24,6.84,2.99,6.83,2.99,-2.99,-2.67,3.85,3.84,3.85
164.88,6.79,2.97,6.80,2.98,-2.98,-2.65,3.81,3.82,3.82
166.53,6.76,2.96,6.77,2.97,-2.97,-2.64,3.79,3.80,3.80
168.19,6.73,2.96,6.74,2.96,-2.96,-2.62,3.77,3.77,3.77
169.87,6.70,2.95,6.71,2.96,-2.96,-2.61,3.74,3.75,3.75
171.57,6.68,2.95,6.68,2.95,-2.95,-2.60,3.73,3.73,3.73
173.29,6.66,2.95,6.65,2.94,-2.94,-2.59,3.72,3.71,3.71
175.02,6.61,2.92,6.62,2.94,-2.94,-2.59,3.67,3.69,3.69
176.77,6.59,2.92,6.60,2.93,-2.93,-2.58,3.66,3.67,3.67
178.54,6.57,2.91,6.58,2.92,-2.92,-2.58,3.65,3.66,3.66
180.32,6.56,2.92,6.55,2.91,-2.91,-2.58,3.65,3.64,3.64
182.13,6.54,2.91,6.53,2.90,-2.90,-2.58,3.64,3.63,3.63
183.95,6.50,2.89,6.51,2.89,-2.89,-2.58,3.61,3.62,3.61
185.79,6.48,2.88,6.48,2.88,-2.88,-2.59,3.60,3.60,3.60
187.65,6.46,2.87,6.46,2.86,-2.86,-2.60,3.60,3.59,3.59
189.52,6.44,2.86,6.43,2.85,-2.85,-2.61,3.59,3.58,3.58
191.42,6.42,2.85,6.40,2.83,-2.83,-2.62,3.59,3.57,3.57
193.33,6.39,2.83,6.37,2.82,-2.82,-2.63,3.57,3.55,3.56
195.27,6.36,2.81,6.35,2.80,-2.80,-2.65,3.56,3.54,3.55
197.22,6.33,2.79,6.32,2.79,-2.79,-2.66,3.54,3.53,3.54
199.19,6.30,2.77,6.29,2.77,-2.77,-2.68,3.53,3.52,3.53
201.18,6.26,2.74,6.27,2.76,-2.76,-2.70,3.50,3.51,3.52
203.19,6.23,2.72,6.25,2.75,-2.75,-2.72,3.48,3.50,3.51
205.23,6.21,2.71,6.23,2.74,-2.74,-2.74,3.47,3.49,3.50
207.28,6.19,2.70,6.22,2.74,-2.74,-2.76,3.45,3.48,3.49
209.35,6.17,2.69,6.21,2.74,-2.74,-2.78,3.43,3.47,3.48
211.44,6.16,2.69,6.20,2.74,-2.74,-2.80,3.42,3.46,3.47
213.56,6.17,2.70,6.19,2.74,-2.74,-2.82,3.43,3.45,3.47
215.69,6.19,2.73,6.18,2.74,-2.74,-2.84,3.45,3.45,3.46
217.85,6.20,2.76,6.17,2.74,-2.74,-2.86,3.46,3.44,3.44
220.03,6.20,2.76,6.17,2.74,-2.74,-2.88,3.46,3.43,3.44
222.23,6.19,2.76,6.16,2.73,-2.73,-2.89,3.46,3.42,3.43
224.45,6.18,2.76,6.15,2.73,-2.73,-2.91,3.45,3.42,3.42
226.70,6.15,2.74,6.13,2.72,-2.72,-2.92,3.43,3.41,3.41
228.96,6.12,2.72,6.12,2.71,-2.71,-2.94,3.41,3.41,3.40
231.25,6.10,2.70,6.09,2.70,-2.70,-2.95,3.40,3.40,3.39
233.57,6.07,2.68,6.07,2.68,-2.68,-2.95,3.39,3.39,3.39
235.90,6.02,2.64,6.04,2.66,-2.66,-2.96,3.36,3.38,3.38
238.26,6.00,2.62,6.01,2.64,-2.64,-2.96,3.36,3.38,3.38
240.64,5.97,2.59,5.98,2.61,-2.61,-2.95,3.36,3.37,3.37
243.05,5.95,2.58,5.95,2.59,-2.59,-2.95,3.36,3.36,3.37
245.48,5.93,2.56,5.92,2.56,-2.56,-2.94,3.37,3.36,3.37
247.93,5.89,2.52,5.90,2.54,-2.54,-2.92,3.35,3.36,3.37
250.41,5.87,2.51,5.87,2.52,-2.52,-2.90,3.35,3.35,3.36
252.92,5.83,2.47,5.85,2.50,-2.50,-2.88,3.33,3.35,3.36
255.45,5.81,2.46,5.82,2.47,-2.47,-2.86,3.34,3.35,3.35
258.00,5.79,2.44,5.79,2.45,-2.45,-2.82,3.34,3.34,3.35
260.58,5.76,2.42,5.77,2.43,-2.43,-2.79,3.33,3.34,3.34
263.19,5.75,2.42,5.74,2.41,-2.41,-2.75,3.34,3.33,3.33
265.82,5.72,2.39,5.71,2.39,-2.39,-2.71,3.33,3.32,3.33
268.48,5.70,2.38,5.68,2.36,-2.36,-2.67,3.34,3.32,3.32
271.16,5.67,2.36,5.65,2.34,-2.34,-2.62,3.33,3.31,3.31
273.87,5.63,2.32,5.62,2.32,-2.32,-2.57,3.31,3.31,3.31
276.61,5.59,2.29,5.59,2.29,-2.29,-2.51,3.30,3.30,3.30
279.38,5.55,2.25,5.56,2.26,-2.26,-2.46,3.29,3.30,3.30
282.17,5.51,2.22,5.52,2.23,-2.23,-2.40,3.28,3.29,3.29
284.99,5.47,2.18,5.49,2.20,-2.20,-2.34,3.27,3.29,3.29
287.84,5.43,2.15,5.45,2.16,-2.16,-2.27,3.27,3.28,3.28
290.72,5.41,2.13,5.41,2.13,-2.13,-2.21,3.28,3.28,3.28
293.63,5.38,2.10,5.37,2.09,-2.09,-2.15,3.29,3.28,3.28
296.57,5.35,2.07,5.33,2.05,-2.05,-2.08,3.30,3.28,3.28
299.53,5.31,2.03,5.29,2.01,-2.01,-2.01,3.30,3.28,3.28
302.53,5.26,1.98,5.25,1.97,-1.97,-1.95,3.29,3.28,3.28
305.55,5.20,1.92,5.21,1.93,-1.93,-1.88,3.27,3.28,3.28
308.61,5.16,1.88,5.17,1.89,-1.89,-1.81,3.27,3.28,3.28
311.69,5.11,1.83,5.13,1.84,-1.84,-1.74,3.27,3.28,3.28
314.81,5.08,1.79,5.08,1.80,-1.80,-1.68,3.28,3.28,3.29
317.96,5.04,1.75,5.04,1.76,-1.76,-1.61,3.28,3.29,3.29
321.14,5.00,1.71,5.00,1.71,-1.71,-1.54,3.29,3.29,3.29
324.35,4.96,1.67,4.96,1.67,-1.67,-1.47,3.29,3.29,3.29
327.59,4.92,1.62,4.92,1.63,-1.63,-1.41,3.29,3.29,3.30
330.87,4.87,1.57,4.88,1.58,-1.58,-1.34,3.29,3.29,3.30
334.18,4.83,1.53,4.84,1.54,-1.54,-1.28,3.29,3.30,3.30
337.52,4.79,1.49,4.80,1.50,-1.50,-1.21,3.29,3.30,3.30
340.90,4.75,1.45,4.76,1.45,-1.45,-1.15,3.30,3.30,3.31
344.30,4.71,1.40,4.71,1.41,-1.41,-1.08,3.30,3.31,3.31
347.75,4.67,1.36,4.67,1.36,-1.36,-1.02,3.31,3.31,3.31
351.23,4.64,1.33,4.63,1.32,-1.32,-0.96,3.32,3.31,3.31
354.74,4.60,1.29,4.58,1.27,-1.27,-0.90,3.33,3.31,3.31
358.28,4.55,1.23,4.54,1.22,-1.22,-0.84,3.33,3.32,3.32
361.87,4.50,1.18,4.49,1.17,-1.17,-0.78,3.33,3.32,3.32
365.49,4.44,1.12,4.44,1.12,-1.12,-0.72,3.32,3.32,3.32
369.14,4.38,1.06,4.39,1.06,-1.06,-0.66,3.32,3.33,3.32
372.83,4.33,1.00,4.34,1.01,-1.01,-0.61,3.32,3.33,3.33
376.56,4.28,0.95,4.29,0.96,-0.96,-0.55,3.32,3.33,3.33
380.33,4.23,0.90,4.24,0.90,-0.90,-0.49,3.33,3.34,3.33
384.13,4.19,0.85,4.18,0.84,-0.84,-0.44,3.35,3.34,3.34
387.97,4.14,0.80,4.13,0.79,-0.79,-0.38,3.35,3.34,3.34
391.85,4.08,0.73,4.08,0.73,-0.73,-0.33,3.35,3.34,3.35
395.77,4.03,0.68,4.03,0.68,-0.68,-0.28,3.35,3.35,3.35
399.73,3.97,0.61,3.98,0.63,-0.63,-0.22,3.34,3.35,3.36
403.72,3.92,0.56,3.93,0.57,-0.57,-0.17,3.35,3.36,3.36
407.76,3.88,0.51,3.89,0.52,-0.52,-0.12,3.36,3.37,3.37
411.84,3.84,0.46,3.84,0.47,-0.47,-0.07,3.37,3.37,3.38
415.96,3.80,0.42,3.80,0.42,-0.42,-0.02,3.38,3.38,3.38
420.12,3.75,0.36,3.75,0.37,-0.37,0.03,3.38,3.38,3.39
424.32,3.70,0.31,3.71,0.32,-0.32,0.08,3.38,3.38,3.39
428.56,3.66,0.27,3.66,0.27,-0.27,0.13,3.39,3.39,3.39
432.85,3.63,0.23,3.62,0.23,-0.23,0.18,3.40,3.39,3.40
437.18,3.59,0.19,3.57,0.18,-0.18,0.22,3.41,3.39,3.40
441.55,3.54,0.14,3.53,0.13,-0.13,0.27,3.41,3.40,3.40
445.96,3.49,0.09,3.48,0.08,-0.08,0.31,3.41,3.40,3.40
450.42,3.42,0.02,3.43,0.03,-0.03,0.36,3.39,3.40,3.40
454.93,3.36,-0.04,3.38,-0.02,0.02,0.40,3.38,3.40,3.40
459.48,3.32,-0.08,3.33,-0.08,0.08,0.44,3.40,3.40,3.40
464.07,3.28,-0.12,3.27,-0.13,0.13,0.48,3.41,3.40,3.40
468.71,3.23,-0.17,3.22,-0.18,0.18,0.52,3.41,3.41,3.40
473.40,3.17,-0.24,3.17,-0.24,0.24,0.56,3.41,3.41,3.41
478.13,3.11,-0.30,3.11,-0.30,0.30,0.60,3.41,3.41,3.41
482.91,3.05,-0.36,3.06,-0.36,0.36,0.64,3.41,3.42,3.41
487.74,3.00,-0.42,3.01,-0.41,0.41,0.68,3.41,3.42,3.42
492.62,2.95,-0.48,2.96,-0.47,0.47,0.71,3.42,3.43,3.43
497.55,2.91,-0.53,2.90,-0.53,0.53,0.75,3.44,3.44,3.44
502.52,2.86,-0.59,2.85,-0.59,0.59,0.78,3.45,3.45,3.45
507.55,2.80,-0.66,2.80,-0.66,0.66,0.81,3.46,3.45,3.46
512.62,2.74,-0.73,2.74,-0.72,0.72,0.84,3.46,3.46,3.47
517.75,2.68,-0.80,2.69,-0.78,0.78,0.87,3.46,3.47,3.48
522.93,2.64,-0.85,2.63,-0.85,0.85,0.90,3.49,3.48,3.49
528.16,2.59,-0.90,2.58,-0.91,0.91,0.93,3.50,3.49,3.49
533.44,2.54,-0.96,2.53,-0.97,0.97,0.96,3.51,3.50,3.50
538.77,2.47,-1.04,2.47,-1.04,1.04,0.99,3.51,3.51,3.51
544.16,2.40,-1.12,2.42,-1.11,1.11,1.02,3.51,3.52,3.52
549.60,2.35,-1.18,2.36,-1.17,1.17,1.05,3.52,3.53,3.53
555.10,2.30,-1.24,2.30,-1.24,1.24,1.07,3.54,3.55,3.54
560.65,2.25,-1.30,2.25,-1.31,1.31,1.10,3.56,3.56,3.55
566.25,2.20,-1.37,2.19,-1.38,1.38,1.13,3.58,3.57,3.57
571.92,2.14,-1.44,2.14,-1.45,1.45,1.16,3.59,3.59,3.58
577.64,2.07,-1.53,2.08,-1.52,1.52,1.18,3.59,3.60,3.60
583.41,2.02,-1.59,2.02,-1.59,1.59,1.21,3.61,3.61,3.61
589.25,1.97,-1.65,1.96,-1.66,1.66,1.24,3.63,3.62,3.62
595.14,1.92,-1.72,1.90,-1.73,1.73,1.27,3.65,3.63,3.64
601.09,1.86,-1.79,1.84,-1.80,1.80,1.30,3.66,3.64,3.65
607.10,1.79,-1.87,1.79,-1.86,1.86,1.33,3.65,3.65,3.66
613.17,1.73,-1.94,1.73,-1.93,1.93,1.36,3.66,3.66,3.67
619.30,1.67,-2.01,1.68,-1.99,1.99,1.39,3.66,3.67,3.68
625.50,1.60,-2.08,1.63,-2.05,2.05,1.42,3.65,3.67,3.68
631.75,1.56,-2.13,1.57,-2.10,2.10,1.45,3.66,3.67,3.69
638.07,1.52,-2.17,1.52,-2.15,2.15,1.49,3.67,3.68,3.69
644.45,1.48,-2.21,1.48,-2.20,2.20,1.52,3.68,3.68,3.69
650.89,1.43,-2.26,1.43,-2.24,2.24,1.56,3.67,3.68,3.69
657.40,1.39,-2.29,1.39,-2.29,2.29,1.60,3.68,3.68,3.68
663.98,1.36,-2.32,1.36,-2.32,2.32,1.64,3.68,3.68,3.68
670.62,1.33,-2.35,1.32,-2.36,2.36,1.68,3.69,3.68,3.68
677.32,1.28,-2.40,1.29,-2.40,2.40,1.72,3.68,3.68,3.68
684.10,1.24,-2.44,1.25,-2.43,2.43,1.77,3.67,3.69,3.68
690.94,1.21,-2.47,1.22,-2.47,2.47,1.81,3.68,3.68,3.68
697.85,1.18,-2.50,1.18,-2.50,2.50,1.86,3.68,3.68,3.68
704.83,1.16,-2.52,1.15,-2.53,2.53,1.91,3.69,3.68,3.68
711.87,1.14,-2.54,1.11,-2.57,2.57,1.96,3.71,3.68,3.68
718.99,1.10,-2.59,1.08,-2.60,2.60,2.01,3.70,3.68,3.69
726.18,1.06,-2.63,1.05,-2.64,2.64,2.06,3.70,3.69,3.69
733.44,1.01,-2.68,1.01,-2.68,2.68,2.12,3.69,3.69,3.69
740.78,0.96,-2.73,0.98,-2.71,2.71,2.17,3.67,3.69,3.69
748.19,0.92,-2.77,0.94,-2.75,2.75,2.23,3.67,3.69,3.69
755.67,0.88,-2.81,0.90,-2.79,2.79,2.29,3.67,3.69,3.69
763.23,0.85,-2.84,0.86,-2.83,2.83,2.35,3.68,3.69,3.69
770.86,0.83,-2.86,0.82,-2.87,2.87,2.41,3.70,3.69,3.69
778.57,0.80,-2.89,0.78,-2.91,2.91,2.47,3.71,3.69,3.69
786.35,0.76,-2.93,0.74,-2.95,2.95,2.54,3.71,3.69,3.69
794.22,0.72,-2.98,0.70,-2.99,2.99,2.60,3.71,3.69,3.70
