frequency,raw
20.00,0.77
20.20,0.77
20.40,0.77
20.61,0.77
20.81,0.77
21.02,0.77
21.23,0.77
21.44,0.77
21.66,0.77
21.87,0.77
22.09,0.77
22.31,0.77
22.54,0.77
22.76,0.77
22.99,0.77
23.22,0.80
23.45,0.83
23.69,0.86
23.92,0.89
24.16,0.91
24.40,0.93
24.65,0.95
24.89,0.96
25.14,0.94
25.39,0.89
25.65,0.84
25.91,0.79
26.16,0.77
26.43,0.77
26.69,0.77
26.96,0.77
27.23,0.77
27.50,0.77
27.77,0.77
28.05,0.77
28.33,0.77
28.62,0.77
28.90,0.77
29.19,0.77
29.48,0.77
29.78,0.77
30.08,0.77
30.38,0.77
30.68,0.77
30.99,0.77
31.30,0.77
31.61,0.77
31.93,0.77
32.24,0.77
32.57,0.77
32.89,0.77
33.22,0.77
33.55,0.77
33.89,0.77
34.23,0.77
34.57,0.77
34.92,0.77
35.27,0.77
35.62,0.77
35.97,0.77
36.33,0.77
36.70,0.77
37.06,0.77
37.43,0.77
37.81,0.77
38.19,0.77
38.57,0.77
38.95,0.77
39.34,0.77
39.74,0.77
40.14,0.76
40.54,0.72
40.94,0.68
41.35,0.63
41.76,0.59
42.18,0.57
42.60,0.57
43.03,0.57
43.46,0.57
43.90,0.57
44.33,0.57
44.78,0.57
45.23,0.57
45.68,0.57
46.13,0.57
46.60,0.57
47.06,0.57
47.53,0.57
48.01,0.57
48.49,0.57
48.97,0.57
49.46,0.55
49.96,0.52
50.46,0.46
50.96,0.39
51.47,0.38
51.99,0.37
52.51,0.37
53.03,0.37
53.56,0.37
54.10,0.37
54.64,0.37
55.18,0.37
55.74,0.37
56.29,0.37
56.86,0.37
57.42,0.36
58.00,0.35
58.58,0.27
59.16,0.20
59.76,0.18
60.35,0.17
60.96,0.17
61.57,0.17
62.18,0.17
62.80,0.17
63.43,0.17
64.07,0.17
64.71,0.17
65.35,0.17
66.01,0.17
66.67,0.10
67.33,0.04
68.01,-0.03
68.69,-0.03
69.37,-0.03
70.07,-0.03
70.77,-0.03
71.48,-0.03
72.19,-0.03
72.91,-0.03
73.64,-0.03
74.38,-0.07
75.12,-0.14
75.87,-0.22
76.63,-0.23
77.40,-0.23
78.17,-0.23
78.95,-0.23
79.74,-0.23
80.54,-0.23
81.35,-0.26
82.16,-0.31
82.98,-0.33
83.81,-0.39
84.65,-0.42
85.50,-0.43
86.35,-0.43
87.22,-0.43
88.09,-0.43
88.97,-0.43
89.86,-0.43
90.76,-0.43
91.66,-0.43
92.58,-0.43
93.51,-0.43
94.44,-0.43
95.39,-0.43
96.34,-0.43
97.30,-0.44
98.28,-0.45
99.26,-0.46
100.25,-0.51
101.25,-0.64
102.27,-0.71
103.29,-0.72
104.32,-0.74
105.37,-0.77
106.42,-0.80
107.48,-0.91
108.56,-1.02
109.64,-1.06
110.74,-1.08
111.85,-1.11
112.97,-1.25
114.10,-1.31
115.24,-1.31
116.39,-1.34
117.55,-1.38
118.73,-1.47
119.92,-1.50
121.12,-1.49
122.33,-1.54
123.55,-1.62
124.79,-1.67
126.03,-1.66
127.29,-1.66
128.57,-1.70
129.85,-1.82
131.15,-1.84
132.46,-1.88
133.79,-1.92
135.12,-1.93
136.48,-1.92
137.84,-1.92
139.22,-1.92
140.61,-1.91
142.02,-1.83
143.44,-1.81
144.87,-1.71
146.32,-1.63
147.78,-1.58
149.26,-1.48
150.75,-1.41
152.26,-1.49
153.78,-1.52
155.32,-1.51
156.88,-1.59
158.44,-1.74
160.03,-1.92
161.63,-2.07
163.24,-2.22
164.88,-2.38
166.53,-2.56
168.19,-2.72
169.87,-2.85
171.57,-2.98
173.29,-2.97
175.02,-2.94
176.77,-2.96
178.54,-2.83
180.32,-2.84
182.13,-2.87
183.95,-2.81
185.79,-2.73
187.65,-2.58
189.52,-2.50
191.42,-2.39
193.33,-2.38
195.27,-2.43
197.22,-2.41
199.19,-2.42
201.18,-2.44
203.19,-2.49
205.23,-2.47
207.28,-2.42
209.35,-2.43
211.44,-2.38
213.56,-2.38
215.69,-2.43
217.85,-2.44
220.03,-2.52
222.23,-2.62
224.45,-2.72
226.70,-2.75
228.96,-2.75
231.25,-2.88
233.57,-2.93
235.90,-2.96
238.26,-3.05
240.64,-3.16
243.05,-3.18
245.48,-3.22
247.93,-3.22
250.41,-3.24
252.92,-3.29
255.45,-3.34
258.00,-3.36
260.58,-3.36
263.19,-3.43
265.82,-3.54
268.48,-3.57
271.16,-3.65
273.87,-3.77
276.61,-3.80
279.38,-3.86
282.17,-3.87
284.99,-3.92
287.84,-3.96
290.72,-3.95
293.63,-4.07
296.57,-4.12
299.53,-4.11
302.53,-4.10
305.55,-4.12
308.61,-4.17
311.69,-4.18
314.81,-4.17
317.96,-4.17
321.14,-4.18
324.35,-4.25
327.59,-4.28
330.87,-4.19
334.18,-4.16
337.52,-4.18
340.90,-4.18
344.30,-4.18
347.75,-4.10
351.23,-4.05
354.74,-4.05
358.28,-4.07
361.87,-4.07
365.49,-4.00
369.14,-3.91
372.83,-3.93
376.56,-3.90
380.33,-3.77
384.13,-3.79
387.97,-3.77
391.85,-3.65
395.77,-3.66
399.73,-3.71
403.72,-3.78
407.76,-3.73
411.84,-3.50
415.96,-3.44
420.12,-3.36
424.32,-3.36
428.56,-3.48
432.85,-3.31
437.18,-3.10
441.55,-3.19
445.96,-3.19
450.42,-2.96
454.93,-2.79
459.48,-2.71
464.07,-2.57
468.71,-2.50
473.40,-2.41
478.13,-2.29
482.91,-2.18
487.74,-2.17
492.62,-2.15
497.55,-1.98
502.52,-1.95
507.55,-1.96
512.62,-1.83
517.75,-1.76
522.93,-1.76
528.16,-1.80
533.44,-1.81
538.77,-1.74
544.16,-1.75
549.60,-1.80
555.10,-1.88
560.65,-1.94
566.25,-1.89
571.92,-1.87
577.64,-1.84
583.41,-1.79
589.25,-1.77
595.14,-1.78
601.09,-1.77
607.10,-1.78
613.17,-1.72
619.30,-1.64
625.50,-1.60
631.75,-1.58
638.07,-1.54
644.45,-1.51
650.89,-1.47
657.40,-1.42
663.98,-1.36
670.62,-1.24
677.32,-1.16
684.10,-1.05
690.94,-0.98
697.85,-0.94
704.83,-0.93
711.87,-0.93
718.99,-0.93
726.18,-0.89
733.44,-0.88
740.78,-0.90
748.19,-0.85
755.67,-0.85
763.23,-0.88
770.86,-0.89
778.57,-0.91
786.35,-0.86
794.22,-0.82
802.16,-0.81
810.18,-0.81
818.28,-0.80
826.46,-0.80
834.73,-0.79
843.08,-0.68
851.51,-0.61
860.02,-0.61
868.62,-0.61
877.31,-0.54
886.08,-0.53
894.94,-0.54
903.89,-0.54
912.93,-0.50
922.06,-0.46
931.28,-0.38
940.59,-0.35
950.00,-0.35
959.50,-0.28
969.09,-0.22
978.78,-0.11
988.57,-0.03
998.46,-0.00
1008.44,0.01
1018.53,0.04
1028.71,0.06
1039.00,0.09
1049.39,0.20
1059.88,0.27
1070.48,0.31
1081.19,0.36
1092.00,0.41
1102.92,0.47
1113.95,0.54
1125.09,0.60
1136.34,0.67
1147.70,0.75
1159.18,0.73
1170.77,0.74
1182.48,0.76
1194.30,0.75
1206.25,0.78
1218.31,0.85
1230.49,0.90
1242.80,0.96
1255.22,1.01
1267.78,1.02
1280.45,1.13
1293.26,1.28
1306.19,1.33
1319.25,1.37
1332.45,1.47
1345.77,1.51
1359.23,1.55
1372.82,1.68
1386.55,1.77
1400.41,1.80
1414.42,1.90
1428.56,1.96
1442.85,2.02
1457.28,2.09
1471.85,2.19
1486.57,2.22
1501.43,2.27
1516.45,2.35
1531.61,2.44
1546.93,2.60
1562.40,2.73
1578.02,2.88
1593.80,3.08
1609.74,3.18
1625.84,3.27
1642.10,3.44
1658.52,3.60
1675.10,3.78
1691.85,3.97
1708.77,4.21
1725.86,4.37
1743.12,4.47
1760.55,4.63
1778.15,4.81
1795.94,4.96
1813.90,5.12
1832.03,5.32
1850.36,5.50
1868.86,5.64
1887.55,5.77
1906.42,5.90
1925.49,5.99
1944.74,6.00
1964.19,6.03
1983.83,5.89
2003.67,5.84
2023.71,5.73
2043.94,5.78
2064.38,5.83
2085.03,5.92
2105.88,6.15
2126.94,6.33
2148.20,6.55
2169.69,6.74
2191.38,6.96
2213.30,7.14
2235.43,7.26
2257.78,7.32
2280.36,7.42
2303.17,7.58
2326.20,7.70
2349.46,7.83
2372.95,7.98
2396.68,8.10
2420.65,8.16
2444.86,8.20
2469.31,8.22
2494.00,8.19
2518.94,8.25
2544.13,8.35
2569.57,8.46
2595.27,8.60
2621.22,8.71
2647.43,8.84
2673.90,8.90
2700.64,8.92
2727.65,8.91
2754.93,8.89
2782.48,8.91
2810.30,8.92
2838.40,8.92
2866.79,8.84
2895.46,8.81
2924.41,8.78
2953.65,8.79
2983.19,8.81
3013.02,8.73
3043.15,8.88
3073.58,8.97
3104.32,9.01
3135.36,9.16
3166.72,9.20
3198.38,9.33
3230.37,9.34
3262.67,9.34
3295.30,9.45
3328.25,9.50
3361.53,9.49
3395.15,9.48
3429.10,9.55
3463.39,9.58
3498.03,9.52
3533.01,9.43
3568.34,9.29
3604.02,9.07
3640.06,8.86
3676.46,8.62
3713.22,8.18
3750.36,7.86
3787.86,7.58
3825.74,7.25
3864.00,6.93
3902.64,6.60
3941.66,6.31
3981.08,5.99
4020.89,5.81
4061.10,5.59
4101.71,5.27
4142.73,4.87
4184.15,4.54
4226.00,4.32
4268.26,4.15
4310.94,3.99
4354.05,3.67
4397.59,3.44
4441.56,3.22
4485.98,2.77
4530.84,2.42
4576.15,2.12
4621.91,1.60
4668.13,1.10
4714.81,0.72
4761.96,0.42
4809.58,0.00
4857.67,-0.49
4906.25,-0.84
4955.31,-1.30
5004.87,-1.78
5054.91,-2.23
5105.46,-2.59
5156.52,-3.01
5208.08,-3.38
5260.16,-3.63
5312.77,-3.80
5365.89,-3.92
5419.55,-4.07
5473.75,-4.28
5528.49,-4.52
5583.77,-4.70
5639.61,-4.97
5696.00,-5.14
5752.96,-5.36
5810.49,-5.48
5868.60,-5.44
5927.28,-5.40
5986.56,-5.55
6046.42,-5.61
6106.89,-5.49
6167.96,-5.04
6229.64,-4.94
6291.93,-5.11
6354.85,-5.03
6418.40,-5.18
6482.58,-5.19
6547.41,-4.49
6612.88,-4.24
6679.01,-4.61
6745.80,-4.09
6813.26,-2.83
6881.39,-2.47
6950.21,-3.01
7019.71,-2.93
7089.91,-3.30
7160.81,-5.28
7232.41,-4.92
7304.74,-3.54
7377.79,-3.61
7451.56,-4.30
7526.08,-4.52
7601.34,-5.31
7677.35,-6.81
7754.13,-8.00
7831.67,-8.67
7909.98,-8.67
7989.08,-8.76
8068.98,-9.60
8149.67,-9.87
8231.16,-9.38
8313.47,-9.22
8396.61,-8.84
8480.57,-7.89
8565.38,-7.80
8651.03,-8.18
8737.54,-9.14
8824.92,-9.63
8913.17,-9.51
9002.30,-9.14
9092.32,-8.38
9183.25,-8.16
9275.08,-8.40
9367.83,-8.59
9461.51,-8.68
9556.12,-8.87
9651.68,-9.14
9748.20,-9.65
9845.68,-10.40
9944.14,-9.78
10043.58,-8.94
10144.02,-9.07
10245.46,-9.53
10347.91,-10.67
10451.39,-10.84
10555.91,-10.99
10661.46,-11.50
10768.08,-12.26
10875.76,-13.14
10984.52,-14.03
11094.36,-15.12
11205.31,-15.63
11317.36,-15.95
11430.53,-16.38
11544.84,-17.56
11660.29,-18.46
11776.89,-19.55
11894.66,-21.12
12013.60,-22.21
12133.74,-22.45
12255.08,-22.44
12377.63,-22.27
12501.41,-22.34
12626.42,-22.29
12752.68,-22.63
12880.21,-23.15
13009.01,-23.65
13139.10,-23.90
13270.49,-24.27
13403.20,-24.45
13537.23,-24.50
13672.60,-24.49
13809.33,-24.26
13947.42,-23.64
14086.90,-22.77
14227.77,-22.26
14370.04,-20.92
14513.74,-19.05
14658.88,-18.22
14805.47,-18.26
14953.52,-19.16
15103.06,-20.13
15254.09,-20.25
15406.63,-20.60
15560.70,-21.39
15716.30,-22.25
15873.47,-22.80
16032.20,-24.50
16192.52,-25.25
16354.45,-26.64
16517.99,-27.58
16683.17,-25.78
16850.01,-24.09
17018.51,-22.02
17188.69,-21.33
17360.58,-21.57
17534.18,-21.73
17709.53,-21.98
17886.62,-21.85
18065.49,-21.34
18246.14,-20.54
18428.60,-19.54
18612.89,-19.10
18799.02,-18.88
18987.01,-18.93
19176.88,-18.75
19368.65,-18.96
19562.33,-19.63
19757.96,-20.58
19955.54,-21.09
