frequency,raw,error,smoothed,error_smoothed,equalization,parametric_eq,equalized_raw,equalized_smoothed,target
20.00,-1.73,-4.74,-1.73,-4.74,4.74,1.87,3.01,3.01,3.01
20.20,-1.70,-4.71,-1.70,-4.71,4.71,1.93,3.01,3.01,3.01
20.40,-1.66,-4.67,-1.66,-4.67,4.67,1.98,3.01,3.01,3.01
20.61,-1.63,-4.64,-1.63,-4.63,4.63,2.04,3.00,3.01,3.01
20.81,-1.60,-4.61,-1.59,-4.60,4.60,2.10,3.00,3.01,3.01
21.02,-1.57,-4.58,-1.56,-4.57,4.57,2.16,3.00,3.01,3.01
21.23,-1.53,-4.54,-1.53,-4.54,4.54,2.22,3.01,3.01,3.01
21.44,-1.50,-4.50,-1.50,-4.51,4.51,2.29,3.01,3.01,3.01
21.66,-1.47,-4.47,-1.47,-4.48,4.48,2.35,3.01,3.00,3.00
21.87,-1.44,-4.44,-1.45,-4.45,4.45,2.42,3.01,3.00,3.00
22.09,-1.41,-4.41,-1.42,-4.42,4.42,2.49,3.01,3.00,3.00
22.31,-1.39,-4.39,-1.40,-4.40,4.40,2.56,3.01,3.00,3.00
22.54,-1.37,-4.37,-1.37,-4.37,4.37,2.64,3.00,3.00,3.00
22.76,-1.35,-4.35,-1.35,-4.35,4.35,2.71,3.00,3.00,3.00
22.99,-1.33,-4.33,-1.33,-4.33,4.33,2.79,3.00,3.00,3.00
23.22,-1.31,-4.31,-1.31,-4.31,4.31,2.87,3.00,2.99,3.00
23.45,-1.30,-4.29,-1.29,-4.29,4.29,2.95,2.99,2.99,3.00
23.69,-1.28,-4.27,-1.28,-4.27,4.27,3.03,2.99,2.99,2.99
23.92,-1.27,-4.26,-1.26,-4.25,4.25,3.12,2.98,2.99,2.99
24.16,-1.25,-4.24,-1.24,-4.23,4.23,3.20,2.98,2.99,2.99
24.40,-1.23,-4.22,-1.22,-4.21,4.21,3.29,2.98,2.99,2.99
24.65,-1.21,-4.20,-1.20,-4.19,4.19,3.38,2.98,2.99,2.99
24.89,-1.19,-4.18,-1.19,-4.17,4.17,3.47,2.98,2.98,2.99
25.14,-1.17,-4.15,-1.17,-4.15,4.15,3.56,2.98,2.98,2.99
25.39,-1.15,-4.13,-1.15,-4.13,4.13,3.65,2.99,2.98,2.98
25.65,-1.13,-4.11,-1.14,-4.12,4.12,3.74,2.99,2.98,2.98
25.91,-1.11,-4.09,-1.12,-4.10,4.10,3.83,2.99,2.98,2.98
26.16,-1.09,-4.07,-1.10,-4.08,4.08,3.92,2.99,2.98,2.98
26.43,-1.09,-4.07,-1.09,-4.07,4.07,4.01,2.98,2.98,2.98
26.69,-1.08,-4.06,-1.08,-4.05,4.05,4.10,2.97,2.98,2.98
26.96,-1.07,-4.04,-1.06,-4.04,4.04,4.19,2.97,2.98,2.97
27.23,-1.06,-4.03,-1.05,-4.02,4.02,4.27,2.96,2.97,2.97
27.50,-1.04,-4.01,-1.04,-4.01,4.01,4.36,2.97,2.97,2.97
27.77,-1.02,-3.99,-1.03,-3.99,3.99,4.44,2.97,2.97,2.97
28.05,-1.01,-3.98,-1.01,-3.98,3.98,4.51,2.97,2.96,2.97
28.33,-1.00,-3.96,-1.00,-3.96,3.96,4.59,2.96,2.96,2.96
28.62,-0.99,-3.95,-0.99,-3.95,3.95,4.66,2.96,2.96,2.96
28.90,-0.97,-3.93,-0.97,-3.93,3.93,4.72,2.96,2.96,2.96
29.19,-0.96,-3.92,-0.96,-3.91,3.91,4.78,2.95,2.95,2.96
29.48,-0.95,-3.90,-0.94,-3.89,3.89,4.83,2.94,2.95,2.96
29.78,-0.93,-3.88,-0.92,-3.87,3.87,4.88,2.94,2.95,2.95
30.08,-0.91,-3.86,-0.90,-3.85,3.85,4.92,2.94,2.95,2.95
30.38,-0.89,-3.84,-0.88,-3.83,3.83,4.95,2.94,2.94,2.95
30.68,-0.87,-3.81,-0.86,-3.80,3.80,4.98,2.93,2.94,2.95
30.99,-0.84,-3.78,-0.84,-3.78,3.78,5.00,2.94,2.94,2.94
31.30,-0.82,-3.76,-0.82,-3.76,3.76,5.01,2.94,2.94,2.94
31.61,-0.80,-3.74,-0.80,-3.74,3.74,5.02,2.94,2.94,2.94
31.93,-0.78,-3.71,-0.78,-3.72,3.72,5.02,2.94,2.93,2.93
32.24,-0.76,-3.69,-0.77,-3.70,3.70,5.01,2.94,2.93,2.93
32.57,-0.75,-3.68,-0.75,-3.68,3.68,4.99,2.93,2.93,2.93
32.89,-0.73,-3.65,-0.74,-3.66,3.66,4.97,2.94,2.93,2.93
33.22,-0.73,-3.65,-0.73,-3.65,3.65,4.94,2.92,2.92,2.92
33.55,-0.72,-3.64,-0.72,-3.64,3.64,4.91,2.92,2.92,2.92
33.89,-0.71,-3.62,-0.72,-3.63,3.63,4.87,2.92,2.91,2.92
34.23,-0.71,-3.62,-0.71,-3.62,3.62,4.82,2.91,2.91,2.91
34.57,-0.71,-3.62,-0.71,-3.62,3.62,4.77,2.91,2.91,2.91
34.92,-0.71,-3.61,-0.71,-3.62,3.62,4.72,2.91,2.90,2.90
35.27,-0.72,-3.62,-0.72,-3.61,3.61,4.67,2.90,2.90,2.90
35.62,-0.73,-3.63,-0.72,-3.62,3.62,4.61,2.89,2.89,2.90
35.97,-0.75,-3.64,-0.73,-3.62,3.62,4.55,2.87,2.89,2.89
36.33,-0.75,-3.64,-0.74,-3.62,3.62,4.49,2.88,2.89,2.89
36.70,-0.75,-3.63,-0.75,-3.63,3.63,4.43,2.88,2.88,2.88
37.06,-0.75,-3.63,-0.76,-3.64,3.64,4.36,2.89,2.88,2.88
37.43,-0.77,-3.64,-0.78,-3.65,3.65,4.30,2.88,2.87,2.88
37.81,-0.78,-3.65,-0.80,-3.66,3.66,4.24,2.89,2.87,2.87
38.19,-0.80,-3.66,-0.81,-3.68,3.68,4.17,2.88,2.86,2.87
38.57,-0.83,-3.69,-0.83,-3.69,3.69,4.11,2.86,2.86,2.86
38.95,-0.86,-3.71,-0.85,-3.71,3.71,4.05,2.85,2.86,2.86
39.34,-0.88,-3.73,-0.88,-3.73,3.73,3.99,2.85,2.85,2.85
39.74,-0.90,-3.74,-0.90,-3.75,3.75,3.93,2.85,2.85,2.84
40.14,-0.93,-3.77,-0.92,-3.76,3.76,3.88,2.83,2.84,2.84
40.54,-0.95,-3.78,-0.95,-3.78,3.78,3.82,2.83,2.83,2.83
40.94,-0.97,-3.80,-0.97,-3.79,3.79,3.77,2.83,2.82,2.83
41.35,-0.98,-3.80,-0.99,-3.81,3.81,3.72,2.83,2.82,2.82
41.76,-1.00,-3.81,-1.01,-3.82,3.82,3.67,2.82,2.81,2.82
42.18,-1.02,-3.83,-1.02,-3.82,3.82,3.63,2.80,2.80,2.81
42.60,-1.05,-3.85,-1.03,-3.83,3.83,3.59,2.78,2.79,2.80
43.03,-1.07,-3.86,-1.04,-3.82,3.82,3.55,2.75,2.78,2.80
43.46,-1.06,-3.85,-1.04,-3.82,3.82,3.51,2.76,2.78,2.79
43.90,-1.05,-3.83,-1.04,-3.80,3.80,3.47,2.76,2.77,2.78
44.33,-1.04,-3.81,-1.03,-3.79,3.79,3.44,2.75,2.76,2.77
44.78,-1.03,-3.80,-1.01,-3.77,3.77,3.41,2.74,2.75,2.77
45.23,-1.01,-3.77,-1.00,-3.75,3.75,3.39,2.74,2.75,2.76
45.68,-1.00,-3.75,-0.98,-3.72,3.72,3.37,2.72,2.74,2.75
46.13,-0.98,-3.72,-0.96,-3.70,3.70,3.34,2.72,2.73,2.74
46.60,-0.95,-3.68,-0.95,-3.67,3.67,3.33,2.73,2.73,2.73
47.06,-0.92,-3.64,-0.93,-3.65,3.65,3.31,2.74,2.72,2.72
47.53,-0.90,-3.61,-0.92,-3.64,3.64,3.30,2.74,2.71,2.72
48.01,-0.88,-3.59,-0.92,-3.62,3.62,3.29,2.74,2.71,2.71
48.49,-0.88,-3.58,-0.92,-3.62,3.62,3.28,2.74,2.70,2.70
48.97,-0.88,-3.57,-0.92,-3.61,3.61,3.27,2.73,2.69,2.69
49.46,-0.91,-3.59,-0.93,-3.61,3.61,3.27,2.70,2.68,2.68
49.96,-0.94,-3.61,-0.95,-3.62,3.62,3.27,2.68,2.67,2.67
50.46,-0.97,-3.62,-0.97,-3.63,3.63,3.27,2.66,2.66,2.66
50.96,-1.01,-3.65,-1.00,-3.64,3.64,3.27,2.63,2.64,2.64
51.47,-1.03,-3.66,-1.03,-3.65,3.65,3.27,2.62,2.63,2.63
51.99,-1.05,-3.67,-1.05,-3.67,3.67,3.27,2.62,2.61,2.62
52.51,-1.08,-3.69,-1.08,-3.68,3.68,3.28,2.60,2.60,2.61
53.03,-1.11,-3.71,-1.10,-3.69,3.69,3.28,2.58,2.58,2.60
53.56,-1.14,-3.72,-1.12,-3.69,3.69,3.29,2.55,2.57,2.59
54.10,-1.17,-3.74,-1.13,-3.69,3.69,3.29,2.52,2.56,2.57
54.64,-1.18,-3.74,-1.14,-3.69,3.69,3.30,2.51,2.55,2.56
55.18,-1.17,-3.72,-1.14,-3.67,3.67,3.30,2.51,2.53,2.55
55.74,-1.15,-3.68,-1.13,-3.66,3.66,3.31,2.51,2.52,2.53
56.29,-1.13,-3.65,-1.12,-3.63,3.63,3.31,2.50,2.51,2.52
56.86,-1.10,-3.60,-1.11,-3.60,3.60,3.31,2.50,2.49,2.50
57.42,-1.07,-3.56,-1.09,-3.57,3.57,3.31,2.50,2.48,2.49
58.00,-1.04,-3.51,-1.06,-3.53,3.53,3.31,2.49,2.47,2.47
58.58,-1.02,-3.48,-1.03,-3.48,3.48,3.31,2.46,2.45,2.46
59.16,-0.99,-3.43,-1.00,-3.44,3.44,3.30,2.45,2.44,2.44
59.76,-0.96,-3.38,-0.96,-3.38,3.38,3.30,2.42,2.42,2.43
60.35,-0.93,-3.34,-0.92,-3.33,3.33,3.29,2.40,2.41,2.41
60.96,-0.89,-3.28,-0.88,-3.27,3.27,3.27,2.38,2.39,2.39
61.57,-0.84,-3.21,-0.84,-3.21,3.21,3.26,2.37,2.37,2.37
62.18,-0.80,-3.15,-0.80,-3.15,3.15,3.24,2.35,2.35,2.36
62.80,-0.75,-3.09,-0.75,-3.08,3.08,3.21,2.33,2.33,2.34
63.43,-0.71,-3.03,-0.70,-3.02,3.02,3.19,2.31,2.31,2.32
64.07,-0.66,-2.96,-0.66,-2.95,2.95,3.16,2.29,2.29,2.30
64.71,-0.62,-2.90,-0.61,-2.88,2.88,3.13,2.26,2.28,2.28
65.35,-0.57,-2.83,-0.56,-2.81,2.81,3.09,2.24,2.26,2.26
66.01,-0.51,-2.75,-0.51,-2.74,2.74,3.05,2.23,2.24,2.24
66.67,-0.46,-2.68,-0.46,-2.68,2.68,3.01,2.22,2.22,2.22
67.33,-0.41,-2.60,-0.42,-2.61,2.61,2.97,2.20,2.19,2.20
68.01,-0.36,-2.53,-0.37,-2.55,2.55,2.92,2.19,2.17,2.17
68.69,-0.31,-2.46,-0.33,-2.48,2.48,2.88,2.17,2.15,2.15
69.37,-0.27,-2.40,-0.30,-2.42,2.42,2.83,2.16,2.13,2.13
70.07,-0.25,-2.35,-0.26,-2.37,2.37,2.77,2.12,2.11,2.11
70.77,-0.23,-2.31,-0.23,-2.32,2.32,2.72,2.09,2.08,2.08
71.48,-0.21,-2.27,-0.21,-2.26,2.26,2.67,2.05,2.06,2.06
72.19,-0.19,-2.22,-0.18,-2.21,2.21,2.61,2.03,2.03,2.03
72.91,-0.17,-2.18,-0.16,-2.17,2.17,2.55,2.00,2.01,2.01
73.64,-0.15,-2.13,-0.14,-2.12,2.12,2.50,1.97,1.98,1.98
74.38,-0.12,-2.08,-0.12,-2.08,2.08,2.44,1.96,1.95,1.96
75.12,-0.10,-2.03,-0.11,-2.03,2.03,2.38,1.93,1.92,1.93
75.87,-0.10,-2.00,-0.09,-1.99,1.99,2.32,1.89,1.89,1.90
76.63,-0.07,-1.95,-0.07,-1.94,1.94,2.27,1.87,1.87,1.88
77.40,-0.06,-1.91,-0.05,-1.89,1.89,2.21,1.83,1.84,1.85
78.17,-0.05,-1.87,-0.03,-1.84,1.84,2.15,1.79,1.81,1.82
78.95,-0.01,-1.80,-0.01,-1.80,1.80,2.10,1.79,1.79,1.79
79.74,-0.01,-1.78,0.01,-1.75,1.75,2.04,1.74,1.76,1.77
80.54,0.01,-1.73,0.03,-1.70,1.70,1.99,1.71,1.73,1.74
81.35,0.03,-1.68,0.05,-1.66,1.66,1.93,1.69,1.70,1.71
82.16,0.05,-1.63,0.06,-1.62,1.62,1.88,1.67,1.68,1.68
82.98,0.08,-1.57,0.07,-1.58,1.58,1.83,1.66,1.64,1.65
83.81,0.11,-1.51,0.07,-1.54,1.54,1.78,1.65,1.61,1.62
84.65,0.12,-1.47,0.07,-1.51,1.51,1.73,1.63,1.58,1.59
85.50,0.10,-1.46,0.07,-1.48,1.48,1.68,1.58,1.55,1.56
86.35,0.08,-1.45,0.06,-1.46,1.46,1.63,1.54,1.52,1.53
87.22,0.06,-1.43,0.05,-1.44,1.44,1.58,1.50,1.49,1.50
88.09,0.03,-1.43,0.03,-1.43,1.43,1.54,1.46,1.46,1.46
88.97,-0.01,-1.44,0.01,-1.41,1.41,1.49,1.40,1.43,1.43
89.86,-0.02,-1.42,-0.01,-1.40,1.40,1.45,1.38,1.40,1.40
90.76,-0.05,-1.42,-0.03,-1.40,1.40,1.41,1.35,1.36,1.37
91.66,-0.08,-1.41,-0.06,-1.39,1.39,1.37,1.31,1.33,1.34
92.58,-0.10,-1.40,-0.09,-1.38,1.38,1.33,1.28,1.30,1.30
93.51,-0.12,-1.39,-0.12,-1.38,1.38,1.29,1.26,1.26,1.27
94.44,-0.14,-1.38,-0.14,-1.37,1.37,1.25,1.23,1.23,1.24
95.39,-0.16,-1.36,-0.16,-1.36,1.36,1.21,1.21,1.20,1.20
96.34,-0.18,-1.35,-0.19,-1.36,1.36,1.18,1.18,1.17,1.17
97.30,-0.20,-1.34,-0.21,-1.35,1.35,1.14,1.15,1.14,1.14
98.28,-0.22,-1.32,-0.23,-1.34,1.34,1.11,1.12,1.11,1.11
99.26,-0.24,-1.31,-0.25,-1.32,1.32,1.08,1.08,1.07,1.07
100.25,-0.27,-1.31,-0.27,-1.31,1.31,1.05,1.04,1.04,1.04
101.25,-0.28,-1.29,-0.29,-1.29,1.29,1.02,1.01,1.00,1.01
102.27,-0.32,-1.29,-0.30,-1.27,1.27,0.99,0.95,0.97,0.97
103.29,-0.32,-1.26,-0.31,-1.24,1.24,0.96,0.92,0.93,0.94
104.32,-0.32,-1.23,-0.32,-1.21,1.21,0.93,0.89,0.90,0.91
105.37,-0.32,-1.19,-0.32,-1.18,1.18,0.90,0.86,0.86,0.87
106.42,-0.33,-1.17,-0.31,-1.14,1.14,0.87,0.81,0.83,0.84
107.48,-0.34,-1.15,-0.31,-1.10,1.10,0.85,0.76,0.80,0.81
108.56,-0.32,-1.09,-0.29,-1.06,1.06,0.82,0.74,0.76,0.78
109.64,-0.31,-1.05,-0.28,-1.01,1.01,0.80,0.70,0.73,0.74
110.74,-0.27,-0.98,-0.26,-0.96,0.96,0.77,0.69,0.70,0.71
111.85,-0.23,-0.91,-0.23,-0.91,0.91,0.75,0.68,0.67,0.68
112.97,-0.21,-0.86,-0.21,-0.85,0.85,0.73,0.64,0.64,0.65
114.10,-0.16,-0.77,-0.19,-0.80,0.80,0.70,0.64,0.61,0.61
115.24,-0.14,-0.72,-0.17,-0.75,0.75,0.68,0.61,0.58,0.58
116.39,-0.14,-0.69,-0.15,-0.70,0.70,0.66,0.56,0.55,0.55
117.55,-0.13,-0.65,-0.14,-0.66,0.66,0.64,0.53,0.52,0.52
118.73,-0.12,-0.61,-0.12,-0.62,0.62,0.62,0.50,0.49,0.49
119.92,-0.10,-0.56,-0.12,-0.58,0.58,0.60,0.48,0.47,0.46
121.12,-0.10,-0.53,-0.11,-0.55,0.55,0.58,0.45,0.43,0.43
122.33,-0.11,-0.51,-0.11,-0.52,0.52,0.56,0.41,0.40,0.40
123.55,-0.13,-0.50,-0.12,-0.49,0.49,0.54,0.36,0.37,0.37
124.79,-0.14,-0.48,-0.13,-0.47,0.47,0.52,0.33,0.34,0.34
126.03,-0.14,-0.45,-0.14,-0.45,0.45,0.50,0.31,0.31,0.31
127.29,-0.14,-0.42,-0.16,-0.44,0.44,0.48,0.30,0.28,0.29
128.57,-0.17,-0.43,-0.17,-0.42,0.42,0.46,0.25,0.25,0.26
129.85,-0.19,-0.42,-0.18,-0.41,0.41,0.44,0.22,0.23,0.23
131.15,-0.19,-0.39,-0.19,-0.39,0.39,0.42,0.20,0.20,0.20
132.46,-0.22,-0.40,-0.21,-0.38,0.38,0.41,0.16,0.17,0.18
133.79,-0.23,-0.38,-0.22,-0.36,0.36,0.39,0.13,0.14,0.15
135.12,-0.23,-0.35,-0.23,-0.34,0.34,0.37,0.12,0.12,0.12
136.48,-0.24,-0.34,-0.23,-0.33,0.33,0.35,0.09,0.09,0.10
137.84,-0.25,-0.32,-0.24,-0.31,0.31,0.34,0.06,0.07,0.07
139.22,-0.25,-0.30,-0.24,-0.29,0.29,0.32,0.04,0.05,0.05
140.61,-0.25,-0.27,-0.25,-0.27,0.27,0.30,0.02,0.02,0.02
142.02,-0.25,-0.25,-0.25,-0.25,0.25,0.28,-0.00,-0.00,0.00
143.44,-0.25,-0.23,-0.25,-0.23,0.23,0.27,-0.02,-0.02,-0.02
144.87,-0.25,-0.20,-0.25,-0.21,0.21,0.25,-0.04,-0.05,-0.05
146.32,-0.25,-0.18,-0.25,-0.18,0.18,0.23,-0.07,-0.07,-0.07
147.78,-0.25,-0.16,-0.25,-0.16,0.16,0.22,-0.09,-0.09,-0.09
149.26,-0.25,-0.14,-0.25,-0.14,0.14,0.20,-0.11,-0.11,-0.11
150.75,-0.25,-0.12,-0.25,-0.12,0.12,0.18,-0.13,-0.13,-0.13
152.26,-0.25,-0.10,-0.25,-0.10,0.10,0.17,-0.15,-0.15,-0.15
153.78,-0.25,-0.07,-0.25,-0.08,0.08,0.15,-0.17,-0.17,-0.17
155.32,-0.25,-0.05,-0.25,-0.06,0.06,0.13,-0.19,-0.19,-0.19
156.88,-0.25,-0.04,-0.25,-0.04,0.04,0.11,-0.21,-0.21,-0.21
158.44,-0.25,-0.02,-0.25,-0.02,0.02,0.10,-0.23,-0.23,-0.23
160.03,-0.25,0.00,-0.25,0.00,-0.00,0.08,-0.25,-0.25,-0.25
161.63,-0.25,0.02,-0.25,0.02,-0.02,0.06,-0.27,-0.27,-0.27
163.24,-0.25,0.04,-0.25,0.04,-0.04,0.05,-0.29,-0.29,-0.29
164.88,-0.25,0.06,-0.25,0.05,-0.05,0.03,-0.30,-0.31,-0.31
166.53,-0.25,0.07,-0.25,0.07,-0.07,0.01,-0.32,-0.32,-0.32
168.19,-0.25,0.09,-0.25,0.09,-0.09,-0.00,-0.34,-0.34,-0.34
169.87,-0.25,0.11,-0.25,0.11,-0.11,-0.02,-0.36,-0.36,-0.36
171.57,-0.25,0.12,-0.25,0.13,-0.13,-0.04,-0.38,-0.37,-0.37
173.29,-0.24,0.15,-0.24,0.15,-0.15,-0.06,-0.39,-0.39,-0.39
175.02,-0.23,0.17,-0.24,0.17,-0.17,-0.07,-0.40,-0.41,-0.40
176.77,-0.23,0.19,-0.23,0.19,-0.19,-0.09,-0.42,-0.42,-0.42
178.54,-0.23,0.20,-0.22,0.21,-0.21,-0.11,-0.44,-0.43,-0.43
180.32,-0.23,0.22,-0.21,0.23,-0.23,-0.13,-0.46,-0.45,-0.44
182.13,-0.22,0.24,-0.20,0.26,-0.26,-0.15,-0.48,-0.46,-0.46
183.95,-0.19,0.28,-0.19,0.28,-0.28,-0.17,-0.47,-0.47,-0.47
185.79,-0.19,0.30,-0.18,0.30,-0.30,-0.18,-0.49,-0.49,-0.48
187.65,-0.19,0.31,-0.18,0.32,-0.32,-0.20,-0.51,-0.50,-0.50
189.52,-0.15,0.36,-0.17,0.34,-0.34,-0.22,-0.49,-0.51,-0.51
191.42,-0.14,0.38,-0.16,0.36,-0.36,-0.24,-0.50,-0.53,-0.52
193.33,-0.14,0.39,-0.16,0.38,-0.38,-0.26,-0.52,-0.54,-0.53
195.27,-0.14,0.41,-0.15,0.40,-0.40,-0.28,-0.54,-0.55,-0.54
197.22,-0.14,0.42,-0.14,0.42,-0.42,-0.30,-0.56,-0.56,-0.56
199.19,-0.14,0.43,-0.14,0.43,-0.43,-0.32,-0.57,-0.57,-0.57
201.18,-0.14,0.44,-0.13,0.45,-0.45,-0.34,-0.59,-0.58,-0.58
203.19,-0.14,0.45,-0.13,0.46,-0.46,-0.35,-0.60,-0.59,-0.59
205.23,-0.14,0.46,-0.12,0.48,-0.48,-0.37,-0.62,-0.60,-0.60
207.28,-0.14,0.47,-0.12,0.49,-0.49,-0.39,-0.63,-0.61,-0.61
209.35,-0.13,0.49,-0.12,0.50,-0.50,-0.41,-0.63,-0.62,-0.62
211.44,-0.11,0.52,-0.12,0.52,-0.52,-0.43,-0.63,-0.63,-0.63
213.56,-0.10,0.54,-0.11,0.53,-0.53,-0.45,-0.63,-0.64,-0.64
215.69,-0.10,0.55,-0.11,0.54,-0.54,-0.47,-0.64,-0.65,-0.65
217.85,-0.10,0.56,-0.11,0.55,-0.55,-0.48,-0.65,-0.66,-0.65
220.03,-0.10,0.56,-0.11,0.56,-0.56,-0.50,-0.66,-0.66,-0.66
222.23,-0.10,0.57,-0.10,0.57,-0.57,-0.52,-0.66,-0.67,-0.67
224.45,-0.10,0.57,-0.10,0.57,-0.57,-0.53,-0.67,-0.67,-0.67
226.70,-0.10,0.58,-0.10,0.58,-0.58,-0.55,-0.68,-0.68,-0.68
228.96,-0.10,0.58,-0.09,0.58,-0.58,-0.56,-0.68,-0.68,-0.68
231.25,-0.10,0.58,-0.09,0.59,-0.59,-0.58,-0.69,-0.68,-0.68
233.57,-0.10,0.58,-0.09,0.59,-0.59,-0.59,-0.69,-0.68,-0.68
235.90,-0.08,0.60,-0.08,0.60,-0.60,-0.60,-0.67,-0.68,-0.68
238.26,-0.08,0.59,-0.07,0.60,-0.60,-0.61,-0.68,-0.67,-0.67
240.64,-0.07,0.60,-0.06,0.60,-0.60,-0.62,-0.67,-0.67,-0.67
243.05,-0.06,0.60,-0.05,0.61,-0.61,-0.63,-0.66,-0.66,-0.66
245.48,-0.06,0.59,-0.04,0.61,-0.61,-0.64,-0.67,-0.65,-0.65
247.93,-0.01,0.63,-0.03,0.61,-0.61,-0.65,-0.62,-0.64,-0.64
250.41,-0.01,0.62,-0.02,0.62,-0.62,-0.66,-0.63,-0.64,-0.63
252.92,-0.01,0.61,-0.00,0.62,-0.62,-0.66,-0.63,-0.63,-0.62
255.45,0.02,0.63,0.01,0.63,-0.63,-0.67,-0.61,-0.62,-0.61
258.00,0.03,0.63,0.03,0.64,-0.64,-0.67,-0.60,-0.61,-0.60
260.58,0.03,0.63,0.04,0.64,-0.64,-0.67,-0.61,-0.60,-0.60
263.19,0.06,0.65,0.06,0.65,-0.65,-0.67,-0.58,-0.59,-0.59
265.82,0.07,0.65,0.07,0.65,-0.65,-0.67,-0.58,-0.58,-0.58
268.48,0.07,0.64,0.09,0.65,-0.65,-0.67,-0.58,-0.57,-0.57
271.16,0.11,0.67,0.10,0.66,-0.66,-0.67,-0.54,-0.55,-0.56
273.87,0.12,0.67,0.12,0.66,-0.66,-0.67,-0.54,-0.54,-0.55
276.61,0.12,0.65,0.13,0.66,-0.66,-0.67,-0.54,-0.53,-0.53
279.38,0.15,0.67,0.15,0.66,-0.66,-0.67,-0.51,-0.51,-0.51
282.17,0.16,0.66,0.16,0.66,-0.66,-0.66,-0.49,-0.49,-0.50
284.99,0.19,0.67,0.18,0.65,-0.65,-0.66,-0.46,-0.48,-0.48
287.84,0.20,0.66,0.19,0.65,-0.65,-0.66,-0.45,-0.46,-0.46
290.72,0.20,0.64,0.20,0.64,-0.64,-0.65,-0.44,-0.44,-0.44
293.63,0.20,0.62,0.22,0.64,-0.64,-0.65,-0.44,-0.42,-0.42
296.57,0.24,0.64,0.23,0.64,-0.64,-0.64,-0.39,-0.40,-0.40
299.53,0.25,0.63,0.24,0.63,-0.63,-0.64,-0.38,-0.39,-0.38
302.53,0.25,0.61,0.26,0.63,-0.63,-0.63,-0.38,-0.37,-0.36
305.55,0.27,0.62,0.27,0.62,-0.62,-0.63,-0.35,-0.35,-0.35
308.61,0.29,0.62,0.29,0.62,-0.62,-0.63,-0.33,-0.33,-0.33
311.69,0.29,0.60,0.30,0.62,-0.62,-0.62,-0.33,-0.32,-0.31
314.81,0.32,0.61,0.32,0.62,-0.62,-0.62,-0.30,-0.30,-0.29
317.96,0.33,0.61,0.34,0.62,-0.62,-0.62,-0.29,-0.28,-0.28
321.14,0.34,0.60,0.36,0.62,-0.62,-0.61,-0.28,-0.26,-0.26
324.35,0.37,0.61,0.38,0.62,-0.62,-0.61,-0.25,-0.24,-0.24
327.59,0.40,0.62,0.40,0.62,-0.62,-0.61,-0.22,-0.22,-0.22
330.87,0.41,0.62,0.42,0.63,-0.63,-0.61,-0.21,-0.20,-0.20
334.18,0.45,0.64,0.44,0.63,-0.63,-0.60,-0.17,-0.18,-0.19
337.52,0.47,0.64,0.46,0.63,-0.63,-0.60,-0.15,-0.16,-0.17
340.90,0.50,0.65,0.48,0.62,-0.62,-0.60,-0.12,-0.14,-0.14
344.30,0.51,0.63,0.50,0.62,-0.62,-0.60,-0.11,-0.12,-0.12
347.75,0.51,0.61,0.51,0.61,-0.61,-0.61,-0.10,-0.10,-0.10
351.23,0.52,0.60,0.52,0.61,-0.61,-0.61,-0.09,-0.08,-0.08
354.74,0.54,0.60,0.53,0.60,-0.60,-0.61,-0.06,-0.06,-0.06
358.28,0.55,0.60,0.54,0.59,-0.59,-0.61,-0.04,-0.05,-0.05
361.87,0.55,0.58,0.55,0.58,-0.58,-0.61,-0.03,-0.03,-0.03
365.49,0.55,0.56,0.55,0.57,-0.57,-0.62,-0.02,-0.02,-0.01
369.14,0.55,0.55,0.55,0.56,-0.56,-0.62,-0.00,-0.00,0.00
372.83,0.55,0.54,0.55,0.54,-0.54,-0.63,0.01,0.01,0.01
376.56,0.55,0.52,0.55,0.53,-0.53,-0.63,0.02,0.02,0.03
380.33,0.55,0.51,0.55,0.52,-0.52,-0.64,0.03,0.03,0.04
384.13,0.55,0.50,0.56,0.51,-0.51,-0.64,0.04,0.05,0.05
387.97,0.55,0.49,0.56,0.50,-0.50,-0.65,0.05,0.06,0.06
391.85,0.55,0.48,0.55,0.49,-0.49,-0.66,0.06,0.06,0.07
395.77,0.55,0.47,0.55,0.48,-0.48,-0.66,0.07,0.07,0.08
399.73,0.55,0.47,0.55,0.47,-0.47,-0.67,0.08,0.08,0.08
403.72,0.55,0.46,0.55,0.46,-0.46,-0.68,0.09,0.09,0.09
407.76,0.55,0.46,0.55,0.45,-0.45,-0.68,0.10,0.09,0.09
411.84,0.55,0.45,0.54,0.45,-0.45,-0.69,0.11,0.10,0.10
415.96,0.55,0.45,0.54,0.44,-0.44,-0.70,0.11,0.10,0.10
420.12,0.55,0.45,0.54,0.43,-0.43,-0.71,0.12,0.11,0.11
424.32,0.53,0.42,0.53,0.42,-0.42,-0.71,0.11,0.11,0.11
428.56,0.53,0.42,0.53,0.41,-0.41,-0.72,0.12,0.12,0.11
432.85,0.53,0.41,0.53,0.41,-0.41,-0.73,0.12,0.12,0.12
437.18,0.53,0.40,0.53,0.40,-0.40,-0.74,0.13,0.13,0.13
441.55,0.53,0.40,0.53,0.40,-0.40,-0.74,0.13,0.13,0.13
445.96,0.53,0.39,0.54,0.40,-0.40,-0.75,0.13,0.14,0.14
450.42,0.55,0.40,0.55,0.40,-0.40,-0.75,0.15,0.15,0.15
454.93,0.55,0.39,0.57,0.41,-0.41,-0.75,0.14,0.16,0.16
459.48,0.58,0.40,0.59,0.42,-0.42,-0.76,0.16,0.17,0.18
464.07,0.60,0.41,0.62,0.43,-0.43,-0.76,0.17,0.18,0.19
468.71,0.63,0.43,0.64,0.45,-0.45,-0.76,0.18,0.19,0.20
473.40,0.66,0.44,0.68,0.47,-0.47,-0.76,0.19,0.21,0.22
478.13,0.70,0.47,0.72,0.49,-0.49,-0.76,0.21,0.22,0.23
482.91,0.74,0.50,0.75,0.52,-0.52,-0.75,0.22,0.23,0.25
487.74,0.79,0.53,0.79,0.55,-0.55,-0.75,0.25,0.25,0.26
492.62,0.85,0.58,0.83,0.57,-0.57,-0.74,0.28,0.26,0.27
497.55,0.91,0.63,0.88,0.60,-0.60,-0.74,0.31,0.28,0.28
502.52,0.93,0.64,0.92,0.62,-0.62,-0.73,0.31,0.29,0.30
507.55,0.97,0.66,0.96,0.65,-0.65,-0.72,0.32,0.31,0.31
512.62,0.99,0.67,1.00,0.67,-0.67,-0.70,0.32,0.33,0.33
517.75,1.02,0.68,1.04,0.68,-0.68,-0.69,0.34,0.35,0.34
522.93,1.06,0.70,1.07,0.70,-0.70,-0.68,0.37,0.37,0.36
528.16,1.07,0.69,1.09,0.70,-0.70,-0.66,0.37,0.39,0.38
533.44,1.10,0.70,1.11,0.70,-0.70,-0.64,0.40,0.41,0.40
538.77,1.15,0.73,1.12,0.69,-0.69,-0.62,0.46,0.43,0.42
544.16,1.16,0.71,1.13,0.68,-0.68,-0.60,0.48,0.45,0.45
549.60,1.16,0.69,1.13,0.66,-0.66,-0.58,0.50,0.47,0.47
555.10,1.16,0.67,1.12,0.63,-0.63,-0.56,0.53,0.49,0.49
560.65,1.12,0.61,1.11,0.60,-0.60,-0.53,0.52,0.51,0.52
566.25,1.11,0.57,1.10,0.56,-0.56,-0.51,0.55,0.54,0.54
571.92,1.08,0.52,1.08,0.52,-0.52,-0.48,0.56,0.56,0.56
577.64,1.05,0.47,1.06,0.48,-0.48,-0.46,0.57,0.58,0.58
583.41,1.04,0.44,1.03,0.44,-0.44,-0.43,0.60,0.60,0.60
589.25,1.00,0.38,1.01,0.39,-0.39,-0.40,0.61,0.61,0.62
595.14,0.97,0.34,0.98,0.35,-0.35,-0.38,0.62,0.62,0.63
601.09,0.94,0.29,0.95,0.32,-0.32,-0.35,0.63,0.63,0.65
607.10,0.91,0.25,0.93,0.28,-0.28,-0.32,0.63,0.65,0.66
613.17,0.89,0.21,0.91,0.25,-0.25,-0.29,0.64,0.66,0.68
619.30,0.90,0.21,0.90,0.23,-0.23,-0.26,0.67,0.67,0.69
625.50,0.90,0.20,0.91,0.22,-0.22,-0.23,0.68,0.69,0.70
631.75,0.90,0.18,0.91,0.21,-0.21,-0.20,0.69,0.70,0.72
638.07,0.90,0.17,0.93,0.21,-0.21,-0.17,0.69,0.72,0.73
644.45,0.90,0.15,0.95,0.21,-0.21,-0.14,0.69,0.74,0.75
650.89,0.92,0.16,0.97,0.22,-0.22,-0.11,0.70,0.75,0.76
657.40,0.97,0.19,1.00,0.23,-0.23,-0.08,0.74,0.77,0.78
663.98,1.02,0.23,1.03,0.24,-0.24,-0.05,0.78,0.78,0.79
670.62,1.07,0.27,1.05,0.25,-0.25,-0.02,0.82,0.80,0.80
677.32,1.12,0.31,1.08,0.26,-0.26,0.01,0.86,0.81,0.82
684.10,1.15,0.33,1.10,0.27,-0.27,0.04,0.88,0.82,0.83
690.94,1.19,0.36,1.11,0.28,-0.28,0.07,0.91,0.83,0.83
