frequency,raw
20,1.39
21,1.57
22,1.77
23,1.95
24,2.11
25,2.26
26,2.39
27,2.50
28,2.63
29,2.73
30,2.82
31,2.92
32,2.99
33,3.06
34,3.13
35,3.20
36,3.24
37,3.29
38,3.34
39,3.39
40,3.43
41,3.48
42,3.52
43,3.57
44,3.57
45,3.62
46,3.66
47,3.66
48,3.71
49,3.71
50,3.76
51,3.76
52,3.80
53,3.80
54,3.80
55,3.85
56,3.85
57,3.85
58,3.85
59,3.90
60,3.90
61,3.90
62,3.90
63,3.90
64,3.94
65,3.94
66,3.94
67,3.94
68,3.94
69,3.94
70,3.94
71,3.94
72,3.94
73,3.94
74,3.94
75,3.97
76,3.97
77,3.97
78,3.97
79,3.96
80,3.94
81,3.94
82,3.94
83,3.94
84,3.94
85,3.94
86,3.94
87,3.94
88,3.94
89,3.94
90,3.94
91,3.94
92,3.92
93,3.90
94,3.90
95,3.90
96,3.90
97,3.90
98,3.90
99,3.90
100,3.90
101,3.88
102,3.85
104,3.85
105,3.85
106,3.85
107,3.85
108,3.85
109,3.83
110,3.81
111,3.80
112,3.80
113,3.80
114,3.80
115,3.80
117,3.77
118,3.76
119,3.76
120,3.76
121,3.76
123,3.71
124,3.71
125,3.71
126,3.71
128,3.66
129,3.66
130,3.66
131,3.66
133,3.62
134,3.62
135,3.62
137,3.60
138,3.57
140,3.57
141,3.57
142,3.53
144,3.52
145,3.52
147,3.48
148,3.48
150,3.45
151,3.43
153,3.43
154,3.43
156,3.38
157,3.38
159,3.34
160,3.34
162,3.32
164,3.29
165,3.29
167,3.24
169,3.24
170,3.22
172,3.20
174,3.16
175,3.15
177,3.14
179,3.10
181,3.09
183,3.06
184,3.06
186,3.01
188,3.00
190,2.96
192,2.95
194,2.92
196,2.88
198,2.87
200,2.82
202,2.81
204,2.78
206,2.75
208,2.73
210,2.69
212,2.68
214,2.64
216,2.61
218,2.59
221,2.54
223,2.50
225,2.50
227,2.45
229,2.43
232,2.38
234,2.36
236,2.31
239,2.26
241,2.24
244,2.20
246,2.17
248,2.13
251,2.09
253,2.07
256,2.01
259,1.96
261,1.94
264,1.89
266,1.89
269,1.86
272,1.84
274,1.84
277,1.82
280,1.80
283,1.78
286,1.75
288,1.73
291,1.70
294,1.66
297,1.61
300,1.58
303,1.55
306,1.50
309,1.47
312,1.41
316,1.37
319,1.31
322,1.26
325,1.21
328,1.19
332,1.12
335,1.07
338,1.04
342,1.00
345,0.98
349,0.96
352,0.96
356,0.91
359,0.91
363,0.91
366,0.96
370,0.96
374,0.96
377,0.91
381,0.91
385,0.87
389,0.83
393,0.80
397,0.77
401,0.74
405,0.71
409,0.68
413,0.63
417,0.61
421,0.57
425,0.54
430,0.50
434,0.47
438,0.44
443,0.40
447,0.35
451,0.33
456,0.29
460,0.26
465,0.21
470,0.17
474,0.15
479,0.12
484,0.07
489,0.03
494,0.02
499,-0.02
504,-0.07
509,-0.08
514,-0.12
519,-0.16
524,-0.17
529,-0.21
535,-0.23
540,-0.26
545,-0.29
551,-0.30
556,-0.35
562,-0.36
568,-0.40
573,-0.44
579,-0.44
585,-0.49
591,-0.50
596,-0.54
602,-0.55
608,-0.58
615,-0.62
621,-0.63
627,-0.68
633,-0.68
639,-0.71
646,-0.72
652,-0.74
659,-0.77
665,-0.77
672,-0.82
679,-0.82
686,-0.83
692,-0.86
699,-0.86
706,-0.86
713,-0.86
721,-0.86
728,-0.86
735,-0.86
742,-0.86
750,-0.86
757,-0.86
765,-0.86
773,-0.86
780,-0.86
788,-0.86
796,-0.86
804,-0.86
812,-0.86
820,-0.85
828,-0.82
837,-0.82
845,-0.82
853,-0.78
862,-0.77
871,-0.72
879,-0.71
888,-0.65
897,-0.61
906,-0.57
915,-0.51
924,-0.47
933,-0.42
943,-0.37
952,-0.29
962,-0.23
971,-0.19
981,-0.12
991,-0.06
1001,0.01
1011,0.07
1021,0.14
1031,0.21
1041,0.29
1052,0.35
1062,0.42
1073,0.50
1084,0.58
1094,0.65
1105,0.74
1116,0.81
1128,0.91
1139,0.98
1150,1.05
1162,1.15
1173,1.21
1185,1.32
1197,1.38
1209,1.48
1221,1.55
1233,1.63
1246,1.72
1258,1.79
1271,1.87
1283,1.95
1296,2.02
1309,2.10
1322,2.19
1335,2.26
1349,2.36
1362,2.42
1376,2.51
1390,2.60
1404,2.66
1418,2.77
1432,2.83
1446,2.94
1461,3.00
1475,3.11
1490,3.17
1505,3.28
1520,3.36
1535,3.45
1550,3.56
1566,3.65
1582,3.76
1597,3.84
1613,3.95
1629,4.05
1646,4.17
1662,4.30
1679,4.41
1696,4.52
1713,4.63
1730,4.76
1747,4.89
1764,5.02
1782,5.15
1800,5.29
1818,5.45
1836,5.59
1854,5.73
1873,5.89
1892,6.07
1911,6.22
1930,6.38
1949,6.54
1969,6.73
1988,6.89
2008,7.07
2028,7.27
2048,7.45
2069,7.65
2090,7.87
2111,8.07
2132,8.29
2153,8.52
2175,8.75
2196,8.99
2218,9.22
2240,9.49
2263,9.76
2285,10.01
2308,10.28
2331,10.57
2355,10.86
2378,11.12
2402,11.41
2426,11.69
2450,11.97
2475,12.26
2500,12.54
2525,12.80
2550,13.06
2575,13.31
2601,13.55
2627,13.79
2653,14.01
2680,14.20
2707,14.40
2734,14.55
2761,14.69
2789,14.80
2817,14.88
2845,14.93
2873,14.95
2902,14.93
2931,14.87
2960,14.77
2990,14.65
3020,14.51
3050,14.37
3080,14.21
3111,14.02
3142,13.80
3174,13.60
3206,13.36
3238,13.11
3270,12.88
3303,12.63
3336,12.39
3369,12.16
3403,11.94
3437,11.72
3471,11.52
3506,11.31
3541,11.13
3576,10.97
3612,10.80
3648,10.64
3685,10.52
3721,10.38
3759,10.25
3796,10.12
3834,10.02
3873,9.88
3911,9.77
3950,9.64
3990,9.51
4030,9.38
4070,9.28
4111,9.18
4152,9.12
4193,9.07
4235,9.03
4278,9.03
4321,9.06
4364,9.10
4407,9.17
4451,9.27
4496,9.38
4541,9.52
4586,9.68
4632,9.87
4679,10.08
4725,10.29
4773,10.55
4820,10.78
4868,11.02
4917,11.24
4966,11.45
5016,11.59
5066,11.72
5117,11.80
5168,11.86
5220,11.77
5272,11.63
5325,11.44
5378,11.18
5432,10.90
5486,10.58
5541,10.24
5596,9.86
5652,9.48
5709,9.09
5766,8.69
5823,8.32
5882,7.95
5940,7.59
6000,7.24
6060,6.91
6120,6.62
6182,6.33
6244,6.09
6306,5.87
6369,5.68
6433,5.50
6497,5.38
6562,5.27
6628,5.18
6694,5.13
6761,5.11
6828,5.11
6897,5.11
6966,5.15
7035,5.24
7106,5.33
7177,5.47
7249,5.65
7321,5.84
7394,6.07
7468,6.34
7543,6.64
7618,6.98
7694,7.36
7771,7.72
7849,8.09
7928,8.44
8007,8.71
8087,8.92
8168,8.96
8250,8.70
8332,8.31
8415,7.70
8499,6.90
8584,5.96
8670,4.91
8757,3.85
8845,2.73
8933,1.67
9022,0.61
9113,-0.39
9204,-1.34
9296,-2.25
9389,-3.12
9483,-3.94
9577,-4.72
9673,-5.48
9770,-6.20
9868,-6.89
9966,-7.56
10066,-8.21
10167,-8.81
10268,-9.41
10371,-9.95
10475,-10.51
10579,-11.02
10685,-11.52
10792,-12.02
10900,-12.48
11009,-12.92
11119,-13.35
11230,-13.75
11343,-14.11
11456,-14.47
11571,-14.82
11686,-15.12
11803,-15.42
11921,-15.69
12040,-15.94
12161,-16.18
12282,-16.38
12405,-16.55
12529,-16.71
12655,-16.85
12781,-16.97
12909,-17.05
13038,-17.11
13168,-17.14
13300,-17.06
13433,-16.98
13567,-16.84
13703,-16.64
13840,-16.33
13978,-16.01
14118,-15.59
14259,-15.07
14402,-14.48
14546,-13.79
14692,-12.96
14838,-12.02
14987,-10.92
15137,-9.71
15288,-8.52
15441,-7.44
15595,-6.70
15751,-6.21
15909,-6.82
16068,-7.65
16229,-8.86
16391,-10.27
16555,-11.71
16720,-13.04
16888,-14.23
17056,-15.26
17227,-16.15
17399,-16.82
17573,-17.21
17749,-17.56
17926,-17.88
18106,-18.21
18287,-18.54
18470,-18.86
18654,-19.19
18841,-19.52
19029,-19.84
19220,-20.17
19412,-20.50
19606,-20.82
19802,-21.15
20000,-21.48
