frequency,raw,error,smoothed,error_smoothed,equalization,parametric_eq,fixed_band_eq,equalized_raw,equalized_smoothed,target
20.00,-1.57,-6.04,-1.55,-6.05,6.05,4.51,1.91,4.47,4.50,4.47
20.20,-1.48,-6.00,-1.46,-6.00,6.00,4.61,1.96,4.51,4.54,4.52
20.40,-1.38,-5.95,-1.37,-5.94,5.94,4.71,2.02,4.56,4.57,4.57
20.61,-1.29,-5.89,-1.28,-5.89,5.89,4.80,2.09,4.60,4.61,4.60
20.81,-1.19,-5.84,-1.20,-5.84,5.84,4.89,2.15,4.64,4.64,4.65
21.02,-1.10,-5.79,-1.12,-5.78,5.78,4.98,2.21,4.68,4.66,4.69
21.23,-1.02,-5.73,-1.04,-5.73,5.73,5.06,2.28,4.70,4.69,4.71
21.44,-0.93,-5.66,-0.96,-5.67,5.67,5.13,2.35,4.74,4.71,4.73
21.66,-0.85,-5.60,-0.88,-5.61,5.61,5.20,2.42,4.76,4.73,4.75
21.87,-0.76,-5.52,-0.81,-5.56,5.56,5.26,2.49,4.79,4.75,4.76
22.09,-0.69,-5.47,-0.73,-5.50,5.50,5.31,2.57,4.81,4.77,4.78
22.31,-0.63,-5.42,-0.66,-5.44,5.44,5.36,2.65,4.81,4.78,4.79
22.54,-0.58,-5.37,-0.60,-5.38,5.38,5.39,2.73,4.80,4.78,4.79
22.76,-0.53,-5.32,-0.53,-5.32,5.32,5.42,2.81,4.79,4.79,4.79
22.99,-0.47,-5.25,-0.47,-5.26,5.26,5.44,2.89,4.79,4.79,4.78
23.22,-0.42,-5.20,-0.40,-5.20,5.20,5.44,2.97,4.77,4.79,4.78
23.45,-0.37,-5.15,-0.34,-5.13,5.13,5.44,3.06,4.76,4.79,4.78
23.69,-0.32,-5.11,-0.28,-5.07,5.07,5.42,3.15,4.75,4.79,4.79
23.92,-0.27,-5.06,-0.21,-5.01,5.01,5.40,3.24,4.73,4.79,4.79
24.16,-0.18,-4.98,-0.15,-4.94,4.94,5.37,3.33,4.76,4.79,4.80
24.40,-0.09,-4.90,-0.08,-4.88,4.88,5.32,3.42,4.78,4.79,4.81
24.65,0.01,-4.79,-0.02,-4.81,4.81,5.27,3.52,4.82,4.79,4.80
24.89,0.11,-4.69,0.05,-4.74,4.74,5.21,3.61,4.85,4.79,4.79
25.14,0.17,-4.63,0.11,-4.68,4.68,5.14,3.71,4.85,4.80,4.79
25.39,0.22,-4.59,0.18,-4.62,4.62,5.07,3.80,4.84,4.80,4.80
25.65,0.26,-4.55,0.24,-4.56,4.56,4.99,3.90,4.81,4.80,4.80
25.91,0.30,-4.50,0.30,-4.49,4.49,4.90,4.00,4.79,4.80,4.79
26.16,0.35,-4.44,0.36,-4.43,4.43,4.81,4.09,4.78,4.80,4.79
26.43,0.41,-4.38,0.42,-4.37,4.37,4.71,4.19,4.78,4.80,4.79
26.69,0.46,-4.33,0.48,-4.31,4.31,4.61,4.28,4.77,4.79,4.79
26.96,0.51,-4.29,0.53,-4.26,4.26,4.50,4.37,4.77,4.79,4.80
27.23,0.57,-4.23,0.58,-4.21,4.21,4.40,4.46,4.77,4.79,4.80
27.50,0.63,-4.17,0.63,-4.16,4.16,4.29,4.54,4.78,4.79,4.80
27.77,0.69,-4.10,0.68,-4.11,4.11,4.18,4.62,4.79,4.79,4.79
28.05,0.75,-4.04,0.74,-4.05,4.05,4.07,4.70,4.80,4.79,4.79
28.33,0.81,-3.97,0.80,-3.99,3.99,3.96,4.77,4.80,4.79,4.78
28.62,0.86,-3.92,0.85,-3.93,3.93,3.85,4.84,4.79,4.79,4.78
28.90,0.92,-3.87,0.91,-3.88,3.88,3.74,4.90,4.80,4.79,4.78
29.19,0.96,-3.82,0.95,-3.83,3.83,3.63,4.96,4.79,4.78,4.77
29.48,1.00,-3.79,1.00,-3.79,3.79,3.52,5.00,4.78,4.78,4.79
29.78,1.03,-3.75,1.04,-3.74,3.74,3.41,5.04,4.77,4.78,4.78
30.08,1.07,-3.72,1.08,-3.70,3.70,3.30,5.07,4.76,4.78,4.79
30.38,1.13,-3.65,1.13,-3.65,3.65,3.20,5.09,4.78,4.78,4.78
30.68,1.19,-3.59,1.17,-3.61,3.61,3.10,5.11,4.80,4.78,4.78
30.99,1.25,-3.53,1.21,-3.57,3.57,2.99,5.11,4.82,4.78,4.78
31.30,1.25,-3.53,1.24,-3.54,3.54,2.90,5.11,4.78,4.78,4.78
31.61,1.25,-3.53,1.28,-3.50,3.50,2.80,5.09,4.75,4.78,4.77
31.93,1.25,-3.53,1.31,-3.46,3.46,2.70,5.07,4.71,4.77,4.77
32.24,1.30,-3.46,1.34,-3.43,3.43,2.61,5.04,4.73,4.77,4.76
32.57,1.36,-3.41,1.36,-3.40,3.40,2.52,4.99,4.76,4.77,4.77
32.89,1.43,-3.34,1.39,-3.38,3.38,2.43,4.94,4.80,4.76,4.77
33.22,1.45,-3.31,1.40,-3.35,3.35,2.35,4.89,4.80,4.76,4.76
33.55,1.45,-3.31,1.42,-3.34,3.34,2.26,4.82,4.78,4.75,4.76
33.89,1.45,-3.30,1.43,-3.33,3.33,2.18,4.75,4.77,4.75,4.74
34.23,1.45,-3.31,1.43,-3.32,3.32,2.10,4.67,4.76,4.75,4.75
34.57,1.45,-3.29,1.44,-3.31,3.31,2.02,4.58,4.75,4.74,4.74
34.92,1.45,-3.29,1.44,-3.30,3.30,1.95,4.49,4.74,4.74,4.74
35.27,1.45,-3.29,1.45,-3.29,3.29,1.87,4.40,4.74,4.74,4.74
35.62,1.45,-3.29,1.46,-3.28,3.28,1.80,4.30,4.73,4.74,4.74
35.97,1.45,-3.29,1.46,-3.28,3.28,1.73,4.20,4.72,4.74,4.73
36.33,1.45,-3.29,1.47,-3.27,3.27,1.66,4.09,4.72,4.74,4.74
36.70,1.45,-3.28,1.47,-3.26,3.26,1.60,3.98,4.71,4.74,4.73
37.06,1.46,-3.27,1.49,-3.25,3.25,1.53,3.87,4.71,4.74,4.73
37.43,1.50,-3.25,1.51,-3.23,3.23,1.47,3.76,4.73,4.74,4.74
37.81,1.54,-3.20,1.53,-3.21,3.21,1.41,3.65,4.75,4.74,4.74
38.19,1.58,-3.16,1.56,-3.18,3.18,1.35,3.54,4.76,4.74,4.74
38.57,1.62,-3.13,1.60,-3.15,3.15,1.29,3.42,4.76,4.74,4.75
38.95,1.67,-3.09,1.65,-3.10,3.10,1.23,3.31,4.77,4.75,4.75
39.34,1.70,-3.05,1.70,-3.05,3.05,1.18,3.20,4.75,4.75,4.75
39.74,1.74,-3.01,1.76,-2.99,2.99,1.12,3.09,4.73,4.75,4.75
40.14,1.78,-2.98,1.83,-2.93,2.93,1.07,2.98,4.70,4.75,4.75
40.54,1.85,-2.90,1.89,-2.86,2.86,1.02,2.86,4.71,4.75,4.75
40.94,1.92,-2.83,1.96,-2.79,2.79,0.97,2.76,4.71,4.75,4.75
41.35,2.01,-2.74,2.02,-2.72,2.72,0.92,2.65,4.73,4.75,4.74
41.76,2.11,-2.63,2.08,-2.66,2.66,0.87,2.54,4.77,4.74,4.74
42.18,2.20,-2.55,2.15,-2.59,2.59,0.82,2.43,4.79,4.73,4.75
42.60,2.29,-2.44,2.21,-2.51,2.51,0.77,2.33,4.80,4.73,4.73
43.03,2.37,-2.36,2.28,-2.43,2.43,0.73,2.23,4.80,4.72,4.73
43.46,2.39,-2.34,2.35,-2.35,2.35,0.68,2.13,4.74,4.71,4.72
43.90,2.41,-2.29,2.43,-2.27,2.27,0.64,2.03,4.68,4.70,4.70
44.33,2.46,-2.23,2.50,-2.19,2.19,0.60,1.93,4.65,4.69,4.68
44.78,2.51,-2.16,2.56,-2.12,2.12,0.56,1.83,4.62,4.68,4.67
45.23,2.58,-2.09,2.63,-2.04,2.04,0.51,1.74,4.62,4.67,4.66
45.68,2.65,-2.00,2.70,-1.96,1.96,0.47,1.64,4.61,4.66,4.65
46.13,2.74,-1.89,2.76,-1.88,1.88,0.43,1.55,4.62,4.65,4.63
46.60,2.86,-1.78,2.83,-1.81,1.81,0.39,1.46,4.66,4.64,4.64
47.06,2.97,-1.65,2.90,-1.73,1.73,0.36,1.37,4.69,4.62,4.62
47.53,3.01,-1.61,2.97,-1.64,1.64,0.32,1.28,4.65,4.61,4.62
48.01,3.06,-1.56,3.05,-1.55,1.55,0.28,1.20,4.61,4.60,4.62
48.49,3.11,-1.50,3.13,-1.46,1.46,0.24,1.11,4.57,4.59,4.60
48.97,3.16,-1.43,3.20,-1.38,1.38,0.21,1.03,4.54,4.58,4.59
49.46,3.27,-1.30,3.27,-1.30,1.30,0.17,0.94,4.57,4.57,4.57
49.96,3.39,-1.16,3.35,-1.22,1.22,0.13,0.86,4.60,4.56,4.55
50.46,3.43,-1.13,3.42,-1.13,1.13,0.10,0.78,4.56,4.55,4.55
50.96,3.46,-1.09,3.49,-1.06,1.06,0.06,0.71,4.52,4.55,4.55
51.47,3.55,-0.98,3.55,-0.98,0.98,0.03,0.63,4.53,4.54,4.53
51.99,3.66,-0.86,3.62,-0.91,0.91,-0.01,0.55,4.56,4.53,4.52
52.51,3.70,-0.82,3.69,-0.83,0.83,-0.04,0.48,4.53,4.52,4.52
53.03,3.73,-0.79,3.76,-0.75,0.75,-0.08,0.40,4.48,4.51,4.52
53.56,3.80,-0.71,3.83,-0.68,0.68,-0.11,0.33,4.48,4.51,4.51
54.10,3.88,-0.62,3.89,-0.61,0.61,-0.14,0.26,4.49,4.50,4.50
54.64,3.99,-0.50,3.95,-0.54,0.54,-0.18,0.19,4.53,4.50,4.49
55.18,4.06,-0.43,4.01,-0.48,0.48,-0.21,0.13,4.54,4.49,4.49
55.74,4.06,-0.42,4.07,-0.41,0.41,-0.24,0.06,4.47,4.49,4.48
56.29,4.12,-0.36,4.13,-0.34,0.34,-0.28,-0.01,4.46,4.48,4.48
56.86,4.23,-0.24,4.19,-0.28,0.28,-0.31,-0.07,4.50,4.47,4.47
57.42,4.26,-0.19,4.25,-0.21,0.21,-0.34,-0.13,4.47,4.46,4.45
58.00,4.26,-0.19,4.30,-0.15,0.15,-0.37,-0.19,4.41,4.45,4.44
58.58,4.35,-0.09,4.35,-0.08,0.08,-0.41,-0.25,4.42,4.43,4.44
59.16,4.42,-0.01,4.41,-0.00,0.00,-0.44,-0.31,4.42,4.41,4.43
59.76,4.45,0.03,4.46,0.06,-0.06,-0.47,-0.36,4.38,4.39,4.41
60.35,4.50,0.12,4.50,0.13,-0.13,-0.51,-0.42,4.37,4.37,4.38
60.96,4.56,0.20,4.55,0.21,-0.21,-0.54,-0.47,4.35,4.34,4.36
61.57,4.62,0.30,4.60,0.28,-0.28,-0.57,-0.52,4.34,4.32,4.32
62.18,4.66,0.37,4.64,0.36,-0.36,-0.61,-0.57,4.30,4.29,4.28
62.80,4.66,0.41,4.69,0.43,-0.43,-0.64,-0.62,4.23,4.25,4.25
63.43,4.71,0.50,4.73,0.51,-0.51,-0.67,-0.67,4.20,4.22,4.21
64.07,4.78,0.60,4.77,0.59,-0.59,-0.71,-0.71,4.19,4.18,4.18
64.71,4.84,0.70,4.81,0.66,-0.66,-0.74,-0.76,4.17,4.15,4.14
65.35,4.87,0.76,4.85,0.74,-0.74,-0.77,-0.80,4.13,4.11,4.11
66.01,4.87,0.80,4.88,0.81,-0.81,-0.81,-0.84,4.06,4.07,4.07
66.67,4.93,0.90,4.92,0.89,-0.89,-0.84,-0.88,4.04,4.04,4.03
67.33,4.96,0.97,4.96,0.96,-0.96,-0.87,-0.92,3.99,4.00,3.99
68.01,4.97,1.00,4.99,1.04,-1.04,-0.91,-0.96,3.93,3.96,3.96
68.69,5.04,1.12,5.03,1.11,-1.11,-0.94,-1.00,3.93,3.92,3.92
69.37,5.07,1.19,5.07,1.19,-1.19,-0.98,-1.04,3.88,3.88,3.88
70.07,5.08,1.24,5.10,1.27,-1.27,-1.01,-1.08,3.81,3.84,3.84
70.77,5.15,1.34,5.14,1.34,-1.34,-1.05,-1.12,3.81,3.80,3.81
71.48,5.17,1.40,5.16,1.41,-1.41,-1.09,-1.15,3.75,3.75,3.76
72.19,5.19,1.48,5.20,1.49,-1.49,-1.12,-1.19,3.70,3.71,3.71
72.91,5.26,1.59,5.23,1.56,-1.56,-1.16,-1.23,3.70,3.66,3.67
73.64,5.27,1.65,5.25,1.63,-1.63,-1.19,-1.27,3.63,3.62,3.62
74.38,5.28,1.70,5.28,1.70,-1.70,-1.23,-1.31,3.57,3.58,3.58
75.12,5.31,1.78,5.31,1.78,-1.78,-1.27,-1.34,3.53,3.53,3.53
75.87,5.36,1.88,5.34,1.85,-1.85,-1.31,-1.38,3.51,3.49,3.48
76.63,5.37,1.92,5.37,1.91,-1.91,-1.35,-1.42,3.45,3.45,3.45
77.40,5.37,1.96,5.39,1.98,-1.98,-1.38,-1.47,3.39,3.41,3.41
78.17,5.38,2.02,5.42,2.04,-2.04,-1.42,-1.51,3.33,3.37,3.36
78.95,5.44,2.10,5.44,2.10,-2.10,-1.46,-1.55,3.34,3.34,3.34
79.74,5.46,2.16,5.45,2.15,-2.15,-1.50,-1.60,3.31,3.30,3.30
80.54,5.47,2.20,5.47,2.20,-2.20,-1.54,-1.64,3.26,3.27,3.27
81.35,5.50,2.27,5.49,2.26,-2.26,-1.58,-1.69,3.24,3.23,3.23
82.16,5.57,2.37,5.51,2.31,-2.31,-1.62,-1.74,3.26,3.20,3.20
82.98,5.57,2.39,5.54,2.37,-2.37,-1.67,-1.79,3.20,3.17,3.18
83.81,5.57,2.43,5.56,2.42,-2.42,-1.71,-1.84,3.14,3.14,3.13
84.65,5.57,2.47,5.59,2.48,-2.48,-1.75,-1.89,3.09,3.10,3.10
85.50,5.57,2.49,5.61,2.54,-2.54,-1.79,-1.95,3.03,3.07,3.08
86.35,5.57,2.52,5.64,2.60,-2.60,-1.84,-2.00,2.97,3.04,3.04
87.22,5.59,2.58,5.66,2.65,-2.65,-1.88,-2.06,2.93,3.01,3.01
88.09,5.68,2.70,5.68,2.71,-2.71,-1.92,-2.12,2.97,2.97,2.98
88.97,5.74,2.80,5.70,2.76,-2.76,-1.97,-2.18,2.97,2.94,2.94
89.86,5.77,2.86,5.72,2.81,-2.81,-2.01,-2.24,2.95,2.90,2.90
90.76,5.78,2.91,5.73,2.86,-2.86,-2.06,-2.31,2.92,2.87,2.87
91.66,5.78,2.94,5.74,2.90,-2.90,-2.10,-2.37,2.88,2.84,2.84
92.58,5.78,2.98,5.75,2.95,-2.95,-2.15,-2.44,2.83,2.81,2.79
93.51,5.78,3.01,5.76,2.99,-2.99,-2.20,-2.51,2.79,2.77,2.77
94.44,5.78,3.04,5.78,3.04,-3.04,-2.24,-2.58,2.74,2.74,2.74
95.39,5.78,3.07,5.79,3.08,-3.08,-2.29,-2.66,2.70,2.71,2.71
96.34,5.77,3.09,5.80,3.12,-3.12,-2.34,-2.73,2.65,2.68,2.67
97.30,5.77,3.12,5.80,3.16,-3.16,-2.39,-2.81,2.61,2.65,2.65
98.28,5.76,3.14,5.80,3.19,-3.19,-2.44,-2.88,2.57,2.62,2.62
99.26,5.75,3.16,5.81,3.22,-3.22,-2.49,-2.96,2.53,2.59,2.59
100.25,5.78,3.22,5.81,3.25,-3.25,-2.54,-3.04,2.52,2.56,2.56
101.25,5.83,3.30,5.82,3.29,-3.29,-2.59,-3.12,2.54,2.53,2.53
102.27,5.87,3.37,5.82,3.32,-3.32,-2.64,-3.20,2.55,2.50,2.50
103.29,5.88,3.42,5.82,3.35,-3.35,-2.69,-3.28,2.53,2.47,2.46
104.32,5.87,3.43,5.81,3.38,-3.38,-2.74,-3.36,2.49,2.44,2.44
105.37,5.84,3.43,5.81,3.40,-3.40,-2.79,-3.44,2.43,2.40,2.41
106.42,5.82,3.44,5.80,3.43,-3.43,-2.84,-3.52,2.39,2.37,2.38
107.48,5.79,3.44,5.79,3.45,-3.45,-2.89,-3.59,2.34,2.34,2.34
108.56,5.77,3.46,5.78,3.47,-3.47,-2.94,-3.67,2.29,2.30,2.30
109.64,5.75,3.47,5.77,3.49,-3.49,-3.00,-3.75,2.25,2.27,2.27
110.74,5.73,3.49,5.75,3.51,-3.51,-3.05,-3.82,2.21,2.24,2.24
111.85,5.71,3.49,5.73,3.53,-3.53,-3.10,-3.89,2.18,2.21,2.22
112.97,5.70,3.53,5.72,3.54,-3.54,-3.15,-3.96,2.15,2.17,2.17
114.10,5.70,3.56,5.71,3.56,-3.56,-3.20,-4.02,2.13,2.14,2.14
115.24,5.69,3.58,5.70,3.58,-3.58,-3.26,-4.08,2.10,2.11,2.11
116.39,5.70,3.62,5.70,3.61,-3.61,-3.31,-4.14,2.09,2.09,2.07
117.55,5.70,3.64,5.70,3.64,-3.64,-3.36,-4.19,2.06,2.06,2.06
118.73,5.70,3.67,5.70,3.66,-3.66,-3.41,-4.23,2.03,2.04,2.03
119.92,5.71,3.69,5.72,3.70,-3.70,-3.46,-4.28,2.01,2.02,2.02
121.12,5.72,3.72,5.73,3.73,-3.73,-3.51,-4.31,1.99,2.00,1.99
122.33,5.73,3.75,5.74,3.75,-3.75,-3.56,-4.34,1.98,1.98,1.98
123.55,5.73,3.76,5.74,3.77,-3.77,-3.61,-4.37,1.95,1.97,1.97
124.79,5.74,3.78,5.74,3.79,-3.79,-3.66,-4.38,1.95,1.95,1.96
126.03,5.75,3.81,5.74,3.80,-3.80,-3.71,-4.40,1.95,1.94,1.94
127.29,5.76,3.82,5.73,3.81,-3.81,-3.76,-4.40,1.95,1.93,1.94
128.57,5.76,3.84,5.72,3.81,-3.81,-3.81,-4.40,1.95,1.91,1.91
129.85,5.77,3.87,5.71,3.81,-3.81,-3.86,-4.40,1.96,1.90,1.90
131.15,5.77,3.88,5.70,3.81,-3.81,-3.90,-4.39,1.96,1.89,1.89
132.46,5.73,3.85,5.68,3.81,-3.81,-3.95,-4.37,1.92,1.88,1.87
133.79,5.62,3.76,5.67,3.80,-3.80,-3.99,-4.35,1.81,1.86,1.86
135.12,5.58,3.74,5.65,3.80,-3.80,-4.03,-4.33,1.78,1.85,1.84
136.48,5.59,3.75,5.63,3.80,-3.80,-4.07,-4.30,1.79,1.84,1.84
137.84,5.59,3.77,5.62,3.79,-3.79,-4.11,-4.26,1.79,1.83,1.82
139.22,5.59,3.79,5.61,3.80,-3.80,-4.15,-4.23,1.79,1.81,1.80
140.61,5.59,3.81,5.60,3.80,-3.80,-4.19,-4.19,1.78,1.80,1.78
142.02,5.59,3.81,5.60,3.82,-3.82,-4.22,-4.15,1.77,1.78,1.78
143.44,5.59,3.82,5.59,3.83,-3.83,-4.25,-4.11,1.75,1.76,1.76
144.87,5.59,3.85,5.59,3.86,-3.86,-4.29,-4.06,1.73,1.73,1.74
146.32,5.59,3.88,5.59,3.89,-3.89,-4.32,-4.01,1.70,1.70,1.71
147.78,5.59,3.89,5.59,3.92,-3.92,-4.34,-3.97,1.66,1.67,1.69
149.26,5.59,3.93,5.59,3.96,-3.96,-4.37,-3.92,1.63,1.63,1.66
150.75,5.59,3.98,5.57,3.99,-3.99,-4.39,-3.88,1.60,1.58,1.60
152.26,5.59,4.04,5.54,4.01,-4.01,-4.41,-3.83,1.57,1.53,1.55
153.78,5.59,4.09,5.51,4.04,-4.04,-4.43,-3.78,1.55,1.48,1.50
155.32,5.54,4.11,5.48,4.06,-4.06,-4.45,-3.74,1.48,1.42,1.43
156.88,5.49,4.12,5.45,4.09,-4.09,-4.46,-3.70,1.40,1.36,1.37
158.44,5.42,4.12,5.41,4.11,-4.11,-4.48,-3.66,1.31,1.30,1.30
160.03,5.37,4.14,5.37,4.13,-4.13,-4.49,-3.62,1.24,1.24,1.23
161.63,5.30,4.13,5.33,4.14,-4.14,-4.49,-3.58,1.16,1.19,1.17
163.24,5.23,4.11,5.29,4.15,-4.15,-4.50,-3.54,1.07,1.14,1.11
164.88,5.19,4.11,5.25,4.16,-4.16,-4.50,-3.51,1.03,1.09,1.07
166.53,5.18,4.14,5.22,4.17,-4.17,-4.50,-3.48,1.01,1.05,1.04
168.19,5.18,4.17,5.19,4.17,-4.17,-4.50,-3.45,1.01,1.03,1.01
169.87,5.17,4.19,5.17,4.17,-4.17,-4.49,-3.42,1.00,1.00,0.98
171.57,5.16,4.19,5.16,4.18,-4.18,-4.49,-3.40,0.98,0.98,0.97
173.29,5.16,4.19,5.16,4.18,-4.18,-4.48,-3.38,0.98,0.97,0.96
175.02,5.15,4.18,5.15,4.18,-4.18,-4.46,-3.36,0.97,0.97,0.97
176.77,5.15,4.19,5.15,4.18,-4.18,-4.45,-3.34,0.97,0.97,0.96
178.54,5.15,4.18,5.15,4.18,-4.18,-4.43,-3.33,0.97,0.97,0.97
180.32,5.15,4.17,5.14,4.17,-4.17,-4.41,-3.32,0.97,0.97,0.98
182.13,5.16,4.16,5.14,4.17,-4.17,-4.39,-3.31,0.99,0.97,1.00
183.95,5.17,4.18,5.14,4.16,-4.16,-4.37,-3.30,1.01,0.97,0.99
185.79,5.18,4.18,5.13,4.15,-4.15,-4.34,-3.30,1.03,0.97,1.00
187.65,5.17,4.18,5.11,4.14,-4.14,-4.31,-3.30,1.03,0.97,0.98
189.52,5.07,4.09,5.09,4.12,-4.12,-4.28,-3.30,0.95,0.97,0.98
191.42,5.03,4.06,5.08,4.12,-4.12,-4.25,-3.31,0.91,0.97,0.97
193.33,5.03,4.07,5.07,4.11,-4.11,-4.22,-3.31,0.92,0.96,0.96
195.27,5.05,4.10,5.05,4.10,-4.10,-4.18,-3.32,0.95,0.95,0.95
197.22,5.04,4.10,5.02,4.09,-4.09,-4.14,-3.33,0.95,0.93,0.93
199.19,4.99,4.07,4.99,4.07,-4.07,-4.11,-3.34,0.92,0.92,0.91
201.18,4.97,4.06,4.96,4.06,-4.06,-4.06,-3.36,0.91,0.91,0.90
203.19,4.92,4.03,4.93,4.04,-4.04,-4.02,-3.37,0.87,0.89,0.89
205.23,4.89,4.02,4.90,4.03,-4.03,-3.98,-3.39,0.86,0.88,0.87
207.28,4.89,4.01,4.87,4.01,-4.01,-3.93,-3.41,0.88,0.86,0.87
209.35,4.89,4.03,4.84,3.99,-3.99,-3.89,-3.42,0.90,0.85,0.85
211.44,4.87,4.04,4.81,3.97,-3.97,-3.84,-3.44,0.90,0.83,0.83
213.56,4.75,3.92,4.77,3.95,-3.95,-3.79,-3.46,0.80,0.82,0.83
215.69,4.68,3.86,4.73,3.91,-3.91,-3.74,-3.48,0.76,0.82,0.82
217.85,4.67,3.86,4.69,3.88,-3.88,-3.69,-3.50,0.79,0.81,0.81
220.03,4.67,3.87,4.65,3.84,-3.84,-3.64,-3.51,0.83,0.80,0.80
222.23,4.63,3.84,4.61,3.80,-3.80,-3.59,-3.53,0.82,0.80,0.79
224.45,4.57,3.77,4.57,3.76,-3.76,-3.54,-3.54,0.81,0.80,0.80
226.70,4.50,3.70,4.53,3.72,-3.72,-3.49,-3.55,0.78,0.81,0.80
228.96,4.47,3.65,4.49,3.68,-3.68,-3.43,-3.56,0.79,0.82,0.81
231.25,4.47,3.64,4.46,3.63,-3.63,-3.38,-3.57,0.84,0.83,0.83
233.57,4.47,3.63,4.42,3.58,-3.58,-3.32,-3.58,0.89,0.84,0.84
235.90,4.37,3.51,4.39,3.53,-3.53,-3.27,-3.58,0.83,0.86,0.86
238.26,4.32,3.45,4.37,3.49,-3.49,-3.21,-3.57,0.83,0.88,0.87
240.64,4.33,3.43,4.35,3.44,-3.44,-3.16,-3.57,0.88,0.90,0.89
243.05,4.34,3.41,4.32,3.39,-3.39,-3.10,-3.56,0.94,0.93,0.93
245.48,4.30,3.34,4.29,3.34,-3.34,-3.05,-3.54,0.96,0.95,0.95
247.93,4.29,3.30,4.27,3.29,-3.29,-2.99,-3.53,0.99,0.98,0.99
250.41,4.27,3.26,4.25,3.25,-3.25,-2.94,-3.50,1.02,1.00,1.00
252.92,4.22,3.18,4.22,3.19,-3.19,-2.88,-3.47,1.02,1.03,1.04
255.45,4.17,3.10,4.19,3.13,-3.13,-2.83,-3.44,1.03,1.06,1.07
258.00,4.15,3.06,4.16,3.07,-3.07,-2.77,-3.41,1.08,1.08,1.09
260.58,4.15,3.04,4.12,3.01,-3.01,-2.72,-3.37,1.14,1.11,1.11
263.19,4.14,2.99,4.09,2.95,-2.95,-2.66,-3.32,1.19,1.14,1.14
265.82,4.07,2.91,4.05,2.88,-2.88,-2.61,-3.27,1.19,1.17,1.16
268.48,4.01,2.82,4.00,2.81,-2.81,-2.55,-3.22,1.20,1.19,1.19
271.16,3.96,2.74,3.96,2.74,-2.74,-2.50,-3.16,1.22,1.22,1.22
273.87,3.94,2.70,3.91,2.67,-2.67,-2.44,-3.11,1.27,1.25,1.24
276.61,3.84,2.56,3.87,2.59,-2.59,-2.39,-3.04,1.25,1.27,1.28
279.38,3.76,2.46,3.82,2.52,-2.52,-2.33,-2.98,1.24,1.30,1.30
282.17,3.74,2.41,3.78,2.44,-2.44,-2.28,-2.91,1.29,1.33,1.33
284.99,3.74,2.37,3.73,2.37,-2.37,-2.23,-2.84,1.37,1.36,1.37
287.84,3.70,2.31,3.69,2.30,-2.30,-2.17,-2.77,1.40,1.39,1.38
290.72,3.66,2.24,3.64,2.22,-2.22,-2.12,-2.70,1.44,1.42,1.42
293.63,3.58,2.13,3.60,2.15,-2.15,-2.07,-2.63,1.43,1.45,1.45
296.57,3.59,2.10,3.56,2.07,-2.07,-2.01,-2.55,1.51,1.48,1.49
299.53,3.52,2.00,3.52,2.00,-2.00,-1.96,-2.48,1.51,1.51,1.51
302.53,3.48,1.95,3.48,1.94,-1.94,-1.91,-2.40,1.54,1.54,1.53
305.55,3.43,1.85,3.44,1.87,-1.87,-1.86,-2.32,1.56,1.57,1.58
308.61,3.43,1.83,3.40,1.81,-1.81,-1.81,-2.25,1.62,1.59,1.60
311.69,3.38,1.75,3.36,1.74,-1.74,-1.76,-2.17,1.64,1.62,1.62
314.81,3.32,1.66,3.31,1.67,-1.67,-1.71,-2.10,1.65,1.64,1.65
317.96,3.26,1.59,3.27,1.61,-1.61,-1.66,-2.02,1.65,1.66,1.67
321.14,3.19,1.51,3.23,1.54,-1.54,-1.61,-1.94,1.64,1.68,1.68
324.35,3.15,1.45,3.18,1.48,-1.48,-1.56,-1.87,1.66,1.70,1.70
327.59,3.14,1.42,3.14,1.42,-1.42,-1.51,-1.80,1.72,1.72,1.72
330.87,3.13,1.40,3.09,1.36,-1.36,-1.46,-1.72,1.77,1.73,1.72
334.18,3.06,1.32,3.04,1.30,-1.30,-1.41,-1.65,1.76,1.74,1.74
337.52,3.01,1.26,3.00,1.24,-1.24,-1.36,-1.58,1.77,1.75,1.75
340.90,2.95,1.18,2.95,1.19,-1.19,-1.31,-1.51,1.76,1.76,1.77
344.30,2.93,1.15,2.91,1.13,-1.13,-1.27,-1.44,1.79,1.77,1.78
347.75,2.87,1.09,2.86,1.09,-1.09,-1.22,-1.37,1.78,1.78,1.78
351.23,2.82,1.03,2.82,1.04,-1.04,-1.17,-1.31,1.78,1.78,1.79
354.74,2.76,0.97,2.78,0.99,-0.99,-1.12,-1.24,1.77,1.79,1.78
358.28,2.69,0.89,2.73,0.94,-0.94,-1.07,-1.18,1.75,1.79,1.79
361.87,2.65,0.86,2.69,0.89,-0.89,-1.03,-1.11,1.75,1.79,1.79
365.49,2.65,0.85,2.65,0.85,-0.85,-0.98,-1.05,1.80,1.80,1.80
369.14,2.66,0.87,2.61,0.81,-0.81,-0.93,-0.99,1.84,1.80,1.79
372.83,2.62,0.83,2.57,0.78,-0.78,-0.89,-0.93,1.84,1.79,1.79
376.56,2.51,0.72,2.53,0.74,-0.74,-0.84,-0.87,1.77,1.79,1.79
380.33,2.48,0.68,2.50,0.71,-0.71,-0.79,-0.81,1.77,1.79,1.80
384.13,2.46,0.66,2.47,0.68,-0.68,-0.75,-0.75,1.78,1.79,1.80
387.97,2.41,0.62,2.43,0.65,-0.65,-0.70,-0.69,1.76,1.78,1.79
391.85,2.39,0.61,2.40,0.62,-0.62,-0.66,-0.63,1.77,1.78,1.77
395.77,2.39,0.60,2.36,0.58,-0.58,-0.61,-0.58,1.80,1.77,1.78
399.73,2.35,0.57,2.32,0.55,-0.55,-0.56,-0.52,1.80,1.77,1.77
403.72,2.30,0.53,2.27,0.50,-0.50,-0.52,-0.47,1.80,1.76,1.77
407.76,2.22,0.46,2.22,0.46,-0.46,-0.47,-0.42,1.76,1.76,1.76
411.84,2.18,0.42,2.17,0.41,-0.41,-0.42,-0.36,1.77,1.76,1.76
415.96,2.18,0.42,2.13,0.37,-0.37,-0.38,-0.31,1.80,1.76,1.76
420.12,2.13,0.37,2.09,0.34,-0.34,-0.33,-0.26,1.79,1.76,1.76
424.32,2.03,0.27,2.06,0.29,-0.29,-0.29,-0.21,1.74,1.77,1.76
428.56,2.00,0.23,2.02,0.25,-0.25,-0.24,-0.16,1.75,1.78,1.77
432.85,1.99,0.21,2.00,0.20,-0.20,-0.19,-0.11,1.78,1.79,1.78
437.18,1.90,0.11,1.98,0.16,-0.16,-0.15,-0.07,1.73,1.81,1.79
441.55,1.88,0.05,1.97,0.13,-0.13,-0.10,-0.02,1.75,1.84,1.83
445.96,1.92,0.06,1.97,0.10,-0.10,-0.05,0.03,1.82,1.87,1.86
450.42,1.97,0.08,1.97,0.06,-0.06,-0.01,0.07,1.91,1.91,1.89
454.93,1.99,0.05,1.98,0.03,-0.03,0.04,0.12,1.96,1.95,1.94
459.48,2.00,0.01,1.99,-0.01,0.01,0.09,0.16,2.00,1.99,1.99
464.07,1.98,-0.06,1.99,-0.04,0.04,0.13,0.20,2.02,2.04,2.03
468.71,2.01,-0.09,2.01,-0.08,0.08,0.18,0.24,2.09,2.09,2.09
473.40,2.07,-0.07,2.02,-0.12,0.12,0.23,0.28,2.18,2.14,2.13
478.13,2.10,-0.10,2.03,-0.16,0.16,0.27,0.32,2.26,2.18,2.19
482.91,2.08,-0.16,2.03,-0.20,0.20,0.32,0.36,2.28,2.23,2.23
487.74,2.05,-0.23,2.03,-0.24,0.24,0.37,0.40,2.29,2.27,2.27
492.62,1.97,-0.36,2.02,-0.29,0.29,0.41,0.44,2.26,2.31,2.32
497.55,1.96,-0.38,2.00,-0.34,0.34,0.46,0.47,2.30,2.34,2.34
502.52,1.99,-0.38,1.97,-0.39,0.39,0.50,0.51,2.38,2.36,2.37
507.55,1.91,-0.47,1.93,-0.45,0.45,0.55,0.54,2.36,2.38,2.38
512.62,1.84,-0.55,1.87,-0.51,0.51,0.60,0.58,2.35,2.38,2.39
517.75,1.84,-0.56,1.81,-0.57,0.57,0.64,0.61,2.41,2.38,2.40
522.93,1.78,-0.61,1.73,-0.63,0.63,0.68,0.64,2.41,2.37,2.39
528.16,1.71,-0.65,1.64,-0.70,0.70,0.73,0.68,2.41,2.35,2.36
533.44,1.63,-0.70,1.55,-0.77,0.77,0.77,0.71,2.39,2.32,2.33
538.77,1.52,-0.78,1.45,-0.83,0.83,0.82,0.74,2.34,2.28,2.30
544.16,1.40,-0.85,1.35,-0.88,0.88,0.86,0.77,2.28,2.24,2.25
549.60,1.23,-0.97,1.25,-0.93,0.93,0.90,0.80,2.16,2.19,2.20
555.10,1.11,-1.03,1.15,-0.99,0.99,0.94,0.83,2.10,2.14,2.14
