frequency,raw,smoothed,error,error_smoothed,equalization,parametric_eq,fixed_band_eq,equalized_raw,equalized_smoothed,target
20.00,-13.08,-13.08,-14.25,-14.25,6.00,5.46,2.68,-7.08,-7.08,1.17
20.20,-12.91,-12.91,-14.10,-14.10,6.00,5.50,2.76,-6.91,-6.91,1.19
20.40,-12.74,-12.74,-13.96,-13.96,6.00,5.53,2.84,-6.74,-6.74,1.22
20.61,-12.57,-12.57,-13.82,-13.82,6.00,5.57,2.92,-6.57,-6.57,1.24
20.81,-12.39,-12.39,-13.66,-13.67,6.00,5.60,3.01,-6.39,-6.39,1.27
21.02,-12.22,-12.22,-13.52,-13.52,6.00,5.64,3.10,-6.22,-6.22,1.30
21.23,-12.05,-12.04,-13.36,-13.36,6.00,5.67,3.18,-6.05,-6.04,1.31
21.44,-11.87,-11.87,-13.19,-13.19,6.00,5.71,3.28,-5.87,-5.87,1.32
21.66,-11.70,-11.70,-13.03,-13.03,6.00,5.75,3.37,-5.70,-5.70,1.33
21.87,-11.53,-11.53,-12.86,-12.87,6.00,5.78,3.47,-5.53,-5.53,1.33
22.09,-11.38,-11.38,-12.72,-12.72,6.00,5.82,3.57,-5.38,-5.38,1.34
22.31,-11.25,-11.25,-12.59,-12.59,6.00,5.85,3.67,-5.25,-5.25,1.34
22.54,-11.12,-11.12,-12.46,-12.46,6.00,5.89,3.78,-5.12,-5.12,1.34
22.76,-11.00,-11.00,-12.34,-12.34,6.00,5.92,3.89,-5.00,-5.00,1.34
22.99,-10.88,-10.88,-12.21,-12.21,6.00,5.96,4.00,-4.88,-4.88,1.33
23.22,-10.75,-10.75,-12.08,-12.08,6.00,5.99,4.11,-4.75,-4.75,1.33
23.45,-10.62,-10.62,-11.95,-11.94,6.00,6.03,4.22,-4.62,-4.62,1.33
23.69,-10.47,-10.47,-11.80,-11.80,6.00,6.06,4.34,-4.47,-4.47,1.33
23.92,-10.32,-10.32,-11.64,-11.65,6.00,6.09,4.46,-4.32,-4.32,1.32
24.16,-10.16,-10.16,-11.49,-11.49,6.00,6.12,4.59,-4.16,-4.16,1.33
24.40,-10.00,-10.00,-11.33,-11.33,6.00,6.15,4.71,-4.00,-4.00,1.33
24.65,-9.84,-9.84,-11.16,-11.17,6.00,6.18,4.84,-3.84,-3.84,1.32
24.89,-9.69,-9.69,-11.01,-11.01,6.00,6.21,4.97,-3.69,-3.69,1.32
25.14,-9.55,-9.55,-10.87,-10.87,6.00,6.23,5.10,-3.55,-3.55,1.32
25.39,-9.41,-9.41,-10.73,-10.73,6.00,6.26,5.23,-3.41,-3.41,1.32
25.65,-9.26,-9.26,-10.58,-10.57,6.00,6.28,5.36,-3.26,-3.26,1.32
25.91,-9.10,-9.10,-10.41,-10.41,6.00,6.30,5.49,-3.10,-3.10,1.31
26.16,-8.93,-8.93,-10.23,-10.23,6.00,6.32,5.62,-2.93,-2.93,1.31
26.43,-8.74,-8.74,-10.05,-10.04,6.00,6.33,5.75,-2.74,-2.74,1.30
26.69,-8.55,-8.55,-9.85,-9.85,6.00,6.34,5.88,-2.55,-2.55,1.30
26.96,-8.35,-8.36,-9.65,-9.66,6.00,6.35,6.01,-2.35,-2.36,1.30
27.23,-8.17,-8.17,-9.47,-9.47,6.00,6.36,6.13,-2.17,-2.17,1.30
27.50,-8.00,-8.00,-9.30,-9.30,6.00,6.36,6.25,-2.00,-2.00,1.30
27.77,-7.85,-7.85,-9.14,-9.14,6.00,6.36,6.36,-1.85,-1.85,1.29
28.05,-7.71,-7.71,-9.00,-8.99,6.00,6.36,6.48,-1.71,-1.71,1.29
28.33,-7.58,-7.58,-8.85,-8.86,6.00,6.35,6.58,-1.58,-1.58,1.28
28.62,-7.45,-7.45,-8.73,-8.72,6.00,6.33,6.67,-1.45,-1.45,1.27
28.90,-7.32,-7.32,-8.59,-8.59,6.00,6.32,6.76,-1.32,-1.32,1.27
29.19,-7.18,-7.18,-8.44,-8.44,6.00,6.29,6.84,-1.18,-1.18,1.26
29.48,-7.03,-7.03,-8.30,-8.30,6.00,6.27,6.90,-1.03,-1.03,1.27
29.78,-6.89,-6.89,-8.15,-8.15,6.00,6.24,6.96,-0.89,-0.89,1.26
30.08,-6.75,-6.75,-8.01,-8.01,6.00,6.20,6.99,-0.75,-0.75,1.26
30.38,-6.61,-6.61,-7.86,-7.86,6.00,6.16,7.03,-0.61,-0.61,1.24
30.68,-6.47,-6.47,-7.71,-7.71,6.00,6.11,7.04,-0.47,-0.47,1.24
30.99,-6.31,-6.31,-7.54,-7.54,6.00,6.06,7.04,-0.31,-0.31,1.23
31.30,-6.14,-6.14,-7.37,-7.37,6.00,6.00,7.03,-0.14,-0.14,1.23
31.61,-5.96,-5.96,-7.19,-7.18,6.01,5.93,7.00,0.05,0.06,1.22
31.93,-5.76,-5.76,-6.98,-6.98,6.03,5.86,6.96,0.26,0.26,1.21
32.24,-5.56,-5.56,-6.76,-6.76,6.03,5.79,6.90,0.47,0.47,1.20
32.57,-5.36,-5.36,-6.56,-6.55,6.02,5.71,6.83,0.66,0.66,1.20
32.89,-5.16,-5.16,-6.35,-6.35,6.00,5.62,6.75,0.84,0.83,1.19
33.22,-4.98,-4.98,-6.16,-6.16,5.95,5.53,6.65,0.97,0.97,1.18
33.55,-4.81,-4.81,-5.99,-5.99,5.88,5.43,6.55,1.07,1.07,1.18
33.89,-4.65,-4.65,-5.82,-5.82,5.79,5.33,6.43,1.14,1.14,1.17
34.23,-4.50,-4.50,-5.66,-5.66,5.68,5.23,6.31,1.17,1.17,1.16
34.57,-4.36,-4.36,-5.51,-5.51,5.55,5.11,6.17,1.19,1.19,1.15
34.92,-4.22,-4.22,-5.36,-5.36,5.40,5.00,6.03,1.18,1.18,1.14
35.27,-4.09,-4.09,-5.23,-5.22,5.25,4.88,5.87,1.16,1.16,1.13
35.62,-3.96,-3.96,-5.08,-5.08,5.09,4.75,5.72,1.13,1.13,1.12
35.97,-3.83,-3.83,-4.93,-4.94,4.93,4.62,5.56,1.10,1.10,1.11
36.33,-3.69,-3.69,-4.79,-4.79,4.78,4.49,5.39,1.09,1.09,1.10
36.70,-3.55,-3.55,-4.64,-4.64,4.63,4.36,5.22,1.08,1.08,1.09
37.06,-3.40,-3.40,-4.47,-4.47,4.47,4.22,5.05,1.07,1.07,1.07
37.43,-3.24,-3.24,-4.31,-4.31,4.31,4.08,4.88,1.07,1.07,1.07
37.81,-3.08,-3.08,-4.14,-4.14,4.14,3.94,4.71,1.06,1.06,1.06
38.19,-2.93,-2.93,-3.97,-3.97,3.98,3.79,4.53,1.05,1.05,1.04
38.57,-2.77,-2.77,-3.81,-3.81,3.81,3.64,4.35,1.04,1.04,1.04
38.95,-2.62,-2.62,-3.64,-3.64,3.64,3.49,4.18,1.02,1.02,1.02
39.34,-2.47,-2.47,-3.48,-3.47,3.47,3.34,4.00,1.00,1.01,1.01
39.74,-2.31,-2.31,-3.30,-3.30,3.30,3.19,3.83,0.99,0.99,0.99
40.14,-2.15,-2.15,-3.14,-3.14,3.13,3.04,3.65,0.98,0.98,0.99
40.54,-1.99,-1.99,-2.96,-2.97,2.97,2.88,3.48,0.98,0.97,0.97
40.94,-1.84,-1.84,-2.80,-2.80,2.80,2.73,3.30,0.96,0.97,0.97
41.35,-1.68,-1.68,-2.63,-2.63,2.63,2.58,3.13,0.95,0.96,0.95
41.76,-1.52,-1.52,-2.46,-2.47,2.47,2.42,2.96,0.95,0.95,0.94
42.18,-1.37,-1.37,-2.31,-2.30,2.30,2.27,2.79,0.93,0.93,0.94
42.60,-1.22,-1.22,-2.14,-2.14,2.14,2.12,2.62,0.92,0.92,0.92
43.03,-1.07,-1.07,-1.98,-1.98,1.97,1.97,2.46,0.90,0.90,0.91
43.46,-0.92,-0.92,-1.82,-1.81,1.81,1.81,2.29,0.89,0.89,0.90
43.90,-0.77,-0.77,-1.64,-1.64,1.65,1.67,2.13,0.87,0.87,0.87
44.33,-0.63,-0.63,-1.48,-1.48,1.49,1.52,1.97,0.86,0.86,0.85
44.78,-0.49,-0.49,-1.32,-1.32,1.33,1.37,1.81,0.84,0.84,0.83
45.23,-0.36,-0.36,-1.18,-1.17,1.18,1.23,1.65,0.82,0.82,0.81
45.68,-0.23,-0.23,-1.03,-1.03,1.04,1.08,1.49,0.80,0.80,0.80
46.13,-0.11,-0.11,-0.89,-0.89,0.89,0.94,1.33,0.78,0.78,0.78
46.60,0.01,0.01,-0.76,-0.75,0.75,0.81,1.18,0.76,0.76,0.77
47.06,0.13,0.13,-0.62,-0.61,0.60,0.67,1.03,0.73,0.74,0.75
47.53,0.26,0.26,-0.47,-0.47,0.46,0.54,0.87,0.72,0.72,0.73
48.01,0.39,0.39,-0.33,-0.32,0.31,0.41,0.72,0.70,0.70,0.72
48.49,0.51,0.51,-0.18,-0.17,0.17,0.28,0.57,0.68,0.68,0.69
48.97,0.64,0.64,-0.01,-0.02,0.02,0.15,0.43,0.66,0.66,0.66
49.46,0.76,0.76,0.14,0.13,-0.12,0.03,0.28,0.64,0.64,0.62
49.96,0.87,0.87,0.28,0.27,-0.26,-0.09,0.14,0.61,0.61,0.59
50.46,0.97,0.97,0.39,0.40,-0.39,-0.21,-0.01,0.58,0.58,0.58
50.96,1.07,1.07,0.51,0.52,-0.52,-0.32,-0.15,0.55,0.55,0.56
51.47,1.16,1.16,0.64,0.63,-0.63,-0.43,-0.28,0.53,0.53,0.52
51.99,1.25,1.25,0.75,0.74,-0.74,-0.54,-0.42,0.51,0.51,0.50
52.51,1.33,1.33,0.84,0.85,-0.85,-0.64,-0.56,0.48,0.48,0.49
53.03,1.41,1.41,0.95,0.95,-0.95,-0.74,-0.69,0.46,0.46,0.46
53.56,1.48,1.48,1.04,1.04,-1.04,-0.83,-0.82,0.44,0.44,0.44
54.10,1.55,1.55,1.14,1.14,-1.14,-0.93,-0.94,0.41,0.41,0.41
54.64,1.61,1.61,1.22,1.23,-1.23,-1.02,-1.06,0.38,0.38,0.39
55.18,1.67,1.67,1.31,1.31,-1.32,-1.10,-1.18,0.35,0.36,0.36
55.74,1.74,1.74,1.41,1.40,-1.41,-1.19,-1.30,0.33,0.33,0.33
56.29,1.80,1.80,1.49,1.49,-1.49,-1.27,-1.41,0.31,0.31,0.32
56.86,1.86,1.87,1.57,1.58,-1.58,-1.34,-1.52,0.28,0.29,0.29
57.42,1.93,1.93,1.67,1.67,-1.66,-1.42,-1.62,0.27,0.27,0.26
58.00,1.99,1.99,1.75,1.75,-1.74,-1.49,-1.72,0.25,0.25,0.24
58.58,2.04,2.04,1.82,1.82,-1.82,-1.56,-1.81,0.22,0.22,0.22
59.16,2.09,2.09,1.89,1.89,-1.90,-1.62,-1.89,0.20,0.20,0.20
59.76,2.14,2.14,1.96,1.96,-1.97,-1.68,-1.98,0.17,0.17,0.18
60.35,2.18,2.18,2.03,2.03,-2.04,-1.74,-2.05,0.14,0.14,0.15
60.96,2.21,2.22,2.09,2.10,-2.10,-1.79,-2.12,0.11,0.11,0.12
61.57,2.25,2.25,2.17,2.17,-2.16,-1.84,-2.18,0.09,0.08,0.08
62.18,2.28,2.28,2.23,2.23,-2.22,-1.89,-2.24,0.06,0.06,0.05
62.80,2.30,2.30,2.28,2.28,-2.27,-1.94,-2.29,0.03,0.03,0.02
63.43,2.31,2.31,2.32,2.32,-2.32,-1.98,-2.33,-0.01,-0.01,-0.01
64.07,2.32,2.32,2.36,2.36,-2.36,-2.02,-2.37,-0.04,-0.04,-0.04
64.71,2.32,2.32,2.39,2.39,-2.39,-2.06,-2.41,-0.07,-0.07,-0.07
65.35,2.32,2.32,2.41,2.41,-2.42,-2.10,-2.43,-0.10,-0.10,-0.09
66.01,2.32,2.31,2.44,2.44,-2.44,-2.13,-2.46,-0.12,-0.13,-0.12
66.67,2.30,2.30,2.45,2.45,-2.46,-2.16,-2.47,-0.16,-0.16,-0.15
67.33,2.29,2.29,2.47,2.47,-2.47,-2.19,-2.48,-0.18,-0.18,-0.18
68.01,2.27,2.27,2.48,2.48,-2.48,-2.22,-2.49,-0.21,-0.21,-0.21
68.69,2.25,2.25,2.49,2.49,-2.48,-2.24,-2.50,-0.23,-0.24,-0.24
69.37,2.21,2.21,2.48,2.49,-2.48,-2.27,-2.50,-0.27,-0.27,-0.27
70.07,2.17,2.17,2.48,2.47,-2.47,-2.29,-2.49,-0.30,-0.30,-0.31
70.77,2.12,2.12,2.45,2.45,-2.45,-2.31,-2.48,-0.33,-0.33,-0.33
71.48,2.06,2.06,2.42,2.42,-2.42,-2.33,-2.48,-0.36,-0.36,-0.36
72.19,1.99,1.99,2.39,2.39,-2.39,-2.34,-2.46,-0.40,-0.40,-0.40
72.91,1.92,1.92,2.36,2.36,-2.36,-2.36,-2.45,-0.44,-0.44,-0.44
73.64,1.85,1.85,2.32,2.32,-2.32,-2.37,-2.44,-0.47,-0.47,-0.47
74.38,1.78,1.78,2.28,2.28,-2.29,-2.38,-2.42,-0.51,-0.51,-0.50
75.12,1.71,1.71,2.25,2.25,-2.25,-2.39,-2.41,-0.54,-0.54,-0.54
75.87,1.64,1.64,2.21,2.21,-2.21,-2.40,-2.39,-0.57,-0.57,-0.57
76.63,1.57,1.57,2.17,2.17,-2.17,-2.41,-2.37,-0.60,-0.60,-0.60
77.40,1.50,1.50,2.13,2.13,-2.13,-2.42,-2.36,-0.63,-0.63,-0.63
78.17,1.43,1.43,2.10,2.09,-2.10,-2.43,-2.34,-0.67,-0.67,-0.67
78.95,1.36,1.36,2.05,2.06,-2.06,-2.43,-2.32,-0.70,-0.70,-0.69
79.74,1.29,1.29,2.02,2.02,-2.02,-2.44,-2.31,-0.73,-0.73,-0.73
80.54,1.22,1.22,1.98,1.98,-1.98,-2.44,-2.30,-0.76,-0.76,-0.76
81.35,1.14,1.14,1.94,1.94,-1.94,-2.45,-2.28,-0.80,-0.80,-0.80
82.16,1.06,1.06,1.89,1.89,-1.89,-2.45,-2.27,-0.83,-0.83,-0.83
82.98,0.98,0.98,1.84,1.85,-1.84,-2.45,-2.26,-0.86,-0.86,-0.86
83.81,0.90,0.89,1.81,1.80,-1.79,-2.46,-2.25,-0.89,-0.89,-0.91
84.65,0.80,0.80,1.74,1.74,-1.73,-2.46,-2.25,-0.93,-0.93,-0.94
85.50,0.70,0.70,1.67,1.68,-1.67,-2.46,-2.24,-0.97,-0.96,-0.97
86.35,0.60,0.60,1.61,1.61,-1.60,-2.46,-2.24,-1.00,-1.00,-1.01
87.22,0.49,0.49,1.54,1.54,-1.54,-2.46,-2.24,-1.05,-1.04,-1.05
88.09,0.39,0.39,1.48,1.47,-1.48,-2.46,-2.24,-1.09,-1.09,-1.09
88.97,0.29,0.29,1.41,1.41,-1.42,-2.46,-2.24,-1.13,-1.14,-1.12
89.86,0.19,0.20,1.35,1.36,-1.38,-2.46,-2.24,-1.19,-1.18,-1.16
90.76,0.12,0.12,1.34,1.33,-1.35,-2.46,-2.25,-1.23,-1.23,-1.22
91.66,0.07,0.07,1.32,1.32,-1.34,-2.46,-2.26,-1.27,-1.27,-1.25
92.58,0.03,0.03,1.33,1.33,-1.34,-2.46,-2.27,-1.31,-1.31,-1.30
93.51,0.00,0.01,1.34,1.34,-1.34,-2.46,-2.28,-1.34,-1.34,-1.34
94.44,-0.01,-0.01,1.37,1.37,-1.36,-2.46,-2.29,-1.37,-1.37,-1.38
95.39,-0.03,-0.03,1.39,1.39,-1.37,-2.46,-2.31,-1.40,-1.41,-1.42
96.34,-0.06,-0.06,1.42,1.41,-1.39,-2.46,-2.32,-1.45,-1.45,-1.48
97.30,-0.10,-0.10,1.42,1.42,-1.41,-2.46,-2.34,-1.51,-1.51,-1.52
98.28,-0.14,-0.14,1.43,1.43,-1.43,-2.46,-2.36,-1.57,-1.57,-1.57
99.26,-0.18,-0.18,1.43,1.44,-1.45,-2.46,-2.38,-1.63,-1.63,-1.61
100.25,-0.21,-0.21,1.45,1.45,-1.47,-2.46,-2.40,-1.68,-1.68,-1.66
101.25,-0.22,-0.22,1.49,1.49,-1.50,-2.45,-2.43,-1.72,-1.72,-1.71
102.27,-0.22,-0.22,1.53,1.54,-1.54,-2.45,-2.45,-1.76,-1.76,-1.75
103.29,-0.21,-0.21,1.60,1.59,-1.59,-2.45,-2.47,-1.80,-1.80,-1.81
104.32,-0.20,-0.20,1.64,1.65,-1.64,-2.45,-2.50,-1.84,-1.84,-1.84
105.37,-0.19,-0.19,1.70,1.71,-1.70,-2.45,-2.53,-1.89,-1.89,-1.89
106.42,-0.17,-0.17,1.77,1.76,-1.76,-2.45,-2.55,-1.93,-1.93,-1.94
107.48,-0.16,-0.16,1.82,1.83,-1.82,-2.45,-2.58,-1.98,-1.98,-1.98
108.56,-0.15,-0.15,1.89,1.89,-1.88,-2.45,-2.60,-2.03,-2.03,-2.04
109.64,-0.14,-0.14,1.95,1.94,-1.94,-2.45,-2.63,-2.08,-2.08,-2.09
110.74,-0.14,-0.14,1.99,2.00,-2.00,-2.45,-2.65,-2.14,-2.14,-2.13
111.85,-0.13,-0.13,2.05,2.05,-2.06,-2.45,-2.67,-2.19,-2.19,-2.18
112.97,-0.13,-0.13,2.11,2.11,-2.12,-2.45,-2.69,-2.25,-2.24,-2.24
114.10,-0.12,-0.12,2.17,2.17,-2.17,-2.45,-2.71,-2.29,-2.29,-2.29
115.24,-0.11,-0.11,2.23,2.23,-2.23,-2.45,-2.73,-2.34,-2.34,-2.34
116.39,-0.11,-0.11,2.29,2.29,-2.29,-2.45,-2.74,-2.40,-2.39,-2.40
117.55,-0.11,-0.11,2.34,2.34,-2.34,-2.45,-2.76,-2.45,-2.45,-2.45
118.73,-0.11,-0.11,2.40,2.39,-2.39,-2.45,-2.77,-2.50,-2.50,-2.51
119.92,-0.11,-0.11,2.44,2.44,-2.44,-2.45,-2.77,-2.55,-2.55,-2.55
121.12,-0.11,-0.11,2.49,2.49,-2.49,-2.45,-2.78,-2.60,-2.60,-2.60
122.33,-0.12,-0.12,2.53,2.53,-2.53,-2.45,-2.78,-2.65,-2.65,-2.65
123.55,-0.13,-0.13,2.57,2.57,-2.58,-2.45,-2.78,-2.71,-2.71,-2.70
124.79,-0.14,-0.14,2.61,2.61,-2.62,-2.45,-2.77,-2.76,-2.76,-2.75
126.03,-0.15,-0.15,2.65,2.65,-2.66,-2.45,-2.76,-2.81,-2.81,-2.80
127.29,-0.16,-0.16,2.69,2.69,-2.69,-2.45,-2.75,-2.85,-2.85,-2.85
128.57,-0.18,-0.18,2.73,2.72,-2.71,-2.45,-2.74,-2.89,-2.89,-2.91
129.85,-0.21,-0.21,2.75,2.75,-2.73,-2.45,-2.72,-2.94,-2.94,-2.96
131.15,-0.25,-0.25,2.75,2.75,-2.73,-2.45,-2.70,-2.98,-2.98,-3.00
132.46,-0.31,-0.31,2.74,2.74,-2.72,-2.45,-2.67,-3.03,-3.03,-3.05
133.79,-0.38,-0.38,2.71,2.71,-2.70,-2.45,-2.64,-3.08,-3.08,-3.09
135.12,-0.46,-0.46,2.68,2.67,-2.68,-2.45,-2.61,-3.14,-3.14,-3.14
136.48,-0.55,-0.55,2.63,2.64,-2.65,-2.45,-2.58,-3.20,-3.20,-3.18
137.84,-0.62,-0.62,2.60,2.61,-2.63,-2.46,-2.55,-3.25,-3.25,-3.22
139.22,-0.68,-0.68,2.60,2.59,-2.61,-2.46,-2.51,-3.29,-3.29,-3.28
140.61,-0.72,-0.72,2.60,2.59,-2.60,-2.46,-2.47,-3.32,-3.32,-3.32
142.02,-0.75,-0.75,2.59,2.60,-2.60,-2.46,-2.43,-3.35,-3.36,-3.34
143.44,-0.77,-0.77,2.61,2.61,-2.62,-2.46,-2.39,-3.39,-3.39,-3.38
144.87,-0.79,-0.78,2.63,2.64,-2.64,-2.46,-2.35,-3.43,-3.42,-3.42
146.32,-0.79,-0.79,2.67,2.66,-2.66,-2.47,-2.30,-3.45,-3.46,-3.46
147.78,-0.80,-0.80,2.69,2.69,-2.69,-2.47,-2.26,-3.49,-3.49,-3.49
149.26,-0.81,-0.81,2.72,2.72,-2.72,-2.47,-2.21,-3.53,-3.53,-3.53
150.75,-0.82,-0.82,2.76,2.75,-2.75,-2.47,-2.17,-3.57,-3.57,-3.58
152.26,-0.83,-0.83,2.78,2.78,-2.78,-2.47,-2.13,-3.61,-3.61,-3.61
153.78,-0.84,-0.84,2.81,2.81,-2.81,-2.48,-2.08,-3.65,-3.65,-3.65
155.32,-0.86,-0.86,2.83,2.83,-2.83,-2.48,-2.04,-3.69,-3.69,-3.69
156.88,-0.88,-0.88,2.85,2.85,-2.85,-2.48,-1.99,-3.73,-3.73,-3.73
158.44,-0.91,-0.91,2.86,2.86,-2.86,-2.48,-1.95,-3.77,-3.77,-3.77
160.03,-0.95,-0.95,2.86,2.86,-2.86,-2.49,-1.91,-3.81,-3.81,-3.81
161.63,-0.99,-0.99,2.86,2.87,-2.86,-2.49,-1.87,-3.85,-3.85,-3.85
163.24,-1.03,-1.03,2.86,2.86,-2.85,-2.49,-1.82,-3.88,-3.89,-3.89
164.88,-1.08,-1.08,2.84,2.85,-2.84,-2.49,-1.78,-3.92,-3.92,-3.92
166.53,-1.14,-1.14,2.82,2.83,-2.82,-2.49,-1.75,-3.96,-3.96,-3.96
168.19,-1.20,-1.20,2.80,2.80,-2.80,-2.49,-1.71,-4.00,-4.00,-4.00
169.87,-1.26,-1.26,2.78,2.78,-2.78,-2.49,-1.67,-4.04,-4.04,-4.04
171.57,-1.33,-1.33,2.75,2.75,-2.75,-2.49,-1.64,-4.08,-4.08,-4.08
173.29,-1.39,-1.39,2.72,2.72,-2.72,-2.49,-1.60,-4.11,-4.12,-4.11
175.02,-1.46,-1.46,2.69,2.69,-2.70,-2.49,-1.57,-4.16,-4.15,-4.15
176.77,-1.52,-1.52,2.67,2.67,-2.67,-2.48,-1.53,-4.19,-4.19,-4.19
178.54,-1.58,-1.58,2.66,2.65,-2.65,-2.48,-1.50,-4.23,-4.23,-4.24
180.32,-1.65,-1.65,2.62,2.62,-2.62,-2.47,-1.47,-4.27,-4.27,-4.27
182.13,-1.71,-1.71,2.59,2.60,-2.60,-2.47,-1.45,-4.31,-4.31,-4.30
183.95,-1.77,-1.77,2.57,2.57,-2.58,-2.46,-1.42,-4.35,-4.35,-4.34
185.79,-1.82,-1.82,2.56,2.56,-2.56,-2.45,-1.39,-4.38,-4.39,-4.38
187.65,-1.87,-1.87,2.55,2.54,-2.54,-2.44,-1.37,-4.41,-4.42,-4.42
189.52,-1.93,-1.93,2.52,2.52,-2.52,-2.42,-1.34,-4.45,-4.44,-4.45
191.42,-1.98,-1.98,2.50,2.50,-2.49,-2.41,-1.32,-4.47,-4.47,-4.48
193.33,-2.04,-2.04,2.46,2.46,-2.45,-2.39,-1.30,-4.49,-4.49,-4.50
195.27,-2.11,-2.11,2.42,2.42,-2.41,-2.37,-1.28,-4.52,-4.52,-4.53
197.22,-2.20,-2.20,2.36,2.37,-2.35,-2.35,-1.26,-4.55,-4.55,-4.56
199.19,-2.29,-2.29,2.31,2.30,-2.30,-2.32,-1.24,-4.59,-4.59,-4.60
201.18,-2.38,-2.38,2.23,2.24,-2.24,-2.30,-1.22,-4.62,-4.62,-4.61
203.19,-2.46,-2.46,2.17,2.17,-2.18,-2.27,-1.20,-4.64,-4.65,-4.63
205.23,-2.54,-2.54,2.12,2.11,-2.13,-2.24,-1.19,-4.67,-4.67,-4.66
207.28,-2.61,-2.61,2.05,2.06,-2.07,-2.21,-1.17,-4.68,-4.68,-4.66
209.35,-2.67,-2.67,2.02,2.02,-2.02,-2.17,-1.16,-4.69,-4.69,-4.69
211.44,-2.72,-2.72,1.99,1.98,-1.98,-2.14,-1.15,-4.70,-4.70,-4.71
213.56,-2.77,-2.77,1.94,1.94,-1.93,-2.10,-1.13,-4.70,-4.70,-4.71
215.69,-2.83,-2.83,1.89,1.90,-1.88,-2.06,-1.12,-4.71,-4.71,-4.72
217.85,-2.88,-2.88,1.85,1.85,-1.84,-2.02,-1.11,-4.72,-4.72,-4.73
220.03,-2.94,-2.94,1.80,1.80,-1.79,-1.98,-1.10,-4.73,-4.73,-4.74
222.23,-3.00,-3.00,1.75,1.75,-1.74,-1.93,-1.09,-4.74,-4.74,-4.75
224.45,-3.06,-3.06,1.69,1.69,-1.70,-1.88,-1.08,-4.76,-4.75,-4.75
226.70,-3.10,-3.10,1.65,1.65,-1.66,-1.84,-1.07,-4.76,-4.76,-4.75
228.96,-3.13,-3.13,1.62,1.61,-1.64,-1.79,-1.06,-4.77,-4.77,-4.75
231.25,-3.14,-3.14,1.60,1.60,-1.63,-1.74,-1.05,-4.77,-4.77,-4.74
233.57,-3.14,-3.13,1.60,1.61,-1.63,-1.68,-1.04,-4.77,-4.76,-4.74
235.90,-3.11,-3.11,1.63,1.63,-1.64,-1.63,-1.04,-4.75,-4.75,-4.74
238.26,-3.08,-3.08,1.66,1.65,-1.65,-1.57,-1.03,-4.73,-4.73,-4.74
240.64,-3.06,-3.06,1.67,1.67,-1.65,-1.52,-1.02,-4.71,-4.71,-4.73
243.05,-3.04,-3.04,1.67,1.67,-1.65,-1.46,-1.01,-4.69,-4.70,-4.71
245.48,-3.05,-3.05,1.65,1.66,-1.64,-1.40,-1.01,-4.69,-4.68,-4.70
247.93,-3.07,-3.07,1.62,1.62,-1.60,-1.34,-1.00,-4.67,-4.67,-4.69
250.41,-3.12,-3.12,1.57,1.56,-1.54,-1.27,-0.99,-4.66,-4.67,-4.69
252.92,-3.19,-3.19,1.48,1.48,-1.47,-1.21,-0.99,-4.66,-4.66,-4.67
255.45,-3.27,-3.27,1.37,1.38,-1.38,-1.14,-0.98,-4.65,-4.65,-4.64
258.00,-3.36,-3.36,1.27,1.27,-1.27,-1.07,-0.97,-4.63,-4.63,-4.63
260.58,-3.47,-3.46,1.15,1.15,-1.15,-1.00,-0.97,-4.62,-4.62,-4.62
263.19,-3.57,-3.57,1.02,1.03,-1.03,-0.92,-0.96,-4.60,-4.60,-4.59
265.82,-3.68,-3.68,0.90,0.90,-0.90,-0.85,-0.96,-4.58,-4.59,-4.58
268.48,-3.79,-3.79,0.77,0.77,-0.78,-0.77,-0.95,-4.57,-4.56,-4.56
271.16,-3.89,-3.89,0.64,0.65,-0.66,-0.68,-0.94,-4.55,-4.54,-4.53
273.87,-3.98,-3.98,0.54,0.53,-0.54,-0.60,-0.94,-4.52,-4.52,-4.52
276.61,-4.08,-4.08,0.41,0.42,-0.42,-0.51,-0.93,-4.50,-4.50,-4.49
279.38,-4.17,-4.17,0.31,0.31,-0.31,-0.42,-0.93,-4.48,-4.48,-4.48
282.17,-4.26,-4.26,0.20,0.20,-0.20,-0.32,-0.92,-4.46,-4.46,-4.46
284.99,-4.35,-4.35,0.09,0.09,-0.09,-0.22,-0.92,-4.44,-4.44,-4.44
287.84,-4.43,-4.43,-0.01,-0.01,0.01,-0.12,-0.92,-4.42,-4.42,-4.42
290.72,-4.52,-4.52,-0.12,-0.12,0.12,-0.02,-0.91,-4.40,-4.40,-4.40
293.63,-4.60,-4.60,-0.22,-0.22,0.21,0.09,-0.91,-4.39,-4.38,-4.38
296.57,-4.67,-4.67,-0.31,-0.31,0.31,0.19,-0.91,-4.36,-4.36,-4.36
299.53,-4.74,-4.74,-0.40,-0.40,0.40,0.29,-0.90,-4.34,-4.34,-4.34
302.53,-4.81,-4.80,-0.48,-0.49,0.49,0.39,-0.90,-4.32,-4.31,-4.32
305.55,-4.86,-4.87,-0.57,-0.57,0.58,0.49,-0.90,-4.28,-4.29,-4.29
308.61,-4.92,-4.92,-0.65,-0.65,0.65,0.58,-0.90,-4.27,-4.27,-4.27
311.69,-4.97,-4.97,-0.72,-0.73,0.73,0.65,-0.90,-4.24,-4.24,-4.25
314.81,-5.01,-5.01,-0.80,-0.79,0.79,0.72,-0.90,-4.22,-4.22,-4.21
317.96,-5.04,-5.04,-0.85,-0.85,0.84,0.78,-0.90,-4.20,-4.20,-4.19
321.14,-5.07,-5.07,-0.89,-0.89,0.89,0.82,-0.90,-4.18,-4.18,-4.18
324.35,-5.08,-5.08,-0.92,-0.92,0.92,0.84,-0.90,-4.16,-4.16,-4.16
327.59,-5.08,-5.08,-0.95,-0.95,0.94,0.85,-0.91,-4.14,-4.14,-4.13
330.87,-5.07,-5.07,-0.96,-0.95,0.95,0.84,-0.91,-4.12,-4.12,-4.11
334.18,-5.05,-5.05,-0.95,-0.95,0.95,0.82,-0.91,-4.10,-4.10,-4.10
337.52,-5.02,-5.02,-0.94,-0.94,0.95,0.78,-0.92,-4.07,-4.07,-4.08
340.90,-4.98,-4.98,-0.93,-0.93,0.93,0.73,-0.92,-4.05,-4.05,-4.05
344.30,-4.94,-4.94,-0.91,-0.91,0.91,0.67,-0.93,-4.03,-4.03,-4.03
347.75,-4.90,-4.90,-0.88,-0.88,0.88,0.61,-0.94,-4.02,-4.02,-4.02
351.23,-4.85,-4.85,-0.85,-0.85,0.85,0.54,-0.94,-4.00,-4.00,-4.00
354.74,-4.79,-4.79,-0.81,-0.81,0.80,0.46,-0.95,-3.99,-3.98,-3.98
358.28,-4.72,-4.72,-0.76,-0.76,0.76,0.39,-0.96,-3.96,-3.97,-3.96
361.87,-4.65,-4.65,-0.70,-0.70,0.70,0.31,-0.97,-3.95,-3.95,-3.95
365.49,-4.57,-4.57,-0.64,-0.64,0.64,0.23,-0.98,-3.93,-3.93,-3.93
369.14,-4.49,-4.49,-0.57,-0.57,0.57,0.16,-0.99,-3.92,-3.92,-3.92
372.83,-4.40,-4.40,-0.50,-0.50,0.50,0.09,-1.00,-3.90,-3.90,-3.90
376.56,-4.31,-4.31,-0.42,-0.42,0.42,0.02,-1.01,-3.89,-3.89,-3.89
380.33,-4.21,-4.21,-0.35,-0.34,0.34,-0.05,-1.03,-3.87,-3.87,-3.86
384.13,-4.11,-4.11,-0.25,-0.25,0.25,-0.11,-1.04,-3.86,-3.86,-3.86
387.97,-4.01,-4.01,-0.16,-0.16,0.16,-0.17,-1.05,-3.85,-3.85,-3.85
391.85,-3.91,-3.91,-0.07,-0.07,0.07,-0.22,-1.07,-3.84,-3.84,-3.84
395.77,-3.80,-3.80,0.02,0.02,-0.02,-0.28,-1.08,-3.82,-3.82,-3.82
399.73,-3.70,-3.70,0.11,0.12,-0.11,-0.33,-1.10,-3.81,-3.81,-3.81
403.72,-3.59,-3.59,0.21,0.21,-0.21,-0.37,-1.12,-3.80,-3.80,-3.80
407.76,-3.49,-3.49,0.31,0.30,-0.30,-0.42,-1.13,-3.79,-3.79,-3.80
411.84,-3.38,-3.38,0.40,0.40,-0.40,-0.46,-1.15,-3.78,-3.78,-3.78
415.96,-3.28,-3.28,0.49,0.49,-0.49,-0.50,-1.17,-3.77,-3.77,-3.77
420.12,-3.17,-3.17,0.59,0.58,-0.59,-0.54,-1.18,-3.76,-3.76,-3.76
424.32,-3.07,-3.07,0.68,0.68,-0.68,-0.57,-1.20,-3.75,-3.75,-3.75
428.56,-2.97,-2.96,0.77,0.78,-0.77,-0.61,-1.22,-3.74,-3.74,-3.74
432.85,-2.86,-2.86,0.87,0.87,-0.86,-0.64,-1.24,-3.72,-3.73,-3.73
437.18,-2.76,-2.76,0.96,0.96,-0.95,-0.67,-1.25,-3.71,-3.72,-3.72
441.55,-2.67,-2.67,1.03,1.04,-1.04,-0.70,-1.27,-3.71,-3.71,-3.70
445.96,-2.57,-2.57,1.13,1.12,-1.13,-0.73,-1.29,-3.70,-3.70,-3.69
450.42,-2.48,-2.48,1.21,1.21,-1.21,-0.76,-1.31,-3.69,-3.69,-3.69
