frequency,raw
20.00,-0.52
20.20,-0.51
20.40,-0.50
20.61,-0.49
20.81,-0.48
21.02,-0.47
21.23,-0.49
21.44,-0.51
21.66,-0.54
21.87,-0.56
22.09,-0.56
22.31,-0.54
22.54,-0.51
22.76,-0.49
22.99,-0.46
23.22,-0.48
23.45,-0.51
23.69,-0.54
23.92,-0.56
24.16,-0.52
24.40,-0.44
24.65,-0.37
24.89,-0.29
25.14,-0.17
25.39,-0.02
25.65,0.13
25.91,0.28
26.16,0.45
26.43,0.62
26.69,0.79
26.96,0.96
27.23,1.07
27.50,1.17
27.77,1.26
28.05,1.35
28.33,1.37
28.62,1.40
28.90,1.43
29.19,1.44
29.48,1.44
29.78,1.45
30.08,1.44
30.38,1.39
30.68,1.35
30.99,1.30
31.30,1.26
31.61,1.23
31.93,1.19
32.24,1.14
32.57,1.09
32.89,1.05
33.22,1.01
33.55,0.98
33.89,0.95
34.23,0.92
34.57,0.88
34.92,0.85
35.27,0.82
35.62,0.80
35.97,0.78
36.33,0.90
36.70,1.03
37.06,1.13
37.43,1.14
37.81,1.15
38.19,1.15
38.57,1.13
38.95,1.10
39.34,1.10
39.74,1.10
40.14,1.10
40.54,1.11
40.94,1.11
41.35,1.09
41.76,1.06
42.18,1.05
42.60,1.07
43.03,1.09
43.46,1.16
43.90,1.22
44.33,1.27
44.78,1.31
45.23,1.36
45.68,1.40
46.13,1.44
46.60,1.44
47.06,1.45
47.53,1.49
48.01,1.54
48.49,1.54
48.97,1.54
49.46,1.59
49.96,1.64
50.46,1.64
50.96,1.64
51.47,1.66
51.99,1.69
52.51,1.72
53.03,1.74
53.56,1.74
54.10,1.74
54.64,1.73
55.18,1.71
55.74,1.66
56.29,1.63
56.86,1.64
57.42,1.64
58.00,1.64
58.58,1.64
59.16,1.64
59.76,1.64
60.35,1.64
60.96,1.64
61.57,1.65
62.18,1.64
62.80,1.56
63.43,1.54
64.07,1.54
64.71,1.54
65.35,1.54
66.01,1.54
66.67,1.54
67.33,1.54
68.01,1.54
68.69,1.46
69.37,1.43
70.07,1.44
70.77,1.44
71.48,1.44
72.19,1.44
72.91,1.44
73.64,1.44
74.38,1.44
75.12,1.43
75.87,1.42
76.63,1.48
77.40,1.47
78.17,1.42
78.95,1.44
79.74,1.44
80.54,1.44
81.35,1.44
82.16,1.44
82.98,1.44
83.81,1.44
84.65,1.44
85.50,1.44
86.35,1.44
87.22,1.44
88.09,1.44
88.97,1.45
89.86,1.45
90.76,1.45
91.66,1.54
92.58,1.59
93.51,1.57
94.44,1.55
95.39,1.55
96.34,1.55
97.30,1.54
98.28,1.53
99.26,1.52
100.25,1.50
101.25,1.48
102.27,1.42
103.29,1.36
104.32,1.31
105.37,1.31
106.42,1.29
107.48,1.26
108.56,1.24
109.64,1.22
110.74,1.20
111.85,1.18
112.97,1.17
114.10,1.11
115.24,1.15
116.39,1.23
117.55,1.27
118.73,1.28
119.92,1.28
121.12,1.29
122.33,1.30
123.55,1.31
124.79,1.31
126.03,1.32
127.29,1.33
128.57,1.33
129.85,1.34
131.15,1.34
132.46,1.35
133.79,1.35
135.12,1.36
136.48,1.36
137.84,1.36
139.22,1.36
140.61,1.37
142.02,1.37
143.44,1.37
144.87,1.37
146.32,1.37
147.78,1.37
149.26,1.37
150.75,1.37
152.26,1.37
153.78,1.37
155.32,1.37
156.88,1.37
158.44,1.37
160.03,1.37
161.63,1.37
163.24,1.36
164.88,1.36
166.53,1.36
168.19,1.35
169.87,1.34
171.57,1.34
173.29,1.33
175.02,1.33
176.77,1.32
178.54,1.32
180.32,1.35
182.13,1.32
183.95,1.24
185.79,1.25
187.65,1.27
189.52,1.27
191.42,1.28
193.33,1.32
195.27,1.35
197.22,1.34
199.19,1.35
201.18,1.36
203.19,1.30
205.23,1.26
207.28,1.26
209.35,1.26
211.44,1.26
213.56,1.25
215.69,1.21
217.85,1.15
220.03,1.14
222.23,1.14
224.45,1.14
226.70,1.14
228.96,1.15
231.25,1.09
233.57,1.06
235.90,1.07
238.26,1.09
240.64,1.11
243.05,1.07
245.48,1.04
247.93,1.06
250.41,1.20
252.92,1.24
255.45,1.22
258.00,1.22
260.58,1.23
263.19,1.23
265.82,1.23
268.48,1.23
271.16,1.22
273.87,1.22
276.61,1.22
279.38,1.22
282.17,1.25
284.99,1.23
287.84,1.16
290.72,1.16
293.63,1.07
296.57,1.07
299.53,1.08
302.53,1.10
305.55,1.10
308.61,1.05
311.69,1.02
314.81,1.02
317.96,1.02
321.14,1.03
324.35,1.02
327.59,1.02
330.87,0.98
334.18,0.93
337.52,0.92
340.90,0.91
344.30,0.89
347.75,0.83
351.23,0.82
354.74,0.82
358.28,0.77
361.87,0.74
365.49,0.73
369.14,0.74
372.83,0.75
376.56,0.76
380.33,0.76
384.13,0.77
387.97,0.78
391.85,0.78
395.77,0.85
399.73,0.88
403.72,0.88
407.76,0.88
411.84,0.94
415.96,1.00
420.12,1.06
424.32,1.11
428.56,1.17
432.85,1.24
437.18,1.32
441.55,1.36
445.96,1.41
450.42,1.46
454.93,1.60
459.48,1.71
464.07,1.83
468.71,1.89
473.40,1.96
478.13,2.01
482.91,2.06
487.74,2.10
492.62,2.18
497.55,2.22
502.52,2.28
507.55,2.31
512.62,2.33
517.75,2.34
522.93,2.33
528.16,2.32
533.44,2.31
538.77,2.28
544.16,2.28
549.60,2.28
555.10,2.24
560.65,2.19
566.25,2.14
571.92,2.10
577.64,2.06
583.41,2.04
589.25,2.02
595.14,2.06
601.09,2.10
607.10,2.13
613.17,2.18
619.30,2.24
625.50,2.28
631.75,2.37
638.07,2.44
644.45,2.48
650.89,2.52
657.40,2.51
663.98,2.49
670.62,2.48
677.32,2.52
684.10,2.45
690.94,2.39
697.85,2.36
704.83,2.31
711.87,2.18
718.99,2.03
726.18,1.93
733.44,1.85
740.78,1.73
748.19,1.64
755.67,1.54
763.23,1.47
770.86,1.40
778.57,1.28
786.35,1.23
794.22,1.25
802.16,1.29
810.18,1.27
818.28,1.19
826.46,1.26
834.73,1.24
843.08,1.11
851.51,1.01
860.02,0.94
868.62,0.85
877.31,0.73
886.08,0.64
894.94,0.54
903.89,0.42
912.93,0.26
922.06,0.21
931.28,0.13
940.59,0.22
950.00,0.31
959.50,0.31
969.09,0.34
978.78,0.26
988.57,0.10
998.46,0.01
1008.44,-0.01
1018.53,-0.08
1028.71,-0.19
1039.00,-0.30
1049.39,-0.34
1059.88,-0.35
1070.48,-0.33
1081.19,-0.28
1092.00,-0.22
1102.92,-0.17
1113.95,-0.11
1125.09,-0.13
1136.34,-0.17
1147.70,-0.22
1159.18,-0.18
1170.77,-0.19
1182.48,-0.26
1194.30,-0.29
1206.25,-0.26
1218.31,-0.27
1230.49,-0.36
1242.80,-0.33
1255.22,-0.24
1267.78,-0.22
1280.45,-0.14
1293.26,-0.01
1306.19,0.15
1319.25,0.25
1332.45,0.24
1345.77,0.24
1359.23,0.19
1372.82,0.11
1386.55,0.04
1400.41,-0.05
1414.42,0.01
1428.56,-0.03
1442.85,0.05
1457.28,0.13
1471.85,0.06
1486.57,-0.05
1501.43,-0.05
1516.45,0.05
1531.61,0.16
1546.93,0.21
1562.40,0.16
1578.02,0.05
1593.80,-0.00
1609.74,0.06
1625.84,0.14
1642.10,0.06
1658.52,0.01
1675.10,-0.07
1691.85,-0.13
1708.77,-0.06
1725.86,0.02
1743.12,0.03
1760.55,0.10
1778.15,0.21
1795.94,0.28
1813.90,0.26
1832.03,0.22
1850.36,0.31
1868.86,0.39
1887.55,0.49
1906.42,0.51
1925.49,0.57
1944.74,0.57
1964.19,0.74
1983.83,1.02
2003.67,1.18
2023.71,1.30
2043.94,1.51
2064.38,1.72
2085.03,1.88
2105.88,2.03
2126.94,2.21
2148.20,2.63
2169.69,2.95
2191.38,3.09
2213.30,3.18
2235.43,3.26
2257.78,3.39
2280.36,3.51
2303.17,3.62
2326.20,3.82
2349.46,4.05
2372.95,4.30
2396.68,4.54
2420.65,4.79
2444.86,5.03
2469.31,5.21
2494.00,5.22
2518.94,5.25
2544.13,5.38
2569.57,5.84
2595.27,5.91
2621.22,6.20
2647.43,6.37
2673.90,6.44
2700.64,6.69
2727.65,7.10
2754.93,7.37
2782.48,7.56
2810.30,7.73
2838.40,7.85
2866.79,7.90
2895.46,7.92
2924.41,7.79
2953.65,7.99
2983.19,8.25
3013.02,8.63
3043.15,8.85
3073.58,9.05
3104.32,9.22
3135.36,9.45
3166.72,9.71
3198.38,9.93
3230.37,9.89
3262.67,9.75
3295.30,9.59
3328.25,9.53
3361.53,9.47
3395.15,9.24
3429.10,8.88
3463.39,8.55
3498.03,8.56
3533.01,8.43
3568.34,7.94
3604.02,6.85
3640.06,5.92
3676.46,5.15
3713.22,5.05
3750.36,4.98
3787.86,4.26
3825.74,2.93
3864.00,1.67
3902.64,0.58
3941.66,0.18
3981.08,0.01
4020.89,-0.01
4061.10,0.17
4101.71,0.09
4142.73,0.03
4184.15,-0.02
4226.00,-0.11
4268.26,0.00
4310.94,-0.01
4354.05,-0.18
4397.59,-0.21
4441.56,-0.11
4485.98,-0.09
4530.84,0.07
4576.15,0.20
4621.91,0.19
4668.13,0.16
4714.81,0.25
4761.96,0.39
4809.58,0.56
4857.67,0.74
4906.25,0.92
4955.31,1.06
5004.87,1.15
5054.91,1.19
5105.46,1.23
5156.52,1.38
5208.08,1.69
5260.16,2.06
5312.77,2.40
5365.89,2.74
5419.55,3.00
5473.75,3.38
5528.49,3.66
5583.77,3.77
5639.61,3.75
5696.00,3.83
5752.96,3.98
5810.49,3.90
5868.60,3.79
5927.28,3.61
5986.56,3.32
6046.42,2.96
6106.89,2.59
6167.96,2.27
6229.64,1.92
6291.93,1.52
6354.85,1.19
6418.40,0.93
6482.58,0.71
6547.41,0.59
6612.88,0.44
6679.01,0.35
6745.80,0.38
6813.26,0.37
6881.39,0.04
6950.21,-0.42
7019.71,-1.11
7089.91,-1.63
7160.81,-2.13
7232.41,-2.94
7304.74,-3.48
7377.79,-3.86
7451.56,-4.49
7526.08,-4.77
7601.34,-5.15
7677.35,-5.58
7754.13,-5.57
7831.67,-5.38
7909.98,-4.96
7989.08,-4.44
8068.98,-3.98
8149.67,-3.62
8231.16,-2.89
8313.47,-2.15
8396.61,-1.59
8480.57,-1.09
8565.38,-0.59
8651.03,-0.25
8737.54,-0.34
8824.92,-0.90
8913.17,-1.21
9002.30,-1.28
9092.32,-1.44
9183.25,-1.58
9275.08,-2.01
9367.83,-2.57
9461.51,-3.00
9556.12,-3.48
9651.68,-4.27
9748.20,-5.32
9845.68,-6.38
9944.14,-6.97
10043.58,-7.47
10144.02,-7.82
10245.46,-8.38
10347.91,-9.51
10451.39,-10.59
10555.91,-11.05
10661.46,-11.15
10768.08,-10.69
10875.76,-10.52
10984.52,-10.93
11094.36,-9.40
11205.31,-7.86
11317.36,-6.31
11430.53,-5.06
11544.84,-4.07
11660.29,-3.12
11776.89,-2.75
11894.66,-2.27
12013.60,-1.69
12133.74,-1.30
12255.08,-0.86
12377.63,-0.60
12501.41,-0.46
12626.42,-0.19
12752.68,-0.55
12880.21,-1.31
13009.01,-2.18
13139.10,-2.81
13270.49,-3.40
13403.20,-3.92
13537.23,-4.36
13672.60,-4.66
13809.33,-4.88
13947.42,-5.07
14086.90,-5.16
14227.77,-5.37
14370.04,-5.84
14513.74,-6.79
14658.88,-8.14
14805.47,-9.09
14953.52,-9.61
15103.06,-9.27
15254.09,-8.30
15406.63,-6.58
15560.70,-5.69
15716.30,-5.08
15873.47,-4.78
16032.20,-4.41
16192.52,-4.13
16354.45,-5.16
16517.99,-5.28
16683.17,-4.02
16850.01,-2.97
17018.51,-1.97
17188.69,-1.32
17360.58,-0.84
17534.18,-0.38
17709.53,0.33
17886.62,1.05
18065.49,1.57
18246.14,1.96
18428.60,1.89
18612.89,1.77
18799.02,1.54
18987.01,1.07
19176.88,0.52
19368.65,-0.27
19562.33,-0.76
19757.96,-1.06
19955.54,-1.43
