frequency,raw
20.00,-2.50
20.20,-2.50
20.40,-2.50
20.61,-2.50
20.81,-2.50
21.02,-2.50
21.23,-2.50
21.44,-2.50
21.66,-2.50
21.87,-2.50
22.09,-2.49
22.31,-2.47
22.54,-2.46
22.76,-2.44
22.99,-2.42
23.22,-2.39
23.45,-2.37
23.69,-2.34
23.92,-2.31
24.16,-2.28
24.40,-2.26
24.65,-2.23
24.89,-2.21
25.14,-2.17
25.39,-2.12
25.65,-2.07
25.91,-2.02
26.16,-2.00
26.43,-1.99
26.69,-1.99
26.96,-1.98
27.23,-1.92
27.50,-1.84
27.77,-1.76
28.05,-1.69
28.33,-1.63
28.62,-1.58
28.90,-1.52
29.19,-1.52
29.48,-1.55
29.78,-1.58
30.08,-1.59
30.38,-1.57
30.68,-1.55
30.99,-1.53
31.30,-1.47
31.61,-1.40
31.93,-1.34
32.24,-1.31
32.57,-1.30
32.89,-1.29
33.22,-1.30
33.55,-1.31
33.89,-1.32
34.23,-1.23
34.57,-1.10
34.92,-0.97
35.27,-0.79
35.62,-0.59
35.97,-0.39
36.33,-0.13
36.70,0.15
37.06,0.41
37.43,0.65
37.81,0.89
38.19,1.09
38.57,1.25
38.95,1.41
39.34,1.46
39.74,1.50
40.14,1.50
40.54,1.45
40.94,1.40
41.35,1.37
41.76,1.34
42.18,1.34
42.60,1.38
43.03,1.42
43.46,1.47
43.90,1.51
44.33,1.52
44.78,1.52
45.23,1.52
45.68,1.52
46.13,1.52
46.60,1.53
47.06,1.52
47.53,1.47
48.01,1.42
48.49,1.37
48.97,1.31
49.46,1.32
49.96,1.34
50.46,1.28
50.96,1.22
51.47,1.14
51.99,1.07
52.51,1.04
53.03,1.02
53.56,0.96
54.10,0.90
54.64,0.87
55.18,0.84
55.74,0.83
56.29,0.79
56.86,0.74
57.42,0.72
58.00,0.71
58.58,0.73
59.16,0.72
59.76,0.65
60.35,0.62
60.96,0.62
61.57,0.62
62.18,0.61
62.80,0.59
63.43,0.55
64.07,0.50
64.71,0.51
65.35,0.52
66.01,0.52
66.67,0.52
67.33,0.52
68.01,0.52
68.69,0.52
69.37,0.52
70.07,0.52
70.77,0.52
71.48,0.52
72.19,0.52
72.91,0.52
73.64,0.52
74.38,0.46
75.12,0.37
75.87,0.37
76.63,0.38
77.40,0.40
78.17,0.43
78.95,0.36
79.74,0.32
80.54,0.31
81.35,0.31
82.16,0.31
82.98,0.31
83.81,0.31
84.65,0.31
85.50,0.31
86.35,0.31
87.22,0.31
88.09,0.32
88.97,0.32
89.86,0.32
90.76,0.32
91.66,0.32
92.58,0.32
93.51,0.32
94.44,0.32
95.39,0.32
96.34,0.32
97.30,0.31
98.28,0.30
99.26,0.28
100.25,0.22
101.25,0.11
102.27,0.10
103.29,0.09
104.32,0.11
105.37,0.16
106.42,0.16
107.48,0.13
108.56,0.11
109.64,0.09
110.74,0.07
111.85,0.05
112.97,0.04
114.10,0.04
115.24,0.04
116.39,0.04
117.55,0.04
118.73,0.05
119.92,0.05
121.12,0.06
122.33,0.07
123.55,0.08
124.79,0.08
126.03,0.09
127.29,0.10
128.57,0.10
129.85,0.11
131.15,0.11
132.46,0.12
133.79,0.12
135.12,0.13
136.48,0.13
137.84,0.13
139.22,0.13
140.61,0.14
142.02,0.14
143.44,0.14
144.87,0.14
146.32,0.14
147.78,0.14
149.26,0.14
150.75,0.14
152.26,0.14
153.78,0.14
155.32,0.14
156.88,0.14
158.44,0.14
160.03,0.14
161.63,0.14
163.24,0.14
164.88,0.13
166.53,0.13
168.19,0.12
169.87,0.11
171.57,0.09
173.29,0.11
175.02,0.20
176.77,0.19
178.54,0.19
180.32,0.20
182.13,0.20
183.95,0.21
185.79,0.22
187.65,0.24
189.52,0.25
191.42,0.26
193.33,0.28
195.27,0.30
197.22,0.31
199.19,0.32
201.18,0.33
203.19,0.33
205.23,0.34
207.28,0.34
209.35,0.33
211.44,0.33
213.56,0.33
215.69,0.32
217.85,0.32
220.03,0.32
222.23,0.31
224.45,0.31
226.70,0.31
228.96,0.32
231.25,0.32
233.57,0.33
235.90,0.35
238.26,0.36
240.64,0.38
243.05,0.39
245.48,0.41
247.93,0.44
250.41,0.46
252.92,0.48
255.45,0.49
258.00,0.50
260.58,0.51
263.19,0.50
265.82,0.43
268.48,0.40
271.16,0.40
273.87,0.39
276.61,0.39
279.38,0.39
282.17,0.39
284.99,0.40
287.84,0.41
290.72,0.42
293.63,0.43
296.57,0.44
299.53,0.38
302.53,0.34
305.55,0.29
308.61,0.28
311.69,0.29
314.81,0.30
317.96,0.30
321.14,0.29
324.35,0.22
327.59,0.20
330.87,0.19
334.18,0.19
337.52,0.19
340.90,0.16
344.30,0.10
347.75,0.09
351.23,0.04
354.74,-0.01
358.28,-0.09
361.87,-0.10
365.49,-0.09
369.14,-0.09
372.83,-0.08
376.56,-0.13
380.33,-0.18
384.13,-0.24
387.97,-0.25
391.85,-0.25
395.77,-0.25
399.73,-0.26
403.72,-0.32
407.76,-0.35
411.84,-0.36
415.96,-0.36
420.12,-0.36
424.32,-0.34
428.56,-0.27
432.85,-0.18
437.18,-0.10
441.55,-0.07
445.96,-0.02
450.42,0.03
454.93,0.16
459.48,0.25
464.07,0.38
468.71,0.46
473.40,0.56
478.13,0.67
482.91,0.73
487.74,0.77
492.62,0.81
497.55,0.84
502.52,0.86
507.55,0.88
512.62,0.87
517.75,0.81
522.93,0.80
528.16,0.79
533.44,0.75
538.77,0.64
544.16,0.52
549.60,0.42
555.10,0.32
560.65,0.18
566.25,0.11
571.92,0.07
577.64,0.03
583.41,0.05
589.25,0.07
595.14,0.08
601.09,0.08
607.10,0.09
613.17,0.16
619.30,0.29
625.50,0.35
631.75,0.38
638.07,0.41
644.45,0.45
650.89,0.49
657.40,0.62
663.98,0.69
670.62,0.74
677.32,0.79
684.10,0.83
690.94,0.87
697.85,0.91
704.83,0.93
711.87,0.97
718.99,1.01
726.18,1.01
733.44,0.93
740.78,0.86
748.19,0.83
755.67,0.80
763.23,0.73
770.86,0.65
778.57,0.64
786.35,0.64
794.22,0.64
802.16,0.64
810.18,0.64
818.28,0.65
826.46,0.67
834.73,0.62
843.08,0.56
851.51,0.47
860.02,0.37
868.62,0.27
877.31,0.19
886.08,0.05
894.94,-0.05
903.89,-0.11
912.93,-0.17
922.06,-0.25
931.28,-0.35
940.59,-0.32
950.00,-0.33
959.50,-0.19
969.09,-0.04
978.78,0.06
988.57,0.05
998.46,0.01
1008.44,-0.07
1018.53,-0.02
1028.71,0.06
1039.00,0.07
1049.39,0.00
1059.88,-0.04
1070.48,-0.06
1081.19,-0.11
1092.00,-0.11
1102.92,-0.00
1113.95,0.08
1125.09,0.14
1136.34,0.21
1147.70,0.21
1159.18,0.28
1170.77,0.30
1182.48,0.30
1194.30,0.35
1206.25,0.33
1218.31,0.38
1230.49,0.44
1242.80,0.50
1255.22,0.58
1267.78,0.63
1280.45,0.68
1293.26,0.74
1306.19,0.83
1319.25,0.93
1332.45,1.07
1345.77,1.15
1359.23,1.19
1372.82,1.18
1386.55,1.17
1400.41,1.18
1414.42,1.17
1428.56,1.23
1442.85,1.27
1457.28,1.22
1471.85,1.18
1486.57,1.20
1501.43,1.21
1516.45,1.23
1531.61,1.25
1546.93,1.24
1562.40,1.30
1578.02,1.39
1593.80,1.49
1609.74,1.51
1625.84,1.51
1642.10,1.43
1658.52,1.36
1675.10,1.38
1691.85,1.36
1708.77,1.31
1725.86,1.40
1743.12,1.50
1760.55,1.56
1778.15,1.68
1795.94,1.79
1813.90,1.90
1832.03,2.01
1850.36,2.14
1868.86,2.29
1887.55,2.46
1906.42,2.58
1925.49,2.66
1944.74,2.75
1964.19,2.87
1983.83,3.03
2003.67,3.17
2023.71,3.34
2043.94,3.53
2064.38,3.60
2085.03,3.66
2105.88,3.86
2126.94,4.06
2148.20,4.24
2169.69,4.32
2191.38,4.32
2213.30,4.42
2235.43,4.54
2257.78,4.73
2280.36,4.92
2303.17,5.02
2326.20,5.10
2349.46,5.16
2372.95,5.26
2396.68,5.30
2420.65,5.27
2444.86,5.29
2469.31,5.38
2494.00,5.42
2518.94,5.40
2544.13,5.41
2569.57,5.36
2595.27,5.27
2621.22,5.23
2647.43,5.23
2673.90,5.21
2700.64,5.17
2727.65,5.19
2754.93,5.21
2782.48,5.17
2810.30,5.20
2838.40,5.19
2866.79,5.07
2895.46,4.92
2924.41,4.81
2953.65,4.70
2983.19,4.75
3013.02,4.79
3043.15,4.85
3073.58,4.89
3104.32,4.85
3135.36,4.82
3166.72,4.85
3198.38,4.88
3230.37,4.91
3262.67,4.86
3295.30,4.83
3328.25,4.83
3361.53,4.83
3395.15,4.84
3429.10,4.81
3463.39,4.59
3498.03,4.36
3533.01,4.12
3568.34,3.90
3604.02,3.59
3640.06,3.46
3676.46,3.37
3713.22,3.30
3750.36,3.16
3787.86,3.01
3825.74,2.82
3864.00,2.56
3902.64,2.45
3941.66,2.48
3981.08,2.58
4020.89,2.73
4061.10,2.76
4101.71,2.80
4142.73,2.95
4184.15,3.04
4226.00,3.18
4268.26,3.38
4310.94,3.65
4354.05,3.88
4397.59,4.19
4441.56,4.65
4485.98,5.05
4530.84,5.31
4576.15,5.56
4621.91,5.83
4668.13,5.95
4714.81,5.97
4761.96,5.70
4809.58,5.28
4857.67,4.59
4906.25,3.75
4955.31,2.97
5004.87,2.36
5054.91,2.00
5105.46,1.21
5156.52,0.29
5208.08,-0.62
5260.16,-1.67
5312.77,-2.54
5365.89,-3.46
5419.55,-4.23
5473.75,-4.73
5528.49,-4.15
5583.77,-3.47
5639.61,-3.32
5696.00,-3.27
5752.96,-2.44
5810.49,-1.82
5868.60,-1.43
5927.28,-1.44
5986.56,-1.53
6046.42,-1.43
6106.89,-1.16
6167.96,-1.04
6229.64,-0.87
6291.93,-0.77
6354.85,-0.77
6418.40,-0.90
6482.58,-0.95
6547.41,-0.82
6612.88,-0.76
6679.01,-0.81
6745.80,-0.88
6813.26,-0.93
6881.39,-1.08
6950.21,-1.36
7019.71,-1.74
7089.91,-2.14
7160.81,-2.48
7232.41,-2.87
7304.74,-3.38
7377.79,-4.05
7451.56,-5.03
7526.08,-5.82
7601.34,-6.24
7677.35,-6.44
7754.13,-6.47
7831.67,-6.51
7909.98,-6.47
7989.08,-6.32
8068.98,-6.00
8149.67,-5.71
8231.16,-5.29
8313.47,-5.08
8396.61,-5.17
8480.57,-5.48
8565.38,-6.07
8651.03,-6.65
8737.54,-7.22
8824.92,-7.60
8913.17,-7.76
9002.30,-7.43
9092.32,-6.96
9183.25,-5.89
9275.08,-4.53
9367.83,-3.29
9461.51,-2.19
9556.12,-2.09
9651.68,-2.24
9748.20,-2.58
9845.68,-4.28
9944.14,-5.66
10043.58,-7.36
10144.02,-7.26
10245.46,-7.20
10347.91,-7.92
10451.39,-7.79
10555.91,-6.90
10661.46,-6.04
10768.08,-4.93
10875.76,-4.77
10984.52,-4.64
11094.36,-4.22
11205.31,-3.72
11317.36,-3.27
11430.53,-3.06
11544.84,-2.76
11660.29,-2.17
11776.89,-1.76
11894.66,-1.65
12013.60,-2.15
12133.74,-2.87
12255.08,-3.64
12377.63,-5.41
12501.41,-6.82
12626.42,-8.12
12752.68,-8.61
12880.21,-9.17
13009.01,-9.06
13139.10,-6.82
13270.49,-6.44
13403.20,-7.43
13537.23,-8.11
13672.60,-8.06
13809.33,-7.81
13947.42,-7.18
14086.90,-6.69
14227.77,-6.49
14370.04,-6.28
14513.74,-5.66
14658.88,-5.08
14805.47,-4.97
14953.52,-5.06
15103.06,-5.10
15254.09,-5.46
15406.63,-5.46
15560.70,-5.76
15716.30,-5.31
15873.47,-4.43
16032.20,-3.39
16192.52,-2.56
16354.45,-2.08
16517.99,-1.65
16683.17,-2.33
16850.01,-2.98
17018.51,-3.02
17188.69,-2.66
17360.58,-2.17
17534.18,-1.51
17709.53,-1.25
17886.62,-1.43
18065.49,-1.62
18246.14,-1.40
18428.60,-0.96
18612.89,-1.12
18799.02,-0.87
18987.01,0.26
19176.88,0.41
19368.65,0.25
19562.33,-0.06
19757.96,-0.54
19955.54,-1.03
