frequency,raw
20.00,-4.66
20.20,-4.58
20.40,-4.51
20.61,-4.43
20.81,-4.35
21.02,-4.27
21.23,-4.20
21.44,-4.13
21.66,-4.05
21.87,-3.98
22.09,-3.90
22.31,-3.79
22.54,-3.69
22.76,-3.59
22.99,-3.48
23.22,-3.42
23.45,-3.35
23.69,-3.29
23.92,-3.22
24.16,-3.15
24.40,-3.07
24.65,-2.99
24.89,-2.91
25.14,-2.83
25.39,-2.74
25.65,-2.66
25.91,-2.57
26.16,-2.49
26.43,-2.42
26.69,-2.35
26.96,-2.27
27.23,-2.22
27.50,-2.16
27.77,-2.11
28.05,-2.05
28.33,-1.95
28.62,-1.85
28.90,-1.75
29.19,-1.68
29.48,-1.62
29.78,-1.56
30.08,-1.49
30.38,-1.42
30.68,-1.35
30.99,-1.27
31.30,-1.21
31.61,-1.15
31.93,-1.09
32.24,-1.04
32.57,-0.98
32.89,-0.93
33.22,-0.85
33.55,-0.77
33.89,-0.68
34.23,-0.61
34.57,-0.56
34.92,-0.50
35.27,-0.45
35.62,-0.39
35.97,-0.33
36.33,-0.27
36.70,-0.20
37.06,-0.13
37.43,-0.05
37.81,0.02
38.19,0.08
38.57,0.11
38.95,0.15
39.34,0.18
39.74,0.22
40.14,0.28
40.54,0.35
40.94,0.43
41.35,0.48
41.76,0.52
42.18,0.56
42.60,0.59
43.03,0.63
43.46,0.68
43.90,0.72
44.33,0.76
44.78,0.80
45.23,0.84
45.68,0.87
46.13,0.92
46.60,0.97
47.06,1.02
47.53,1.02
48.01,1.02
48.49,1.03
48.97,1.04
49.46,1.12
49.96,1.20
50.46,1.21
50.96,1.21
51.47,1.22
51.99,1.23
52.51,1.28
53.03,1.33
53.56,1.31
54.10,1.30
54.64,1.37
55.18,1.41
55.74,1.41
56.29,1.44
56.86,1.50
57.42,1.51
58.00,1.50
58.58,1.50
59.16,1.50
59.76,1.50
60.35,1.50
60.96,1.50
61.57,1.50
62.18,1.50
62.80,1.50
63.43,1.50
64.07,1.50
64.71,1.50
65.35,1.50
66.01,1.50
66.67,1.50
67.33,1.50
68.01,1.50
68.69,1.50
69.37,1.50
70.07,1.49
70.77,1.43
71.48,1.40
72.19,1.39
72.91,1.41
73.64,1.41
74.38,1.42
75.12,1.43
75.87,1.40
76.63,1.34
77.40,1.31
78.17,1.31
78.95,1.32
79.74,1.31
80.54,1.26
81.35,1.21
82.16,1.21
82.98,1.21
83.81,1.21
84.65,1.21
85.50,1.21
86.35,1.25
87.22,1.31
88.09,1.31
88.97,1.31
89.86,1.39
90.76,1.41
91.66,1.48
92.58,1.51
93.51,1.56
94.44,1.61
95.39,1.60
96.34,1.63
97.30,1.72
98.28,1.79
99.26,1.84
100.25,1.84
101.25,1.82
102.27,1.82
103.29,1.86
104.32,1.89
105.37,1.90
106.42,1.93
107.48,1.90
108.56,1.88
109.64,1.86
110.74,1.84
111.85,1.78
112.97,1.71
114.10,1.71
115.24,1.70
116.39,1.64
117.55,1.61
118.73,1.62
119.92,1.56
121.12,1.54
122.33,1.51
123.55,1.47
124.79,1.45
126.03,1.37
127.29,1.38
128.57,1.39
129.85,1.39
131.15,1.36
132.46,1.32
133.79,1.31
135.12,1.31
136.48,1.32
137.84,1.32
139.22,1.27
140.61,1.23
142.02,1.23
143.44,1.23
144.87,1.23
146.32,1.20
147.78,1.14
149.26,1.07
150.75,1.03
152.26,0.97
153.78,0.88
155.32,0.79
156.88,0.71
158.44,0.55
160.03,0.38
161.63,0.14
163.24,-0.07
164.88,-0.26
166.53,-0.27
168.19,-0.23
169.87,-0.16
171.57,-0.02
173.29,0.08
175.02,0.13
176.77,0.12
178.54,0.12
180.32,0.13
182.13,0.13
183.95,0.09
185.79,0.06
187.65,0.03
189.52,-0.00
191.42,-0.09
193.33,-0.15
195.27,-0.16
197.22,-0.19
199.19,-0.28
201.18,-0.32
203.19,-0.32
205.23,-0.34
207.28,-0.43
209.35,-0.50
211.44,-0.51
213.56,-0.56
215.69,-0.61
217.85,-0.67
220.03,-0.76
222.23,-0.86
224.45,-0.97
226.70,-1.01
228.96,-1.01
231.25,-1.07
233.57,-1.09
235.90,-1.13
238.26,-1.22
240.64,-1.25
243.05,-1.29
245.48,-1.35
247.93,-1.38
250.41,-1.38
252.92,-1.42
255.45,-1.50
258.00,-1.51
260.58,-1.50
263.19,-1.50
265.82,-1.56
268.48,-1.62
271.16,-1.68
273.87,-1.70
276.61,-1.70
279.38,-1.70
282.17,-1.79
284.99,-1.83
287.84,-1.78
290.72,-1.73
293.63,-1.77
296.57,-1.83
299.53,-1.83
302.53,-1.82
305.55,-1.81
308.61,-1.80
311.69,-1.79
314.81,-1.79
317.96,-1.78
321.14,-1.78
324.35,-1.78
327.59,-1.79
330.87,-1.79
334.18,-1.80
337.52,-1.78
340.90,-1.72
344.30,-1.70
347.75,-1.70
351.23,-1.69
354.74,-1.69
358.28,-1.69
361.87,-1.68
365.49,-1.68
369.14,-1.67
372.83,-1.66
376.56,-1.65
380.33,-1.65
384.13,-1.63
387.97,-1.56
391.85,-1.47
395.77,-1.44
399.73,-1.44
403.72,-1.37
407.76,-1.35
411.84,-1.35
415.96,-1.35
420.12,-1.35
424.32,-1.34
428.56,-1.33
432.85,-1.32
437.18,-1.29
441.55,-1.26
445.96,-1.21
450.42,-1.16
454.93,-1.10
459.48,-1.04
464.07,-0.98
468.71,-0.93
473.40,-0.86
478.13,-0.78
482.91,-0.68
487.74,-0.63
492.62,-0.59
497.55,-0.56
502.52,-0.59
507.55,-0.61
512.62,-0.60
517.75,-0.59
522.93,-0.59
528.16,-0.54
533.44,-0.53
538.77,-0.55
544.16,-0.59
549.60,-0.56
555.10,-0.62
560.65,-0.73
566.25,-0.79
571.92,-0.88
577.64,-0.95
583.41,-0.92
589.25,-0.91
595.14,-0.92
601.09,-0.92
607.10,-0.91
613.17,-0.90
619.30,-0.88
625.50,-0.85
631.75,-0.82
638.07,-0.78
644.45,-0.75
650.89,-0.75
657.40,-0.68
663.98,-0.61
670.62,-0.56
677.32,-0.51
684.10,-0.46
690.94,-0.38
697.85,-0.30
704.83,-0.28
711.87,-0.27
718.99,-0.28
726.18,-0.29
733.44,-0.25
740.78,-0.25
748.19,-0.28
755.67,-0.30
763.23,-0.33
770.86,-0.34
778.57,-0.35
786.35,-0.37
794.22,-0.39
802.16,-0.44
810.18,-0.45
818.28,-0.53
826.46,-0.58
834.73,-0.62
843.08,-0.58
851.51,-0.54
860.02,-0.44
868.62,-0.34
877.31,-0.26
886.08,-0.26
894.94,-0.29
903.89,-0.18
912.93,-0.13
922.06,-0.12
931.28,-0.05
940.59,-0.00
950.00,-0.01
959.50,-0.02
969.09,-0.01
978.78,0.00
988.57,0.01
998.46,0.00
1008.44,-0.09
1018.53,-0.14
1028.71,-0.17
1039.00,-0.27
1049.39,-0.27
1059.88,-0.23
1070.48,-0.25
1081.19,-0.27
1092.00,-0.24
1102.92,-0.03
1113.95,0.08
1125.09,0.20
1136.34,0.29
1147.70,0.24
1159.18,0.28
1170.77,0.42
1182.48,0.44
1194.30,0.37
1206.25,0.42
1218.31,0.53
1230.49,0.58
1242.80,0.52
1255.22,0.56
1267.78,0.66
1280.45,0.78
1293.26,0.92
1306.19,0.90
1319.25,0.89
1332.45,1.00
1345.77,1.09
1359.23,1.26
1372.82,1.42
1386.55,1.42
1400.41,1.43
1414.42,1.54
1428.56,1.69
1442.85,1.99
1457.28,2.18
1471.85,2.36
1486.57,2.53
1501.43,2.67
1516.45,2.81
1531.61,2.96
1546.93,3.19
1562.40,3.45
1578.02,3.66
1593.80,3.84
1609.74,4.02
1625.84,4.24
1642.10,4.54
1658.52,4.77
1675.10,4.87
1691.85,5.03
1708.77,5.12
1725.86,5.24
1743.12,5.52
1760.55,5.65
1778.15,5.87
1795.94,6.06
1813.90,6.25
1832.03,6.39
1850.36,6.52
1868.86,6.59
1887.55,6.70
1906.42,6.96
1925.49,7.13
1944.74,7.26
1964.19,7.41
1983.83,7.53
2003.67,7.59
2023.71,7.88
2043.94,8.05
2064.38,8.13
2085.03,8.26
2105.88,8.36
2126.94,8.52
2148.20,8.78
2169.69,8.77
2191.38,8.84
2213.30,8.89
2235.43,9.01
2257.78,9.09
2280.36,9.15
2303.17,9.13
2326.20,9.14
2349.46,9.12
2372.95,9.00
2396.68,8.82
2420.65,8.66
2444.86,8.54
2469.31,8.42
2494.00,8.25
2518.94,8.14
2544.13,8.05
2569.57,7.95
2595.27,7.87
2621.22,7.80
2647.43,7.81
2673.90,7.81
2700.64,7.82
2727.65,7.77
2754.93,7.73
2782.48,7.71
2810.30,7.66
2838.40,7.63
2866.79,7.65
2895.46,7.62
2924.41,7.63
2953.65,7.64
2983.19,7.66
3013.02,7.69
3043.15,7.78
3073.58,7.90
3104.32,8.07
3135.36,8.21
3166.72,8.37
3198.38,8.57
3230.37,8.70
3262.67,8.82
3295.30,9.05
3328.25,9.28
3361.53,9.54
3395.15,9.92
3429.10,10.36
3463.39,10.68
3498.03,10.99
3533.01,11.31
3568.34,11.65
3604.02,11.95
3640.06,12.20
3676.46,12.27
3713.22,12.29
3750.36,12.24
3787.86,12.05
3825.74,12.09
3864.00,11.86
3902.64,11.51
3941.66,11.37
3981.08,11.37
4020.89,11.32
4061.10,11.39
4101.71,11.32
4142.73,11.00
4184.15,10.61
4226.00,10.17
4268.26,9.66
4310.94,9.17
4354.05,8.76
4397.59,8.21
4441.56,7.80
4485.98,7.26
4530.84,6.81
4576.15,6.34
4621.91,5.74
4668.13,5.07
4714.81,4.57
4761.96,4.08
4809.58,3.52
4857.67,2.70
4906.25,1.98
4955.31,1.14
5004.87,-0.02
5054.91,-1.07
5105.46,-2.15
5156.52,-3.25
5208.08,-4.39
5260.16,-5.52
5312.77,-6.63
5365.89,-9.48
5419.55,-11.53
5473.75,-11.66
5528.49,-10.19
5583.77,-9.09
5639.61,-7.07
5696.00,-5.62
5752.96,-3.98
5810.49,-2.22
5868.60,-1.03
5927.28,-0.40
5986.56,0.15
6046.42,0.30
6106.89,-0.29
6167.96,-0.82
6229.64,-1.56
6291.93,-2.31
6354.85,-2.95
6418.40,-3.40
6482.58,-3.85
6547.41,-4.34
6612.88,-5.03
6679.01,-5.81
6745.80,-6.76
6813.26,-7.72
6881.39,-8.39
6950.21,-8.81
7019.71,-9.44
7089.91,-10.39
7160.81,-11.41
7232.41,-12.35
7304.74,-12.93
7377.79,-12.91
7451.56,-12.52
7526.08,-11.47
7601.34,-10.38
7677.35,-9.16
7754.13,-8.46
7831.67,-7.87
7909.98,-7.40
7989.08,-6.90
8068.98,-6.38
8149.67,-5.76
8231.16,-4.85
8313.47,-3.75
8396.61,-2.76
8480.57,-1.63
8565.38,-0.17
8651.03,0.90
8737.54,1.81
8824.92,2.91
8913.17,4.59
9002.30,5.63
9092.32,6.55
9183.25,6.98
9275.08,6.78
9367.83,6.45
9461.51,6.32
9556.12,5.62
9651.68,4.78
9748.20,3.95
9845.68,2.99
9944.14,2.38
10043.58,2.16
10144.02,2.23
10245.46,2.46
10347.91,2.64
10451.39,2.72
10555.91,2.76
10661.46,2.95
10768.08,3.18
10875.76,2.76
10984.52,2.52
11094.36,2.03
11205.31,0.89
11317.36,0.10
11430.53,-0.63
11544.84,-1.44
11660.29,-2.66
11776.89,-3.63
11894.66,-4.05
12013.60,-5.29
12133.74,-6.89
12255.08,-7.90
12377.63,-8.59
12501.41,-8.86
12626.42,-9.55
12752.68,-10.05
12880.21,-11.19
13009.01,-12.58
13139.10,-12.70
13270.49,-13.63
13403.20,-14.77
13537.23,-14.54
13672.60,-13.35
13809.33,-12.88
13947.42,-11.93
14086.90,-11.21
14227.77,-11.17
14370.04,-11.07
14513.74,-10.47
14658.88,-9.64
14805.47,-8.40
14953.52,-7.60
15103.06,-7.64
15254.09,-7.58
15406.63,-6.89
15560.70,-5.81
15716.30,-4.20
15873.47,-2.45
16032.20,-0.81
16192.52,0.80
16354.45,2.33
16517.99,2.42
16683.17,1.61
16850.01,1.13
17018.51,0.61
17188.69,-0.79
17360.58,-1.95
17534.18,-3.16
17709.53,-3.84
17886.62,-4.11
18065.49,-4.31
18246.14,-4.66
18428.60,-5.37
18612.89,-6.17
18799.02,-7.37
18987.01,-8.30
19176.88,-8.60
19368.65,-8.82
19562.33,-8.22
19757.96,-7.21
19955.54,-6.21
