frequency,raw
20.00,-14.79
20.20,-14.66
20.40,-14.53
20.61,-14.40
20.81,-14.27
21.02,-14.14
21.23,-14.08
21.44,-14.02
21.66,-13.96
21.87,-13.90
22.09,-13.82
22.31,-13.70
22.54,-13.57
22.76,-13.45
22.99,-13.33
23.22,-13.22
23.45,-13.12
23.69,-13.02
23.92,-12.92
24.16,-12.81
24.40,-12.69
24.65,-12.58
24.89,-12.46
25.14,-12.35
25.39,-12.25
25.65,-12.14
25.91,-12.04
26.16,-11.96
26.43,-11.91
26.69,-11.85
26.96,-11.80
27.23,-11.67
27.50,-11.52
27.77,-11.37
28.05,-11.24
28.33,-11.19
28.62,-11.14
28.90,-11.10
29.19,-10.99
29.48,-10.86
29.78,-10.72
30.08,-10.60
30.38,-10.52
30.68,-10.44
30.99,-10.36
31.30,-10.27
31.61,-10.18
31.93,-10.09
32.24,-10.03
32.57,-9.98
32.89,-9.94
33.22,-9.87
33.55,-9.80
33.89,-9.72
34.23,-9.62
34.57,-9.51
34.92,-9.40
35.27,-9.29
35.62,-9.18
35.97,-9.08
36.33,-9.00
36.70,-8.92
37.06,-8.85
37.43,-8.78
37.81,-8.71
38.19,-8.66
38.57,-8.61
38.95,-8.57
39.34,-8.47
39.74,-8.37
40.14,-8.27
40.54,-8.18
40.94,-8.08
41.35,-8.03
41.76,-7.99
42.18,-7.92
42.60,-7.84
43.03,-7.76
43.46,-7.67
43.90,-7.58
44.33,-7.55
44.78,-7.53
45.23,-7.47
45.68,-7.38
46.13,-7.30
46.60,-7.25
47.06,-7.20
47.53,-7.13
48.01,-7.06
48.49,-6.96
48.97,-6.87
49.46,-6.86
49.96,-6.86
50.46,-6.77
50.96,-6.67
51.47,-6.65
51.99,-6.64
52.51,-6.52
53.03,-6.41
53.56,-6.38
54.10,-6.34
54.64,-6.23
55.18,-6.16
55.74,-6.16
56.29,-6.16
56.86,-6.16
57.42,-6.12
58.00,-6.06
58.58,-5.95
59.16,-5.87
59.76,-5.85
60.35,-5.85
60.96,-5.85
61.57,-5.85
62.18,-5.85
62.80,-5.85
63.43,-5.85
64.07,-5.85
64.71,-5.86
65.35,-5.90
66.01,-5.97
66.67,-5.96
67.33,-6.00
68.01,-6.10
68.69,-5.96
69.37,-5.94
70.07,-6.01
70.77,-5.89
71.48,-5.85
72.19,-5.85
72.91,-5.85
73.64,-5.80
74.38,-5.76
75.12,-5.75
75.87,-5.80
76.63,-5.63
77.40,-5.50
78.17,-5.47
78.95,-5.45
79.74,-5.42
80.54,-5.26
81.35,-5.11
82.16,-5.06
82.98,-5.03
83.81,-5.00
84.65,-4.92
85.50,-4.86
86.35,-4.81
87.22,-4.75
88.09,-4.73
88.97,-4.78
89.86,-4.73
90.76,-4.73
91.66,-4.67
92.58,-4.64
93.51,-4.59
94.44,-4.48
95.39,-4.40
96.34,-4.42
97.30,-4.45
98.28,-4.42
99.26,-4.32
100.25,-4.37
101.25,-4.44
102.27,-4.37
103.29,-4.35
104.32,-4.35
105.37,-4.38
106.42,-4.40
107.48,-4.42
108.56,-4.45
109.64,-4.47
110.74,-4.49
111.85,-4.51
112.97,-4.52
114.10,-4.44
115.24,-4.40
116.39,-4.35
117.55,-4.30
118.73,-4.20
119.92,-4.15
121.12,-4.20
122.33,-4.23
123.55,-4.21
124.79,-4.09
126.03,-4.07
127.29,-4.06
128.57,-4.05
129.85,-4.05
131.15,-4.04
132.46,-4.04
133.79,-3.99
135.12,-3.87
136.48,-3.91
137.84,-3.92
139.22,-3.92
140.61,-3.93
142.02,-3.97
143.44,-3.90
144.87,-3.83
146.32,-3.82
147.78,-3.82
149.26,-3.82
150.75,-3.82
152.26,-3.82
153.78,-3.82
155.32,-3.82
156.88,-3.88
158.44,-3.95
160.03,-3.94
161.63,-3.92
163.24,-3.92
164.88,-3.92
166.53,-3.95
168.19,-3.98
169.87,-3.92
171.57,-3.86
173.29,-3.75
175.02,-3.70
176.77,-3.74
178.54,-3.76
180.32,-3.76
182.13,-3.79
183.95,-3.78
185.79,-3.65
187.65,-3.62
189.52,-3.60
191.42,-3.59
193.33,-3.57
195.27,-3.56
197.22,-3.55
199.19,-3.53
201.18,-3.53
203.19,-3.52
205.23,-3.54
207.28,-3.56
209.35,-3.47
211.44,-3.42
213.56,-3.43
215.69,-3.43
217.85,-3.43
220.03,-3.44
222.23,-3.44
224.45,-3.44
226.70,-3.44
228.96,-3.44
231.25,-3.43
233.57,-3.42
235.90,-3.41
238.26,-3.41
240.64,-3.39
243.05,-3.29
245.48,-3.24
247.93,-3.21
250.41,-3.19
252.92,-3.18
255.45,-3.16
258.00,-3.15
260.58,-3.15
263.19,-3.20
265.82,-3.25
268.48,-3.26
271.16,-3.26
273.87,-3.26
276.61,-3.26
279.38,-3.26
282.17,-3.26
284.99,-3.26
287.84,-3.25
290.72,-3.24
293.63,-3.22
296.57,-3.21
299.53,-3.28
302.53,-3.29
305.55,-3.28
308.61,-3.27
311.69,-3.26
314.81,-3.26
317.96,-3.26
321.14,-3.25
324.35,-3.26
327.59,-3.26
330.87,-3.26
334.18,-3.26
337.52,-3.26
340.90,-3.23
344.30,-3.17
347.75,-3.16
351.23,-3.16
354.74,-3.16
358.28,-3.16
361.87,-3.15
365.49,-3.14
369.14,-3.14
372.83,-3.13
376.56,-3.12
380.33,-3.14
384.13,-3.19
387.97,-3.20
391.85,-3.20
395.77,-3.20
399.73,-3.20
403.72,-3.20
407.76,-3.20
411.84,-3.21
415.96,-3.21
420.12,-3.21
424.32,-3.20
428.56,-3.19
432.85,-3.18
437.18,-3.13
441.55,-3.04
445.96,-2.97
450.42,-2.92
454.93,-2.86
459.48,-2.80
464.07,-2.74
468.71,-2.69
473.40,-2.62
478.13,-2.57
482.91,-2.52
487.74,-2.55
492.62,-2.55
497.55,-2.52
502.52,-2.38
507.55,-2.28
512.62,-2.25
517.75,-2.25
522.93,-2.25
528.16,-2.26
533.44,-2.27
538.77,-2.30
544.16,-2.34
549.60,-2.39
555.10,-2.44
560.65,-2.49
566.25,-2.54
571.92,-2.58
577.64,-2.62
583.41,-2.62
589.25,-2.51
595.14,-2.47
601.09,-2.47
607.10,-2.46
613.17,-2.45
619.30,-2.43
625.50,-2.40
631.75,-2.37
638.07,-2.34
644.45,-2.30
650.89,-2.26
657.40,-2.21
663.98,-2.16
670.62,-2.11
677.32,-2.05
684.10,-1.94
690.94,-1.88
697.85,-1.76
704.83,-1.72
711.87,-1.72
718.99,-1.65
726.18,-1.64
733.44,-1.66
740.78,-1.61
748.19,-1.55
755.67,-1.55
763.23,-1.57
770.86,-1.58
778.57,-1.60
786.35,-1.56
794.22,-1.47
802.16,-1.41
810.18,-1.38
818.28,-1.32
826.46,-1.21
834.73,-1.12
843.08,-1.05
851.51,-0.92
860.02,-0.90
868.62,-0.88
877.31,-0.78
886.08,-0.71
894.94,-0.63
903.89,-0.50
912.93,-0.45
922.06,-0.44
931.28,-0.44
940.59,-0.44
950.00,-0.44
959.50,-0.38
969.09,-0.34
978.78,-0.26
988.57,-0.14
998.46,-0.02
1008.44,0.05
1018.53,0.14
1028.71,0.18
1039.00,0.20
1049.39,0.24
1059.88,0.28
1070.48,0.32
1081.19,0.34
1092.00,0.32
1102.92,0.37
1113.95,0.45
1125.09,0.52
1136.34,0.69
1147.70,0.80
1159.18,0.88
1170.77,0.98
1182.48,1.01
1194.30,1.06
1206.25,1.15
1218.31,1.15
1230.49,1.21
1242.80,1.24
1255.22,1.23
1267.78,1.23
1280.45,1.28
1293.26,1.29
1306.19,1.28
1319.25,1.36
1332.45,1.45
1345.77,1.54
1359.23,1.65
1372.82,1.72
1386.55,1.75
1400.41,1.74
1414.42,1.70
1428.56,1.64
1442.85,1.65
1457.28,1.70
1471.85,1.69
1486.57,1.69
1501.43,1.71
1516.45,1.73
1531.61,1.71
1546.93,1.61
1562.40,1.57
1578.02,1.54
1593.80,1.44
1609.74,1.37
1625.84,1.34
1642.10,1.33
1658.52,1.38
1675.10,1.54
1691.85,1.65
1708.77,1.78
1725.86,1.91
1743.12,1.93
1760.55,1.94
1778.15,2.06
1795.94,2.14
1813.90,2.17
1832.03,2.12
1850.36,2.18
1868.86,2.36
1887.55,2.58
1906.42,2.65
1925.49,2.69
1944.74,2.61
1964.19,2.65
1983.83,2.74
2003.67,2.85
2023.71,3.04
2043.94,3.18
2064.38,3.20
2085.03,3.34
2105.88,3.40
2126.94,3.52
2148.20,3.68
2169.69,3.80
2191.38,3.80
2213.30,3.69
2235.43,3.67
2257.78,3.77
2280.36,3.91
2303.17,4.12
2326.20,4.30
2349.46,4.50
2372.95,4.50
2396.68,4.57
2420.65,4.65
2444.86,4.76
2469.31,4.79
2494.00,4.91
2518.94,4.99
2544.13,4.97
2569.57,5.19
2595.27,5.38
2621.22,5.41
2647.43,5.83
2673.90,6.37
2700.64,6.66
2727.65,6.78
2754.93,6.86
2782.48,7.18
2810.30,7.45
2838.40,7.40
2866.79,7.28
2895.46,7.40
2924.41,7.37
2953.65,7.55
2983.19,7.84
3013.02,8.30
3043.15,8.41
3073.58,8.47
3104.32,8.64
3135.36,8.99
3166.72,9.28
3198.38,9.55
3230.37,9.54
3262.67,9.48
3295.30,9.40
3328.25,9.12
3361.53,8.70
3395.15,8.41
3429.10,8.21
3463.39,7.91
3498.03,7.64
3533.01,7.43
3568.34,7.09
3604.02,6.39
3640.06,5.88
3676.46,5.20
3713.22,4.63
3750.36,4.26
3787.86,3.77
3825.74,3.55
3864.00,3.54
3902.64,3.72
3941.66,4.10
3981.08,3.96
4020.89,4.01
4061.10,4.52
4101.71,4.77
4142.73,4.72
4184.15,4.83
4226.00,5.15
4268.26,4.98
4310.94,4.86
4354.05,5.17
4397.59,5.23
4441.56,4.93
4485.98,4.92
4530.84,4.89
4576.15,4.69
4621.91,4.32
4668.13,4.02
4714.81,3.80
4761.96,3.56
4809.58,3.23
4857.67,2.74
4906.25,2.43
4955.31,1.93
5004.87,1.48
5054.91,1.07
5105.46,0.69
5156.52,0.19
5208.08,-0.21
5260.16,-0.50
5312.77,-0.84
5365.89,-1.12
5419.55,-1.32
5473.75,-1.62
5528.49,-2.26
5583.77,-2.77
5639.61,-3.41
5696.00,-4.29
5752.96,-4.86
5810.49,-5.32
5868.60,-6.37
5927.28,-6.70
5986.56,-7.46
6046.42,-7.98
6106.89,-8.67
6167.96,-9.38
6229.64,-9.75
6291.93,-10.05
6354.85,-10.28
6418.40,-10.21
6482.58,-10.05
6547.41,-10.21
6612.88,-10.55
6679.01,-10.87
6745.80,-11.23
6813.26,-11.58
6881.39,-12.02
6950.21,-12.45
7019.71,-12.77
7089.91,-13.30
7160.81,-13.29
7232.41,-12.91
7304.74,-12.98
7377.79,-12.03
7451.56,-9.94
7526.08,-8.51
7601.34,-8.28
7677.35,-9.01
7754.13,-9.59
7831.67,-9.64
7909.98,-9.03
7989.08,-7.88
8068.98,-6.52
8149.67,-5.41
8231.16,-4.19
8313.47,-3.49
8396.61,-2.97
8480.57,-2.08
8565.38,-1.57
8651.03,-1.56
8737.54,-1.50
8824.92,-1.56
8913.17,-1.35
9002.30,-1.47
9092.32,-1.71
9183.25,-1.74
9275.08,-1.48
9367.83,-1.20
9461.51,-0.88
9556.12,-0.39
9651.68,0.28
9748.20,0.73
9845.68,0.92
9944.14,0.84
10043.58,0.69
10144.02,1.00
10245.46,1.13
10347.91,1.42
10451.39,1.58
10555.91,1.70
10661.46,0.89
10768.08,0.27
10875.76,0.17
10984.52,-0.05
11094.36,-0.97
11205.31,-1.71
11317.36,-3.13
11430.53,-4.71
11544.84,-6.70
11660.29,-8.08
11776.89,-9.69
11894.66,-11.00
12013.60,-11.58
12133.74,-11.89
12255.08,-11.98
12377.63,-11.89
12501.41,-11.97
12626.42,-12.05
12752.68,-12.74
12880.21,-13.47
13009.01,-13.86
13139.10,-13.04
13270.49,-12.63
13403.20,-11.88
13537.23,-11.56
13672.60,-11.02
13809.33,-10.44
13947.42,-9.67
14086.90,-8.94
14227.77,-8.56
14370.04,-8.19
14513.74,-8.37
14658.88,-9.13
14805.47,-9.82
14953.52,-10.65
15103.06,-11.11
15254.09,-11.28
15406.63,-10.67
15560.70,-10.75
15716.30,-11.06
15873.47,-11.92
16032.20,-12.80
16192.52,-13.21
16354.45,-13.75
16517.99,-14.14
16683.17,-15.63
16850.01,-16.05
17018.51,-16.41
17188.69,-16.04
17360.58,-15.47
17534.18,-14.76
17709.53,-14.64
17886.62,-15.00
18065.49,-15.14
18246.14,-15.20
18428.60,-15.56
18612.89,-15.15
18799.02,-14.57
18987.01,-14.08
19176.88,-14.51
19368.65,-14.96
19562.33,-15.41
19757.96,-16.13
19955.54,-16.94
