frequency,raw
20.00,-6.33
20.20,-6.29
20.40,-6.25
20.61,-6.21
20.81,-6.18
21.02,-6.13
21.23,-6.08
21.44,-6.02
21.66,-5.97
21.87,-5.91
22.09,-5.83
22.31,-5.71
22.54,-5.60
22.76,-5.48
22.99,-5.37
23.22,-5.27
23.45,-5.18
23.69,-5.09
23.92,-5.00
24.16,-4.97
24.40,-4.97
24.65,-4.98
24.89,-4.98
25.14,-4.92
25.39,-4.82
25.65,-4.72
25.91,-4.62
26.16,-4.55
26.43,-4.49
26.69,-4.44
26.96,-4.39
27.23,-4.32
27.50,-4.25
27.77,-4.18
28.05,-4.11
28.33,-4.08
28.62,-4.05
28.90,-4.02
29.19,-3.96
29.48,-3.89
29.78,-3.82
30.08,-3.77
30.38,-3.75
30.68,-3.74
30.99,-3.72
31.30,-3.68
31.61,-3.63
31.93,-3.58
32.24,-3.53
32.57,-3.48
32.89,-3.43
33.22,-3.33
33.55,-3.22
33.89,-3.11
34.23,-3.06
34.57,-3.04
34.92,-3.02
35.27,-2.93
35.62,-2.81
35.97,-2.70
36.33,-2.74
36.70,-2.80
37.06,-2.82
37.43,-2.70
37.81,-2.59
38.19,-2.55
38.57,-2.59
38.95,-2.64
39.34,-2.55
39.74,-2.44
40.14,-2.35
40.54,-2.31
40.94,-2.27
41.35,-2.21
41.76,-2.14
42.18,-2.10
42.60,-2.08
43.03,-2.06
43.46,-2.06
43.90,-2.06
44.33,-2.03
44.78,-1.99
45.23,-1.94
45.68,-1.90
46.13,-1.86
46.60,-1.84
47.06,-1.82
47.53,-1.71
48.01,-1.60
48.49,-1.66
48.97,-1.72
49.46,-1.65
49.96,-1.57
50.46,-1.56
50.96,-1.56
51.47,-1.54
51.99,-1.51
52.51,-1.48
53.03,-1.45
53.56,-1.40
54.10,-1.36
54.64,-1.39
55.18,-1.35
55.74,-1.19
56.29,-1.12
56.86,-1.14
57.42,-1.17
58.00,-1.19
58.58,-1.11
59.16,-1.03
59.76,-0.97
60.35,-0.91
60.96,-0.85
61.57,-0.84
62.18,-0.86
62.80,-0.93
63.43,-0.91
64.07,-0.84
64.71,-0.78
65.35,-0.77
66.01,-0.82
66.67,-0.85
67.33,-0.86
68.01,-0.85
68.69,-0.93
69.37,-0.99
70.07,-1.04
70.77,-1.14
71.48,-1.17
72.19,-1.18
72.91,-1.27
73.64,-1.41
74.38,-1.46
75.12,-1.45
75.87,-1.49
76.63,-1.49
77.40,-1.43
78.17,-1.33
78.95,-1.24
79.74,-1.17
80.54,-1.06
81.35,-0.91
82.16,-0.77
82.98,-0.66
83.81,-0.57
84.65,-0.47
85.50,-0.39
86.35,-0.35
87.22,-0.31
88.09,-0.15
88.97,-0.14
89.86,-0.15
90.76,-0.14
91.66,-0.02
92.58,0.05
93.51,0.06
94.44,0.06
95.39,0.06
96.34,0.05
97.30,0.07
98.28,0.16
99.26,0.23
100.25,0.21
101.25,0.19
102.27,0.19
103.29,0.23
104.32,0.25
105.37,0.22
106.42,0.20
107.48,0.17
108.56,0.15
109.64,0.15
110.74,0.20
111.85,0.19
112.97,0.18
114.10,0.25
115.24,0.28
116.39,0.28
117.55,0.28
118.73,0.29
119.92,0.29
121.12,0.30
122.33,0.31
123.55,0.32
124.79,0.32
126.03,0.33
127.29,0.40
128.57,0.44
129.85,0.48
131.15,0.56
132.46,0.56
133.79,0.57
135.12,0.57
136.48,0.57
137.84,0.57
139.22,0.58
140.61,0.58
142.02,0.58
143.44,0.58
144.87,0.58
146.32,0.58
147.78,0.58
149.26,0.64
150.75,0.68
152.26,0.68
153.78,0.68
155.32,0.68
156.88,0.64
158.44,0.60
160.03,0.58
161.63,0.58
163.24,0.52
164.88,0.47
166.53,0.47
168.19,0.52
169.87,0.60
171.57,0.64
173.29,0.64
175.02,0.64
176.77,0.64
178.54,0.63
180.32,0.64
182.13,0.64
183.95,0.65
185.79,0.67
187.65,0.68
189.52,0.70
191.42,0.71
193.33,0.72
195.27,0.74
197.22,0.75
199.19,0.76
201.18,0.77
203.19,0.77
205.23,0.78
207.28,0.78
209.35,0.78
211.44,0.77
213.56,0.77
215.69,0.77
217.85,0.76
220.03,0.76
222.23,0.72
224.45,0.66
226.70,0.66
228.96,0.66
231.25,0.67
233.57,0.65
235.90,0.59
238.26,0.60
240.64,0.62
243.05,0.63
245.48,0.65
247.93,0.68
250.41,0.70
252.92,0.72
255.45,0.73
258.00,0.74
260.58,0.74
263.19,0.74
265.82,0.74
268.48,0.74
271.16,0.74
273.87,0.73
276.61,0.70
279.38,0.64
282.17,0.63
284.99,0.59
287.84,0.55
290.72,0.56
293.63,0.57
296.57,0.58
299.53,0.60
302.53,0.61
305.55,0.62
308.61,0.63
311.69,0.63
314.81,0.64
317.96,0.64
321.14,0.64
324.35,0.64
327.59,0.64
330.87,0.64
334.18,0.63
337.52,0.58
340.90,0.54
344.30,0.53
347.75,0.53
351.23,0.53
354.74,0.53
358.28,0.54
361.87,0.54
365.49,0.55
369.14,0.52
372.83,0.47
376.56,0.47
380.33,0.41
384.13,0.39
387.97,0.39
391.85,0.39
395.77,0.38
399.73,0.32
403.72,0.29
407.76,0.29
411.84,0.29
415.96,0.20
420.12,0.17
424.32,0.19
428.56,0.14
432.85,0.06
437.18,-0.06
441.55,-0.03
445.96,0.04
450.42,-0.03
454.93,-0.10
459.48,-0.09
464.07,-0.05
468.71,0.00
473.40,0.07
478.13,0.12
482.91,0.18
487.74,0.32
492.62,0.37
497.55,0.38
502.52,0.40
507.55,0.42
512.62,0.43
517.75,0.44
522.93,0.44
528.16,0.43
533.44,0.42
538.77,0.39
544.16,0.35
549.60,0.22
555.10,0.10
560.65,0.08
566.25,0.05
571.92,-0.01
577.64,-0.08
583.41,-0.03
589.25,0.01
595.14,0.00
601.09,-0.12
607.10,-0.11
613.17,-0.02
619.30,-0.03
625.50,-0.10
631.75,-0.09
638.07,-0.05
644.45,-0.02
650.89,0.06
657.40,0.02
663.98,-0.09
670.62,-0.04
677.32,0.02
684.10,0.07
690.94,0.11
697.85,0.15
704.83,0.16
711.87,0.09
718.99,0.14
726.18,0.15
733.44,0.12
740.78,0.09
748.19,0.06
755.67,-0.05
763.23,-0.12
770.86,-0.19
778.57,-0.22
786.35,-0.23
794.22,-0.23
802.16,-0.23
810.18,-0.14
818.28,-0.03
826.46,-0.00
834.73,0.08
843.08,0.11
851.51,0.09
860.02,0.07
868.62,0.05
877.31,0.14
886.08,0.16
894.94,0.15
903.89,0.22
912.93,0.23
922.06,0.11
931.28,0.04
940.59,0.03
950.00,-0.03
959.50,-0.07
969.09,-0.05
978.78,-0.04
988.57,-0.03
998.46,-0.01
1008.44,0.00
1018.53,0.02
1028.71,0.05
1039.00,0.04
1049.39,0.02
1059.88,-0.02
1070.48,-0.03
1081.19,-0.07
1092.00,-0.07
1102.92,-0.09
1113.95,-0.08
1125.09,-0.10
1136.34,-0.05
1147.70,0.03
1159.18,0.04
1170.77,0.02
1182.48,-0.01
1194.30,0.02
1206.25,0.06
1218.31,0.07
1230.49,0.03
1242.80,0.06
1255.22,0.09
1267.78,0.05
1280.45,0.01
1293.26,-0.04
1306.19,-0.04
1319.25,0.01
1332.45,0.05
1345.77,0.16
1359.23,0.21
1372.82,0.26
1386.55,0.29
1400.41,0.34
1414.42,0.39
1428.56,0.48
1442.85,0.53
1457.28,0.49
1471.85,0.55
1486.57,0.66
1501.43,0.76
1516.45,0.77
1531.61,0.79
1546.93,0.89
1562.40,0.93
1578.02,0.99
1593.80,1.17
1609.74,1.24
1625.84,1.33
1642.10,1.56
1658.52,1.66
1675.10,1.72
1691.85,1.78
1708.77,1.98
1725.86,2.14
1743.12,2.27
1760.55,2.51
1778.15,2.65
1795.94,2.65
1813.90,2.74
1832.03,2.87
1850.36,2.98
1868.86,3.13
1887.55,3.25
1906.42,3.29
1925.49,3.35
1944.74,3.51
1964.19,3.60
1983.83,3.51
2003.67,3.64
2023.71,3.91
2043.94,4.00
2064.38,4.04
2085.03,4.15
2105.88,4.17
2126.94,4.28
2148.20,4.47
2169.69,4.78
2191.38,4.95
2213.30,5.05
2235.43,5.26
2257.78,5.33
2280.36,5.42
2303.17,5.55
2326.20,5.45
2349.46,5.50
2372.95,5.62
2396.68,5.74
2420.65,5.93
2444.86,6.04
2469.31,6.06
2494.00,6.36
2518.94,6.58
2544.13,6.74
2569.57,7.31
2595.27,7.82
2621.22,7.98
2647.43,7.98
2673.90,8.24
2700.64,8.55
2727.65,8.83
2754.93,9.14
2782.48,9.36
2810.30,9.51
2838.40,9.30
2866.79,9.27
2895.46,9.57
2924.41,9.84
2953.65,9.72
2983.19,10.05
3013.02,10.41
3043.15,10.37
3073.58,10.64
3104.32,11.04
3135.36,11.29
3166.72,11.24
3198.38,11.10
3230.37,11.08
3262.67,11.09
3295.30,11.10
3328.25,11.10
3361.53,10.93
3395.15,10.76
3429.10,10.90
3463.39,11.37
3498.03,11.31
3533.01,10.84
3568.34,10.98
3604.02,11.02
3640.06,10.93
3676.46,10.42
3713.22,9.85
3750.36,9.72
3787.86,9.83
3825.74,9.56
3864.00,9.54
3902.64,9.47
3941.66,8.80
3981.08,8.80
4020.89,8.62
4061.10,8.15
4101.71,7.98
4142.73,7.78
4184.15,7.35
4226.00,6.85
4268.26,6.55
4310.94,6.29
4354.05,6.00
4397.59,5.66
4441.56,5.36
4485.98,4.95
4530.84,4.41
4576.15,4.03
4621.91,3.71
4668.13,3.32
4714.81,3.00
4761.96,2.72
4809.58,2.25
4857.67,1.61
4906.25,1.19
4955.31,0.53
5004.87,-0.27
5054.91,-0.70
5105.46,-1.07
5156.52,-1.77
5208.08,-2.56
5260.16,-3.09
5312.77,-3.37
5365.89,-4.07
5419.55,-4.37
5473.75,-2.84
5528.49,-2.54
5583.77,-4.63
5639.61,-4.95
5696.00,-4.30
5752.96,-5.10
5810.49,-4.97
5868.60,-3.82
5927.28,-2.71
5986.56,-1.49
6046.42,-0.53
6106.89,0.59
6167.96,1.50
6229.64,2.11
6291.93,2.79
6354.85,3.15
6418.40,3.28
6482.58,3.53
6547.41,3.85
6612.88,3.84
6679.01,3.76
6745.80,3.67
6813.26,3.49
6881.39,3.46
6950.21,3.00
7019.71,2.74
7089.91,2.78
7160.81,2.59
7232.41,2.48
7304.74,2.29
7377.79,2.06
7451.56,1.70
7526.08,1.43
7601.34,1.26
7677.35,1.39
7754.13,1.60
7831.67,1.76
7909.98,2.02
7989.08,2.38
8068.98,2.76
8149.67,3.11
8231.16,3.51
8313.47,4.10
8396.61,4.49
8480.57,4.76
8565.38,4.91
8651.03,4.98
8737.54,4.94
8824.92,5.22
8913.17,5.45
9002.30,5.40
9092.32,5.15
9183.25,5.01
9275.08,4.93
9367.83,4.41
9461.51,4.06
9556.12,3.77
9651.68,3.53
9748.20,3.17
9845.68,2.52
9944.14,1.78
10043.58,0.54
10144.02,-0.57
10245.46,-1.32
10347.91,-1.90
10451.39,-2.90
10555.91,-3.51
10661.46,-3.91
10768.08,-4.46
10875.76,-4.78
10984.52,-5.10
11094.36,-4.98
11205.31,-5.06
11317.36,-5.49
11430.53,-5.77
11544.84,-6.96
11660.29,-8.44
11776.89,-10.08
11894.66,-11.36
12013.60,-11.21
12133.74,-10.94
12255.08,-11.40
12377.63,-10.96
12501.41,-10.37
12626.42,-9.75
12752.68,-9.13
12880.21,-9.01
13009.01,-9.00
13139.10,-8.91
13270.49,-9.01
13403.20,-8.89
13537.23,-8.98
13672.60,-9.52
13809.33,-9.88
13947.42,-9.98
14086.90,-10.21
14227.77,-10.45
14370.04,-10.24
14513.74,-9.89
14658.88,-10.07
14805.47,-10.14
14953.52,-10.38
15103.06,-10.88
15254.09,-11.08
15406.63,-11.22
15560.70,-11.84
15716.30,-12.34
15873.47,-13.47
16032.20,-14.75
16192.52,-14.20
16354.45,-12.52
16517.99,-11.71
16683.17,-9.71
16850.01,-10.23
17018.51,-12.59
17188.69,-11.86
17360.58,-12.95
17534.18,-14.20
17709.53,-13.52
17886.62,-12.28
18065.49,-11.60
18246.14,-10.13
18428.60,-8.21
18612.89,-7.04
18799.02,-6.72
18987.01,-6.01
19176.88,-6.07
19368.65,-5.99
19562.33,-5.66
19757.96,-4.91
19955.54,-4.48
