frequency,raw
20.00,-3.28
20.20,-3.28
20.40,-3.28
20.61,-3.29
20.81,-3.29
21.02,-3.29
21.23,-3.25
21.44,-3.22
21.66,-3.18
21.87,-3.14
22.09,-3.12
22.31,-3.11
22.54,-3.10
22.76,-3.08
22.99,-3.07
23.22,-3.05
23.45,-3.03
23.69,-3.01
23.92,-3.00
24.16,-2.96
24.40,-2.93
24.65,-2.90
24.89,-2.87
25.14,-2.84
25.39,-2.82
25.65,-2.80
25.91,-2.78
26.16,-2.77
26.43,-2.75
26.69,-2.73
26.96,-2.71
27.23,-2.68
27.50,-2.66
27.77,-2.63
28.05,-2.60
28.33,-2.54
28.62,-2.48
28.90,-2.42
29.19,-2.41
29.48,-2.42
29.78,-2.43
30.08,-2.43
30.38,-2.42
30.68,-2.40
30.99,-2.39
31.30,-2.37
31.61,-2.36
31.93,-2.34
32.24,-2.30
32.57,-2.27
32.89,-2.23
33.22,-2.21
33.55,-2.19
33.89,-2.18
34.23,-2.18
34.57,-2.18
34.92,-2.19
35.27,-2.16
35.62,-2.12
35.97,-2.08
36.33,-2.08
36.70,-2.08
37.06,-2.07
37.43,-2.06
37.81,-2.05
38.19,-2.04
38.57,-2.03
38.95,-2.02
39.34,-1.99
39.74,-1.95
40.14,-1.92
40.54,-1.91
40.94,-1.89
41.35,-1.89
41.76,-1.88
42.18,-1.87
42.60,-1.85
43.03,-1.83
43.46,-1.82
43.90,-1.81
44.33,-1.79
44.78,-1.78
45.23,-1.78
45.68,-1.78
46.13,-1.78
46.60,-1.78
47.06,-1.77
47.53,-1.75
48.01,-1.72
48.49,-1.73
48.97,-1.74
49.46,-1.75
49.96,-1.77
50.46,-1.77
50.96,-1.77
51.47,-1.77
51.99,-1.77
52.51,-1.77
53.03,-1.77
53.56,-1.79
54.10,-1.80
54.64,-1.78
55.18,-1.77
55.74,-1.77
56.29,-1.77
56.86,-1.76
57.42,-1.77
58.00,-1.80
58.58,-1.81
59.16,-1.82
59.76,-1.83
60.35,-1.84
60.96,-1.84
61.57,-1.82
62.18,-1.81
62.80,-1.83
63.43,-1.86
64.07,-1.88
64.71,-1.88
65.35,-1.88
66.01,-1.88
66.67,-1.88
67.33,-1.90
68.01,-1.96
68.69,-1.96
69.37,-1.93
70.07,-1.88
70.77,-1.88
71.48,-1.91
72.19,-1.94
72.91,-1.93
73.64,-1.91
74.38,-1.86
75.12,-1.79
75.87,-1.78
76.63,-1.79
77.40,-1.74
78.17,-1.65
78.95,-1.66
79.74,-1.64
80.54,-1.62
81.35,-1.61
82.16,-1.58
82.98,-1.61
83.81,-1.59
84.65,-1.51
85.50,-1.47
86.35,-1.47
87.22,-1.48
88.09,-1.48
88.97,-1.38
89.86,-1.36
90.76,-1.38
91.66,-1.34
92.58,-1.32
93.51,-1.32
94.44,-1.33
95.39,-1.33
96.34,-1.27
97.30,-1.21
98.28,-1.23
99.26,-1.25
100.25,-1.24
101.25,-1.22
102.27,-1.25
103.29,-1.23
104.32,-1.20
105.37,-1.19
106.42,-1.22
107.48,-1.23
108.56,-1.18
109.64,-1.19
110.74,-1.24
111.85,-1.20
112.97,-1.19
114.10,-1.14
115.24,-1.14
116.39,-1.17
117.55,-1.16
118.73,-1.03
119.92,-0.94
121.12,-0.91
122.33,-0.84
123.55,-0.80
124.79,-0.83
126.03,-0.82
127.29,-0.72
128.57,-0.63
129.85,-0.61
131.15,-0.62
132.46,-0.56
133.79,-0.51
135.12,-0.52
136.48,-0.47
137.84,-0.42
139.22,-0.40
140.61,-0.41
142.02,-0.42
143.44,-0.36
144.87,-0.36
146.32,-0.40
147.78,-0.40
149.26,-0.41
150.75,-0.44
152.26,-0.50
153.78,-0.57
155.32,-0.73
156.88,-0.91
158.44,-1.06
160.03,-1.20
161.63,-1.29
163.24,-1.37
164.88,-1.47
166.53,-1.50
168.19,-1.47
169.87,-1.41
171.57,-1.31
173.29,-1.26
175.02,-1.22
176.77,-1.19
178.54,-1.09
180.32,-0.96
182.13,-0.94
183.95,-0.97
185.79,-0.92
187.65,-0.91
189.52,-0.99
191.42,-1.00
193.33,-0.98
195.27,-0.99
197.22,-1.00
199.19,-1.01
201.18,-1.06
203.19,-1.12
205.23,-1.11
207.28,-1.10
209.35,-1.11
211.44,-1.15
213.56,-1.14
215.69,-1.15
217.85,-1.31
220.03,-1.32
222.23,-1.34
224.45,-1.44
226.70,-1.48
228.96,-1.52
231.25,-1.59
233.57,-1.60
235.90,-1.59
238.26,-1.52
240.64,-1.48
243.05,-1.52
245.48,-1.53
247.93,-1.56
250.41,-1.56
252.92,-1.52
255.45,-1.52
258.00,-1.55
260.58,-1.55
263.19,-1.54
265.82,-1.54
268.48,-1.54
271.16,-1.55
273.87,-1.50
276.61,-1.43
279.38,-1.49
282.17,-1.53
284.99,-1.56
287.84,-1.57
290.72,-1.37
293.63,-1.29
296.57,-1.32
299.53,-1.36
302.53,-1.37
305.55,-1.35
308.61,-1.28
311.69,-1.13
314.81,-1.13
317.96,-1.14
321.14,-1.16
324.35,-1.09
327.59,-1.04
330.87,-0.95
334.18,-0.92
337.52,-0.96
340.90,-0.97
344.30,-0.94
347.75,-0.91
351.23,-0.90
354.74,-0.90
358.28,-0.88
361.87,-0.71
365.49,-0.65
369.14,-0.66
372.83,-0.67
376.56,-0.68
380.33,-0.58
384.13,-0.54
387.97,-0.50
391.85,-0.49
395.77,-0.46
399.73,-0.45
403.72,-0.45
407.76,-0.41
411.84,-0.35
415.96,-0.30
420.12,-0.28
424.32,-0.31
428.56,-0.36
432.85,-0.46
437.18,-0.53
441.55,-0.49
445.96,-0.46
450.42,-0.45
454.93,-0.41
459.48,-0.33
464.07,-0.31
468.71,-0.31
473.40,-0.34
478.13,-0.38
482.91,-0.39
487.74,-0.47
492.62,-0.55
497.55,-0.66
502.52,-0.79
507.55,-0.86
512.62,-0.90
517.75,-0.93
522.93,-0.93
528.16,-1.02
533.44,-1.04
538.77,-1.04
544.16,-1.08
549.60,-1.09
555.10,-1.13
560.65,-1.16
566.25,-1.18
571.92,-1.22
577.64,-1.26
583.41,-1.24
589.25,-1.21
595.14,-1.18
601.09,-1.16
607.10,-1.15
613.17,-1.14
619.30,-1.12
625.50,-1.05
631.75,-1.00
638.07,-0.93
644.45,-0.89
650.89,-0.85
657.40,-0.80
663.98,-0.75
670.62,-0.70
677.32,-0.65
684.10,-0.60
690.94,-0.53
697.85,-0.48
704.83,-0.40
711.87,-0.36
718.99,-0.37
726.18,-0.35
733.44,-0.35
740.78,-0.38
748.19,-0.39
755.67,-0.39
763.23,-0.37
770.86,-0.38
778.57,-0.39
786.35,-0.36
794.22,-0.35
802.16,-0.35
810.18,-0.33
818.28,-0.30
826.46,-0.26
834.73,-0.20
843.08,-0.18
851.51,-0.19
860.02,-0.15
868.62,-0.13
877.31,-0.11
886.08,-0.11
894.94,-0.12
903.89,-0.13
912.93,-0.13
922.06,-0.13
931.28,-0.10
940.59,-0.09
950.00,-0.09
959.50,-0.08
969.09,-0.03
978.78,-0.01
988.57,0.00
998.46,0.00
1008.44,-0.01
1018.53,0.00
1028.71,0.03
1039.00,0.06
1049.39,0.09
1059.88,0.13
1070.48,0.16
1081.19,0.17
1092.00,0.18
1102.92,0.23
1113.95,0.30
1125.09,0.34
1136.34,0.38
1147.70,0.42
1159.18,0.44
1170.77,0.45
1182.48,0.47
1194.30,0.51
1206.25,0.52
1218.31,0.54
1230.49,0.53
1242.80,0.60
1255.22,0.68
1267.78,0.69
1280.45,0.72
1293.26,0.75
1306.19,0.78
1319.25,0.81
1332.45,0.82
1345.77,0.83
1359.23,0.87
1372.82,0.88
1386.55,0.92
1400.41,0.96
1414.42,1.01
1428.56,1.00
1442.85,0.98
1457.28,0.99
1471.85,1.02
1486.57,1.06
1501.43,1.04
1516.45,1.09
1531.61,1.14
1546.93,1.12
1562.40,1.13
1578.02,1.17
1593.80,1.23
1609.74,1.27
1625.84,1.31
1642.10,1.36
1658.52,1.41
1675.10,1.42
1691.85,1.44
1708.77,1.44
1725.86,1.42
1743.12,1.39
1760.55,1.43
1778.15,1.49
1795.94,1.49
1813.90,1.52
1832.03,1.54
1850.36,1.56
1868.86,1.55
1887.55,1.56
1906.42,1.55
1925.49,1.57
1944.74,1.63
1964.19,1.60
1983.83,1.61
2003.67,1.58
2023.71,1.53
2043.94,1.47
2064.38,1.44
2085.03,1.39
2105.88,1.27
2126.94,1.17
2148.20,1.09
2169.69,0.98
2191.38,0.91
2213.30,0.86
2235.43,0.77
2257.78,0.72
2280.36,0.77
2303.17,0.82
2326.20,0.82
2349.46,0.83
2372.95,0.96
2396.68,1.13
2420.65,1.32
2444.86,1.51
2469.31,1.70
2494.00,1.90
2518.94,2.15
2544.13,2.36
2569.57,2.58
2595.27,2.90
2621.22,3.20
2647.43,3.43
2673.90,3.62
2700.64,3.92
2727.65,4.25
2754.93,4.49
2782.48,4.72
2810.30,4.98
2838.40,5.19
2866.79,5.35
2895.46,5.48
2924.41,5.63
2953.65,5.75
2983.19,6.01
3013.02,6.23
3043.15,6.35
3073.58,6.49
3104.32,6.68
3135.36,6.85
3166.72,7.00
3198.38,7.11
3230.37,7.19
3262.67,7.19
3295.30,7.26
3328.25,7.40
3361.53,7.48
3395.15,7.48
3429.10,7.51
3463.39,7.55
3498.03,7.49
3533.01,7.45
3568.34,7.41
3604.02,7.26
3640.06,6.86
3676.46,6.42
3713.22,5.80
3750.36,4.90
3787.86,3.85
3825.74,2.61
3864.00,0.92
3902.64,-0.59
3941.66,-2.45
3981.08,-3.32
4020.89,-3.77
4061.10,-4.07
4101.71,-2.88
4142.73,-1.74
4184.15,-0.65
4226.00,0.46
4268.26,1.00
4310.94,1.31
4354.05,1.57
4397.59,1.68
4441.56,1.74
4485.98,1.74
4530.84,1.70
4576.15,1.65
4621.91,1.57
4668.13,1.44
4714.81,1.23
4761.96,1.04
4809.58,0.83
4857.67,0.56
4906.25,0.34
4955.31,0.14
5004.87,-0.15
5054.91,-0.51
5105.46,-0.80
5156.52,-1.17
5208.08,-1.52
5260.16,-1.81
5312.77,-2.04
5365.89,-2.23
5419.55,-2.40
5473.75,-2.58
5528.49,-2.83
5583.77,-3.04
5639.61,-3.21
5696.00,-3.44
5752.96,-3.63
5810.49,-3.83
5868.60,-3.94
5927.28,-3.84
5986.56,-3.71
6046.42,-3.54
6106.89,-3.14
6167.96,-2.68
6229.64,-2.08
6291.93,-1.68
6354.85,-1.43
6418.40,-1.30
6482.58,-1.38
6547.41,-1.31
6612.88,-0.87
6679.01,-0.73
6745.80,-0.62
6813.26,0.16
6881.39,0.68
6950.21,1.36
7019.71,2.32
7089.91,2.98
7160.81,3.60
7232.41,4.12
7304.74,4.43
7377.79,4.72
7451.56,4.89
7526.08,5.00
7601.34,5.12
7677.35,5.21
7754.13,5.36
7831.67,5.62
7909.98,5.89
7989.08,6.17
8068.98,6.66
8149.67,7.06
8231.16,7.49
8313.47,8.05
8396.61,8.51
8480.57,8.91
8565.38,9.00
8651.03,8.81
8737.54,8.61
8824.92,8.84
8913.17,8.79
9002.30,8.73
9092.32,8.71
9183.25,8.60
9275.08,8.33
9367.83,8.06
9461.51,7.75
9556.12,7.41
9651.68,7.11
9748.20,6.75
9845.68,6.17
9944.14,5.65
10043.58,4.95
10144.02,4.62
10245.46,4.40
10347.91,4.19
10451.39,3.97
10555.91,3.81
10661.46,3.54
10768.08,3.08
10875.76,2.65
10984.52,2.25
11094.36,1.58
11205.31,0.75
11317.36,0.01
11430.53,-0.75
11544.84,-1.58
11660.29,-2.37
11776.89,-3.15
11894.66,-4.08
12013.60,-5.05
12133.74,-5.78
12255.08,-6.67
12377.63,-7.58
12501.41,-8.26
12626.42,-8.73
12752.68,-8.84
12880.21,-9.65
13009.01,-10.37
13139.10,-10.79
13270.49,-10.86
13403.20,-10.67
13537.23,-10.49
13672.60,-10.25
13809.33,-10.35
13947.42,-10.24
14086.90,-10.39
14227.77,-10.70
14370.04,-11.00
14513.74,-11.20
14658.88,-11.15
14805.47,-11.19
14953.52,-11.51
15103.06,-12.09
15254.09,-13.22
15406.63,-14.14
15560.70,-15.28
15716.30,-15.92
15873.47,-16.61
16032.20,-17.85
16192.52,-19.25
16354.45,-20.71
16517.99,-22.03
16683.17,-22.89
16850.01,-23.57
17018.51,-25.74
17188.69,-25.16
17360.58,-23.86
17534.18,-22.30
17709.53,-20.70
17886.62,-19.16
18065.49,-17.82
18246.14,-16.55
18428.60,-16.21
18612.89,-17.18
18799.02,-17.97
18987.01,-19.60
19176.88,-21.17
19368.65,-22.51
19562.33,-25.67
19757.96,-22.22
19955.54,-20.65
