frequency,raw
20.00,-8.68
20.20,-8.63
20.40,-8.57
20.61,-8.52
20.81,-8.47
21.02,-8.41
21.23,-8.33
21.44,-8.25
21.66,-8.17
21.87,-8.10
22.09,-8.02
22.31,-7.94
22.54,-7.85
22.76,-7.77
22.99,-7.69
23.22,-7.62
23.45,-7.54
23.69,-7.47
23.92,-7.39
24.16,-7.32
24.40,-7.24
24.65,-7.16
24.89,-7.08
25.14,-7.02
25.39,-6.98
25.65,-6.93
25.91,-6.89
26.16,-6.82
26.43,-6.75
26.69,-6.68
26.96,-6.61
27.23,-6.54
27.50,-6.46
27.77,-6.39
28.05,-6.31
28.33,-6.23
28.62,-6.14
28.90,-6.05
29.19,-5.96
29.48,-5.88
29.78,-5.79
30.08,-5.72
30.38,-5.66
30.68,-5.60
30.99,-5.54
31.30,-5.48
31.61,-5.42
31.93,-5.35
32.24,-5.29
32.57,-5.22
32.89,-5.15
33.22,-5.09
33.55,-5.04
33.89,-4.98
34.23,-4.91
34.57,-4.85
34.92,-4.78
35.27,-4.73
35.62,-4.69
35.97,-4.64
36.33,-4.63
36.70,-4.61
37.06,-4.59
37.43,-4.50
37.81,-4.42
38.19,-4.35
38.57,-4.29
38.95,-4.24
39.34,-4.17
39.74,-4.10
40.14,-4.03
40.54,-3.94
40.94,-3.84
41.35,-3.84
41.76,-3.85
42.18,-3.83
42.60,-3.79
43.03,-3.75
43.46,-3.75
43.90,-3.75
44.33,-3.75
44.78,-3.75
45.23,-3.75
45.68,-3.75
46.13,-3.72
46.60,-3.63
47.06,-3.55
47.53,-3.58
48.01,-3.61
48.49,-3.58
48.97,-3.55
49.46,-3.55
49.96,-3.55
50.46,-3.61
50.96,-3.68
51.47,-3.72
51.99,-3.75
52.51,-3.75
53.03,-3.75
53.56,-3.75
54.10,-3.75
54.64,-3.75
55.18,-3.75
55.74,-3.75
56.29,-3.75
56.86,-3.75
57.42,-3.75
58.00,-3.75
58.58,-3.69
59.16,-3.63
59.76,-3.57
60.35,-3.55
60.96,-3.55
61.57,-3.58
62.18,-3.63
62.80,-3.69
63.43,-3.75
64.07,-3.82
64.71,-3.92
65.35,-4.02
66.01,-4.11
66.67,-4.20
67.33,-4.31
68.01,-4.44
68.69,-4.67
69.37,-4.89
70.07,-5.11
70.77,-5.34
71.48,-5.53
72.19,-5.69
72.91,-5.86
73.64,-5.90
74.38,-5.89
75.12,-5.84
75.87,-5.73
76.63,-5.63
77.40,-5.57
78.17,-5.57
78.95,-5.59
79.74,-5.64
80.54,-5.76
81.35,-5.93
82.16,-6.17
82.98,-6.45
83.81,-6.61
84.65,-6.84
85.50,-7.10
86.35,-7.31
87.22,-7.42
88.09,-7.41
88.97,-7.29
89.86,-7.17
90.76,-6.98
91.66,-6.48
92.58,-5.92
93.51,-5.33
94.44,-4.59
95.39,-3.88
96.34,-3.34
97.30,-2.65
98.28,-1.80
99.26,-1.09
100.25,-0.49
101.25,0.19
102.27,0.80
103.29,1.16
104.32,1.63
105.37,2.14
106.42,2.18
107.48,2.11
108.56,2.16
109.64,2.50
110.74,2.76
111.85,2.70
112.97,2.75
114.10,2.66
115.24,2.79
116.39,3.07
117.55,3.32
118.73,3.47
119.92,3.76
121.12,3.64
122.33,3.65
123.55,3.81
124.79,4.00
126.03,4.08
127.29,4.21
128.57,4.35
129.85,4.48
131.15,4.61
132.46,4.48
133.79,4.49
135.12,4.66
136.48,4.61
137.84,4.67
139.22,4.52
140.61,4.44
142.02,4.54
143.44,4.51
144.87,4.39
146.32,4.28
147.78,4.29
149.26,4.26
150.75,4.10
152.26,4.03
153.78,3.93
155.32,3.74
156.88,3.49
158.44,3.30
160.03,3.15
161.63,2.92
163.24,2.75
164.88,2.59
166.53,2.69
168.19,3.10
169.87,3.45
171.57,3.97
173.29,4.42
175.02,4.70
176.77,4.81
178.54,4.87
180.32,4.84
182.13,4.79
183.95,4.73
185.79,4.71
187.65,4.66
189.52,4.57
191.42,4.50
193.33,4.47
195.27,4.48
197.22,4.46
199.19,4.36
201.18,4.31
203.19,4.31
205.23,4.31
207.28,4.31
209.35,4.29
211.44,4.23
213.56,4.20
215.69,4.20
217.85,4.12
220.03,4.06
222.23,4.01
224.45,3.92
226.70,3.87
228.96,3.79
231.25,3.74
233.57,3.70
235.90,3.59
238.26,3.53
240.64,3.47
243.05,3.43
245.48,3.40
247.93,3.34
250.41,3.43
252.92,3.46
255.45,3.47
258.00,3.48
260.58,3.44
263.19,3.38
265.82,3.28
268.48,3.28
271.16,3.24
273.87,3.16
276.61,3.08
279.38,3.05
282.17,3.07
284.99,3.01
287.84,2.88
290.72,2.89
293.63,2.81
296.57,2.77
299.53,2.71
302.53,2.73
305.55,2.73
308.61,2.59
311.69,2.55
314.81,2.57
317.96,2.59
321.14,2.52
324.35,2.38
327.59,2.35
330.87,2.35
334.18,2.28
337.52,2.23
340.90,2.19
344.30,2.15
347.75,2.01
351.23,1.94
354.74,1.95
358.28,1.98
361.87,1.92
365.49,1.78
369.14,1.78
372.83,1.75
376.56,1.71
380.33,1.64
384.13,1.61
387.97,1.61
391.85,1.60
395.77,1.54
399.73,1.47
403.72,1.43
407.76,1.41
411.84,1.31
415.96,1.29
420.12,1.29
424.32,1.22
428.56,1.13
432.85,1.11
437.18,1.16
441.55,1.15
445.96,1.15
450.42,1.12
454.93,1.15
459.48,1.21
464.07,1.28
468.71,1.30
473.40,1.30
478.13,1.29
482.91,1.30
487.74,1.31
492.62,1.25
497.55,1.26
502.52,1.31
507.55,1.39
512.62,1.37
517.75,1.18
522.93,1.11
528.16,1.14
533.44,1.14
538.77,1.05
544.16,0.96
549.60,0.84
555.10,0.77
560.65,0.72
566.25,0.67
571.92,0.63
577.64,0.51
583.41,0.46
589.25,0.37
595.14,0.33
601.09,0.34
607.10,0.35
613.17,0.36
619.30,0.38
625.50,0.41
631.75,0.31
638.07,0.36
644.45,0.42
650.89,0.37
657.40,0.39
663.98,0.44
670.62,0.49
677.32,0.54
684.10,0.59
690.94,0.63
697.85,0.66
704.83,0.68
711.87,0.70
718.99,0.72
726.18,0.70
733.44,0.64
740.78,0.50
748.19,0.35
755.67,0.15
763.23,-0.03
770.86,-0.16
778.57,-0.31
786.35,-0.47
794.22,-0.52
802.16,-0.53
810.18,-0.51
818.28,-0.42
826.46,-0.40
834.73,-0.40
843.08,-0.40
851.51,-0.32
860.02,-0.22
868.62,-0.21
877.31,-0.14
886.08,-0.13
894.94,-0.13
903.89,-0.06
912.93,-0.05
922.06,-0.05
931.28,0.02
940.59,0.05
950.00,0.05
959.50,0.06
969.09,0.06
978.78,0.03
988.57,0.00
998.46,0.00
1008.44,0.01
1018.53,0.04
1028.71,0.06
1039.00,0.02
1049.39,-0.01
1059.88,-0.02
1070.48,0.01
1081.19,0.06
1092.00,0.11
1102.92,0.17
1113.95,0.22
1125.09,0.17
1136.34,0.18
1147.70,0.25
1159.18,0.30
1170.77,0.27
1182.48,0.26
1194.30,0.25
1206.25,0.33
1218.31,0.40
1230.49,0.41
1242.80,0.46
1255.22,0.51
1267.78,0.51
1280.45,0.63
1293.26,0.75
1306.19,0.78
1319.25,0.84
1332.45,0.87
1345.77,0.98
1359.23,1.10
1372.82,1.13
1386.55,1.13
1400.41,1.17
1414.42,1.29
1428.56,1.43
1442.85,1.50
1457.28,1.58
1471.85,1.69
1486.57,1.79
1501.43,1.91
1516.45,2.05
1531.61,2.14
1546.93,2.22
1562.40,2.33
1578.02,2.47
1593.80,2.68
1609.74,2.78
1625.84,2.87
1642.10,3.05
1658.52,3.19
1675.10,3.33
1691.85,3.47
1708.77,3.63
1725.86,3.81
1743.12,4.03
1760.55,4.16
1778.15,4.31
1795.94,4.45
1813.90,4.57
1832.03,4.73
1850.36,4.92
1868.86,5.05
1887.55,5.16
1906.42,5.29
1925.49,5.48
1944.74,5.69
1964.19,5.80
1983.83,5.92
2003.67,6.04
2023.71,6.17
2043.94,6.30
2064.38,6.42
2085.03,6.56
2105.88,6.68
2126.94,6.71
2148.20,6.87
2169.69,7.09
2191.38,7.23
2213.30,7.28
2235.43,7.33
2257.78,7.40
2280.36,7.48
2303.17,7.56
2326.20,7.56
2349.46,7.60
2372.95,7.65
2396.68,7.63
2420.65,7.58
2444.86,7.58
2469.31,7.55
2494.00,7.49
2518.94,7.48
2544.13,7.53
2569.57,7.66
2595.27,7.83
2621.22,7.89
2647.43,7.95
2673.90,8.00
2700.64,8.05
2727.65,8.09
2754.93,8.12
2782.48,8.12
2810.30,8.10
2838.40,8.04
2866.79,8.03
2895.46,8.02
2924.41,7.97
2953.65,7.92
2983.19,7.95
3013.02,7.98
3043.15,8.06
3073.58,8.15
3104.32,8.22
3135.36,8.29
3166.72,8.33
3198.38,8.36
3230.37,8.41
3262.67,8.38
3295.30,8.33
3328.25,8.33
3361.53,8.28
3395.15,8.21
3429.10,8.10
3463.39,8.04
3498.03,7.98
3533.01,7.83
3568.34,7.73
3604.02,7.52
3640.06,7.30
3676.46,7.03
3713.22,6.54
3750.36,6.15
3787.86,5.80
3825.74,5.41
3864.00,5.05
3902.64,4.74
3941.66,4.59
3981.08,4.37
4020.89,4.02
4061.10,3.59
4101.71,3.01
4142.73,2.40
4184.15,1.85
4226.00,1.35
4268.26,0.90
4310.94,0.55
4354.05,0.31
4397.59,0.10
4441.56,-0.11
4485.98,-0.32
4530.84,-0.59
4576.15,-0.73
4621.91,-0.87
4668.13,-1.23
4714.81,-1.52
4761.96,-1.87
4809.58,-2.12
4857.67,-2.55
4906.25,-2.79
4955.31,-3.03
5004.87,-3.26
5054.91,-3.34
5105.46,-3.37
5156.52,-3.37
5208.08,-3.39
5260.16,-3.32
5312.77,-3.13
5365.89,-3.06
5419.55,-3.07
5473.75,-3.05
5528.49,-3.04
5583.77,-3.02
5639.61,-2.91
5696.00,-2.91
5752.96,-2.80
5810.49,-2.63
5868.60,-2.35
5927.28,-2.08
5986.56,-1.86
6046.42,-1.84
6106.89,-1.75
6167.96,-1.73
6229.64,-1.79
6291.93,-1.74
6354.85,-1.70
6418.40,-1.71
6482.58,-1.58
6547.41,-1.70
6612.88,-2.16
6679.01,-2.94
6745.80,-3.82
6813.26,-4.57
6881.39,-5.19
6950.21,-5.94
7019.71,-6.41
7089.91,-6.78
7160.81,-7.45
7232.41,-7.78
7304.74,-7.67
7377.79,-7.51
7451.56,-7.23
7526.08,-7.01
7601.34,-6.74
7677.35,-6.31
7754.13,-5.89
7831.67,-5.45
7909.98,-4.91
7989.08,-4.22
8068.98,-3.52
8149.67,-2.85
8231.16,-1.94
8313.47,-0.95
8396.61,-0.35
8480.57,0.53
8565.38,0.95
8651.03,1.17
8737.54,1.34
8824.92,1.12
8913.17,0.99
9002.30,1.20
9092.32,1.57
9183.25,1.85
9275.08,2.17
9367.83,2.16
9461.51,1.82
9556.12,1.38
9651.68,0.72
9748.20,-0.04
9845.68,-0.68
9944.14,-1.27
10043.58,-2.04
10144.02,-2.54
10245.46,-2.84
10347.91,-3.16
10451.39,-3.47
10555.91,-3.72
10661.46,-3.93
10768.08,-4.52
10875.76,-4.80
10984.52,-5.08
11094.36,-5.23
11205.31,-5.15
11317.36,-5.03
11430.53,-5.12
11544.84,-5.17
11660.29,-5.14
11776.89,-5.19
11894.66,-5.17
12013.60,-5.14
12133.74,-5.42
12255.08,-5.96
12377.63,-6.69
12501.41,-7.44
12626.42,-7.97
12752.68,-7.79
12880.21,-8.07
13009.01,-8.38
13139.10,-8.35
13270.49,-8.44
13403.20,-8.18
13537.23,-8.70
13672.60,-9.19
13809.33,-9.65
13947.42,-9.93
14086.90,-9.89
14227.77,-9.91
14370.04,-9.78
14513.74,-10.45
14658.88,-11.05
14805.47,-11.21
14953.52,-11.56
15103.06,-12.38
15254.09,-12.96
15406.63,-13.60
15560.70,-14.97
15716.30,-16.00
15873.47,-17.30
16032.20,-19.55
16192.52,-21.11
16354.45,-23.15
16517.99,-24.19
16683.17,-24.86
16850.01,-25.34
17018.51,-25.55
17188.69,-25.10
17360.58,-24.70
17534.18,-24.25
17709.53,-23.39
17886.62,-22.60
18065.49,-22.18
18246.14,-21.83
18428.60,-21.39
18612.89,-20.77
18799.02,-20.42
18987.01,-20.44
19176.88,-20.67
19368.65,-21.18
19562.33,-20.67
19757.96,-20.42
19955.54,-20.21
