frequency,raw
20.00,-5.30
20.20,-5.27
20.40,-5.23
20.61,-5.20
20.81,-5.17
21.02,-5.14
21.23,-5.09
21.44,-5.04
21.66,-4.99
21.87,-4.95
22.09,-4.89
22.31,-4.82
22.54,-4.75
22.76,-4.67
22.99,-4.60
23.22,-4.51
23.45,-4.41
23.69,-4.32
23.92,-4.22
24.16,-4.17
24.40,-4.13
24.65,-4.10
24.89,-4.06
25.14,-4.00
25.39,-3.91
25.65,-3.83
25.91,-3.74
26.16,-3.67
26.43,-3.62
26.69,-3.56
26.96,-3.50
27.23,-3.40
27.50,-3.29
27.77,-3.18
28.05,-3.09
28.33,-3.09
28.62,-3.08
28.90,-3.08
29.19,-3.07
29.48,-3.05
29.78,-3.03
30.08,-2.98
30.38,-2.87
30.68,-2.76
30.99,-2.65
31.30,-2.64
31.61,-2.62
31.93,-2.60
32.24,-2.64
32.57,-2.69
32.89,-2.74
33.22,-2.67
33.55,-2.55
33.89,-2.42
34.23,-2.38
34.57,-2.39
34.92,-2.39
35.27,-2.33
35.62,-2.24
35.97,-2.16
36.33,-2.13
36.70,-2.10
37.06,-2.08
37.43,-2.10
37.81,-2.11
38.19,-2.04
38.57,-1.89
38.95,-1.74
39.34,-1.81
39.74,-1.92
40.14,-1.93
40.54,-1.74
40.94,-1.55
41.35,-1.63
41.76,-1.77
42.18,-1.79
42.60,-1.68
43.03,-1.57
43.46,-1.60
43.90,-1.63
44.33,-1.60
44.78,-1.55
45.23,-1.51
45.68,-1.49
46.13,-1.47
46.60,-1.48
47.06,-1.46
47.53,-1.30
48.01,-1.15
48.49,-1.27
48.97,-1.38
49.46,-1.29
49.96,-1.19
50.46,-1.07
50.96,-0.96
51.47,-1.04
51.99,-1.14
52.51,-1.05
53.03,-0.97
53.56,-1.03
54.10,-1.03
54.64,-0.81
55.18,-0.69
55.74,-0.74
56.29,-0.80
56.86,-0.86
57.42,-0.78
58.00,-0.67
58.58,-0.67
59.16,-0.65
59.76,-0.59
60.35,-0.53
60.96,-0.47
61.57,-0.47
62.18,-0.47
62.80,-0.47
63.43,-0.47
64.07,-0.47
64.71,-0.46
65.35,-0.47
66.01,-0.50
66.67,-0.65
67.33,-0.69
68.01,-0.63
68.69,-0.71
69.37,-0.84
70.07,-1.02
70.77,-1.09
71.48,-1.14
72.19,-1.16
72.91,-1.12
73.64,-1.21
74.38,-1.27
75.12,-1.26
75.87,-1.18
76.63,-1.07
77.40,-0.98
78.17,-0.92
78.95,-0.82
79.74,-0.71
80.54,-0.56
81.35,-0.44
82.16,-0.37
82.98,-0.24
83.81,-0.18
84.65,-0.14
85.50,-0.10
86.35,-0.07
87.22,-0.08
88.09,-0.08
88.97,0.12
89.86,0.17
90.76,0.15
91.66,0.14
92.58,0.13
93.51,0.11
94.44,0.16
95.39,0.23
96.34,0.24
97.30,0.25
98.28,0.30
99.26,0.33
100.25,0.28
101.25,0.26
102.27,0.32
103.29,0.33
104.32,0.33
105.37,0.31
106.42,0.28
107.48,0.26
108.56,0.23
109.64,0.20
110.74,0.18
111.85,0.22
112.97,0.27
114.10,0.26
115.24,0.26
116.39,0.26
117.55,0.26
118.73,0.27
119.92,0.32
121.12,0.40
122.33,0.39
123.55,0.38
124.79,0.39
126.03,0.39
127.29,0.47
128.57,0.53
129.85,0.53
131.15,0.48
132.46,0.52
133.79,0.55
135.12,0.55
136.48,0.55
137.84,0.56
139.22,0.56
140.61,0.56
142.02,0.56
143.44,0.56
144.87,0.56
146.32,0.56
147.78,0.56
149.26,0.56
150.75,0.58
152.26,0.63
153.78,0.66
155.32,0.66
156.88,0.62
158.44,0.58
160.03,0.56
161.63,0.56
163.24,0.50
164.88,0.46
166.53,0.48
168.19,0.53
169.87,0.59
171.57,0.62
173.29,0.63
175.02,0.62
176.77,0.62
178.54,0.62
180.32,0.62
182.13,0.63
183.95,0.64
185.79,0.65
187.65,0.66
189.52,0.68
191.42,0.69
193.33,0.70
195.27,0.72
197.22,0.73
199.19,0.75
201.18,0.75
203.19,0.76
205.23,0.76
207.28,0.76
209.35,0.76
211.44,0.76
213.56,0.75
215.69,0.75
217.85,0.74
220.03,0.74
222.23,0.74
224.45,0.74
226.70,0.74
228.96,0.74
231.25,0.75
233.57,0.75
235.90,0.68
238.26,0.69
240.64,0.71
243.05,0.72
245.48,0.74
247.93,0.77
250.41,0.79
252.92,0.80
255.45,0.79
258.00,0.74
260.58,0.73
263.19,0.73
265.82,0.73
268.48,0.72
271.16,0.72
273.87,0.72
276.61,0.71
279.38,0.71
282.17,0.72
284.99,0.72
287.84,0.73
290.72,0.74
293.63,0.67
296.57,0.63
299.53,0.59
302.53,0.59
305.55,0.60
308.61,0.61
311.69,0.62
314.81,0.62
317.96,0.62
321.14,0.62
324.35,0.62
327.59,0.62
330.87,0.62
334.18,0.62
337.52,0.56
340.90,0.52
344.30,0.51
347.75,0.51
351.23,0.52
354.74,0.50
358.28,0.44
361.87,0.43
365.49,0.43
369.14,0.44
372.83,0.41
376.56,0.36
380.33,0.36
384.13,0.37
387.97,0.37
391.85,0.38
395.77,0.38
399.73,0.38
403.72,0.37
407.76,0.37
411.84,0.37
415.96,0.29
420.12,0.25
424.32,0.27
428.56,0.22
432.85,0.14
437.18,0.02
441.55,-0.02
445.96,0.01
450.42,0.01
454.93,0.01
459.48,0.02
464.07,-0.03
468.71,-0.01
473.40,0.07
478.13,0.20
482.91,0.26
487.74,0.29
492.62,0.34
497.55,0.46
502.52,0.52
507.55,0.51
512.62,0.52
517.75,0.52
522.93,0.52
528.16,0.51
533.44,0.50
538.77,0.47
544.16,0.43
549.60,0.38
555.10,0.33
560.65,0.28
566.25,0.23
571.92,0.19
577.64,0.15
583.41,0.13
589.25,0.11
595.14,0.09
601.09,-0.04
607.10,-0.03
613.17,0.02
619.30,0.09
625.50,0.08
631.75,0.01
638.07,0.03
644.45,0.07
650.89,0.11
657.40,0.16
663.98,0.21
670.62,0.28
677.32,0.34
684.10,0.28
690.94,0.29
697.85,0.33
704.83,0.34
711.87,0.35
718.99,0.35
726.18,0.34
733.44,0.26
740.78,0.18
748.19,0.15
755.67,0.12
763.23,0.09
770.86,0.08
778.57,0.06
786.35,0.13
794.22,0.17
802.16,0.16
810.18,0.15
818.28,0.16
826.46,0.25
834.73,0.27
843.08,0.27
851.51,0.27
860.02,0.26
868.62,0.25
877.31,0.25
886.08,0.30
894.94,0.33
903.89,0.28
912.93,0.23
922.06,0.22
931.28,0.22
940.59,0.14
950.00,0.09
959.50,-0.03
969.09,-0.07
978.78,-0.06
988.57,-0.05
998.46,-0.01
1008.44,0.07
1018.53,0.10
1028.71,0.02
1039.00,-0.03
1049.39,-0.04
1059.88,-0.08
1070.48,-0.16
1081.19,-0.19
1092.00,-0.18
1102.92,-0.16
1113.95,-0.10
1125.09,-0.08
1136.34,-0.06
1147.70,0.01
1159.18,-0.05
1170.77,-0.08
1182.48,-0.03
1194.30,0.01
1206.25,0.04
1218.31,0.04
1230.49,-0.02
1242.80,-0.01
1255.22,-0.02
1267.78,-0.07
1280.45,-0.07
1293.26,-0.06
1306.19,-0.06
1319.25,0.02
1332.45,0.10
1345.77,0.18
1359.23,0.23
1372.82,0.25
1386.55,0.28
1400.41,0.33
1414.42,0.34
1428.56,0.37
1442.85,0.41
1457.28,0.37
1471.85,0.43
1486.57,0.54
1501.43,0.64
1516.45,0.65
1531.61,0.67
1546.93,0.77
1562.40,0.84
1578.02,0.91
1593.80,1.01
1609.74,1.13
1625.84,1.19
1642.10,1.34
1658.52,1.43
1675.10,1.59
1691.85,1.68
1708.77,1.79
1725.86,1.99
1743.12,2.16
1760.55,2.30
1778.15,2.41
1795.94,2.44
1813.90,2.53
1832.03,2.64
1850.36,2.75
1868.86,2.90
1887.55,3.02
1906.42,3.10
1925.49,3.19
1944.74,3.24
1964.19,3.30
1983.83,3.22
2003.67,3.21
2023.71,3.36
2043.94,3.49
2064.38,3.66
2085.03,3.75
2105.88,3.84
2126.94,3.91
2148.20,4.00
2169.69,4.10
2191.38,4.31
2213.30,4.49
2235.43,4.58
2257.78,4.65
2280.36,4.73
2303.17,4.77
2326.20,4.77
2349.46,4.84
2372.95,4.94
2396.68,5.12
2420.65,5.20
2444.86,5.32
2469.31,5.37
2494.00,5.54
2518.94,5.70
2544.13,5.88
2569.57,6.27
2595.27,6.64
2621.22,6.88
2647.43,7.01
2673.90,7.13
2700.64,7.37
2727.65,7.63
2754.93,7.92
2782.48,8.14
2810.30,8.26
2838.40,8.26
2866.79,8.21
2895.46,8.24
2924.41,8.50
2953.65,8.66
2983.19,8.75
3013.02,8.89
3043.15,9.07
3073.58,9.27
3104.32,9.40
3135.36,9.55
3166.72,9.61
3198.38,9.56
3230.37,9.57
3262.67,9.52
3295.30,9.53
3328.25,9.61
3361.53,9.61
3395.15,9.52
3429.10,9.52
3463.39,9.46
3498.03,9.33
3533.01,9.25
3568.34,9.23
3604.02,9.19
3640.06,9.09
3676.46,8.89
3713.22,8.58
3750.36,8.32
3787.86,7.90
3825.74,7.67
3864.00,7.56
3902.64,7.42
3941.66,7.26
3981.08,7.02
4020.89,6.81
4061.10,6.69
4101.71,6.57
4142.73,6.41
4184.15,6.18
4226.00,5.92
4268.26,5.67
4310.94,5.44
4354.05,5.24
4397.59,5.05
4441.56,4.87
4485.98,4.67
4530.84,4.41
4576.15,4.20
4621.91,4.03
4668.13,3.72
4714.81,3.52
4761.96,3.41
4809.58,3.24
4857.67,3.07
4906.25,2.99
4955.31,2.86
5004.87,2.79
5054.91,2.82
5105.46,2.90
5156.52,3.03
5208.08,3.28
5260.16,3.50
5312.77,3.80
5365.89,4.16
5419.55,4.43
5473.75,4.71
5528.49,5.12
5583.77,5.41
5639.61,5.70
5696.00,5.90
5752.96,5.98
5810.49,6.08
5868.60,6.33
5927.28,6.33
5986.56,6.01
6046.42,5.77
6106.89,5.48
6167.96,5.18
6229.64,4.82
6291.93,4.52
6354.85,4.23
6418.40,3.89
6482.58,3.73
6547.41,3.65
6612.88,3.58
6679.01,3.37
6745.80,3.11
6813.26,2.71
6881.39,2.49
6950.21,2.41
7019.71,2.38
7089.91,2.49
7160.81,2.55
7232.41,2.54
7304.74,2.53
7377.79,2.50
7451.56,2.81
7526.08,3.07
7601.34,3.17
7677.35,3.33
7754.13,3.55
7831.67,3.76
7909.98,4.02
7989.08,4.22
8068.98,4.68
8149.67,5.08
8231.16,5.47
8313.47,6.15
8396.61,6.54
8480.57,6.89
8565.38,6.90
8651.03,6.68
8737.54,6.62
8824.92,6.91
8913.17,7.34
9002.30,7.45
9092.32,7.31
9183.25,7.17
9275.08,7.11
9367.83,6.93
9461.51,6.74
9556.12,6.44
9651.68,5.93
9748.20,5.44
9845.68,4.97
9944.14,4.50
10043.58,3.76
10144.02,2.85
10245.46,2.14
10347.91,1.39
10451.39,0.54
10555.91,-0.03
10661.46,-0.43
10768.08,-0.94
10875.76,-1.18
10984.52,-1.23
11094.36,-1.84
11205.31,-2.24
11317.36,-2.66
11430.53,-3.04
11544.84,-4.18
11660.29,-5.07
11776.89,-5.94
11894.66,-6.31
12013.60,-6.35
12133.74,-6.44
12255.08,-5.70
12377.63,-4.97
12501.41,-4.79
12626.42,-5.11
12752.68,-5.30
12880.21,-5.41
13009.01,-5.43
13139.10,-5.40
13270.49,-5.57
13403.20,-5.63
13537.23,-5.98
13672.60,-6.24
13809.33,-6.52
13947.42,-6.66
14086.90,-6.71
14227.77,-6.99
14370.04,-7.30
14513.74,-7.70
14658.88,-8.17
14805.47,-8.51
14953.52,-8.97
15103.06,-9.76
15254.09,-10.37
15406.63,-11.55
15560.70,-13.76
15716.30,-15.02
15873.47,-14.60
16032.20,-13.22
16192.52,-11.81
16354.45,-9.19
16517.99,-7.49
16683.17,-6.26
16850.01,-6.34
17018.51,-6.31
17188.69,-8.56
17360.58,-10.08
17534.18,-10.46
17709.53,-9.85
17886.62,-9.21
18065.49,-8.30
18246.14,-6.48
18428.60,-4.63
18612.89,-3.58
18799.02,-3.45
18987.01,-3.87
19176.88,-4.08
19368.65,-4.20
19562.33,-4.56
19757.96,-3.83
19955.54,-3.40
