frequency,raw
20.00,1.08
20.20,1.15
20.40,1.21
20.61,1.28
20.81,1.34
21.02,1.41
21.23,1.47
21.44,1.53
21.66,1.60
21.87,1.66
22.09,1.73
22.31,1.79
22.54,1.85
22.76,1.91
22.99,1.98
23.22,2.04
23.45,2.11
23.69,2.18
23.92,2.25
24.16,2.32
24.40,2.39
24.65,2.46
24.89,2.53
25.14,2.59
25.39,2.64
25.65,2.68
25.91,2.73
26.16,2.78
26.43,2.84
26.69,2.89
26.96,2.94
27.23,2.99
27.50,3.05
27.77,3.10
28.05,3.16
28.33,3.24
28.62,3.32
28.90,3.40
29.19,3.47
29.48,3.54
29.78,3.61
30.08,3.67
30.38,3.69
30.68,3.71
30.99,3.74
31.30,3.80
31.61,3.86
31.93,3.92
32.24,3.97
32.57,4.03
32.89,4.08
33.22,4.14
33.55,4.21
33.89,4.27
34.23,4.33
34.57,4.39
34.92,4.45
35.27,4.49
35.62,4.53
35.97,4.58
36.33,4.61
36.70,4.65
37.06,4.69
37.43,4.72
37.81,4.76
38.19,4.80
38.57,4.85
38.95,4.89
39.34,4.93
39.74,4.96
40.14,5.00
40.54,5.07
40.94,5.14
41.35,5.15
41.76,5.16
42.18,5.18
42.60,5.22
43.03,5.26
43.46,5.31
43.90,5.35
44.33,5.36
44.78,5.36
45.23,5.38
45.68,5.41
46.13,5.43
46.60,5.44
47.06,5.46
47.53,5.50
48.01,5.55
48.49,5.59
48.97,5.64
49.46,5.69
49.96,5.75
50.46,5.83
50.96,5.91
51.47,5.93
51.99,5.95
52.51,6.04
53.03,6.13
53.56,6.19
54.10,6.24
54.64,6.29
55.18,6.34
55.74,6.39
56.29,6.42
56.86,6.42
57.42,6.46
58.00,6.51
58.58,6.57
59.16,6.61
59.76,6.61
60.35,6.61
60.96,6.61
61.57,6.67
62.18,6.71
62.80,6.71
63.43,6.75
64.07,6.80
64.71,6.80
65.35,6.80
66.01,6.80
66.67,6.80
67.33,6.80
68.01,6.80
68.69,6.80
69.37,6.80
70.07,6.81
70.77,6.88
71.48,6.90
72.19,6.90
72.91,6.90
73.64,6.90
74.38,6.93
75.12,6.99
75.87,6.99
76.63,6.93
77.40,6.90
78.17,6.90
78.95,6.90
79.74,6.90
80.54,6.90
81.35,6.90
82.16,6.90
82.98,6.90
83.81,6.82
84.65,6.80
85.50,6.80
86.35,6.80
87.22,6.80
88.09,6.80
88.97,6.76
89.86,6.72
90.76,6.71
91.66,6.71
92.58,6.71
93.51,6.71
94.44,6.71
95.39,6.68
96.34,6.62
97.30,6.61
98.28,6.62
99.26,6.68
100.25,6.66
101.25,6.64
102.27,6.64
103.29,6.68
104.32,6.71
105.37,6.74
106.42,6.78
107.48,6.81
108.56,6.79
109.64,6.79
110.74,6.88
111.85,6.93
112.97,6.92
114.10,6.85
115.24,6.81
116.39,6.78
117.55,6.73
118.73,6.64
119.92,6.55
121.12,6.55
122.33,6.51
123.55,6.43
124.79,6.38
126.03,6.36
127.29,6.29
128.57,6.22
129.85,6.21
131.15,6.18
132.46,6.14
133.79,6.16
135.12,6.23
136.48,6.23
137.84,6.28
139.22,6.34
140.61,6.41
142.02,6.43
143.44,6.43
144.87,6.43
146.32,6.40
147.78,6.34
149.26,6.33
150.75,6.33
152.26,6.23
153.78,6.11
155.32,6.06
156.88,5.97
158.44,5.76
160.03,5.58
161.63,5.41
163.24,5.22
164.88,5.12
166.53,5.08
168.19,5.08
169.87,5.14
171.57,5.24
173.29,5.31
175.02,5.33
176.77,5.29
178.54,5.20
180.32,5.09
182.13,5.02
183.95,4.96
185.79,4.84
187.65,4.72
189.52,4.64
191.42,4.53
193.33,4.45
195.27,4.39
197.22,4.31
199.19,4.19
201.18,4.12
203.19,4.06
205.23,3.98
207.28,3.87
209.35,3.75
211.44,3.65
213.56,3.53
215.69,3.37
217.85,3.25
220.03,3.23
222.23,3.16
224.45,3.03
226.70,2.91
228.96,2.84
231.25,2.78
233.57,2.65
235.90,2.52
238.26,2.43
240.64,2.43
243.05,2.39
245.48,2.30
247.93,2.23
250.41,2.15
252.92,2.05
255.45,1.99
258.00,1.93
260.58,1.84
263.19,1.71
265.82,1.60
268.48,1.52
271.16,1.43
273.87,1.38
276.61,1.29
279.38,1.21
282.17,1.09
284.99,0.96
287.84,0.92
290.72,0.93
293.63,0.89
296.57,0.86
299.53,0.87
302.53,0.88
305.55,0.89
308.61,0.90
311.69,0.90
314.81,0.98
317.96,1.01
321.14,1.01
324.35,1.02
327.59,1.09
330.87,1.10
334.18,1.16
337.52,1.19
340.90,1.19
344.30,1.24
347.75,1.29
351.23,1.36
354.74,1.42
358.28,1.50
361.87,1.56
365.49,1.59
369.14,1.61
372.83,1.75
376.56,1.81
380.33,1.82
384.13,1.83
387.97,1.83
391.85,1.84
395.77,1.91
399.73,1.93
403.72,1.93
407.76,1.93
411.84,1.93
415.96,1.92
420.12,1.90
424.32,1.84
428.56,1.84
432.85,1.86
437.18,1.88
441.55,1.91
445.96,1.89
450.42,1.92
454.93,1.90
459.48,1.94
464.07,2.00
468.71,2.02
473.40,2.04
478.13,2.08
482.91,2.13
487.74,2.16
492.62,2.13
497.55,2.13
502.52,2.16
507.55,2.18
512.62,2.19
517.75,2.13
522.93,2.10
528.16,2.04
533.44,1.99
538.77,1.92
544.16,1.83
549.60,1.77
555.10,1.72
560.65,1.64
566.25,1.54
571.92,1.43
577.64,1.36
583.41,1.32
589.25,1.24
595.14,1.20
601.09,1.20
607.10,1.21
613.17,1.22
619.30,1.17
625.50,1.17
631.75,1.12
638.07,1.14
644.45,1.17
650.89,1.21
657.40,1.23
663.98,1.23
670.62,1.21
677.32,1.23
684.10,1.27
690.94,1.31
697.85,1.27
704.83,1.26
711.87,1.27
718.99,1.26
726.18,1.25
733.44,1.22
740.78,1.13
748.19,0.99
755.67,0.86
763.23,0.74
770.86,0.59
778.57,0.41
786.35,0.27
794.22,0.15
802.16,0.07
810.18,0.08
818.28,0.23
826.46,0.24
834.73,0.16
843.08,0.06
851.51,-0.06
860.02,-0.15
868.62,-0.14
877.31,-0.10
886.08,-0.10
894.94,-0.11
903.89,-0.04
912.93,-0.02
922.06,0.04
931.28,0.07
940.59,0.07
950.00,0.07
959.50,0.08
969.09,0.08
978.78,0.02
988.57,0.01
998.46,0.00
1008.44,-0.04
1018.53,-0.03
1028.71,-0.01
1039.00,0.02
1049.39,-0.01
1059.88,-0.03
1070.48,-0.04
1081.19,-0.01
1092.00,-0.06
1102.92,-0.06
1113.95,-0.06
1125.09,-0.10
1136.34,-0.13
1147.70,-0.13
1159.18,-0.10
1170.77,-0.11
1182.48,-0.15
1194.30,-0.17
1206.25,-0.17
1218.31,-0.18
1230.49,-0.22
1242.80,-0.23
1255.22,-0.22
1267.78,-0.25
1280.45,-0.24
1293.26,-0.22
1306.19,-0.25
1319.25,-0.27
1332.45,-0.33
1345.77,-0.36
1359.23,-0.43
1372.82,-0.46
1386.55,-0.49
1400.41,-0.49
1414.42,-0.53
1428.56,-0.60
1442.85,-0.62
1457.28,-0.60
1471.85,-0.62
1486.57,-0.64
1501.43,-0.73
1516.45,-0.79
1531.61,-0.84
1546.93,-0.93
1562.40,-1.00
1578.02,-1.04
1593.80,-1.08
1609.74,-1.15
1625.84,-1.18
1642.10,-1.21
1658.52,-1.24
1675.10,-1.33
1691.85,-1.39
1708.77,-1.42
1725.86,-1.46
1743.12,-1.55
1760.55,-1.66
1778.15,-1.75
1795.94,-1.86
1813.90,-1.89
1832.03,-1.98
1850.36,-2.04
1868.86,-2.09
1887.55,-2.14
1906.42,-2.18
1925.49,-2.23
1944.74,-2.27
1964.19,-2.28
1983.83,-2.24
2003.67,-2.22
2023.71,-2.15
2043.94,-2.03
2064.38,-1.91
2085.03,-1.72
2105.88,-1.50
2126.94,-1.24
2148.20,-0.91
2169.69,-0.54
2191.38,-0.18
2213.30,0.17
2235.43,0.57
2257.78,0.94
2280.36,1.34
2303.17,1.74
2326.20,2.14
2349.46,2.55
2372.95,2.92
2396.68,3.27
2420.65,3.60
2444.86,3.85
2469.31,4.17
2494.00,4.43
2518.94,4.71
2544.13,4.93
2569.57,5.13
2595.27,5.33
2621.22,5.53
2647.43,5.66
2673.90,5.78
2700.64,5.81
2727.65,5.89
2754.93,6.04
2782.48,6.12
2810.30,6.11
2838.40,6.08
2866.79,6.09
2895.46,6.02
2924.41,5.99
2953.65,6.01
2983.19,5.93
3013.02,5.72
3043.15,5.82
3073.58,5.95
3104.32,5.88
3135.36,5.79
3166.72,5.71
3198.38,5.62
3230.37,5.59
3262.67,5.66
3295.30,5.59
3328.25,5.35
3361.53,5.34
3395.15,5.38
3429.10,5.03
3463.39,4.91
3498.03,4.91
3533.01,4.94
3568.34,4.79
3604.02,4.66
3640.06,4.44
3676.46,4.41
3713.22,4.28
3750.36,4.00
3787.86,3.74
3825.74,3.35
3864.00,3.13
3902.64,2.89
3941.66,2.61
3981.08,2.61
4020.89,2.49
4061.10,2.29
4101.71,2.21
4142.73,2.15
4184.15,2.04
4226.00,1.95
4268.26,1.94
4310.94,1.96
4354.05,2.06
4397.59,2.20
4441.56,2.35
4485.98,2.54
4530.84,2.72
4576.15,2.82
4621.91,2.86
4668.13,2.85
4714.81,2.81
4761.96,2.80
4809.58,2.71
4857.67,2.55
4906.25,2.34
4955.31,2.14
5004.87,1.80
5054.91,1.55
5105.46,1.32
5156.52,1.07
5208.08,0.79
5260.16,0.56
5312.77,0.32
5365.89,0.04
5419.55,-0.13
5473.75,-0.32
5528.49,-0.52
5583.77,-0.77
5639.61,-1.12
5696.00,-1.37
5752.96,-1.66
5810.49,-1.95
5868.60,-2.18
5927.28,-2.35
5986.56,-2.47
6046.42,-2.68
6106.89,-2.83
6167.96,-2.92
6229.64,-2.95
6291.93,-3.00
6354.85,-3.05
6418.40,-3.15
6482.58,-3.18
6547.41,-3.20
6612.88,-3.23
6679.01,-3.32
6745.80,-3.39
6813.26,-3.65
6881.39,-3.84
6950.21,-4.02
7019.71,-4.34
7089.91,-3.59
7160.81,-2.99
7232.41,-2.28
7304.74,-1.52
7377.79,-1.19
7451.56,-1.24
7526.08,-1.45
7601.34,-1.59
7677.35,-1.49
7754.13,-1.48
7831.67,-1.54
7909.98,-1.26
7989.08,-1.05
8068.98,-0.79
8149.67,-0.35
8231.16,0.45
8313.47,1.43
8396.61,2.03
8480.57,2.64
8565.38,3.69
8651.03,3.99
8737.54,3.43
8824.92,2.50
8913.17,1.80
9002.30,2.28
9092.32,3.08
9183.25,3.71
9275.08,4.41
9367.83,4.84
9461.51,4.97
9556.12,4.93
9651.68,4.72
9748.20,4.63
9845.68,4.41
9944.14,3.96
10043.58,3.35
10144.02,2.86
10245.46,2.38
10347.91,1.61
10451.39,0.55
10555.91,-0.17
10661.46,-0.86
10768.08,-1.63
10875.76,-2.55
10984.52,-3.03
11094.36,-3.68
11205.31,-4.45
11317.36,-5.11
11430.53,-5.98
11544.84,-7.09
11660.29,-8.25
11776.89,-10.41
11894.66,-11.70
12013.60,-14.11
12133.74,-15.30
12255.08,-16.13
12377.63,-16.69
12501.41,-15.73
12626.42,-14.35
12752.68,-13.09
12880.21,-11.63
13009.01,-9.86
13139.10,-8.66
13270.49,-7.97
13403.20,-6.81
13537.23,-6.21
13672.60,-5.41
13809.33,-5.31
13947.42,-5.43
14086.90,-5.29
14227.77,-5.31
14370.04,-5.28
14513.74,-5.50
14658.88,-5.65
14805.47,-6.24
14953.52,-6.66
15103.06,-7.67
15254.09,-9.59
15406.63,-11.55
15560.70,-12.92
15716.30,-14.29
15873.47,-14.46
16032.20,-13.50
16192.52,-12.79
16354.45,-12.63
16517.99,-12.79
16683.17,-13.00
16850.01,-13.28
17018.51,-13.09
17188.69,-12.37
17360.58,-11.94
17534.18,-11.47
17709.53,-10.73
17886.62,-9.62
18065.49,-8.55
18246.14,-7.29
18428.60,-5.70
18612.89,-4.43
18799.02,-4.58
18987.01,-5.23
19176.88,-6.32
19368.65,-7.81
19562.33,-8.76
19757.96,-10.00
19955.54,-11.32
