frequency,raw
20.00,8.16
20.20,8.19
20.40,8.23
20.61,8.26
20.81,8.30
21.02,8.33
21.23,8.38
21.44,8.42
21.66,8.47
21.87,8.51
22.09,8.57
22.31,8.64
22.54,8.71
22.76,8.78
22.99,8.85
23.22,8.91
23.45,8.96
23.69,9.02
23.92,9.08
24.16,9.11
24.40,9.12
24.65,9.14
24.89,9.15
25.14,9.17
25.39,9.20
25.65,9.22
25.91,9.24
26.16,9.32
26.43,9.44
26.69,9.56
26.96,9.67
27.23,9.69
27.50,9.68
27.77,9.67
28.05,9.68
28.33,9.73
28.62,9.78
28.90,9.82
29.19,9.84
29.48,9.85
29.78,9.86
30.08,9.87
30.38,9.92
30.68,9.98
30.99,10.03
31.30,10.03
31.61,10.04
31.93,10.04
32.24,10.07
32.57,10.12
32.89,10.17
33.22,10.22
33.55,10.29
33.89,10.36
34.23,10.35
34.57,10.30
34.92,10.25
35.27,10.28
35.62,10.33
35.97,10.38
36.33,10.38
36.70,10.38
37.06,10.38
37.43,10.38
37.81,10.38
38.19,10.36
38.57,10.33
38.95,10.30
39.34,10.36
39.74,10.43
40.14,10.48
40.54,10.48
40.94,10.48
41.35,10.50
41.76,10.52
42.18,10.54
42.60,10.56
43.03,10.58
43.46,10.58
43.90,10.58
44.33,10.55
44.78,10.52
45.23,10.54
45.68,10.62
46.13,10.68
46.60,10.68
47.06,10.68
47.53,10.68
48.01,10.68
48.49,10.68
48.97,10.68
49.46,10.68
49.96,10.68
50.46,10.68
50.96,10.68
51.47,10.68
51.99,10.68
52.51,10.68
53.03,10.68
53.56,10.68
54.10,10.68
54.64,10.68
55.18,10.68
55.74,10.68
56.29,10.68
56.86,10.68
57.42,10.68
58.00,10.68
58.58,10.68
59.16,10.68
59.76,10.68
60.35,10.68
60.96,10.68
61.57,10.68
62.18,10.68
62.80,10.68
63.43,10.68
64.07,10.68
64.71,10.68
65.35,10.68
66.01,10.68
66.67,10.68
67.33,10.62
68.01,10.50
68.69,10.60
69.37,10.61
70.07,10.54
70.77,10.49
71.48,10.48
72.19,10.48
72.91,10.48
73.64,10.48
74.38,10.43
75.12,10.34
75.87,10.33
76.63,10.36
77.40,10.38
78.17,10.38
78.95,10.38
79.74,10.38
80.54,10.42
81.35,10.39
82.16,10.22
82.98,10.09
83.81,10.16
84.65,10.17
85.50,10.17
86.35,10.18
87.22,10.18
88.09,10.15
88.97,10.00
89.86,10.13
90.76,10.06
91.66,10.00
92.58,9.98
93.51,9.94
94.44,9.85
95.39,9.81
96.34,9.88
97.30,9.93
98.28,9.85
99.26,9.57
100.25,9.56
101.25,9.61
102.27,9.59
103.29,9.57
104.32,9.49
105.37,9.34
106.42,9.37
107.48,9.43
108.56,9.47
109.64,9.33
110.74,9.23
111.85,9.21
112.97,9.20
114.10,9.18
115.24,9.05
116.39,9.09
117.55,9.17
118.73,9.15
119.92,8.86
121.12,8.81
122.33,8.89
123.55,9.00
124.79,8.91
126.03,8.65
127.29,8.71
128.57,8.72
129.85,8.60
131.15,8.46
132.46,8.47
133.79,8.56
135.12,8.49
136.48,8.34
137.84,8.16
139.22,8.28
140.61,8.41
142.02,8.35
143.44,8.23
144.87,8.19
146.32,8.04
147.78,8.07
149.26,8.09
150.75,8.01
152.26,7.99
153.78,7.99
155.32,7.99
156.88,7.99
158.44,7.99
160.03,7.92
161.63,7.84
163.24,7.85
164.88,7.70
166.53,7.58
168.19,7.53
169.87,7.42
171.57,7.39
173.29,7.30
175.02,7.06
176.77,6.95
178.54,7.02
180.32,7.04
182.13,7.05
183.95,7.06
185.79,7.16
187.65,7.18
189.52,6.91
191.42,6.81
193.33,6.89
195.27,7.01
197.22,7.01
199.19,6.83
201.18,6.75
203.19,6.63
205.23,6.52
207.28,6.63
209.35,6.58
211.44,6.47
213.56,6.39
215.69,6.37
217.85,6.38
220.03,6.14
222.23,6.05
224.45,6.14
226.70,6.00
228.96,5.88
231.25,5.86
233.57,5.73
235.90,5.53
238.26,5.41
240.64,5.49
243.05,5.41
245.48,5.26
247.93,5.16
250.41,5.03
252.92,4.85
255.45,4.70
258.00,4.60
260.58,4.48
263.19,4.34
265.82,4.24
268.48,4.11
271.16,3.96
273.87,3.83
276.61,3.71
279.38,3.56
282.17,3.45
284.99,3.23
287.84,3.06
290.72,3.06
293.63,2.88
296.57,2.87
299.53,2.87
302.53,2.81
305.55,2.77
308.61,2.67
311.69,2.52
314.81,2.49
317.96,2.53
321.14,2.45
324.35,2.32
327.59,2.19
330.87,2.13
334.18,2.12
337.52,1.97
340.90,1.76
344.30,1.51
347.75,1.35
351.23,1.21
354.74,1.06
358.28,0.88
361.87,0.69
365.49,0.51
369.14,0.36
372.83,0.28
376.56,0.17
380.33,-0.04
384.13,-0.25
387.97,-0.40
391.85,-0.55
395.77,-0.79
399.73,-1.00
403.72,-1.14
407.76,-1.26
411.84,-1.45
415.96,-1.64
420.12,-1.81
424.32,-1.93
428.56,-2.04
432.85,-2.16
437.18,-2.32
441.55,-2.44
445.96,-2.55
450.42,-2.67
454.93,-2.78
459.48,-2.85
464.07,-2.97
468.71,-3.07
473.40,-3.15
478.13,-3.26
482.91,-3.38
487.74,-3.49
492.62,-3.64
497.55,-3.76
502.52,-3.84
507.55,-3.95
512.62,-4.08
517.75,-4.20
522.93,-4.28
528.16,-4.38
533.44,-4.52
538.77,-4.58
544.16,-4.62
549.60,-4.78
555.10,-4.91
560.65,-4.97
566.25,-5.05
571.92,-5.17
577.64,-5.21
583.41,-5.22
589.25,-5.24
595.14,-5.26
601.09,-5.37
607.10,-5.36
613.17,-5.26
619.30,-5.21
625.50,-5.11
631.75,-5.05
638.07,-5.01
644.45,-4.92
650.89,-4.82
657.40,-4.71
663.98,-4.59
670.62,-4.50
677.32,-4.43
684.10,-4.24
690.94,-4.06
697.85,-4.05
704.83,-3.90
711.87,-3.84
718.99,-3.77
726.18,-3.71
733.44,-3.59
740.78,-3.48
748.19,-3.41
755.67,-3.37
763.23,-3.28
770.86,-3.18
778.57,-3.06
786.35,-2.97
794.22,-2.90
802.16,-2.78
810.18,-2.63
818.28,-2.49
826.46,-2.38
834.73,-2.28
843.08,-2.14
851.51,-2.00
860.02,-1.91
868.62,-1.79
877.31,-1.66
886.08,-1.56
894.94,-1.43
903.89,-1.30
912.93,-1.21
922.06,-1.08
931.28,-0.94
940.59,-0.83
950.00,-0.74
959.50,-0.64
969.09,-0.52
978.78,-0.38
988.57,-0.21
998.46,-0.03
1008.44,0.13
1018.53,0.22
1028.71,0.34
1039.00,0.51
1049.39,0.65
1059.88,0.81
1070.48,0.93
1081.19,1.03
1092.00,1.14
1102.92,1.35
1113.95,1.48
1125.09,1.56
1136.34,1.75
1147.70,1.90
1159.18,2.10
1170.77,2.28
1182.48,2.44
1194.30,2.63
1206.25,2.79
1218.31,2.92
1230.49,3.05
1242.80,3.25
1255.22,3.45
1267.78,3.63
1280.45,3.79
1293.26,3.94
1306.19,4.09
1319.25,4.24
1332.45,4.40
1345.77,4.55
1359.23,4.70
1372.82,4.85
1386.55,4.99
1400.41,5.13
1414.42,5.34
1428.56,5.54
1442.85,5.79
1457.28,5.94
1471.85,6.06
1486.57,6.26
1501.43,6.44
1516.45,6.54
1531.61,6.68
1546.93,6.87
1562.40,6.96
1578.02,7.03
1593.80,7.09
1609.74,7.16
1625.84,7.22
1642.10,7.28
1658.52,7.42
1675.10,7.59
1691.85,7.70
1708.77,7.92
1725.86,8.05
1743.12,8.14
1760.55,8.23
1778.15,8.33
1795.94,8.43
1813.90,8.54
1832.03,8.66
1850.36,8.73
1868.86,8.81
1887.55,8.93
1906.42,9.01
1925.49,9.05
1944.74,9.10
1964.19,9.23
1983.83,9.37
2003.67,9.40
2023.71,9.35
2043.94,9.43
2064.38,9.61
2085.03,9.68
2105.88,9.64
2126.94,9.80
2148.20,9.94
2169.69,10.03
2191.38,10.12
2213.30,10.26
2235.43,10.41
2257.78,10.49
2280.36,10.56
2303.17,10.63
2326.20,10.71
2349.46,10.77
2372.95,10.86
2396.68,10.96
2420.65,10.95
2444.86,10.94
2469.31,10.89
2494.00,10.85
2518.94,10.86
2544.13,10.88
2569.57,10.90
2595.27,10.90
2621.22,10.89
2647.43,10.71
2673.90,10.60
2700.64,10.57
2727.65,10.49
2754.93,10.40
2782.48,10.38
2810.30,10.32
2838.40,10.22
2866.79,10.19
2895.46,10.14
2924.41,10.12
2953.65,10.17
2983.19,10.24
3013.02,10.40
3043.15,10.52
3073.58,10.64
3104.32,10.78
3135.36,10.90
3166.72,10.97
3198.38,10.97
3230.37,10.95
3262.67,10.84
3295.30,10.70
3328.25,10.56
3361.53,10.35
3395.15,10.18
3429.10,10.14
3463.39,10.19
3498.03,10.28
3533.01,10.32
3568.34,10.29
3604.02,10.39
3640.06,10.41
3676.46,10.39
3713.22,10.31
3750.36,10.17
3787.86,10.11
3825.74,9.95
3864.00,9.86
3902.64,9.86
3941.66,9.77
3981.08,9.69
4020.89,9.68
4061.10,9.67
4101.71,9.64
4142.73,9.41
4184.15,9.19
4226.00,9.11
4268.26,9.05
4310.94,9.02
4354.05,9.07
4397.59,8.99
4441.56,8.77
4485.98,8.65
4530.84,8.52
4576.15,8.44
4621.91,8.35
4668.13,8.22
4714.81,8.10
4761.96,8.00
4809.58,7.94
4857.67,7.90
4906.25,7.75
4955.31,7.66
5004.87,7.59
5054.91,7.50
5105.46,7.42
5156.52,7.30
5208.08,7.12
5260.16,7.12
5312.77,7.23
5365.89,7.29
5419.55,7.26
5473.75,7.23
5528.49,7.06
5583.77,6.94
5639.61,6.76
5696.00,6.64
5752.96,6.26
5810.49,6.12
5868.60,6.00
5927.28,5.47
5986.56,4.79
6046.42,4.13
6106.89,3.83
6167.96,4.19
6229.64,4.16
6291.93,3.66
6354.85,3.39
6418.40,3.00
6482.58,2.56
6547.41,2.28
6612.88,1.69
6679.01,1.04
6745.80,0.37
6813.26,-0.21
6881.39,-0.77
6950.21,-1.39
7019.71,-2.27
7089.91,-3.02
7160.81,-3.91
7232.41,-4.89
7304.74,-5.86
7377.79,-7.20
7451.56,-8.51
7526.08,-9.48
7601.34,-10.45
7677.35,-10.96
7754.13,-11.02
7831.67,-10.83
7909.98,-10.27
7989.08,-9.67
8068.98,-9.30
8149.67,-8.95
8231.16,-7.91
8313.47,-6.85
8396.61,-6.14
8480.57,-5.66
8565.38,-4.79
8651.03,-4.08
8737.54,-3.21
8824.92,-2.94
8913.17,-2.92
9002.30,-2.56
9092.32,-1.88
9183.25,-1.52
9275.08,-1.32
9367.83,-0.67
9461.51,0.00
9556.12,0.55
9651.68,0.73
9748.20,0.45
9845.68,-0.12
9944.14,-0.56
10043.58,-2.13
10144.02,-4.29
10245.46,-5.90
10347.91,-7.59
10451.39,-9.51
10555.91,-10.36
10661.46,-10.36
10768.08,-10.17
10875.76,-10.66
10984.52,-11.29
11094.36,-10.82
11205.31,-9.87
11317.36,-9.56
11430.53,-10.56
11544.84,-12.94
11660.29,-14.84
11776.89,-17.85
11894.66,-20.45
12013.60,-19.88
12133.74,-19.91
12255.08,-20.13
12377.63,-19.55
12501.41,-19.31
12626.42,-19.62
12752.68,-19.14
12880.21,-18.83
13009.01,-18.91
13139.10,-18.82
13270.49,-18.85
13403.20,-18.49
13537.23,-17.90
13672.60,-16.41
13809.33,-15.27
13947.42,-13.67
14086.90,-11.67
14227.77,-10.42
14370.04,-9.23
14513.74,-9.30
14658.88,-10.52
14805.47,-10.45
14953.52,-9.34
15103.06,-8.46
15254.09,-8.15
15406.63,-8.50
15560.70,-8.84
15716.30,-8.87
15873.47,-8.32
16032.20,-7.23
16192.52,-6.82
16354.45,-6.72
16517.99,-6.82
16683.17,-6.67
16850.01,-6.50
17018.51,-7.18
17188.69,-7.17
17360.58,-6.40
17534.18,-5.20
17709.53,-4.18
17886.62,-3.35
18065.49,-2.92
18246.14,-3.25
18428.60,-3.42
18612.89,-3.13
18799.02,-3.69
18987.01,-3.28
19176.88,-3.36
19368.65,-4.25
19562.33,-4.91
19757.96,-6.09
19955.54,-6.42
