frequency,raw
20.00,0.86
20.20,0.92
20.40,0.98
20.61,1.04
20.81,1.10
21.02,1.15
21.23,1.13
21.44,1.11
21.66,1.08
21.87,1.06
22.09,1.07
22.31,1.12
22.54,1.16
22.76,1.21
22.99,1.26
23.22,1.24
23.45,1.21
23.69,1.18
23.92,1.16
24.16,1.13
24.40,1.10
24.65,1.07
24.89,1.04
25.14,1.06
25.39,1.11
25.65,1.17
25.91,1.22
26.16,1.24
26.43,1.24
26.69,1.24
26.96,1.24
27.23,1.24
27.50,1.24
27.77,1.24
28.05,1.24
28.33,1.24
28.62,1.24
28.90,1.24
29.19,1.24
29.48,1.24
29.78,1.24
30.08,1.24
30.38,1.24
30.68,1.24
30.99,1.24
31.30,1.24
31.61,1.24
31.93,1.24
32.24,1.24
32.57,1.24
32.89,1.24
33.22,1.22
33.55,1.19
33.89,1.16
34.23,1.19
34.57,1.26
34.92,1.32
35.27,1.32
35.62,1.29
35.97,1.26
36.33,1.34
36.70,1.42
37.06,1.49
37.43,1.46
37.81,1.43
38.19,1.42
38.57,1.43
38.95,1.44
39.34,1.39
39.74,1.34
40.14,1.31
40.54,1.34
40.94,1.38
41.35,1.33
41.76,1.27
42.18,1.24
42.60,1.23
43.03,1.22
43.46,1.27
43.90,1.31
44.33,1.33
44.78,1.35
45.23,1.38
45.68,1.41
46.13,1.44
46.60,1.44
47.06,1.44
47.53,1.45
48.01,1.45
48.49,1.40
48.97,1.34
49.46,1.34
49.96,1.34
50.46,1.34
50.96,1.34
51.47,1.26
51.99,1.18
52.51,1.16
53.03,1.15
53.56,1.11
54.10,1.08
54.64,1.05
55.18,1.03
55.74,0.98
56.29,0.93
56.86,0.87
57.42,0.82
58.00,0.76
58.58,0.74
59.16,0.69
59.76,0.58
60.35,0.52
60.96,0.50
61.57,0.42
62.18,0.34
62.80,0.28
63.43,0.26
64.07,0.27
64.71,0.28
65.35,0.20
66.01,0.03
66.67,0.07
67.33,0.09
68.01,0.09
68.69,0.09
69.37,0.06
70.07,0.00
70.77,-0.07
71.48,0.03
72.19,0.17
72.91,0.21
73.64,0.26
74.38,0.31
75.12,0.36
75.87,0.36
76.63,0.37
77.40,0.42
78.17,0.47
78.95,0.47
79.74,0.57
80.54,0.64
81.35,0.63
82.16,0.57
82.98,0.57
83.81,0.47
84.65,0.55
85.50,0.63
86.35,0.66
87.22,0.66
88.09,0.67
88.97,0.72
89.86,0.75
90.76,0.62
91.66,0.51
92.58,0.42
93.51,0.45
94.44,0.54
95.39,0.48
96.34,0.29
97.30,0.21
98.28,0.28
99.26,0.24
100.25,0.01
101.25,0.00
102.27,0.05
103.29,-0.16
104.32,-0.31
105.37,-0.34
106.42,-0.38
107.48,-0.50
108.56,-0.65
109.64,-0.78
110.74,-0.83
111.85,-0.83
112.97,-0.94
114.10,-1.05
115.24,-1.12
116.39,-1.20
117.55,-1.27
118.73,-1.36
119.92,-1.34
121.12,-1.32
122.33,-1.35
123.55,-1.33
124.79,-1.29
126.03,-1.36
127.29,-1.39
128.57,-1.44
129.85,-1.47
131.15,-1.47
132.46,-1.51
133.79,-1.55
135.12,-1.55
136.48,-1.54
137.84,-1.60
139.22,-1.68
140.61,-1.77
142.02,-1.83
143.44,-1.83
144.87,-1.83
146.32,-1.92
147.78,-2.01
149.26,-2.06
150.75,-2.11
152.26,-2.22
153.78,-2.34
155.32,-2.39
156.88,-2.48
158.44,-2.65
160.03,-2.75
161.63,-2.67
163.24,-2.51
164.88,-2.37
166.53,-2.12
168.19,-1.89
169.87,-1.70
171.57,-1.56
173.29,-1.49
175.02,-1.48
176.77,-1.49
178.54,-1.49
180.32,-1.48
182.13,-1.48
183.95,-1.47
185.79,-1.46
187.65,-1.44
189.52,-1.52
191.42,-1.54
193.33,-1.50
195.27,-1.48
197.22,-1.48
199.19,-1.49
201.18,-1.48
203.19,-1.40
205.23,-1.34
207.28,-1.34
209.35,-1.35
211.44,-1.35
213.56,-1.35
215.69,-1.36
217.85,-1.36
220.03,-1.31
222.23,-1.25
224.45,-1.23
226.70,-1.26
228.96,-1.26
231.25,-1.29
233.57,-1.29
235.90,-1.19
238.26,-1.14
240.64,-1.10
243.05,-1.09
245.48,-1.07
247.93,-1.04
250.41,-1.02
252.92,-0.98
255.45,-0.88
258.00,-0.87
260.58,-0.89
263.19,-0.89
265.82,-0.89
268.48,-0.89
271.16,-0.89
273.87,-0.90
276.61,-0.90
279.38,-0.90
282.17,-0.90
284.99,-0.85
287.84,-0.74
290.72,-0.74
293.63,-0.76
296.57,-0.79
299.53,-0.76
302.53,-0.71
305.55,-0.76
308.61,-0.76
311.69,-0.71
314.81,-0.70
317.96,-0.64
321.14,-0.55
324.35,-0.55
327.59,-0.59
330.87,-0.60
334.18,-0.60
337.52,-0.60
340.90,-0.61
344.30,-0.61
347.75,-0.61
351.23,-0.60
354.74,-0.67
358.28,-0.77
361.87,-0.73
365.49,-0.69
369.14,-0.68
372.83,-0.67
376.56,-0.66
380.33,-0.73
384.13,-0.84
387.97,-0.83
391.85,-0.76
395.77,-0.73
399.73,-0.73
403.72,-0.74
407.76,-0.74
411.84,-0.74
415.96,-0.74
420.12,-0.58
424.32,-0.53
428.56,-0.60
432.85,-0.62
437.18,-0.59
441.55,-0.62
445.96,-0.63
450.42,-0.46
454.93,-0.32
459.48,-0.04
464.07,0.05
468.71,-0.09
473.40,-0.05
478.13,0.15
482.91,0.23
487.74,0.21
492.62,0.21
497.55,0.37
502.52,0.42
507.55,0.40
512.62,0.48
517.75,0.58
522.93,0.59
528.16,0.53
533.44,0.53
538.77,0.59
544.16,0.54
549.60,0.51
555.10,0.57
560.65,0.52
566.25,0.46
571.92,0.52
577.64,0.51
583.41,0.47
589.25,0.49
595.14,0.54
601.09,0.58
607.10,0.66
613.17,0.68
619.30,0.70
625.50,0.79
631.75,0.85
638.07,0.89
644.45,0.92
650.89,1.04
657.40,1.10
663.98,1.15
670.62,1.21
677.32,1.28
684.10,1.31
690.94,1.33
697.85,1.37
704.83,1.36
711.87,1.30
718.99,1.39
726.18,1.41
733.44,1.36
740.78,1.33
748.19,1.30
755.67,1.27
763.23,1.24
770.86,1.20
778.57,1.18
786.35,1.29
794.22,1.26
802.16,1.22
810.18,1.22
818.28,1.24
826.46,1.21
834.73,1.15
843.08,1.06
851.51,1.02
860.02,1.03
868.62,1.03
877.31,0.94
886.08,0.87
894.94,0.80
903.89,0.78
912.93,0.78
922.06,0.68
931.28,0.56
940.59,0.57
950.00,0.63
959.50,0.54
969.09,0.38
978.78,0.22
988.57,0.08
998.46,0.01
1008.44,-0.10
1018.53,-0.24
1028.71,-0.36
1039.00,-0.37
1049.39,-0.41
1059.88,-0.34
1070.48,-0.07
1081.19,0.18
1092.00,0.38
1102.92,0.52
1113.95,0.61
1125.09,0.73
1136.34,0.88
1147.70,1.00
1159.18,1.11
1170.77,1.18
1182.48,1.20
1194.30,1.29
1206.25,1.40
1218.31,1.41
1230.49,1.46
1242.80,1.51
1255.22,1.60
1267.78,1.66
1280.45,1.72
1293.26,1.78
1306.19,1.80
1319.25,1.86
1332.45,1.88
1345.77,1.90
1359.23,1.95
1372.82,1.98
1386.55,1.99
1400.41,2.03
1414.42,2.07
1428.56,2.11
1442.85,2.12
1457.28,2.14
1471.85,2.12
1486.57,2.13
1501.43,2.15
1516.45,2.17
1531.61,2.17
1546.93,2.09
1562.40,2.02
1578.02,2.02
1593.80,2.08
1609.74,2.15
1625.84,2.21
1642.10,2.24
1658.52,2.25
1675.10,2.30
1691.85,2.38
1708.77,2.42
1725.86,2.42
1743.12,2.46
1760.55,2.51
1778.15,2.52
1795.94,2.51
1813.90,2.56
1832.03,2.62
1850.36,2.63
1868.86,2.62
1887.55,2.59
1906.42,2.69
1925.49,2.74
1944.74,2.66
1964.19,2.55
1983.83,2.49
2003.67,2.43
2023.71,2.36
2043.94,2.26
2064.38,2.24
2085.03,2.16
2105.88,2.12
2126.94,2.14
2148.20,2.16
2169.69,2.38
2191.38,2.60
2213.30,2.58
2235.43,2.54
2257.78,2.67
2280.36,2.81
2303.17,2.86
2326.20,2.76
2349.46,2.70
2372.95,2.70
2396.68,2.85
2420.65,2.87
2444.86,3.08
2469.31,3.62
2494.00,4.18
2518.94,4.69
2544.13,5.15
2569.57,5.62
2595.27,5.98
2621.22,6.16
2647.43,6.25
2673.90,6.41
2700.64,6.46
2727.65,6.33
2754.93,6.20
2782.48,6.12
2810.30,6.12
2838.40,6.13
2866.79,6.06
2895.46,5.93
2924.41,5.77
2953.65,5.65
2983.19,5.65
3013.02,5.90
3043.15,6.15
3073.58,6.44
3104.32,6.60
3135.36,6.72
3166.72,7.16
3198.38,7.42
3230.37,7.66
3262.67,8.10
3295.30,8.42
3328.25,8.62
3361.53,8.88
3395.15,9.00
3429.10,9.08
3463.39,8.98
3498.03,8.89
3533.01,8.81
3568.34,8.79
3604.02,8.76
3640.06,8.70
3676.46,8.51
3713.22,8.21
3750.36,7.82
3787.86,7.28
3825.74,6.82
3864.00,6.47
3902.64,6.27
3941.66,6.22
3981.08,6.35
4020.89,6.31
4061.10,6.38
4101.71,6.56
4142.73,6.63
4184.15,6.56
4226.00,6.39
4268.26,6.22
4310.94,5.97
4354.05,5.68
4397.59,5.31
4441.56,4.91
4485.98,4.53
4530.84,4.24
4576.15,3.99
4621.91,3.74
4668.13,3.47
4714.81,3.25
4761.96,2.96
4809.58,2.55
4857.67,2.21
4906.25,2.02
4955.31,1.86
5004.87,1.61
5054.91,1.39
5105.46,1.12
5156.52,0.96
5208.08,0.96
5260.16,1.17
5312.77,1.40
5365.89,1.83
5419.55,2.22
5473.75,2.42
5528.49,2.52
5583.77,2.54
5639.61,2.50
5696.00,2.46
5752.96,2.43
5810.49,2.52
5868.60,2.61
5927.28,2.56
5986.56,2.56
6046.42,2.50
6106.89,2.39
6167.96,2.34
6229.64,2.31
6291.93,2.31
6354.85,2.30
6418.40,2.21
6482.58,1.99
6547.41,1.91
6612.88,2.08
6679.01,2.13
6745.80,2.61
6813.26,3.02
6881.39,3.13
6950.21,3.14
7019.71,3.34
7089.91,3.64
7160.81,3.83
7232.41,3.92
7304.74,3.84
7377.79,3.68
7451.56,3.56
7526.08,3.61
7601.34,3.82
7677.35,4.08
7754.13,4.16
7831.67,3.87
7909.98,3.71
7989.08,3.67
8068.98,3.75
8149.67,4.06
8231.16,4.18
8313.47,3.72
8396.61,2.91
8480.57,2.11
8565.38,1.35
8651.03,1.30
8737.54,1.90
8824.92,2.06
8913.17,2.43
9002.30,2.88
9092.32,3.34
9183.25,3.87
9275.08,4.51
9367.83,5.22
9461.51,5.27
9556.12,4.28
9651.68,2.69
9748.20,1.36
9845.68,0.10
9944.14,-1.52
10043.58,-3.00
10144.02,-3.74
10245.46,-3.92
10347.91,-4.15
10451.39,-3.97
10555.91,-4.23
10661.46,-4.84
10768.08,-5.49
10875.76,-6.33
10984.52,-6.86
11094.36,-7.61
11205.31,-8.16
11317.36,-7.92
11430.53,-7.29
11544.84,-6.82
11660.29,-6.14
11776.89,-5.11
11894.66,-4.25
12013.60,-3.38
12133.74,-2.88
12255.08,-2.66
12377.63,-2.65
12501.41,-2.68
12626.42,-2.92
12752.68,-3.23
12880.21,-3.49
13009.01,-3.79
13139.10,-4.23
13270.49,-4.83
13403.20,-5.19
13537.23,-5.69
13672.60,-6.54
13809.33,-7.10
13947.42,-7.25
14086.90,-7.23
14227.77,-7.34
14370.04,-7.19
14513.74,-7.00
14658.88,-7.03
14805.47,-7.66
14953.52,-8.06
15103.06,-8.89
15254.09,-9.89
15406.63,-10.58
15560.70,-11.67
15716.30,-13.09
15873.47,-14.06
16032.20,-14.28
16192.52,-13.55
16354.45,-12.97
16517.99,-13.56
16683.17,-13.88
16850.01,-13.20
17018.51,-11.89
17188.69,-10.63
17360.58,-9.99
17534.18,-10.01
17709.53,-10.08
17886.62,-9.54
18065.49,-9.08
18246.14,-8.77
18428.60,-8.35
18612.89,-7.76
18799.02,-7.23
18987.01,-7.10
19176.88,-7.50
19368.65,-8.02
19562.33,-8.52
19757.96,-8.89
19955.54,-9.23
