frequency,raw
20.00,5.39
20.20,5.40
20.40,5.41
20.61,5.43
20.81,5.44
21.02,5.45
21.23,5.48
21.44,5.51
21.66,5.54
21.87,5.57
22.09,5.59
22.31,5.59
22.54,5.59
22.76,5.59
22.99,5.59
23.22,5.61
23.45,5.64
23.69,5.66
23.92,5.68
24.16,5.69
24.40,5.69
24.65,5.69
24.89,5.69
25.14,5.69
25.39,5.69
25.65,5.69
25.91,5.69
26.16,5.69
26.43,5.69
26.69,5.69
26.96,5.69
27.23,5.69
27.50,5.69
27.77,5.69
28.05,5.70
28.33,5.72
28.62,5.75
28.90,5.78
29.19,5.79
29.48,5.79
29.78,5.79
30.08,5.79
30.38,5.79
30.68,5.79
30.99,5.79
31.30,5.79
31.61,5.79
31.93,5.79
32.24,5.77
32.57,5.73
32.89,5.70
33.22,5.69
33.55,5.69
33.89,5.69
34.23,5.69
34.57,5.69
34.92,5.69
35.27,5.69
35.62,5.69
35.97,5.69
36.33,5.69
36.70,5.69
37.06,5.69
37.43,5.69
37.81,5.69
38.19,5.69
38.57,5.69
38.95,5.69
39.34,5.64
39.74,5.59
40.14,5.55
40.54,5.52
40.94,5.49
41.35,5.49
41.76,5.49
42.18,5.47
42.60,5.43
43.03,5.39
43.46,5.39
43.90,5.39
44.33,5.39
44.78,5.39
45.23,5.39
45.68,5.39
46.13,5.38
46.60,5.33
47.06,5.28
47.53,5.22
48.01,5.16
48.49,5.09
48.97,5.02
49.46,5.00
49.96,4.97
50.46,4.91
50.96,4.84
51.47,4.81
51.99,4.79
52.51,4.71
53.03,4.63
53.56,4.61
54.10,4.58
54.64,4.54
55.18,4.51
55.74,4.50
56.29,4.47
56.86,4.42
57.42,4.36
58.00,4.30
58.58,4.29
59.16,4.29
59.76,4.29
60.35,4.26
60.96,4.21
61.57,4.26
62.18,4.29
62.80,4.29
63.43,4.29
64.07,4.29
64.71,4.29
65.35,4.29
66.01,4.29
66.67,4.42
67.33,4.49
68.01,4.49
68.69,4.52
69.37,4.61
70.07,4.73
70.77,4.78
71.48,4.84
72.19,4.92
72.91,4.97
73.64,5.05
74.38,5.13
75.12,5.20
75.87,5.26
76.63,5.28
77.40,5.29
78.17,5.29
78.95,5.29
79.74,5.29
80.54,5.29
81.35,5.27
82.16,5.22
82.98,5.19
83.81,5.19
84.65,5.19
85.50,5.19
86.35,5.19
87.22,5.19
88.09,5.19
88.97,5.19
89.86,5.19
90.76,5.23
91.66,5.21
92.58,5.20
93.51,5.20
94.44,5.20
95.39,5.19
96.34,5.15
97.30,5.09
98.28,5.08
99.26,5.06
100.25,5.03
101.25,4.96
102.27,4.92
103.29,4.90
104.32,4.88
105.37,4.86
106.42,4.83
107.48,4.81
108.56,4.79
109.64,4.77
110.74,4.70
111.85,4.64
112.97,4.54
114.10,4.51
115.24,4.51
116.39,4.51
117.55,4.51
118.73,4.52
119.92,4.53
121.12,4.52
122.33,4.47
123.55,4.45
124.79,4.42
126.03,4.36
127.29,4.37
128.57,4.38
129.85,4.38
131.15,4.38
132.46,4.32
133.79,4.30
135.12,4.30
136.48,4.29
137.84,4.22
139.22,4.16
140.61,4.11
142.02,4.11
143.44,4.11
144.87,4.11
146.32,4.11
147.78,4.05
149.26,3.95
150.75,3.90
152.26,3.80
153.78,3.72
155.32,3.58
156.88,3.39
158.44,3.07
160.03,2.77
161.63,2.54
163.24,2.34
164.88,2.20
166.53,2.24
168.19,2.34
169.87,2.46
171.57,2.51
173.29,2.47
175.02,2.39
176.77,2.34
178.54,2.27
180.32,2.26
182.13,2.21
183.95,2.12
185.79,1.99
187.65,1.90
189.52,1.78
191.42,1.62
193.33,1.44
195.27,1.26
197.22,1.08
199.19,0.93
201.18,0.82
203.19,0.70
205.23,0.55
207.28,0.36
209.35,0.13
211.44,-0.05
213.56,-0.27
215.69,-0.55
217.85,-0.70
220.03,-0.88
222.23,-1.15
224.45,-1.53
226.70,-1.71
228.96,-1.98
231.25,-2.22
233.57,-2.45
235.90,-2.63
238.26,-2.89
240.64,-3.09
243.05,-3.23
245.48,-3.39
247.93,-3.54
250.41,-3.64
252.92,-3.70
255.45,-3.76
258.00,-3.88
260.58,-3.96
263.19,-4.04
265.82,-3.95
268.48,-3.94
271.16,-3.97
273.87,-3.96
276.61,-3.83
279.38,-3.80
282.17,-3.75
284.99,-3.62
287.84,-3.48
290.72,-3.37
293.63,-3.18
296.57,-3.06
299.53,-3.02
302.53,-2.90
305.55,-2.71
308.61,-2.51
311.69,-2.47
314.81,-2.41
317.96,-2.31
321.14,-2.24
324.35,-2.10
327.59,-1.96
330.87,-2.03
334.18,-1.94
337.52,-1.83
340.90,-1.71
344.30,-1.72
347.75,-1.76
351.23,-1.76
354.74,-1.70
358.28,-1.75
361.87,-1.83
365.49,-1.86
369.14,-1.85
372.83,-1.90
376.56,-1.89
380.33,-1.75
384.13,-1.72
387.97,-1.71
391.85,-1.71
395.77,-1.71
399.73,-1.68
403.72,-1.66
407.76,-1.69
411.84,-1.75
415.96,-1.89
420.12,-2.02
424.32,-2.07
428.56,-2.18
432.85,-2.28
437.18,-2.28
441.55,-2.25
445.96,-2.19
450.42,-2.11
454.93,-2.07
459.48,-2.01
464.07,-1.83
468.71,-1.63
473.40,-1.52
478.13,-1.48
482.91,-1.44
487.74,-1.30
492.62,-1.11
497.55,-1.06
502.52,-1.00
507.55,-0.84
512.62,-0.79
517.75,-0.81
522.93,-0.75
528.16,-0.70
533.44,-0.65
538.77,-0.62
544.16,-0.65
549.60,-0.70
555.10,-0.75
560.65,-0.80
566.25,-0.77
571.92,-0.79
577.64,-0.78
583.41,-0.76
589.25,-0.77
595.14,-0.78
601.09,-0.76
607.10,-0.75
613.17,-0.82
619.30,-0.84
625.50,-0.81
631.75,-0.78
638.07,-0.74
644.45,-0.71
650.89,-0.67
657.40,-0.62
663.98,-0.52
670.62,-0.43
677.32,-0.37
684.10,-0.32
690.94,-0.29
697.85,-0.25
704.83,-0.23
711.87,-0.23
718.99,-0.24
726.18,-0.25
733.44,-0.28
740.78,-0.30
748.19,-0.33
755.67,-0.36
763.23,-0.38
770.86,-0.40
778.57,-0.41
786.35,-0.42
794.22,-0.40
802.16,-0.34
810.18,-0.31
818.28,-0.31
826.46,-0.30
834.73,-0.30
843.08,-0.30
851.51,-0.31
860.02,-0.31
868.62,-0.24
877.31,-0.21
886.08,-0.23
894.94,-0.24
903.89,-0.25
912.93,-0.25
922.06,-0.26
931.28,-0.26
940.59,-0.26
950.00,-0.26
959.50,-0.22
969.09,-0.16
978.78,-0.07
988.57,-0.03
998.46,-0.01
1008.44,0.02
1018.53,-0.01
1028.71,-0.04
1039.00,-0.02
1049.39,0.10
1059.88,0.16
1070.48,0.20
1081.19,0.25
1092.00,0.30
1102.92,0.36
1113.95,0.43
1125.09,0.49
1136.34,0.56
1147.70,0.64
1159.18,0.65
1170.77,0.72
1182.48,0.82
1194.30,0.93
1206.25,0.97
1218.31,1.03
1230.49,1.09
1242.80,1.20
1255.22,1.32
1267.78,1.35
1280.45,1.44
1293.26,1.57
1306.19,1.65
1319.25,1.74
1332.45,1.83
1345.77,1.90
1359.23,2.03
1372.82,2.17
1386.55,2.30
1400.41,2.37
1414.42,2.45
1428.56,2.53
1442.85,2.57
1457.28,2.67
1471.85,2.79
1486.57,2.89
1501.43,2.98
1516.45,3.06
1531.61,3.13
1546.93,3.15
1562.40,3.27
1578.02,3.35
1593.80,3.42
1609.74,3.57
1625.84,3.66
1642.10,3.71
1658.52,3.86
1675.10,3.97
1691.85,4.02
1708.77,4.09
1725.86,4.25
1743.12,4.40
1760.55,4.46
1778.15,4.55
1795.94,4.66
1813.90,4.70
1832.03,4.73
1850.36,4.87
1868.86,5.00
1887.55,5.04
1906.42,4.95
1925.49,4.88
1944.74,4.90
1964.19,5.17
1983.83,5.16
2003.67,4.95
2023.71,4.96
2043.94,5.04
2064.38,5.10
2085.03,5.20
2105.88,5.21
2126.94,5.09
2148.20,5.07
2169.69,5.19
2191.38,5.13
2213.30,5.01
2235.43,5.12
2257.78,5.59
2280.36,6.14
2303.17,6.68
2326.20,6.74
2349.46,6.74
2372.95,7.16
2396.68,7.22
2420.65,7.27
2444.86,7.53
2469.31,7.55
2494.00,7.52
2518.94,7.59
2544.13,7.86
2569.57,8.04
2595.27,8.08
2621.22,8.23
2647.43,8.45
2673.90,8.69
2700.64,8.85
2727.65,8.98
2754.93,9.06
2782.48,9.14
2810.30,9.18
2838.40,9.21
2866.79,9.19
2895.46,9.20
2924.41,9.25
2953.65,9.27
2983.19,9.24
3013.02,9.22
3043.15,9.23
3073.58,9.26
3104.32,9.22
3135.36,9.15
3166.72,9.11
3198.38,9.01
3230.37,8.90
3262.67,8.74
3295.30,8.52
3328.25,8.36
3361.53,8.17
3395.15,7.95
3429.10,7.79
3463.39,7.57
3498.03,7.33
3533.01,7.10
3568.34,6.89
3604.02,6.44
3640.06,6.03
3676.46,5.51
3713.22,4.89
3750.36,4.10
3787.86,3.51
3825.74,3.07
3864.00,2.51
3902.64,2.03
3941.66,1.68
3981.08,1.43
4020.89,1.16
4061.10,0.84
4101.71,0.53
4142.73,0.06
4184.15,-0.35
4226.00,-0.67
4268.26,-0.94
4310.94,-1.29
4354.05,-1.60
4397.59,-1.88
4441.56,-2.08
4485.98,-2.28
4530.84,-2.53
4576.15,-2.79
4621.91,-2.99
4668.13,-3.10
4714.81,-3.28
4761.96,-3.41
4809.58,-3.48
4857.67,-3.51
4906.25,-3.61
4955.31,-3.55
5004.87,-3.34
5054.91,-3.07
5105.46,-2.83
5156.52,-2.67
5208.08,-2.39
5260.16,-2.16
5312.77,-1.89
5365.89,-1.46
5419.55,-1.11
5473.75,-0.84
5528.49,-0.60
5583.77,-0.32
5639.61,-0.02
5696.00,0.24
5752.96,0.65
5810.49,0.95
5868.60,1.11
5927.28,1.42
5986.56,1.76
6046.42,2.05
6106.89,2.27
6167.96,2.36
6229.64,2.28
6291.93,2.10
6354.85,1.73
6418.40,1.59
6482.58,1.43
6547.41,0.82
6612.88,0.08
6679.01,-0.65
6745.80,-1.40
6813.26,-2.46
6881.39,-3.48
6950.21,-4.73
7019.71,-6.04
7089.91,-6.63
7160.81,-6.69
7232.41,-7.20
7304.74,-8.79
7377.79,-9.33
7451.56,-8.92
7526.08,-8.38
7601.34,-8.59
7677.35,-8.67
7754.13,-7.73
7831.67,-6.25
7909.98,-5.13
7989.08,-3.55
8068.98,-2.23
8149.67,-1.27
8231.16,-0.09
8313.47,0.48
8396.61,0.70
8480.57,0.81
8565.38,1.12
8651.03,1.47
8737.54,1.84
8824.92,2.26
8913.17,2.74
9002.30,3.11
9092.32,3.61
9183.25,4.14
9275.08,5.04
9367.83,5.97
9461.51,6.81
9556.12,7.11
9651.68,6.92
9748.20,6.81
9845.68,6.33
9944.14,5.75
10043.58,4.80
10144.02,3.47
10245.46,2.26
10347.91,0.72
10451.39,-0.64
10555.91,-2.99
10661.46,-4.45
10768.08,-6.71
10875.76,-9.31
10984.52,-10.26
11094.36,-10.45
11205.31,-10.09
11317.36,-9.67
11430.53,-9.24
11544.84,-8.38
11660.29,-7.23
11776.89,-6.17
11894.66,-5.15
12013.60,-4.19
12133.74,-3.60
12255.08,-3.32
12377.63,-3.59
12501.41,-3.63
12626.42,-3.21
12752.68,-3.06
12880.21,-2.74
13009.01,-2.66
13139.10,-3.02
13270.49,-3.41
13403.20,-4.36
13537.23,-4.91
13672.60,-4.52
13809.33,-4.55
13947.42,-4.64
14086.90,-4.17
14227.77,-3.67
14370.04,-3.37
14513.74,-3.06
14658.88,-2.89
14805.47,-2.95
14953.52,-3.19
15103.06,-3.34
15254.09,-5.12
15406.63,-6.80
15560.70,-9.33
15716.30,-10.67
15873.47,-10.00
16032.20,-9.95
16192.52,-10.44
16354.45,-9.81
16517.99,-7.41
16683.17,-5.11
16850.01,-3.74
17018.51,-3.16
17188.69,-3.63
17360.58,-3.69
17534.18,-3.57
17709.53,-3.21
17886.62,-1.97
18065.49,-0.62
18246.14,0.61
18428.60,-0.20
18612.89,-0.83
18799.02,-1.02
18987.01,-2.57
19176.88,-4.97
19368.65,-4.56
19562.33,-3.37
19757.96,-2.03
19955.54,-1.21
