frequency,raw
20.00,-20.77
20.20,-20.65
20.40,-20.53
20.61,-20.41
20.81,-20.29
21.02,-20.17
21.23,-20.04
21.44,-19.92
21.66,-19.79
21.87,-19.66
22.09,-19.54
22.31,-19.41
22.54,-19.28
22.76,-19.15
22.99,-19.02
23.22,-18.87
23.45,-18.72
23.69,-18.57
23.92,-18.43
24.16,-18.28
24.40,-18.13
24.65,-17.98
24.89,-17.83
25.14,-17.72
25.39,-17.63
25.65,-17.53
25.91,-17.44
26.16,-17.31
26.43,-17.15
26.69,-16.99
26.96,-16.84
27.23,-16.70
27.50,-16.56
27.77,-16.42
28.05,-16.28
28.33,-16.11
28.62,-15.94
28.90,-15.77
29.19,-15.63
29.48,-15.50
29.78,-15.37
30.08,-15.25
30.38,-15.12
30.68,-14.99
30.99,-14.86
31.30,-14.73
31.61,-14.60
31.93,-14.47
32.24,-14.34
32.57,-14.22
32.89,-14.09
33.22,-13.95
33.55,-13.80
33.89,-13.65
34.23,-13.49
34.57,-13.33
34.92,-13.17
35.27,-13.03
35.62,-12.89
35.97,-12.75
36.33,-12.64
36.70,-12.52
37.06,-12.40
37.43,-12.22
37.81,-12.05
38.19,-11.90
38.57,-11.78
38.95,-11.65
39.34,-11.48
39.74,-11.30
40.14,-11.13
40.54,-10.99
40.94,-10.85
41.35,-10.72
41.76,-10.59
42.18,-10.47
42.60,-10.36
43.03,-10.25
43.46,-10.07
43.90,-9.90
44.33,-9.75
44.78,-9.60
45.23,-9.44
45.68,-9.26
46.13,-9.11
46.60,-9.00
47.06,-8.88
47.53,-8.76
48.01,-8.63
48.49,-8.44
48.97,-8.26
49.46,-8.09
49.96,-7.92
50.46,-7.80
50.96,-7.68
51.47,-7.50
51.99,-7.32
52.51,-7.13
53.03,-6.94
53.56,-6.83
54.10,-6.71
54.64,-6.57
55.18,-6.44
55.74,-6.34
56.29,-6.19
56.86,-6.01
57.42,-5.82
58.00,-5.63
58.58,-5.43
59.16,-5.27
59.76,-5.18
60.35,-5.06
60.96,-4.93
61.57,-4.73
62.18,-4.55
62.80,-4.41
63.43,-4.29
64.07,-4.18
64.71,-4.04
65.35,-3.87
66.01,-3.68
66.67,-3.55
67.33,-3.39
68.01,-3.20
68.69,-3.04
69.37,-2.88
70.07,-2.72
70.77,-2.54
71.48,-2.39
72.19,-2.26
72.91,-2.15
73.64,-2.00
74.38,-1.87
75.12,-1.77
75.87,-1.73
76.63,-1.57
77.40,-1.40
78.17,-1.24
78.95,-1.11
79.74,-1.00
80.54,-0.87
81.35,-0.73
82.16,-0.60
82.98,-0.52
83.81,-0.41
84.65,-0.26
85.50,-0.13
86.35,-0.05
87.22,0.02
88.09,0.16
88.97,0.27
89.86,0.41
90.76,0.50
91.66,0.56
92.58,0.63
93.51,0.75
94.44,0.87
95.39,0.96
96.34,1.03
97.30,1.07
98.28,1.17
99.26,1.22
100.25,1.27
101.25,1.38
102.27,1.37
103.29,1.36
104.32,1.37
105.37,1.41
106.42,1.41
107.48,1.44
108.56,1.44
109.64,1.42
110.74,1.40
111.85,1.38
112.97,1.37
114.10,1.37
115.24,1.37
116.39,1.37
117.55,1.38
118.73,1.45
119.92,1.48
121.12,1.49
122.33,1.50
123.55,1.51
124.79,1.51
126.03,1.52
127.29,1.53
128.57,1.53
129.85,1.54
131.15,1.54
132.46,1.55
133.79,1.55
135.12,1.50
136.48,1.44
137.84,1.37
139.22,1.36
140.61,1.37
142.02,1.37
143.44,1.37
144.87,1.31
146.32,1.27
147.78,1.20
149.26,1.17
150.75,1.16
152.26,1.13
153.78,1.07
155.32,1.07
156.88,1.03
158.44,0.91
160.03,0.86
161.63,0.86
163.24,0.85
164.88,0.78
166.53,0.68
168.19,0.65
169.87,0.64
171.57,0.54
173.29,0.46
175.02,0.39
176.77,0.33
178.54,0.32
180.32,0.25
182.13,0.19
183.95,0.13
185.79,0.15
187.65,0.16
189.52,0.11
191.42,0.09
193.33,0.09
195.27,0.00
197.22,-0.06
199.19,-0.11
201.18,-0.24
203.19,-0.39
205.23,-0.45
207.28,-0.45
209.35,-0.45
211.44,-0.46
213.56,-0.58
215.69,-0.65
217.85,-0.66
220.03,-0.72
222.23,-0.79
224.45,-0.86
226.70,-0.93
228.96,-1.02
231.25,-1.05
233.57,-1.06
235.90,-1.08
238.26,-1.16
240.64,-1.29
243.05,-1.30
245.48,-1.28
247.93,-1.27
250.41,-1.35
252.92,-1.35
255.45,-1.41
258.00,-1.47
260.58,-1.56
263.19,-1.54
265.82,-1.49
268.48,-1.49
271.16,-1.56
273.87,-1.55
276.61,-1.39
279.38,-1.16
282.17,-0.82
284.99,-0.62
287.84,-0.58
290.72,-0.59
293.63,-0.55
296.57,-0.58
299.53,-0.62
302.53,-0.68
305.55,-0.72
308.61,-0.75
311.69,-0.79
314.81,-0.82
317.96,-0.85
321.14,-0.94
324.35,-1.06
327.59,-1.09
330.87,-1.09
334.18,-1.09
337.52,-1.12
340.90,-1.18
344.30,-1.22
347.75,-1.28
351.23,-1.30
354.74,-1.29
358.28,-1.34
361.87,-1.39
365.49,-1.46
369.14,-1.47
372.83,-1.46
376.56,-1.46
380.33,-1.48
384.13,-1.53
387.97,-1.54
391.85,-1.53
395.77,-1.53
399.73,-1.53
403.72,-1.54
407.76,-1.61
411.84,-1.64
415.96,-1.64
420.12,-1.64
424.32,-1.64
428.56,-1.72
432.85,-1.79
437.18,-1.79
441.55,-1.75
445.96,-1.71
450.42,-1.66
454.93,-1.63
459.48,-1.63
464.07,-1.58
468.71,-1.52
473.40,-1.46
478.13,-1.40
482.91,-1.36
487.74,-1.34
492.62,-1.37
497.55,-1.37
502.52,-1.33
507.55,-1.31
512.62,-1.29
517.75,-1.29
522.93,-1.29
528.16,-1.30
533.44,-1.31
538.77,-1.34
544.16,-1.38
549.60,-1.49
555.10,-1.61
560.65,-1.64
566.25,-1.68
571.92,-1.72
577.64,-1.76
583.41,-1.78
589.25,-1.80
595.14,-1.81
601.09,-1.81
607.10,-1.80
613.17,-1.79
619.30,-1.77
625.50,-1.74
631.75,-1.71
638.07,-1.68
644.45,-1.64
650.89,-1.60
657.40,-1.55
663.98,-1.50
670.62,-1.45
677.32,-1.41
684.10,-1.39
690.94,-1.36
697.85,-1.21
704.83,-1.05
711.87,-1.02
718.99,-1.06
726.18,-1.11
733.44,-1.15
740.78,-1.06
748.19,-1.06
755.67,-1.09
763.23,-1.11
770.86,-1.14
778.57,-1.16
786.35,-1.03
794.22,-0.95
802.16,-0.95
810.18,-0.96
818.28,-0.95
826.46,-0.85
834.73,-0.76
843.08,-0.73
851.51,-0.66
860.02,-0.64
868.62,-0.65
877.31,-0.66
886.08,-0.53
894.94,-0.47
903.89,-0.48
912.93,-0.43
922.06,-0.39
931.28,-0.31
940.59,-0.29
950.00,-0.28
959.50,-0.22
969.09,-0.18
978.78,-0.11
988.57,-0.06
998.46,-0.01
1008.44,0.09
1018.53,0.19
1028.71,0.23
1039.00,0.26
1049.39,0.29
1059.88,0.33
1070.48,0.38
1081.19,0.49
1092.00,0.59
1102.92,0.72
1113.95,0.81
1125.09,0.87
1136.34,0.94
1147.70,1.02
1159.18,1.10
1170.77,1.11
1182.48,1.18
1194.30,1.31
1206.25,1.41
1218.31,1.45
1230.49,1.51
1242.80,1.58
1255.22,1.68
1267.78,1.81
1280.45,1.88
1293.26,2.03
1306.19,2.20
1319.25,2.32
1332.45,2.41
1345.77,2.49
1359.23,2.60
1372.82,2.67
1386.55,2.75
1400.41,2.84
1414.42,2.85
1428.56,2.85
1442.85,3.01
1457.28,3.16
1471.85,3.23
1486.57,3.30
1501.43,3.33
1516.45,3.44
1531.61,3.56
1546.93,3.53
1562.40,3.64
1578.02,3.76
1593.80,3.71
1609.74,3.88
1625.84,4.18
1642.10,4.50
1658.52,5.10
1675.10,6.04
1691.85,6.74
1708.77,7.51
1725.86,8.39
1743.12,9.08
1760.55,9.67
1778.15,10.47
1795.94,11.15
1813.90,11.60
1832.03,12.10
1850.36,12.55
1868.86,12.83
1887.55,13.15
1906.42,13.42
1925.49,13.51
1944.74,13.57
1964.19,13.69
1983.83,13.83
2003.67,13.95
2023.71,13.95
2043.94,13.87
2064.38,13.76
2085.03,13.64
2105.88,13.45
2126.94,13.33
2148.20,13.29
2169.69,13.15
2191.38,12.99
2213.30,12.84
2235.43,12.53
2257.78,12.26
2280.36,12.11
2303.17,11.84
2326.20,11.39
2349.46,11.17
2372.95,10.96
2396.68,10.68
2420.65,10.38
2444.86,10.15
2469.31,9.71
2494.00,9.35
2518.94,9.23
2544.13,9.19
2569.57,8.99
2595.27,8.87
2621.22,8.81
2647.43,8.47
2673.90,8.30
2700.64,8.28
2727.65,8.12
2754.93,8.00
2782.48,8.04
2810.30,7.98
2838.40,7.85
2866.79,7.60
2895.46,7.45
2924.41,7.34
2953.65,7.19
2983.19,7.10
3013.02,7.07
3043.15,7.07
3073.58,7.06
3104.32,7.09
3135.36,7.15
3166.72,7.19
3198.38,7.22
3230.37,7.24
3262.67,7.22
3295.30,7.17
3328.25,7.16
3361.53,7.17
3395.15,7.09
3429.10,6.96
3463.39,6.90
3498.03,6.86
3533.01,6.77
3568.34,6.60
3604.02,6.30
3640.06,6.07
3676.46,5.78
3713.22,5.25
3750.36,4.91
3787.86,4.55
3825.74,3.78
3864.00,3.20
3902.64,2.75
3941.66,2.45
3981.08,1.73
4020.89,1.10
4061.10,0.57
4101.71,0.16
4142.73,-0.29
4184.15,-1.14
4226.00,-2.95
4268.26,-4.92
4310.94,-5.81
4354.05,-6.23
4397.59,-6.56
4441.56,-6.08
4485.98,-4.82
4530.84,-2.81
4576.15,-1.45
4621.91,-0.22
4668.13,0.50
4714.81,0.87
4761.96,1.31
4809.58,1.51
4857.67,1.38
4906.25,1.20
4955.31,0.94
5004.87,0.55
5054.91,0.15
5105.46,-0.25
5156.52,-0.81
5208.08,-1.30
5260.16,-1.61
5312.77,-1.82
5365.89,-1.92
5419.55,-2.05
5473.75,-2.06
5528.49,-1.93
5583.77,-1.85
5639.61,-1.88
5696.00,-2.05
5752.96,-2.33
5810.49,-2.91
5868.60,-3.81
5927.28,-4.51
5986.56,-4.68
6046.42,-4.48
6106.89,-4.69
6167.96,-5.40
6229.64,-5.76
6291.93,-5.76
6354.85,-5.75
6418.40,-5.68
6482.58,-5.40
6547.41,-5.14
6612.88,-5.38
6679.01,-5.92
6745.80,-6.31
6813.26,-6.30
6881.39,-6.05
6950.21,-5.18
7019.71,-4.44
7089.91,-4.21
7160.81,-4.26
7232.41,-4.23
7304.74,-4.08
7377.79,-3.32
7451.56,-2.78
7526.08,-2.58
7601.34,-2.50
7677.35,-2.69
7754.13,-2.78
7831.67,-2.96
7909.98,-3.56
7989.08,-4.27
8068.98,-5.17
8149.67,-5.52
8231.16,-5.68
8313.47,-5.66
8396.61,-5.88
8480.57,-6.49
8565.38,-7.96
8651.03,-8.34
8737.54,-7.44
8824.92,-5.72
8913.17,-5.06
9002.30,-5.63
9092.32,-6.07
9183.25,-5.93
9275.08,-5.61
9367.83,-3.57
9461.51,-1.49
9556.12,-1.05
9651.68,-1.55
9748.20,-2.34
9845.68,-2.89
9944.14,-2.88
10043.58,-2.28
10144.02,-2.91
10245.46,-3.81
10347.91,-4.43
10451.39,-5.18
10555.91,-5.50
10661.46,-5.84
10768.08,-6.62
10875.76,-7.29
10984.52,-7.86
11094.36,-8.98
11205.31,-9.91
11317.36,-10.21
11430.53,-10.57
11544.84,-9.92
11660.29,-9.23
11776.89,-9.12
11894.66,-10.01
12013.60,-11.45
12133.74,-12.84
12255.08,-14.73
12377.63,-16.96
12501.41,-18.52
12626.42,-19.51
12752.68,-20.16
12880.21,-20.31
13009.01,-19.26
13139.10,-18.74
13270.49,-19.16
13403.20,-19.14
13537.23,-20.04
13672.60,-20.40
13809.33,-19.88
13947.42,-17.81
14086.90,-17.20
14227.77,-17.48
14370.04,-17.87
14513.74,-18.42
14658.88,-17.83
14805.47,-16.49
14953.52,-14.82
15103.06,-14.05
15254.09,-13.25
15406.63,-12.20
15560.70,-11.48
15716.30,-11.28
15873.47,-10.56
16032.20,-10.65
16192.52,-11.02
16354.45,-11.28
16517.99,-10.91
16683.17,-10.45
16850.01,-9.44
17018.51,-9.09
17188.69,-11.09
17360.58,-12.78
17534.18,-13.50
17709.53,-12.58
17886.62,-12.20
18065.49,-11.40
18246.14,-10.10
18428.60,-9.57
18612.89,-9.91
18799.02,-11.17
18987.01,-13.23
19176.88,-15.85
19368.65,-18.21
19562.33,-22.21
19757.96,-22.46
19955.54,-22.57
