frequency,raw
20.00,-31.82
20.20,-31.72
20.40,-31.61
20.61,-31.51
20.81,-31.40
21.02,-31.30
21.23,-31.17
21.44,-31.04
21.66,-30.91
21.87,-30.78
22.09,-30.67
22.31,-30.59
22.54,-30.50
22.76,-30.42
22.99,-30.34
23.22,-30.21
23.45,-30.08
23.69,-29.94
23.92,-29.80
24.16,-29.71
24.40,-29.63
24.65,-29.55
24.89,-29.47
25.14,-29.34
25.39,-29.16
25.65,-28.99
25.91,-28.81
26.16,-28.66
26.43,-28.53
26.69,-28.40
26.96,-28.26
27.23,-28.13
27.50,-28.00
27.77,-27.87
28.05,-27.73
28.33,-27.58
28.62,-27.43
28.90,-27.27
29.19,-27.16
29.48,-27.07
29.78,-26.98
30.08,-26.88
30.38,-26.75
30.68,-26.62
30.99,-26.49
31.30,-26.36
31.61,-26.23
31.93,-26.10
32.24,-25.97
32.57,-25.85
32.89,-25.72
33.22,-25.60
33.55,-25.47
33.89,-25.35
34.23,-25.17
34.57,-24.95
34.92,-24.74
35.27,-24.63
35.62,-24.54
35.97,-24.46
36.33,-24.34
36.70,-24.23
37.06,-24.11
37.43,-23.98
37.81,-23.85
38.19,-23.73
38.57,-23.61
38.95,-23.48
39.34,-23.36
39.74,-23.23
40.14,-23.10
40.54,-22.94
40.94,-22.78
41.35,-22.65
41.76,-22.52
42.18,-22.39
42.60,-22.27
43.03,-22.14
43.46,-21.94
43.90,-21.75
44.33,-21.62
44.78,-21.51
45.23,-21.40
45.68,-21.28
46.13,-21.16
46.60,-21.04
47.06,-20.92
47.53,-20.77
48.01,-20.63
48.49,-20.51
48.97,-20.40
49.46,-20.23
49.96,-20.06
50.46,-19.94
50.96,-19.82
51.47,-19.65
51.99,-19.48
52.51,-19.26
53.03,-19.05
53.56,-19.00
54.10,-18.95
54.64,-18.81
55.18,-18.68
55.74,-18.56
56.29,-18.42
56.86,-18.28
57.42,-18.16
58.00,-18.05
58.58,-17.88
59.16,-17.67
59.76,-17.40
60.35,-17.21
60.96,-17.07
61.57,-17.13
62.18,-17.15
62.80,-17.00
63.43,-16.77
64.07,-16.51
64.71,-16.37
65.35,-16.24
66.01,-16.12
66.67,-15.99
67.33,-15.86
68.01,-15.74
68.69,-15.42
69.37,-15.18
70.07,-15.04
70.77,-15.02
71.48,-14.92
72.19,-14.80
72.91,-14.69
73.64,-14.54
74.38,-14.41
75.12,-14.29
75.87,-14.17
76.63,-13.93
77.40,-13.80
78.17,-13.78
78.95,-13.71
79.74,-13.42
80.54,-13.22
81.35,-13.06
82.16,-12.92
82.98,-12.81
83.81,-12.45
84.65,-12.23
85.50,-12.16
86.35,-12.13
87.22,-12.04
88.09,-11.98
88.97,-11.83
89.86,-11.55
90.76,-11.26
91.66,-11.07
92.58,-10.99
93.51,-10.89
94.44,-10.84
95.39,-10.82
96.34,-10.59
97.30,-10.25
98.28,-10.01
99.26,-9.94
100.25,-9.78
101.25,-9.65
102.27,-9.51
103.29,-9.37
104.32,-9.22
105.37,-9.07
106.42,-8.94
107.48,-8.82
108.56,-8.66
109.64,-8.52
110.74,-8.38
111.85,-8.23
112.97,-8.10
114.10,-7.96
115.24,-7.82
116.39,-7.70
117.55,-7.55
118.73,-7.28
119.92,-7.06
121.12,-6.91
122.33,-6.83
123.55,-6.75
124.79,-6.61
126.03,-6.46
127.29,-6.27
128.57,-6.18
129.85,-6.13
131.15,-5.97
132.46,-5.60
133.79,-5.36
135.12,-5.22
136.48,-4.97
137.84,-4.79
139.22,-4.60
140.61,-4.39
142.02,-4.20
143.44,-4.00
144.87,-3.85
146.32,-3.58
147.78,-3.24
149.26,-3.09
150.75,-3.08
152.26,-3.00
153.78,-2.84
155.32,-2.50
156.88,-2.20
158.44,-2.04
160.03,-1.95
161.63,-1.59
163.24,-1.34
164.88,-1.23
166.53,-1.02
168.19,-0.76
169.87,-0.54
171.57,-0.51
173.29,-0.38
175.02,-0.22
176.77,-0.08
178.54,0.02
180.32,0.13
182.13,0.35
183.95,0.69
185.79,0.79
187.65,0.89
189.52,1.13
191.42,1.28
193.33,1.41
195.27,1.66
197.22,2.06
199.19,2.38
201.18,2.48
203.19,2.38
205.23,2.47
207.28,2.79
209.35,3.01
211.44,3.08
213.56,3.04
215.69,3.29
217.85,3.34
220.03,3.27
222.23,3.33
224.45,3.43
226.70,3.48
228.96,3.59
231.25,3.75
233.57,3.75
235.90,3.70
238.26,3.84
240.64,4.02
243.05,4.03
245.48,4.03
247.93,4.21
250.41,4.24
252.92,4.25
255.45,4.27
258.00,4.29
260.58,4.32
263.19,4.25
265.82,4.18
268.48,4.18
271.16,4.17
273.87,4.19
276.61,4.08
279.38,3.94
282.17,3.88
284.99,3.84
287.84,3.75
290.72,3.56
293.63,3.51
296.57,3.48
299.53,3.42
302.53,3.29
305.55,3.20
308.61,3.08
311.69,2.94
314.81,2.83
317.96,2.70
321.14,2.57
324.35,2.47
327.59,2.34
330.87,2.18
334.18,2.01
337.52,1.84
340.90,1.77
344.30,1.89
347.75,2.10
351.23,2.28
354.74,2.23
358.28,2.01
361.87,1.92
365.49,1.92
369.14,1.82
372.83,1.72
376.56,1.60
380.33,1.47
384.13,1.33
387.97,1.09
391.85,0.96
395.77,0.90
399.73,0.85
403.72,0.63
407.76,0.43
411.84,0.19
415.96,0.32
420.12,0.46
424.32,0.10
428.56,-0.12
432.85,-0.23
437.18,-0.45
441.55,-0.59
445.96,-0.65
450.42,-0.95
454.93,-1.31
459.48,-1.21
464.07,-1.47
468.71,-2.28
473.40,-2.97
478.13,-3.31
482.91,-3.19
487.74,-3.66
492.62,-3.93
497.55,-3.43
502.52,-1.75
507.55,-0.74
512.62,0.42
517.75,1.29
522.93,1.48
528.16,1.46
533.44,1.42
538.77,1.27
544.16,1.08
549.60,0.93
555.10,0.75
560.65,0.52
566.25,0.32
571.92,0.17
577.64,0.00
583.41,-0.14
589.25,-0.28
595.14,-0.38
601.09,-0.50
607.10,-0.64
613.17,-0.77
619.30,-0.92
625.50,-1.13
631.75,-1.35
638.07,-1.52
644.45,-1.68
650.89,-1.90
657.40,-1.97
663.98,-1.92
670.62,-1.74
677.32,-0.93
684.10,0.25
690.94,0.81
697.85,1.15
704.83,0.92
711.87,0.87
718.99,1.01
726.18,1.07
733.44,1.10
740.78,0.90
748.19,0.79
755.67,0.78
763.23,0.52
770.86,0.27
778.57,0.38
786.35,0.36
794.22,0.15
802.16,0.24
810.18,0.29
818.28,0.06
826.46,0.01
834.73,0.01
843.08,0.01
851.51,0.00
860.02,0.08
868.62,0.18
877.31,0.02
886.08,-0.27
894.94,-0.34
903.89,-0.11
912.93,-0.05
922.06,-0.05
931.28,-0.05
940.59,-0.05
950.00,-0.05
959.50,-0.04
969.09,-0.04
978.78,-0.03
988.57,-0.01
998.46,-0.00
1008.44,0.01
1018.53,-0.10
1028.71,-0.21
1039.00,-0.05
1049.39,0.10
1059.88,0.25
1070.48,0.12
1081.19,0.11
1092.00,0.27
1102.92,0.21
1113.95,0.15
1125.09,0.19
1136.34,0.27
1147.70,0.35
1159.18,0.22
1170.77,0.12
1182.48,0.26
1194.30,0.63
1206.25,0.60
1218.31,0.45
1230.49,0.65
1242.80,0.65
1255.22,0.65
1267.78,0.93
1280.45,1.13
1293.26,1.28
1306.19,1.43
1319.25,1.24
1332.45,1.12
1345.77,1.36
1359.23,1.53
1372.82,1.28
1386.55,1.17
1400.41,1.74
1414.42,1.57
1428.56,1.68
1442.85,2.22
1457.28,2.40
1471.85,2.28
1486.57,2.30
1501.43,2.60
1516.45,2.65
1531.61,2.54
1546.93,2.78
1562.40,3.14
1578.02,3.28
1593.80,3.16
1609.74,3.19
1625.84,3.19
1642.10,3.12
1658.52,3.33
1675.10,3.37
1691.85,3.41
1708.77,3.73
1725.86,4.02
1743.12,4.05
1760.55,4.19
1778.15,4.35
1795.94,4.50
1813.90,4.68
1832.03,4.79
1850.36,4.91
1868.86,5.03
1887.55,5.16
1906.42,5.33
1925.49,5.56
1944.74,5.76
1964.19,5.95
1983.83,6.42
2003.67,6.85
2023.71,7.21
2043.94,7.54
2064.38,7.95
2085.03,8.23
2105.88,8.43
2126.94,8.71
2148.20,9.14
2169.69,9.62
2191.38,10.11
2213.30,10.53
2235.43,11.04
2257.78,11.55
2280.36,11.98
2303.17,12.39
2326.20,12.70
2349.46,12.94
2372.95,13.34
2396.68,13.59
2420.65,13.76
2444.86,13.84
2469.31,13.87
2494.00,13.85
2518.94,13.84
2544.13,13.79
2569.57,13.64
2595.27,13.57
2621.22,13.53
2647.43,13.45
2673.90,13.37
2700.64,13.34
2727.65,13.26
2754.93,13.17
2782.48,13.21
2810.30,13.21
2838.40,13.11
2866.79,12.86
2895.46,12.68
2924.41,12.41
2953.65,12.16
2983.19,12.02
3013.02,11.88
3043.15,11.67
3073.58,11.53
3104.32,11.39
3135.36,11.15
3166.72,11.01
3198.38,10.94
3230.37,10.79
3262.67,10.68
3295.30,10.52
3328.25,10.30
3361.53,10.16
3395.15,10.07
3429.10,9.97
3463.39,9.85
3498.03,9.79
3533.01,9.72
3568.34,9.55
3604.02,9.39
3640.06,9.25
3676.46,8.98
3713.22,8.66
3750.36,8.35
3787.86,7.97
3825.74,7.41
3864.00,6.89
3902.64,6.28
3941.66,5.81
3981.08,5.31
4020.89,4.90
4061.10,4.38
4101.71,3.73
4142.73,3.16
4184.15,2.62
4226.00,1.94
4268.26,1.16
4310.94,0.27
4354.05,-0.66
4397.59,-1.52
4441.56,-1.95
4485.98,-1.82
4530.84,-0.80
4576.15,0.01
4621.91,1.07
4668.13,1.48
4714.81,1.48
4761.96,1.34
4809.58,1.12
4857.67,0.82
4906.25,0.51
4955.31,0.31
5004.87,0.19
5054.91,0.32
5105.46,0.33
5156.52,0.08
5208.08,0.13
5260.16,0.15
5312.77,0.06
5365.89,0.66
5419.55,0.80
5473.75,0.79
5528.49,0.50
5583.77,-0.51
5639.61,-0.42
5696.00,-1.02
5752.96,-1.69
5810.49,-2.19
5868.60,-3.26
5927.28,-2.78
5986.56,-2.37
6046.42,-2.49
6106.89,-3.23
6167.96,-4.33
6229.64,-4.78
6291.93,-4.79
6354.85,-5.01
6418.40,-5.36
6482.58,-5.66
6547.41,-5.53
6612.88,-5.47
6679.01,-5.55
6745.80,-5.52
6813.26,-5.46
6881.39,-5.29
6950.21,-4.89
7019.71,-4.35
7089.91,-3.98
7160.81,-3.98
7232.41,-4.10
7304.74,-4.25
7377.79,-4.54
7451.56,-4.06
7526.08,-3.79
7601.34,-3.59
7677.35,-3.14
7754.13,-2.57
7831.67,-2.00
7909.98,-1.31
7989.08,-0.46
8068.98,0.19
8149.67,0.74
8231.16,1.73
8313.47,3.31
8396.61,4.52
8480.57,5.32
8565.38,5.29
8651.03,4.74
8737.54,3.51
8824.92,3.49
8913.17,3.59
9002.30,3.40
9092.32,4.04
9183.25,4.26
9275.08,4.26
9367.83,3.87
9461.51,3.56
9556.12,2.72
9651.68,1.95
9748.20,1.53
9845.68,1.33
9944.14,1.21
10043.58,1.17
10144.02,1.26
10245.46,1.31
10347.91,1.28
10451.39,0.79
10555.91,0.35
10661.46,-0.17
10768.08,-0.90
10875.76,-1.26
10984.52,-1.60
11094.36,-2.41
11205.31,-2.81
11317.36,-3.33
11430.53,-4.19
11544.84,-5.28
11660.29,-6.49
11776.89,-8.03
11894.66,-9.60
12013.60,-10.81
12133.74,-12.00
12255.08,-13.24
12377.63,-14.79
12501.41,-15.93
12626.42,-17.40
12752.68,-18.83
12880.21,-20.02
13009.01,-21.07
13139.10,-19.66
13270.49,-18.56
13403.20,-17.28
13537.23,-16.45
13672.60,-16.53
13809.33,-17.29
13947.42,-17.39
14086.90,-16.53
14227.77,-15.96
14370.04,-15.26
14513.74,-14.47
14658.88,-13.55
14805.47,-13.23
14953.52,-13.59
15103.06,-14.13
15254.09,-14.45
15406.63,-14.61
15560.70,-14.82
15716.30,-14.85
15873.47,-15.49
16032.20,-16.02
16192.52,-16.41
16354.45,-16.66
16517.99,-17.18
16683.17,-16.29
16850.01,-15.43
17018.51,-14.11
17188.69,-12.27
17360.58,-11.37
17534.18,-10.45
17709.53,-10.17
17886.62,-10.29
18065.49,-10.31
18246.14,-10.19
18428.60,-9.39
18612.89,-8.67
18799.02,-7.66
18987.01,-8.15
19176.88,-8.78
19368.65,-9.43
19562.33,-10.12
19757.96,-11.42
19955.54,-12.45
