frequency,raw
20.00,-1.51
20.20,-1.47
20.40,-1.43
20.61,-1.39
20.81,-1.36
21.02,-1.32
21.23,-1.27
21.44,-1.23
21.66,-1.19
21.87,-1.14
22.09,-1.10
22.31,-1.05
22.54,-1.00
22.76,-0.94
22.99,-0.89
23.22,-0.87
23.45,-0.85
23.69,-0.83
23.92,-0.81
24.16,-0.79
24.40,-0.76
24.65,-0.74
24.89,-0.72
25.14,-0.68
25.39,-0.63
25.65,-0.57
25.91,-0.52
26.16,-0.50
26.43,-0.50
26.69,-0.50
26.96,-0.50
27.23,-0.45
27.50,-0.39
27.77,-0.33
28.05,-0.28
28.33,-0.29
28.62,-0.29
28.90,-0.30
29.19,-0.30
29.48,-0.30
29.78,-0.30
30.08,-0.30
30.38,-0.30
30.68,-0.30
30.99,-0.30
31.30,-0.30
31.61,-0.30
31.93,-0.30
32.24,-0.30
32.57,-0.30
32.89,-0.30
33.22,-0.30
33.55,-0.31
33.89,-0.31
34.23,-0.33
34.57,-0.36
34.92,-0.39
35.27,-0.43
35.62,-0.46
35.97,-0.50
36.33,-0.51
36.70,-0.51
37.06,-0.53
37.43,-0.60
37.81,-0.67
38.19,-0.72
38.57,-0.76
38.95,-0.80
39.34,-0.82
39.74,-0.84
40.14,-0.85
40.54,-0.83
40.94,-0.80
41.35,-0.79
41.76,-0.78
42.18,-0.80
42.60,-0.85
43.03,-0.90
43.46,-0.98
43.90,-1.06
44.33,-1.16
44.78,-1.27
45.23,-1.32
45.68,-1.31
46.13,-1.29
46.60,-1.28
47.06,-1.25
47.53,-1.16
48.01,-1.08
48.49,-1.10
48.97,-1.12
49.46,-1.06
49.96,-1.01
50.46,-1.00
50.96,-1.00
51.47,-1.00
51.99,-1.00
52.51,-1.00
53.03,-1.00
53.56,-1.00
54.10,-1.01
54.64,-1.06
55.18,-1.10
55.74,-1.10
56.29,-1.15
56.86,-1.24
57.42,-1.28
58.00,-1.30
58.58,-1.32
59.16,-1.35
59.76,-1.39
60.35,-1.40
60.96,-1.40
61.57,-1.40
62.18,-1.41
62.80,-1.45
63.43,-1.48
64.07,-1.51
64.71,-1.51
65.35,-1.51
66.01,-1.51
66.67,-1.44
67.33,-1.41
68.01,-1.40
68.69,-1.32
69.37,-1.23
70.07,-1.13
70.77,-1.07
71.48,-0.99
72.19,-0.89
72.91,-0.77
73.64,-0.62
74.38,-0.49
75.12,-0.38
75.87,-0.26
76.63,-0.08
77.40,0.11
78.17,0.30
78.95,0.47
79.74,0.61
80.54,0.78
81.35,0.95
82.16,1.09
82.98,1.20
83.81,1.43
84.65,1.62
85.50,1.75
86.35,1.86
87.22,2.00
88.09,2.15
88.97,2.35
89.86,2.58
90.76,2.74
91.66,2.85
92.58,2.98
93.51,3.13
94.44,3.25
95.39,3.36
96.34,3.53
97.30,3.75
98.28,3.93
99.26,4.07
100.25,4.23
101.25,4.34
102.27,4.42
103.29,4.55
104.32,4.66
105.37,4.75
106.42,4.87
107.48,4.99
108.56,5.03
109.64,5.01
110.74,4.99
111.85,5.00
112.97,5.11
114.10,5.25
115.24,5.39
116.39,5.51
117.55,5.62
118.73,5.73
119.92,5.78
121.12,5.79
122.33,5.85
123.55,5.92
124.79,6.00
126.03,6.02
127.29,6.02
128.57,5.98
129.85,5.92
131.15,5.93
132.46,5.95
133.79,5.97
135.12,5.90
136.48,5.79
137.84,5.76
139.22,5.67
140.61,5.57
142.02,5.51
143.44,5.40
144.87,5.33
146.32,5.27
147.78,5.19
149.26,5.09
150.75,4.95
152.26,4.95
153.78,4.91
155.32,4.78
156.88,4.59
158.44,4.44
160.03,4.27
161.63,4.10
163.24,4.10
164.88,4.23
166.53,4.55
168.19,4.88
169.87,5.18
171.57,5.42
173.29,5.59
175.02,5.67
176.77,5.71
178.54,5.72
180.32,5.72
182.13,5.72
183.95,5.73
185.79,5.69
187.65,5.65
189.52,5.59
191.42,5.54
193.33,5.47
195.27,5.36
197.22,5.30
199.19,5.22
201.18,5.09
203.19,5.05
205.23,5.04
207.28,4.92
209.35,4.86
211.44,4.83
213.56,4.71
215.69,4.60
217.85,4.53
220.03,4.41
222.23,4.27
224.45,4.15
226.70,4.02
228.96,3.87
231.25,3.76
233.57,3.65
235.90,3.56
238.26,3.48
240.64,3.40
243.05,3.29
245.48,3.21
247.93,3.18
250.41,3.07
252.92,2.90
255.45,2.78
258.00,2.74
260.58,2.70
263.19,2.65
265.82,2.61
268.48,2.52
271.16,2.48
273.87,2.45
276.61,2.30
279.38,2.15
282.17,2.02
284.99,1.90
287.84,1.75
290.72,1.54
293.63,1.53
296.57,1.46
299.53,1.34
302.53,1.21
305.55,1.12
308.61,1.00
311.69,0.86
314.81,0.75
317.96,0.62
321.14,0.49
324.35,0.40
327.59,0.26
330.87,0.11
334.18,0.00
337.52,-0.13
340.90,-0.30
344.30,-0.47
347.75,-0.59
351.23,-0.72
354.74,-0.85
358.28,-0.98
361.87,-1.13
365.49,-1.32
369.14,-1.47
372.83,-1.57
376.56,-1.68
380.33,-1.81
384.13,-1.94
387.97,-2.13
391.85,-2.28
395.77,-2.38
399.73,-2.51
403.72,-2.65
407.76,-2.76
411.84,-2.81
415.96,-2.96
420.12,-3.10
424.32,-3.17
428.56,-3.27
432.85,-3.35
437.18,-3.41
441.55,-3.39
445.96,-3.35
450.42,-3.30
454.93,-3.24
459.48,-3.18
464.07,-3.12
468.71,-3.06
473.40,-2.98
478.13,-2.89
482.91,-2.79
487.74,-2.67
492.62,-2.49
497.55,-2.31
502.52,-2.17
507.55,-2.07
512.62,-1.96
517.75,-1.82
522.93,-1.63
528.16,-1.48
533.44,-1.38
538.77,-1.29
544.16,-1.19
549.60,-1.09
555.10,-0.96
560.65,-0.85
566.25,-0.72
571.92,-0.60
577.64,-0.50
583.41,-0.51
589.25,-0.40
595.14,-0.35
601.09,-0.32
607.10,-0.23
613.17,-0.21
619.30,-0.19
625.50,-0.14
631.75,-0.10
638.07,-0.12
644.45,-0.21
650.89,-0.32
657.40,-0.36
663.98,-0.34
670.62,-0.25
677.32,-0.29
684.10,-0.40
690.94,-0.54
697.85,-0.66
704.83,-0.74
711.87,-0.87
718.99,-1.02
726.18,-1.12
733.44,-1.18
740.78,-1.22
748.19,-1.16
755.67,-1.01
763.23,-0.84
770.86,-0.53
778.57,-0.29
786.35,-0.04
794.22,0.22
802.16,0.43
810.18,0.62
818.28,0.69
826.46,0.58
834.73,0.51
843.08,0.48
851.51,0.29
860.02,0.23
868.62,0.22
877.31,0.20
886.08,0.22
894.94,0.27
903.89,0.39
912.93,0.40
922.06,0.27
931.28,0.19
940.59,0.13
950.00,0.18
959.50,0.19
969.09,0.12
978.78,0.07
988.57,0.03
998.46,0.01
1008.44,-0.04
1018.53,-0.03
1028.71,-0.00
1039.00,0.05
1049.39,0.10
1059.88,0.04
1070.48,0.03
1081.19,0.14
1092.00,0.24
1102.92,0.31
1113.95,0.37
1125.09,0.43
1136.34,0.50
1147.70,0.50
1159.18,0.57
1170.77,0.68
1182.48,0.67
1194.30,0.67
1206.25,0.69
1218.31,0.76
1230.49,0.94
1242.80,1.07
1255.22,1.11
1267.78,1.23
1280.45,1.39
1293.26,1.45
1306.19,1.56
1319.25,1.68
1332.45,1.77
1345.77,1.90
1359.23,2.07
1372.82,2.22
1386.55,2.36
1400.41,2.50
1414.42,2.39
1428.56,2.32
1442.85,2.29
1457.28,2.41
1471.85,2.67
1486.57,2.88
1501.43,3.09
1516.45,3.29
1531.61,3.55
1546.93,3.86
1562.40,3.95
1578.02,4.04
1593.80,4.21
1609.74,4.51
1625.84,4.75
1642.10,4.91
1658.52,5.04
1675.10,5.32
1691.85,5.59
1708.77,5.79
1725.86,6.00
1743.12,6.38
1760.55,6.62
1778.15,6.71
1795.94,6.78
1813.90,6.99
1832.03,7.31
1850.36,7.44
1868.86,7.46
1887.55,7.44
1906.42,7.52
1925.49,7.63
1944.74,7.85
1964.19,8.08
1983.83,8.33
2003.67,8.58
2023.71,8.84
2043.94,9.07
2064.38,9.31
2085.03,9.55
2105.88,9.74
2126.94,9.92
2148.20,10.09
2169.69,10.27
2191.38,10.40
2213.30,10.55
2235.43,10.75
2257.78,10.95
2280.36,11.21
2303.17,11.52
2326.20,11.76
2349.46,11.99
2372.95,12.25
2396.68,12.46
2420.65,12.62
2444.86,12.75
2469.31,12.81
2494.00,12.99
2518.94,13.15
2544.13,13.37
2569.57,13.62
2595.27,13.90
2621.22,14.19
2647.43,14.39
2673.90,14.58
2700.64,14.77
2727.65,14.96
2754.93,15.05
2782.48,15.09
2810.30,15.07
2838.40,14.92
2866.79,14.74
2895.46,14.69
2924.41,14.49
2953.65,14.37
2983.19,14.31
3013.02,14.28
3043.15,14.33
3073.58,14.44
3104.32,14.56
3135.36,14.66
3166.72,14.79
3198.38,15.00
3230.37,15.13
3262.67,15.28
3295.30,15.43
3328.25,15.58
3361.53,15.81
3395.15,15.91
3429.10,15.85
3463.39,15.72
3498.03,15.55
3533.01,15.40
3568.34,15.22
3604.02,15.07
3640.06,14.92
3676.46,14.76
3713.22,14.58
3750.36,14.31
3787.86,13.99
3825.74,13.70
3864.00,13.42
3902.64,13.13
3941.66,12.86
3981.08,12.54
4020.89,12.17
4061.10,11.82
4101.71,11.51
4142.73,11.20
4184.15,10.86
4226.00,10.39
4268.26,9.94
4310.94,9.58
4354.05,9.17
4397.59,8.66
4441.56,8.25
4485.98,7.84
4530.84,7.29
4576.15,6.93
4621.91,6.62
4668.13,6.13
4714.81,5.74
4761.96,5.45
4809.58,5.15
4857.67,4.77
4906.25,4.66
4955.31,4.51
5004.87,4.35
5054.91,4.27
5105.46,4.18
5156.52,4.20
5208.08,4.32
5260.16,4.44
5312.77,4.59
5365.89,4.53
5419.55,4.41
5473.75,4.23
5528.49,3.82
5583.77,3.74
5639.61,4.02
5696.00,3.63
5752.96,3.34
5810.49,3.45
5868.60,3.67
5927.28,3.96
5986.56,4.13
6046.42,4.07
6106.89,4.00
6167.96,3.87
6229.64,3.61
6291.93,3.53
6354.85,3.38
6418.40,3.12
6482.58,2.89
6547.41,2.87
6612.88,2.87
6679.01,2.70
6745.80,2.26
6813.26,2.00
6881.39,1.78
6950.21,1.96
7019.71,1.80
7089.91,1.55
7160.81,1.30
7232.41,1.00
7304.74,0.68
7377.79,0.06
7451.56,-0.44
7526.08,-0.97
7601.34,-1.45
7677.35,-2.10
7754.13,-2.38
7831.67,-2.26
7909.98,-2.07
7989.08,-1.60
8068.98,-0.71
8149.67,-0.23
8231.16,0.63
8313.47,1.73
8396.61,2.22
8480.57,2.20
8565.38,2.26
8651.03,2.93
8737.54,3.87
8824.92,4.47
8913.17,4.63
9002.30,4.42
9092.32,4.79
9183.25,5.14
9275.08,5.89
9367.83,6.48
9461.51,6.74
9556.12,6.73
9651.68,6.47
9748.20,5.79
9845.68,5.09
9944.14,4.72
10043.58,4.36
10144.02,4.28
10245.46,4.32
10347.91,3.95
10451.39,3.09
10555.91,2.39
10661.46,1.70
10768.08,0.70
10875.76,-0.01
10984.52,-0.40
11094.36,-1.06
11205.31,-1.14
11317.36,-0.85
11430.53,-1.10
11544.84,-1.33
11660.29,-1.40
11776.89,-1.38
11894.66,-1.42
12013.60,-1.67
12133.74,-1.45
12255.08,-0.89
12377.63,-0.45
12501.41,-0.40
12626.42,-0.96
12752.68,-2.39
12880.21,-3.65
13009.01,-4.86
13139.10,-5.44
13270.49,-6.18
13403.20,-6.34
13537.23,-5.57
13672.60,-5.00
13809.33,-4.98
13947.42,-5.16
14086.90,-5.64
14227.77,-6.70
14370.04,-6.85
14513.74,-6.61
14658.88,-6.95
14805.47,-7.64
14953.52,-9.00
15103.06,-10.80
15254.09,-11.57
15406.63,-11.90
15560.70,-12.62
15716.30,-12.50
15873.47,-11.81
16032.20,-10.44
16192.52,-9.52
16354.45,-8.66
16517.99,-7.65
16683.17,-6.87
16850.01,-6.07
17018.51,-5.55
17188.69,-5.27
17360.58,-5.06
17534.18,-4.91
17709.53,-4.88
17886.62,-4.72
18065.49,-4.40
18246.14,-4.14
18428.60,-3.90
18612.89,-3.52
18799.02,-3.10
18987.01,-2.98
19176.88,-3.23
19368.65,-4.04
19562.33,-3.81
19757.96,-2.54
19955.54,-1.78
