frequency,raw
20.00,-2.82
20.20,-2.74
20.40,-2.67
20.61,-2.59
20.81,-2.51
21.02,-2.43
21.23,-2.35
21.44,-2.26
21.66,-2.18
21.87,-2.09
22.09,-2.01
22.31,-1.94
22.54,-1.87
22.76,-1.80
22.99,-1.73
23.22,-1.67
23.45,-1.60
23.69,-1.53
23.92,-1.46
24.16,-1.40
24.40,-1.34
24.65,-1.28
24.89,-1.22
25.14,-1.15
25.39,-1.09
25.65,-1.03
25.91,-0.96
26.16,-0.92
26.43,-0.89
26.69,-0.86
26.96,-0.83
27.23,-0.77
27.50,-0.70
27.77,-0.64
28.05,-0.57
28.33,-0.49
28.62,-0.41
28.90,-0.33
29.19,-0.27
29.48,-0.22
29.78,-0.17
30.08,-0.12
30.38,-0.08
30.68,-0.05
30.99,-0.01
31.30,0.05
31.61,0.12
31.93,0.18
32.24,0.24
32.57,0.30
32.89,0.35
33.22,0.39
33.55,0.43
33.89,0.46
34.23,0.51
34.57,0.57
34.92,0.63
35.27,0.67
35.62,0.72
35.97,0.77
36.33,0.80
36.70,0.84
37.06,0.88
37.43,0.91
37.81,0.95
38.19,0.99
38.57,1.03
38.95,1.08
39.34,1.12
39.74,1.17
40.14,1.22
40.54,1.30
40.94,1.37
41.35,1.38
41.76,1.38
42.18,1.40
42.60,1.44
43.03,1.48
43.46,1.53
43.90,1.57
44.33,1.58
44.78,1.58
45.23,1.60
45.68,1.65
46.13,1.69
46.60,1.74
47.06,1.78
47.53,1.78
48.01,1.78
48.49,1.83
48.97,1.88
49.46,1.93
49.96,1.98
50.46,1.98
50.96,1.98
51.47,2.00
51.99,2.03
52.51,2.06
53.03,2.08
53.56,2.13
54.10,2.17
54.64,2.18
55.18,2.18
55.74,2.18
56.29,2.18
56.86,2.18
57.42,2.22
58.00,2.28
58.58,2.32
59.16,2.35
59.76,2.37
60.35,2.38
60.96,2.38
61.57,2.38
62.18,2.38
62.80,2.38
63.43,2.38
64.07,2.38
64.71,2.38
65.35,2.42
66.01,2.48
66.67,2.55
67.33,2.58
68.01,2.58
68.69,2.58
69.37,2.58
70.07,2.58
70.77,2.58
71.48,2.58
72.19,2.58
72.91,2.58
73.64,2.58
74.38,2.58
75.12,2.58
75.87,2.58
76.63,2.58
77.40,2.58
78.17,2.58
78.95,2.58
79.74,2.58
80.54,2.58
81.35,2.58
82.16,2.58
82.98,2.58
83.81,2.59
84.65,2.65
85.50,2.68
86.35,2.68
87.22,2.68
88.09,2.69
88.97,2.69
89.86,2.69
90.76,2.69
91.66,2.69
92.58,2.69
93.51,2.69
94.44,2.69
95.39,2.69
96.34,2.69
97.30,2.68
98.28,2.67
99.26,2.66
100.25,2.64
101.25,2.62
102.27,2.61
103.29,2.59
104.32,2.54
105.37,2.46
106.42,2.43
107.48,2.40
108.56,2.38
109.64,2.36
110.74,2.34
111.85,2.32
112.97,2.31
114.10,2.26
115.24,2.21
116.39,2.21
117.55,2.21
118.73,2.22
119.92,2.22
121.12,2.23
122.33,2.24
123.55,2.24
124.79,2.25
126.03,2.26
127.29,2.27
128.57,2.24
129.85,2.18
131.15,2.12
132.46,2.10
133.79,2.09
135.12,2.09
136.48,2.10
137.84,2.10
139.22,2.10
140.61,2.10
142.02,2.10
143.44,2.03
144.87,1.97
146.32,1.92
147.78,1.90
149.26,1.90
150.75,1.90
152.26,1.90
153.78,1.90
155.32,1.90
156.88,1.90
158.44,1.91
160.03,1.91
161.63,1.90
163.24,1.90
164.88,1.88
166.53,1.81
168.19,1.79
169.87,1.78
171.57,1.69
173.29,1.67
175.02,1.66
176.77,1.62
178.54,1.57
180.32,1.49
182.13,1.47
183.95,1.48
185.79,1.49
187.65,1.48
189.52,1.38
191.42,1.34
193.33,1.34
195.27,1.31
197.22,1.27
199.19,1.21
201.18,1.19
203.19,1.16
205.23,1.12
207.28,1.04
209.35,1.00
211.44,0.98
213.56,0.91
215.69,0.88
217.85,0.88
220.03,0.83
222.23,0.79
224.45,0.77
226.70,0.77
228.96,0.78
231.25,0.78
233.57,0.79
235.90,0.76
238.26,0.71
240.64,0.65
243.05,0.65
245.48,0.67
247.93,0.70
250.41,0.72
252.92,0.73
255.45,0.68
258.00,0.66
260.58,0.66
263.19,0.65
265.82,0.58
268.48,0.56
271.16,0.55
273.87,0.55
276.61,0.55
279.38,0.55
282.17,0.55
284.99,0.53
287.84,0.42
290.72,0.37
293.63,0.39
296.57,0.40
299.53,0.41
302.53,0.42
305.55,0.43
308.61,0.38
311.69,0.33
314.81,0.27
317.96,0.25
321.14,0.25
324.35,0.25
327.59,0.13
330.87,0.07
334.18,0.05
337.52,0.05
340.90,0.04
344.30,0.02
347.75,-0.10
351.23,-0.16
354.74,-0.15
358.28,-0.15
361.87,-0.14
365.49,-0.14
369.14,-0.25
372.83,-0.31
376.56,-0.32
380.33,-0.31
384.13,-0.30
387.97,-0.30
391.85,-0.31
395.77,-0.37
399.73,-0.44
403.72,-0.49
407.76,-0.50
411.84,-0.50
415.96,-0.57
420.12,-0.63
424.32,-0.69
428.56,-0.69
432.85,-0.68
437.18,-0.69
441.55,-0.70
445.96,-0.67
450.42,-0.62
454.93,-0.59
459.48,-0.66
464.07,-0.64
468.71,-0.59
473.40,-0.52
478.13,-0.48
482.91,-0.50
487.74,-0.48
492.62,-0.44
497.55,-0.41
502.52,-0.39
507.55,-0.37
512.62,-0.38
517.75,-0.44
522.93,-0.45
528.16,-0.46
533.44,-0.53
538.77,-0.60
544.16,-0.64
549.60,-0.69
555.10,-0.74
560.65,-0.79
566.25,-0.84
571.92,-0.88
577.64,-0.92
583.41,-0.94
589.25,-0.96
595.14,-0.97
601.09,-0.97
607.10,-0.96
613.17,-1.03
619.30,-1.03
625.50,-1.03
631.75,-1.06
638.07,-1.04
644.45,-1.01
650.89,-0.96
657.40,-0.92
663.98,-0.87
670.62,-0.81
677.32,-0.76
684.10,-0.72
690.94,-0.68
697.85,-0.64
704.83,-0.63
711.87,-0.62
718.99,-0.61
726.18,-0.64
733.44,-0.67
740.78,-0.69
748.19,-0.72
755.67,-0.75
763.23,-0.71
770.86,-0.62
778.57,-0.61
786.35,-0.61
794.22,-0.61
802.16,-0.61
810.18,-0.58
818.28,-0.51
826.46,-0.49
834.73,-0.42
843.08,-0.40
851.51,-0.40
860.02,-0.41
868.62,-0.38
877.31,-0.33
886.08,-0.33
894.94,-0.34
903.89,-0.26
912.93,-0.25
922.06,-0.25
931.28,-0.18
940.59,-0.15
950.00,-0.15
959.50,-0.14
969.09,-0.14
978.78,-0.09
988.57,-0.03
998.46,-0.00
1008.44,0.03
1018.53,0.12
1028.71,0.16
1039.00,0.19
1049.39,0.23
1059.88,0.27
1070.48,0.31
1081.19,0.36
1092.00,0.41
1102.92,0.47
1113.95,0.54
1125.09,0.60
1136.34,0.67
1147.70,0.75
1159.18,0.84
1170.77,0.93
1182.48,1.01
1194.30,0.99
1206.25,1.05
1218.31,1.16
1230.49,1.29
1242.80,1.36
1255.22,1.38
1267.78,1.49
1280.45,1.60
1293.26,1.62
1306.19,1.73
1319.25,1.88
1332.45,1.97
1345.77,2.07
1359.23,2.15
1372.82,2.23
1386.55,2.33
1400.41,2.46
1414.42,2.49
1428.56,2.55
1442.85,2.66
1457.28,2.78
1471.85,2.90
1486.57,3.00
1501.43,3.12
1516.45,3.26
1531.61,3.35
1546.93,3.43
1562.40,3.57
1578.02,3.66
1593.80,3.73
1609.74,3.89
1625.84,4.02
1642.10,4.17
1658.52,4.28
1675.10,4.36
1691.85,4.51
1708.77,4.66
1725.86,4.79
1743.12,4.88
1760.55,4.96
1778.15,5.06
1795.94,5.10
1813.90,5.16
1832.03,5.23
1850.36,5.22
1868.86,5.21
1887.55,5.27
1906.42,5.31
1925.49,5.31
1944.74,5.26
1964.19,5.13
1983.83,5.04
2003.67,4.97
2023.71,4.94
2043.94,4.93
2064.38,4.88
2085.03,4.81
2105.88,4.76
2126.94,4.71
2148.20,4.75
2169.69,4.57
2191.38,4.46
2213.30,4.50
2235.43,4.52
2257.78,4.53
2280.36,4.51
2303.17,4.39
2326.20,4.26
2349.46,4.20
2372.95,4.23
2396.68,4.28
2420.65,4.24
2444.86,4.14
2469.31,3.94
2494.00,3.65
2518.94,3.54
2544.13,3.42
2569.57,3.23
2595.27,3.12
2621.22,2.94
2647.43,2.75
2673.90,2.58
2700.64,2.53
2727.65,2.45
2754.93,2.27
2782.48,1.99
2810.30,1.52
2838.40,0.84
2866.79,-0.48
2895.46,-1.41
2924.41,-2.72
2953.65,-3.90
2983.19,-4.69
3013.02,-5.85
3043.15,-6.37
3073.58,-6.61
3104.32,-7.54
3135.36,-8.92
3166.72,-9.14
3198.38,-8.34
3230.37,-7.25
3262.67,-6.06
3295.30,-5.07
3328.25,-4.22
3361.53,-3.14
3395.15,-2.00
3429.10,-0.73
3463.39,0.91
3498.03,2.32
3533.01,3.28
3568.34,4.03
3604.02,4.87
3640.06,5.47
3676.46,6.06
3713.22,6.74
3750.36,7.28
3787.86,7.77
3825.74,8.33
3864.00,8.80
3902.64,9.25
3941.66,9.87
3981.08,10.62
4020.89,10.96
4061.10,11.41
4101.71,11.93
4142.73,12.24
4184.15,12.42
4226.00,12.29
4268.26,11.85
4310.94,11.44
4354.05,10.96
4397.59,10.24
4441.56,9.63
4485.98,8.90
4530.84,8.07
4576.15,7.40
4621.91,6.71
4668.13,5.80
4714.81,5.10
4761.96,4.52
4809.58,3.69
4857.67,3.00
4906.25,2.48
4955.31,1.83
5004.87,1.08
5054.91,0.50
5105.46,0.14
5156.52,-0.34
5208.08,-0.80
5260.16,-1.09
5312.77,-1.33
5365.89,-1.58
5419.55,-1.86
5473.75,-2.09
5528.49,-2.19
5583.77,-2.26
5639.61,-2.37
5696.00,-2.58
5752.96,-2.86
5810.49,-3.11
5868.60,-3.40
5927.28,-3.72
5986.56,-4.09
6046.42,-4.47
6106.89,-4.92
6167.96,-5.32
6229.64,-5.59
6291.93,-5.75
6354.85,-6.01
6418.40,-6.29
6482.58,-6.40
6547.41,-6.49
6612.88,-6.89
6679.01,-7.63
6745.80,-8.12
6813.26,-8.26
6881.39,-8.28
6950.21,-8.43
7019.71,-8.52
7089.91,-8.61
7160.81,-8.42
7232.41,-8.26
7304.74,-8.16
7377.79,-7.96
7451.56,-7.82
7526.08,-7.65
7601.34,-7.38
7677.35,-6.98
7754.13,-6.50
7831.67,-6.18
7909.98,-5.80
7989.08,-5.26
8068.98,-4.47
8149.67,-3.85
8231.16,-3.28
8313.47,-2.61
8396.61,-2.06
8480.57,-2.08
8565.38,-2.41
8651.03,-2.63
8737.54,-2.79
8824.92,-2.69
8913.17,-2.58
9002.30,-2.06
9092.32,-1.72
9183.25,-1.92
9275.08,-2.06
9367.83,-2.37
9461.51,-2.53
9556.12,-2.74
9651.68,-2.92
9748.20,-3.20
9845.68,-3.64
9944.14,-4.00
10043.58,-4.33
10144.02,-4.69
10245.46,-5.23
10347.91,-5.98
10451.39,-7.25
10555.91,-8.24
10661.46,-9.40
10768.08,-10.64
10875.76,-12.05
10984.52,-12.87
11094.36,-14.88
11205.31,-15.74
11317.36,-15.48
11430.53,-15.22
11544.84,-15.78
11660.29,-15.83
11776.89,-15.14
11894.66,-14.50
12013.60,-14.17
12133.74,-14.15
12255.08,-14.11
12377.63,-13.49
12501.41,-14.27
12626.42,-14.52
12752.68,-14.13
12880.21,-13.95
13009.01,-13.05
13139.10,-12.69
13270.49,-12.67
13403.20,-12.60
13537.23,-12.89
13672.60,-12.90
13809.33,-12.88
13947.42,-12.34
14086.90,-12.35
14227.77,-12.90
14370.04,-13.46
14513.74,-14.08
14658.88,-14.75
14805.47,-15.39
14953.52,-16.07
15103.06,-16.46
15254.09,-16.41
15406.63,-15.84
15560.70,-14.65
15716.30,-13.90
15873.47,-13.54
16032.20,-13.18
16192.52,-13.23
16354.45,-13.39
16517.99,-13.73
16683.17,-14.17
16850.01,-14.67
17018.51,-15.45
17188.69,-15.94
17360.58,-16.27
17534.18,-16.93
17709.53,-18.04
17886.62,-18.89
18065.49,-19.44
18246.14,-20.09
18428.60,-20.71
18612.89,-21.26
18799.02,-21.68
18987.01,-19.39
19176.88,-16.79
19368.65,-14.70
19562.33,-14.59
19757.96,-15.66
19955.54,-16.79
