frequency,raw
20.00,-6.19
20.20,-6.19
20.40,-6.18
20.61,-6.18
20.81,-6.17
21.02,-6.16
21.23,-6.04
21.44,-5.93
21.66,-5.81
21.87,-5.70
22.09,-5.62
22.31,-5.61
22.54,-5.59
22.76,-5.58
22.99,-5.56
23.22,-5.52
23.45,-5.47
23.69,-5.43
23.92,-5.38
24.16,-5.26
24.40,-5.10
24.65,-4.94
24.89,-4.78
25.14,-4.67
25.39,-4.60
25.65,-4.53
25.91,-4.46
26.16,-4.45
26.43,-4.48
26.69,-4.51
26.96,-4.54
27.23,-4.44
27.50,-4.30
27.77,-4.17
28.05,-4.04
28.33,-3.91
28.62,-3.78
28.90,-3.65
29.19,-3.64
29.48,-3.69
29.78,-3.74
30.08,-3.75
30.38,-3.65
30.68,-3.55
30.99,-3.44
31.30,-3.40
31.61,-3.36
31.93,-3.32
32.24,-3.21
32.57,-3.08
32.89,-2.95
33.22,-2.87
33.55,-2.80
33.89,-2.73
34.23,-2.66
34.57,-2.59
34.92,-2.52
35.27,-2.51
35.62,-2.53
35.97,-2.55
36.33,-2.50
36.70,-2.44
37.06,-2.37
37.43,-2.23
37.81,-2.10
38.19,-2.01
38.57,-1.96
38.95,-1.92
39.34,-1.89
39.74,-1.86
40.14,-1.84
40.54,-1.86
40.94,-1.87
41.35,-1.75
41.76,-1.60
42.18,-1.55
42.60,-1.61
43.03,-1.65
43.46,-1.48
43.90,-1.31
44.33,-1.32
44.78,-1.39
45.23,-1.37
45.68,-1.27
46.13,-1.22
46.60,-1.28
47.06,-1.31
47.53,-1.08
48.01,-0.86
48.49,-0.93
48.97,-1.00
49.46,-1.00
49.96,-1.00
50.46,-1.00
50.96,-1.00
51.47,-1.00
51.99,-1.00
52.51,-1.00
53.03,-1.00
53.56,-1.08
54.10,-1.12
54.64,-0.99
55.18,-0.92
55.74,-0.99
56.29,-0.89
56.86,-0.64
57.42,-0.68
58.00,-0.82
58.58,-0.65
59.16,-0.50
59.76,-0.43
60.35,-0.40
60.96,-0.40
61.57,-0.34
62.18,-0.28
62.80,-0.22
63.43,-0.17
64.07,-0.14
64.71,-0.19
65.35,-0.24
66.01,-0.30
66.67,-0.30
67.33,-0.33
68.01,-0.38
68.69,-0.47
69.37,-0.55
70.07,-0.62
70.77,-0.61
71.48,-0.73
72.19,-0.85
72.91,-0.79
73.64,-0.73
74.38,-0.78
75.12,-0.89
75.87,-0.81
76.63,-0.70
77.40,-0.58
78.17,-0.46
78.95,-0.30
79.74,-0.15
80.54,-0.08
81.35,-0.01
82.16,0.08
82.98,0.15
83.81,0.28
84.65,0.34
85.50,0.38
86.35,0.41
87.22,0.43
88.09,0.52
88.97,0.58
89.86,0.61
90.76,0.61
91.66,0.62
92.58,0.59
93.51,0.54
94.44,0.68
95.39,0.90
96.34,0.88
97.30,0.81
98.28,0.80
99.26,0.78
100.25,0.77
101.25,0.75
102.27,0.74
103.29,0.72
104.32,0.73
105.37,0.78
106.42,0.78
107.48,0.81
108.56,0.81
109.64,0.79
110.74,0.77
111.85,0.75
112.97,0.74
114.10,0.73
115.24,0.73
116.39,0.73
117.55,0.74
118.73,0.74
119.92,0.75
121.12,0.76
122.33,0.76
123.55,0.77
124.79,0.78
126.03,0.79
127.29,0.79
128.57,0.80
129.85,0.81
131.15,0.81
132.46,0.82
133.79,0.82
135.12,0.82
136.48,0.83
137.84,0.83
139.22,0.83
140.61,0.83
142.02,0.83
143.44,0.83
144.87,0.83
146.32,0.83
147.78,0.83
149.26,0.83
150.75,0.83
152.26,0.83
153.78,0.83
155.32,0.83
156.88,0.74
158.44,0.66
160.03,0.74
161.63,0.75
163.24,0.54
164.88,0.47
166.53,0.51
168.19,0.52
169.87,0.50
171.57,0.41
173.29,0.49
175.02,0.59
176.77,0.59
178.54,0.59
180.32,0.59
182.13,0.60
183.95,0.61
185.79,0.62
187.65,0.63
189.52,0.65
191.42,0.66
193.33,0.67
195.27,0.69
197.22,0.70
199.19,0.72
201.18,0.72
203.19,0.73
205.23,0.73
207.28,0.73
209.35,0.68
211.44,0.57
213.56,0.65
215.69,0.65
217.85,0.52
220.03,0.51
222.23,0.51
224.45,0.51
226.70,0.51
228.96,0.51
231.25,0.52
233.57,0.53
235.90,0.44
238.26,0.37
240.64,0.50
243.05,0.57
245.48,0.47
247.93,0.44
250.41,0.45
252.92,0.47
255.45,0.48
258.00,0.49
260.58,0.49
263.19,0.47
265.82,0.31
268.48,0.42
271.16,0.41
273.87,0.29
276.61,0.28
279.38,0.28
282.17,0.28
284.99,0.29
287.84,0.35
290.72,0.41
293.63,0.25
296.57,0.23
299.53,0.25
302.53,0.26
305.55,0.21
308.61,0.10
311.69,0.13
314.81,0.20
317.96,0.27
321.14,0.20
324.35,0.11
327.59,0.09
330.87,0.09
334.18,0.08
337.52,0.08
340.90,0.01
344.30,-0.04
347.75,-0.10
351.23,-0.12
354.74,-0.12
358.28,-0.11
361.87,-0.11
365.49,-0.10
369.14,-0.06
372.83,-0.02
376.56,-0.11
380.33,-0.16
384.13,-0.16
387.97,-0.16
391.85,-0.16
395.77,-0.16
399.73,-0.16
403.72,-0.16
407.76,-0.16
411.84,-0.12
415.96,-0.11
420.12,-0.19
424.32,-0.25
428.56,-0.25
432.85,-0.24
437.18,-0.29
441.55,-0.31
445.96,-0.25
450.42,-0.15
454.93,-0.07
459.48,-0.11
464.07,-0.10
468.71,-0.05
473.40,-0.00
478.13,-0.07
482.91,-0.02
487.74,0.01
492.62,0.03
497.55,0.17
502.52,0.25
507.55,0.30
512.62,0.28
517.75,0.21
522.93,0.19
528.16,0.18
533.44,0.17
538.77,0.14
544.16,0.10
549.60,0.05
555.10,0.00
560.65,-0.05
566.25,-0.10
571.92,-0.14
577.64,-0.17
583.41,-0.18
589.25,-0.29
595.14,-0.34
601.09,-0.43
607.10,-0.44
613.17,-0.41
619.30,-0.39
625.50,-0.36
631.75,-0.34
638.07,-0.30
644.45,-0.27
650.89,-0.22
657.40,-0.18
663.98,-0.13
670.62,-0.07
677.32,-0.02
684.10,-0.04
690.94,-0.07
697.85,-0.02
704.83,0.01
711.87,0.02
718.99,0.01
726.18,-0.00
733.44,-0.03
740.78,-0.05
748.19,-0.08
755.67,-0.11
763.23,-0.14
770.86,-0.04
778.57,-0.01
786.35,-0.08
794.22,-0.09
802.16,-0.00
810.18,0.01
818.28,0.01
826.46,0.18
834.73,0.26
843.08,0.23
851.51,0.20
860.02,0.40
868.62,0.47
877.31,0.43
886.08,0.38
894.94,0.39
903.89,0.58
912.93,0.61
922.06,0.47
931.28,0.45
940.59,0.53
950.00,0.39
959.50,0.21
969.09,0.11
978.78,0.09
988.57,0.02
998.46,0.00
1008.44,0.11
1018.53,0.19
1028.71,0.26
1039.00,0.30
1049.39,0.54
1059.88,0.65
1070.48,0.66
1081.19,0.67
1092.00,0.71
1102.92,0.88
1113.95,0.97
1125.09,1.03
1136.34,1.11
1147.70,1.19
1159.18,1.28
1170.77,1.37
1182.48,1.43
1194.30,1.48
1206.25,1.48
1218.31,1.50
1230.49,1.54
1242.80,1.60
1255.22,1.65
1267.78,1.66
1280.45,1.70
1293.26,1.72
1306.19,1.73
1319.25,1.78
1332.45,1.80
1345.77,1.80
1359.23,1.86
1372.82,1.87
1386.55,1.87
1400.41,1.91
1414.42,1.92
1428.56,1.87
1442.85,1.88
1457.28,1.94
1471.85,1.93
1486.57,1.88
1501.43,1.83
1516.45,1.88
1531.61,1.98
1546.93,2.05
1562.40,2.01
1578.02,2.05
1593.80,2.12
1609.74,2.18
1625.84,2.32
1642.10,2.41
1658.52,2.55
1675.10,2.57
1691.85,2.62
1708.77,2.71
1725.86,2.69
1743.12,2.76
1760.55,2.88
1778.15,2.87
1795.94,2.98
1813.90,3.11
1832.03,3.05
1850.36,3.09
1868.86,3.28
1887.55,3.44
1906.42,3.47
1925.49,3.44
1944.74,3.42
1964.19,3.48
1983.83,3.41
2003.67,3.36
2023.71,3.43
2043.94,3.54
2064.38,3.69
2085.03,3.84
2105.88,3.83
2126.94,3.97
2148.20,4.19
2169.69,4.36
2191.38,4.62
2213.30,4.74
2235.43,4.76
2257.78,4.77
2280.36,4.93
2303.17,5.27
2326.20,5.33
2349.46,5.28
2372.95,5.47
2396.68,5.76
2420.65,6.00
2444.86,6.11
2469.31,6.11
2494.00,6.16
2518.94,6.33
2544.13,6.45
2569.57,6.51
2595.27,6.63
2621.22,6.76
2647.43,6.98
2673.90,7.31
2700.64,7.62
2727.65,7.83
2754.93,8.01
2782.48,8.23
2810.30,8.34
2838.40,8.49
2866.79,8.69
2895.46,8.89
2924.41,9.21
2953.65,9.45
2983.19,9.68
3013.02,9.97
3043.15,10.27
3073.58,10.56
3104.32,10.78
3135.36,10.94
3166.72,11.12
3198.38,11.24
3230.37,11.32
3262.67,11.35
3295.30,11.35
3328.25,11.38
3361.53,11.44
3395.15,11.47
3429.10,11.48
3463.39,11.49
3498.03,11.44
3533.01,11.29
3568.34,11.14
3604.02,11.08
3640.06,10.91
3676.46,10.59
3713.22,10.13
3750.36,9.81
3787.86,9.52
3825.74,9.14
3864.00,8.80
3902.64,8.50
3941.66,8.23
3981.08,7.99
4020.89,7.72
4061.10,7.46
4101.71,7.23
4142.73,6.91
4184.15,6.57
4226.00,6.29
4268.26,6.05
4310.94,5.82
4354.05,5.66
4397.59,5.51
4441.56,5.34
4485.98,5.10
4530.84,4.94
4576.15,4.83
4621.91,4.62
4668.13,4.39
4714.81,4.20
4761.96,3.91
4809.58,3.58
4857.67,3.27
4906.25,2.97
4955.31,2.59
5004.87,2.04
5054.91,1.60
5105.46,1.24
5156.52,0.80
5208.08,0.33
5260.16,-0.07
5312.77,-0.49
5365.89,-0.87
5419.55,-1.07
5473.75,-1.24
5528.49,-1.43
5583.77,-1.63
5639.61,-1.81
5696.00,-1.93
5752.96,-1.66
5810.49,-1.46
5868.60,-1.28
5927.28,-0.97
5986.56,-0.83
6046.42,-0.78
6106.89,-0.80
6167.96,-0.89
6229.64,-0.93
6291.93,-1.15
6354.85,-1.55
6418.40,-1.74
6482.58,-1.71
6547.41,-1.93
6612.88,-2.36
6679.01,-2.73
6745.80,-3.07
6813.26,-3.35
6881.39,-3.45
6950.21,-3.50
7019.71,-3.48
7089.91,-3.43
7160.81,-3.39
7232.41,-3.34
7304.74,-3.24
7377.79,-3.20
7451.56,-3.15
7526.08,-3.14
7601.34,-3.12
7677.35,-2.97
7754.13,-2.84
7831.67,-2.77
7909.98,-2.67
7989.08,-2.50
8068.98,-2.30
8149.67,-2.05
8231.16,-1.85
8313.47,-1.58
8396.61,-1.33
8480.57,-1.16
8565.38,-1.41
8651.03,-1.44
8737.54,-1.22
8824.92,-1.11
8913.17,-1.03
9002.30,-1.05
9092.32,-1.03
9183.25,-0.82
9275.08,-0.42
9367.83,-0.02
9461.51,0.34
9556.12,0.63
9651.68,0.86
9748.20,0.52
9845.68,-0.41
9944.14,-1.00
10043.58,-1.89
10144.02,-2.91
10245.46,-3.61
10347.91,-3.44
10451.39,-3.09
10555.91,-2.82
10661.46,-2.62
10768.08,-2.75
10875.76,-3.03
10984.52,-3.54
11094.36,-4.03
11205.31,-4.42
11317.36,-4.89
11430.53,-5.74
11544.84,-6.24
11660.29,-6.33
11776.89,-6.26
11894.66,-6.29
12013.60,-6.49
12133.74,-6.43
12255.08,-5.90
12377.63,-6.01
12501.41,-6.34
12626.42,-6.65
12752.68,-6.65
12880.21,-7.03
13009.01,-7.76
13139.10,-8.22
13270.49,-8.28
13403.20,-8.27
13537.23,-7.97
13672.60,-7.70
13809.33,-7.42
13947.42,-6.96
14086.90,-6.20
14227.77,-5.07
14370.04,-4.57
14513.74,-4.75
14658.88,-4.79
14805.47,-3.96
14953.52,-3.40
15103.06,-4.09
15254.09,-4.79
15406.63,-5.86
15560.70,-7.53
15716.30,-8.85
15873.47,-9.54
16032.20,-9.89
16192.52,-10.03
16354.45,-10.69
16517.99,-11.64
16683.17,-12.67
16850.01,-13.60
17018.51,-14.57
17188.69,-13.91
17360.58,-12.94
17534.18,-12.82
17709.53,-13.12
17886.62,-13.08
18065.49,-12.21
18246.14,-11.17
18428.60,-10.78
18612.89,-10.85
18799.02,-10.71
18987.01,-10.33
19176.88,-9.99
19368.65,-9.73
19562.33,-9.28
19757.96,-8.26
19955.54,-7.74
