frequency,raw
20.00,-1.54
20.20,-1.46
20.40,-1.38
20.61,-1.30
20.81,-1.21
21.02,-1.13
21.23,-1.03
21.44,-0.92
21.66,-0.82
21.87,-0.72
22.09,-0.66
22.31,-0.66
22.54,-0.67
22.76,-0.67
22.99,-0.67
23.22,-0.61
23.45,-0.55
23.69,-0.49
23.92,-0.43
24.16,-0.35
24.40,-0.26
24.65,-0.17
24.89,-0.08
25.14,0.00
25.39,0.08
25.65,0.15
25.91,0.22
26.16,0.28
26.43,0.34
26.69,0.39
26.96,0.44
27.23,0.44
27.50,0.43
27.77,0.43
28.05,0.43
28.33,0.47
28.62,0.51
28.90,0.56
29.19,0.60
29.48,0.66
29.78,0.71
30.08,0.78
30.38,0.90
30.68,1.02
30.99,1.13
31.30,1.04
31.61,0.94
31.93,0.83
32.24,0.90
32.57,1.02
32.89,1.14
33.22,1.22
33.55,1.29
33.89,1.36
34.23,1.40
34.57,1.44
34.92,1.47
35.27,1.45
35.62,1.41
35.97,1.37
36.33,1.47
36.70,1.59
37.06,1.68
37.43,1.67
37.81,1.66
38.19,1.68
38.57,1.74
38.95,1.79
39.34,1.86
39.74,1.93
40.14,1.96
40.54,1.92
40.94,1.87
41.35,2.02
41.76,2.20
42.18,2.28
42.60,2.23
43.03,2.18
43.46,2.15
43.90,2.12
44.33,2.17
44.78,2.24
45.23,2.33
45.68,2.43
46.13,2.48
46.60,2.43
47.06,2.39
47.53,2.43
48.01,2.48
48.49,2.59
48.97,2.69
49.46,2.59
49.96,2.48
50.46,2.57
50.96,2.67
51.47,2.68
51.99,2.68
52.51,2.68
53.03,2.68
53.56,2.68
54.10,2.67
54.64,2.62
55.18,2.62
55.74,2.73
56.29,2.78
56.86,2.78
57.42,2.87
58.00,2.99
58.58,2.95
59.16,2.92
59.76,2.90
60.35,2.85
60.96,2.78
61.57,2.90
62.18,2.99
62.80,2.99
63.43,2.99
64.07,2.99
64.71,2.99
65.35,2.99
66.01,2.99
66.67,2.99
67.33,2.99
68.01,2.99
68.69,2.93
69.37,2.98
70.07,3.08
70.77,3.01
71.48,2.96
72.19,2.94
72.91,2.98
73.64,2.99
74.38,2.99
75.12,2.99
75.87,2.99
76.63,2.99
77.40,2.97
78.17,2.92
78.95,2.86
79.74,2.80
80.54,2.78
81.35,2.78
82.16,2.78
82.98,2.78
83.81,2.67
84.65,2.64
85.50,2.61
86.35,2.61
87.22,2.72
88.09,2.87
88.97,2.82
89.86,2.79
90.76,2.79
91.66,2.79
92.58,2.79
93.51,2.79
94.44,2.79
95.39,2.79
96.34,2.79
97.30,2.77
98.28,2.72
99.26,2.71
100.25,2.82
101.25,2.82
102.27,2.81
103.29,2.80
104.32,2.78
105.37,2.75
106.42,2.73
107.48,2.71
108.56,2.68
109.64,2.66
110.74,2.64
111.85,2.62
112.97,2.61
114.10,2.60
115.24,2.48
116.39,2.49
117.55,2.50
118.73,2.52
119.92,2.52
121.12,2.53
122.33,2.54
123.55,2.55
124.79,2.55
126.03,2.56
127.29,2.57
128.57,2.57
129.85,2.58
131.15,2.60
132.46,2.64
133.79,2.56
135.12,2.49
136.48,2.37
137.84,2.35
139.22,2.38
140.61,2.41
142.02,2.46
143.44,2.48
144.87,2.38
146.32,2.33
147.78,2.31
149.26,2.30
150.75,2.25
152.26,2.19
153.78,2.11
155.32,2.11
156.88,2.11
158.44,2.11
160.03,2.13
161.63,2.10
163.24,1.94
164.88,1.88
166.53,1.89
168.19,1.89
169.87,1.88
171.57,1.85
173.29,1.74
175.02,1.70
176.77,1.75
178.54,1.82
180.32,1.77
182.13,1.70
183.95,1.68
185.79,1.69
187.65,1.70
189.52,1.62
191.42,1.58
193.33,1.62
195.27,1.66
197.22,1.67
199.19,1.72
201.18,1.75
203.19,1.60
205.23,1.45
207.28,1.46
209.35,1.49
211.44,1.51
213.56,1.56
215.69,1.50
217.85,1.25
220.03,1.24
222.23,1.26
224.45,1.33
226.70,1.32
228.96,1.18
231.25,1.07
233.57,1.05
235.90,1.17
238.26,1.16
240.64,1.06
243.05,0.97
245.48,0.91
247.93,0.97
250.41,1.04
252.92,1.12
255.45,1.02
258.00,0.97
260.58,0.96
263.19,0.94
265.82,0.81
268.48,0.81
271.16,0.85
273.87,0.92
276.61,0.89
279.38,0.78
282.17,0.75
284.99,0.76
287.84,0.80
290.72,0.84
293.63,0.64
296.57,0.55
299.53,0.60
302.53,0.62
305.55,0.65
308.61,0.69
311.69,0.62
314.81,0.53
317.96,0.42
321.14,0.43
324.35,0.50
327.59,0.46
330.87,0.38
334.18,0.35
337.52,0.35
340.90,0.37
344.30,0.36
347.75,0.19
351.23,0.11
354.74,0.14
358.28,0.17
361.87,0.18
365.49,0.09
369.14,0.07
372.83,0.04
376.56,-0.00
380.33,-0.07
384.13,-0.10
387.97,-0.10
391.85,-0.09
395.77,-0.08
399.73,-0.07
403.72,-0.12
407.76,-0.18
411.84,-0.20
415.96,-0.28
420.12,-0.32
424.32,-0.29
428.56,-0.30
432.85,-0.35
437.18,-0.35
441.55,-0.31
445.96,-0.27
450.42,-0.21
454.93,-0.16
459.48,-0.16
464.07,-0.13
468.71,-0.08
473.40,-0.01
478.13,0.04
482.91,0.08
487.74,-0.00
492.62,-0.03
497.55,-0.01
502.52,0.01
507.55,0.03
512.62,0.02
517.75,-0.03
522.93,-0.05
528.16,-0.06
533.44,-0.07
538.77,-0.10
544.16,-0.14
549.60,-0.19
555.10,-0.24
560.65,-0.37
566.25,-0.44
571.92,-0.48
577.64,-0.54
583.41,-0.63
589.25,-0.66
595.14,-0.67
601.09,-0.67
607.10,-0.66
613.17,-0.65
619.30,-0.66
625.50,-0.69
631.75,-0.67
638.07,-0.64
644.45,-0.60
650.89,-0.56
657.40,-0.51
663.98,-0.46
670.62,-0.41
677.32,-0.37
684.10,-0.40
690.94,-0.38
697.85,-0.34
704.83,-0.33
711.87,-0.32
718.99,-0.33
726.18,-0.34
733.44,-0.37
740.78,-0.39
748.19,-0.35
755.67,-0.35
763.23,-0.38
770.86,-0.39
778.57,-0.41
786.35,-0.41
794.22,-0.41
802.16,-0.41
810.18,-0.36
818.28,-0.31
826.46,-0.30
834.73,-0.30
843.08,-0.25
851.51,-0.19
860.02,-0.20
868.62,-0.21
877.31,-0.22
886.08,-0.24
894.94,-0.25
903.89,-0.17
912.93,-0.15
922.06,-0.15
931.28,-0.15
940.59,-0.15
950.00,-0.15
959.50,-0.07
969.09,-0.02
978.78,-0.03
988.57,-0.01
998.46,-0.00
1008.44,0.01
1018.53,0.04
1028.71,0.06
1039.00,0.11
1049.39,0.15
1059.88,0.10
1070.48,0.11
1081.19,0.16
1092.00,0.21
1102.92,0.27
1113.95,0.33
1125.09,0.39
1136.34,0.47
1147.70,0.55
1159.18,0.64
1170.77,0.73
1182.48,0.77
1194.30,0.83
1206.25,0.87
1218.31,0.89
1230.49,0.99
1242.80,1.05
1255.22,1.08
1267.78,1.19
1280.45,1.26
1293.26,1.28
1306.19,1.29
1319.25,1.38
1332.45,1.51
1345.77,1.56
1359.23,1.57
1372.82,1.49
1386.55,1.39
1400.41,1.19
1414.42,1.02
1428.56,1.04
1442.85,1.18
1457.28,1.36
1471.85,1.49
1486.57,1.59
1501.43,1.71
1516.45,1.85
1531.61,1.94
1546.93,2.02
1562.40,2.12
1578.02,2.27
1593.80,2.40
1609.74,2.55
1625.84,2.72
1642.10,2.91
1658.52,2.98
1675.10,3.04
1691.85,3.11
1708.77,3.19
1725.86,3.27
1743.12,3.32
1760.55,3.36
1778.15,3.45
1795.94,3.45
1813.90,3.42
1832.03,3.41
1850.36,3.45
1868.86,3.48
1887.55,3.42
1906.42,3.29
1925.49,3.20
1944.74,3.15
1964.19,3.09
1983.83,3.01
2003.67,2.88
2023.71,2.80
2043.94,2.75
2064.38,2.76
2085.03,2.82
2105.88,2.68
2126.94,2.60
2148.20,2.64
2169.69,2.70
2191.38,2.68
2213.30,2.57
2235.43,2.48
2257.78,2.41
2280.36,2.33
2303.17,2.24
2326.20,2.30
2349.46,2.47
2372.95,2.65
2396.68,2.71
2420.65,2.66
2444.86,2.77
2469.31,2.95
2494.00,2.95
2518.94,3.07
2544.13,3.46
2569.57,3.50
2595.27,3.43
2621.22,3.52
2647.43,4.08
2673.90,4.64
2700.64,5.19
2727.65,5.90
2754.93,6.50
2782.48,6.96
2810.30,7.27
2838.40,7.39
2866.79,7.39
2895.46,7.62
2924.41,7.77
2953.65,8.27
2983.19,8.74
3013.02,9.21
3043.15,9.85
3073.58,10.36
3104.32,10.77
3135.36,11.13
3166.72,11.52
3198.38,11.93
3230.37,12.20
3262.67,12.22
3295.30,12.45
3328.25,12.57
3361.53,12.32
3395.15,11.99
3429.10,11.64
3463.39,11.13
3498.03,10.38
3533.01,9.79
3568.34,9.15
3604.02,8.17
3640.06,7.48
3676.46,6.71
3713.22,6.03
3750.36,5.44
3787.86,4.93
3825.74,4.78
3864.00,4.42
3902.64,3.63
3941.66,3.25
3981.08,3.41
4020.89,3.69
4061.10,4.21
4101.71,4.63
4142.73,4.98
4184.15,5.41
4226.00,6.15
4268.26,6.82
4310.94,7.04
4354.05,7.20
4397.59,7.44
4441.56,7.36
4485.98,7.11
4530.84,7.06
4576.15,7.07
4621.91,6.91
4668.13,6.77
4714.81,6.62
4761.96,6.52
4809.58,6.34
4857.67,6.27
4906.25,5.99
4955.31,5.71
5004.87,5.46
5054.91,5.24
5105.46,5.17
5156.52,5.15
5208.08,4.99
5260.16,4.82
5312.77,4.73
5365.89,4.70
5419.55,4.69
5473.75,4.69
5528.49,4.66
5583.77,4.52
5639.61,4.39
5696.00,4.20
5752.96,3.96
5810.49,3.75
5868.60,3.59
5927.28,3.49
5986.56,3.31
6046.42,3.09
6106.89,2.81
6167.96,2.57
6229.64,2.37
6291.93,2.14
6354.85,1.93
6418.40,1.66
6482.58,1.41
6547.41,1.11
6612.88,0.79
6679.01,0.57
6745.80,0.56
6813.26,0.64
6881.39,0.60
6950.21,0.70
7019.71,0.85
7089.91,0.87
7160.81,0.90
7232.41,0.86
7304.74,0.73
7377.79,0.59
7451.56,0.32
7526.08,0.00
7601.34,-0.30
7677.35,-0.52
7754.13,-0.65
7831.67,-0.76
7909.98,-0.85
7989.08,-0.83
8068.98,-0.63
8149.67,-0.49
8231.16,-0.26
8313.47,0.40
8396.61,0.93
8480.57,1.40
8565.38,2.16
8651.03,2.51
8737.54,2.61
8824.92,2.97
8913.17,3.36
9002.30,3.64
9092.32,4.52
9183.25,5.29
9275.08,6.12
9367.83,6.84
9461.51,7.02
9556.12,6.72
9651.68,6.40
9748.20,6.26
9845.68,6.19
9944.14,5.84
10043.58,4.82
10144.02,3.88
10245.46,3.03
10347.91,2.16
10451.39,1.55
10555.91,1.17
10661.46,0.85
10768.08,0.29
10875.76,-0.01
10984.52,-0.26
11094.36,-0.96
11205.31,-1.27
11317.36,-1.10
11430.53,-0.56
11544.84,-0.68
11660.29,-1.49
11776.89,-2.96
11894.66,-4.82
12013.60,-6.28
12133.74,-7.90
12255.08,-9.92
12377.63,-11.91
12501.41,-13.08
12626.42,-14.58
12752.68,-15.78
12880.21,-16.66
13009.01,-16.98
13139.10,-17.11
13270.49,-17.13
13403.20,-17.10
13537.23,-17.07
13672.60,-16.50
13809.33,-16.02
13947.42,-15.56
14086.90,-15.22
14227.77,-15.07
14370.04,-14.56
14513.74,-13.67
14658.88,-13.26
14805.47,-13.84
14953.52,-13.96
15103.06,-13.10
15254.09,-12.28
15406.63,-12.74
15560.70,-12.45
15716.30,-12.03
15873.47,-11.16
16032.20,-10.12
16192.52,-9.52
16354.45,-9.06
16517.99,-8.81
16683.17,-9.17
16850.01,-9.41
17018.51,-9.92
17188.69,-10.56
17360.58,-11.19
17534.18,-11.89
17709.53,-12.40
17886.62,-12.73
18065.49,-12.86
18246.14,-12.98
18428.60,-13.44
18612.89,-13.70
18799.02,-13.67
18987.01,-14.53
19176.88,-15.49
19368.65,-15.83
19562.33,-15.82
19757.96,-15.12
19955.54,-15.09
