frequency,raw
20.00,5.60
20.20,5.64
20.40,5.67
20.61,5.71
20.81,5.75
21.02,5.78
21.23,5.80
21.44,5.82
21.66,5.85
21.87,5.87
22.09,5.89
22.31,5.91
22.54,5.93
22.76,5.96
22.99,5.98
23.22,6.00
23.45,6.02
23.69,6.04
23.92,6.06
24.16,6.09
24.40,6.11
24.65,6.14
24.89,6.16
25.14,6.18
25.39,6.21
25.65,6.24
25.91,6.26
26.16,6.27
26.43,6.27
26.69,6.27
26.96,6.27
27.23,6.29
27.50,6.32
27.77,6.34
28.05,6.37
28.33,6.39
28.62,6.42
28.90,6.45
29.19,6.46
29.48,6.46
29.78,6.46
30.08,6.46
30.38,6.46
30.68,6.46
30.99,6.46
31.30,6.46
31.61,6.46
31.93,6.46
32.24,6.51
32.57,6.57
32.89,6.63
33.22,6.65
33.55,6.65
33.89,6.65
34.23,6.65
34.57,6.65
34.92,6.65
35.27,6.65
35.62,6.65
35.97,6.65
36.33,6.65
36.70,6.65
37.06,6.66
37.43,6.69
37.81,6.73
38.19,6.75
38.57,6.75
38.95,6.75
39.34,6.78
39.74,6.82
40.14,6.84
40.54,6.84
40.94,6.84
41.35,6.88
41.76,6.92
42.18,6.94
42.60,6.94
43.03,6.94
43.46,6.94
43.90,6.94
44.33,6.94
44.78,6.94
45.23,6.96
45.68,6.99
46.13,7.02
46.60,7.03
47.06,7.04
47.53,7.04
48.01,7.04
48.49,7.04
48.97,7.04
49.46,7.04
49.96,7.04
50.46,7.04
50.96,7.04
51.47,7.04
51.99,7.04
52.51,6.99
53.03,6.95
53.56,6.94
54.10,6.94
54.64,6.94
55.18,6.94
55.74,6.94
56.29,6.93
56.86,6.90
57.42,6.87
58.00,6.84
58.58,6.84
59.16,6.82
59.76,6.76
60.35,6.70
60.96,6.64
61.57,6.64
62.18,6.62
62.80,6.56
63.43,6.50
64.07,6.44
64.71,6.46
65.35,6.37
66.01,6.19
66.67,6.12
67.33,6.12
68.01,6.19
68.69,6.09
69.37,5.96
70.07,5.82
70.77,5.76
71.48,5.74
72.19,5.72
72.91,5.67
73.64,5.56
74.38,5.41
75.12,5.28
75.87,5.42
76.63,5.36
77.40,5.31
78.17,5.29
78.95,5.28
79.74,5.24
80.54,5.08
81.35,4.95
82.16,4.91
82.98,4.82
83.81,4.79
84.65,4.77
85.50,4.71
86.35,4.65
87.22,4.63
88.09,4.63
88.97,4.63
89.86,4.66
90.76,4.71
91.66,4.79
92.58,4.84
93.51,4.85
94.44,4.93
95.39,5.17
96.34,5.43
97.30,5.56
98.28,5.63
99.26,5.70
100.25,5.80
101.25,5.89
102.27,5.99
103.29,6.11
104.32,6.25
105.37,6.31
106.42,6.12
107.48,6.08
108.56,6.08
109.64,5.97
110.74,6.12
111.85,6.36
112.97,6.36
114.10,6.19
115.24,6.39
116.39,6.69
117.55,6.80
118.73,6.38
119.92,6.51
121.12,6.79
122.33,6.67
123.55,6.53
124.79,6.41
126.03,6.65
127.29,6.57
128.57,6.38
129.85,6.00
131.15,5.91
132.46,5.77
133.79,5.63
135.12,5.48
136.48,5.29
137.84,5.04
139.22,4.90
140.61,4.80
142.02,4.72
143.44,4.53
144.87,4.46
146.32,4.45
147.78,4.41
149.26,4.26
150.75,4.16
152.26,4.06
153.78,3.91
155.32,3.74
156.88,3.56
158.44,3.23
160.03,2.91
161.63,2.57
163.24,2.16
164.88,1.81
166.53,1.55
168.19,1.39
169.87,1.44
171.57,1.75
173.29,2.05
175.02,2.35
176.77,2.62
178.54,2.81
180.32,2.87
182.13,2.87
183.95,2.79
185.79,2.71
187.65,2.63
189.52,2.53
191.42,2.44
193.33,2.31
195.27,2.15
197.22,1.99
199.19,1.86
201.18,1.74
203.19,1.58
205.23,1.48
207.28,1.40
209.35,1.32
211.44,1.27
213.56,1.14
215.69,1.00
217.85,0.87
220.03,0.73
222.23,0.63
224.45,0.55
226.70,0.45
228.96,0.33
231.25,0.23
233.57,0.13
235.90,0.12
238.26,0.14
240.64,0.14
243.05,0.10
245.48,0.09
247.93,0.12
250.41,0.18
252.92,0.27
255.45,0.38
258.00,0.49
260.58,0.60
263.19,0.66
265.82,0.67
268.48,0.73
271.16,0.75
273.87,0.75
276.61,0.79
279.38,0.76
282.17,0.75
284.99,0.76
287.84,0.77
290.72,0.78
293.63,0.79
296.57,0.80
299.53,0.81
302.53,0.83
305.55,0.79
308.61,0.75
311.69,0.67
314.81,0.62
317.96,0.58
321.14,0.51
324.35,0.45
327.59,0.34
330.87,0.22
334.18,0.15
337.52,0.09
340.90,0.02
344.30,-0.06
347.75,-0.17
351.23,-0.28
354.74,-0.40
358.28,-0.56
361.87,-0.70
365.49,-0.78
369.14,-0.85
372.83,-0.88
376.56,-0.92
380.33,-0.96
384.13,-1.07
387.97,-1.12
391.85,-1.12
395.77,-1.12
399.73,-1.10
403.72,-0.97
407.76,-0.90
411.84,-0.83
415.96,-0.72
420.12,-0.62
424.32,-0.55
428.56,-0.48
432.85,-0.35
437.18,-0.18
441.55,-0.14
445.96,-0.04
450.42,0.12
454.93,0.19
459.48,0.25
464.07,0.31
468.71,0.36
473.40,0.43
478.13,0.48
482.91,0.53
487.74,0.64
492.62,0.75
497.55,0.75
502.52,0.80
507.55,0.92
512.62,0.93
517.75,0.90
522.93,0.89
528.16,1.01
533.44,1.03
538.77,0.86
544.16,0.55
549.60,0.34
555.10,0.04
560.65,-0.10
566.25,-0.41
571.92,-0.67
577.64,-1.01
583.41,-1.17
589.25,-1.11
595.14,-1.13
601.09,-1.39
607.10,-1.60
613.17,-1.59
619.30,-1.32
625.50,-1.02
631.75,-0.84
638.07,-0.64
644.45,-0.34
650.89,-0.02
657.40,0.23
663.98,0.45
670.62,0.76
677.32,1.09
684.10,1.34
690.94,1.55
697.85,1.70
704.83,1.82
711.87,1.93
718.99,1.97
726.18,1.85
733.44,1.44
740.78,1.17
748.19,0.71
755.67,0.32
763.23,-0.03
770.86,-0.21
778.57,-0.46
786.35,-0.55
794.22,-0.65
802.16,-0.71
810.18,-0.66
818.28,-0.36
826.46,-0.19
834.73,-0.21
843.08,-0.24
851.51,-0.22
860.02,-0.12
868.62,0.05
877.31,0.35
886.08,0.48
894.94,0.52
903.89,0.51
912.93,0.50
922.06,0.43
931.28,0.40
940.59,0.34
950.00,0.23
959.50,0.20
969.09,0.14
978.78,0.11
988.57,0.06
998.46,0.01
1008.44,-0.01
1018.53,0.01
1028.71,0.04
1039.00,0.06
1049.39,0.10
1059.88,0.14
1070.48,0.12
1081.19,-0.14
1092.00,-0.37
1102.92,-0.63
1113.95,-0.92
1125.09,-1.41
1136.34,-1.75
1147.70,-2.12
1159.18,-2.31
1170.77,-2.32
1182.48,-2.19
1194.30,-1.93
1206.25,-1.52
1218.31,-1.10
1230.49,-0.89
1242.80,-1.10
1255.22,-1.46
1267.78,-1.63
1280.45,-1.75
1293.26,-1.87
1306.19,-2.07
1319.25,-2.22
1332.45,-2.31
1345.77,-2.44
1359.23,-2.50
1372.82,-2.39
1386.55,-2.19
1400.41,-1.78
1414.42,-1.48
1428.56,-1.07
1442.85,-0.74
1457.28,-0.51
1471.85,-0.36
1486.57,-0.30
1501.43,-0.27
1516.45,-0.33
1531.61,-0.32
1546.93,-0.28
1562.40,-0.29
1578.02,-0.43
1593.80,-0.49
1609.74,-0.18
1625.84,0.16
1642.10,0.55
1658.52,0.99
1675.10,1.55
1691.85,2.17
1708.77,2.67
1725.86,3.01
1743.12,3.50
1760.55,3.76
1778.15,3.81
1795.94,3.85
1813.90,3.77
1832.03,4.02
1850.36,4.31
1868.86,4.68
1887.55,5.08
1906.42,5.42
1925.49,5.69
1944.74,5.89
1964.19,5.98
1983.83,5.88
2003.67,5.75
2023.71,5.68
2043.94,5.82
2064.38,6.32
2085.03,6.76
2105.88,7.16
2126.94,7.35
2148.20,7.44
2169.69,7.84
2191.38,8.15
2213.30,8.17
2235.43,7.72
2257.78,7.37
2280.36,6.87
2303.17,6.54
2326.20,6.42
2349.46,6.46
2372.95,6.49
2396.68,6.55
2420.65,6.83
2444.86,7.15
2469.31,7.23
2494.00,7.31
2518.94,7.35
2544.13,7.38
2569.57,7.48
2595.27,7.31
2621.22,7.03
2647.43,6.80
2673.90,6.41
2700.64,6.13
2727.65,6.75
2754.93,7.39
2782.48,8.36
2810.30,8.96
2838.40,9.11
2866.79,9.20
2895.46,9.60
2924.41,9.97
2953.65,10.22
2983.19,10.37
3013.02,10.55
3043.15,10.81
3073.58,11.05
3104.32,11.23
3135.36,11.33
3166.72,11.52
3198.38,11.63
3230.37,11.67
3262.67,11.75
3295.30,11.91
3328.25,12.04
3361.53,12.15
3395.15,12.11
3429.10,12.16
3463.39,12.21
3498.03,12.04
3533.01,11.70
3568.34,11.49
3604.02,11.26
3640.06,11.20
3676.46,11.40
3713.22,11.62
3750.36,11.79
3787.86,11.87
3825.74,12.01
3864.00,12.22
3902.64,12.61
3941.66,12.92
3981.08,13.04
4020.89,13.01
4061.10,12.77
4101.71,12.48
4142.73,12.34
4184.15,12.27
4226.00,12.28
4268.26,12.30
4310.94,12.27
4354.05,11.94
4397.59,11.54
4441.56,10.95
4485.98,10.59
4530.84,10.12
4576.15,9.73
4621.91,9.18
4668.13,8.63
4714.81,8.30
4761.96,7.84
4809.58,7.55
4857.67,7.29
4906.25,7.14
4955.31,6.97
5004.87,6.69
5054.91,6.57
5105.46,6.72
5156.52,7.17
5208.08,7.92
5260.16,8.72
5312.77,9.08
5365.89,9.42
5419.55,9.65
5473.75,9.81
5528.49,10.08
5583.77,10.13
5639.61,9.97
5696.00,9.81
5752.96,9.84
5810.49,9.77
5868.60,9.52
5927.28,9.24
5986.56,9.02
6046.42,8.97
6106.89,8.95
6167.96,8.71
6229.64,8.19
6291.93,7.46
6354.85,6.98
6418.40,6.72
6482.58,6.08
6547.41,5.13
6612.88,4.11
6679.01,3.25
6745.80,2.68
6813.26,1.95
6881.39,1.37
6950.21,0.78
7019.71,0.65
7089.91,0.40
7160.81,0.20
7232.41,0.10
7304.74,0.34
7377.79,0.80
7451.56,1.10
7526.08,1.83
7601.34,2.39
7677.35,2.72
7754.13,2.87
7831.67,2.85
7909.98,2.97
7989.08,3.22
8068.98,3.38
8149.67,3.60
8231.16,3.99
8313.47,4.29
8396.61,4.50
8480.57,4.69
8565.38,4.57
8651.03,4.30
8737.54,4.12
8824.92,3.93
8913.17,4.58
9002.30,5.10
9092.32,5.53
9183.25,5.86
9275.08,6.02
9367.83,5.84
9461.51,5.49
9556.12,5.11
9651.68,4.30
9748.20,3.80
9845.68,3.20
9944.14,2.59
10043.58,1.80
10144.02,1.26
10245.46,0.94
10347.91,0.69
10451.39,0.48
10555.91,0.28
10661.46,0.32
10768.08,0.23
10875.76,0.14
10984.52,0.45
11094.36,1.00
11205.31,1.11
11317.36,1.05
11430.53,1.08
11544.84,1.07
11660.29,1.19
11776.89,1.39
11894.66,1.54
12013.60,1.43
12133.74,0.75
12255.08,-0.25
12377.63,-1.13
12501.41,-2.36
12626.42,-3.42
12752.68,-4.58
12880.21,-5.42
13009.01,-6.01
13139.10,-6.25
13270.49,-6.40
13403.20,-7.50
13537.23,-9.38
13672.60,-11.01
13809.33,-11.37
13947.42,-12.50
14086.90,-13.10
14227.77,-13.80
14370.04,-15.12
14513.74,-15.62
14658.88,-14.37
14805.47,-13.10
14953.52,-13.15
15103.06,-13.98
15254.09,-16.26
15406.63,-18.22
15560.70,-21.23
15716.30,-23.69
15873.47,-25.35
16032.20,-26.61
16192.52,-28.12
16354.45,-29.17
16517.99,-29.32
16683.17,-29.16
16850.01,-29.11
17018.51,-29.52
17188.69,-29.74
17360.58,-29.16
17534.18,-28.03
17709.53,-27.52
17886.62,-28.07
18065.49,-28.44
18246.14,-28.63
18428.60,-28.84
18612.89,-29.15
18799.02,-29.26
18987.01,-29.46
19176.88,-29.73
19368.65,-30.04
19562.33,-30.27
19757.96,-30.22
19955.54,-30.24
