frequency,raw
20.00,-16.62
20.20,-16.36
20.40,-16.11
20.61,-15.85
20.81,-15.59
21.02,-15.35
21.23,-15.27
21.44,-15.18
21.66,-15.10
21.87,-15.01
22.09,-14.91
22.31,-14.78
22.54,-14.65
22.76,-14.52
22.99,-14.39
23.22,-14.24
23.45,-14.09
23.69,-13.94
23.92,-13.79
24.16,-13.67
24.40,-13.56
24.65,-13.46
24.89,-13.35
25.14,-13.20
25.39,-13.01
25.65,-12.81
25.91,-12.62
26.16,-12.47
26.43,-12.35
26.69,-12.22
26.96,-12.10
27.23,-11.94
27.50,-11.78
27.77,-11.61
28.05,-11.45
28.33,-11.29
28.62,-11.12
28.90,-10.96
29.19,-10.81
29.48,-10.68
29.78,-10.55
30.08,-10.43
30.38,-10.35
30.68,-10.27
30.99,-10.19
31.30,-9.99
31.61,-9.77
31.93,-9.56
32.24,-9.39
32.57,-9.23
32.89,-9.07
33.22,-8.98
33.55,-8.91
33.89,-8.84
34.23,-8.66
34.57,-8.41
34.92,-8.17
35.27,-7.96
35.62,-7.77
35.97,-7.57
36.33,-7.51
36.70,-7.46
37.06,-7.38
37.43,-7.16
37.81,-6.94
38.19,-6.77
38.57,-6.65
38.95,-6.52
39.34,-6.41
39.74,-6.29
40.14,-6.18
40.54,-6.09
40.94,-6.00
41.35,-5.78
41.76,-5.53
42.18,-5.33
42.60,-5.21
43.03,-5.08
43.46,-4.95
43.90,-4.82
44.33,-4.69
44.78,-4.56
45.23,-4.44
45.68,-4.32
46.13,-4.20
46.60,-4.08
47.06,-3.96
47.53,-3.81
48.01,-3.67
48.49,-3.59
48.97,-3.51
49.46,-3.33
49.96,-3.14
50.46,-2.89
50.96,-2.64
51.47,-2.53
51.99,-2.42
52.51,-2.34
53.03,-2.26
53.56,-2.01
54.10,-1.79
54.64,-1.70
55.18,-1.58
55.74,-1.38
56.29,-1.20
56.86,-1.02
57.42,-0.89
58.00,-0.78
58.58,-0.61
59.16,-0.46
59.76,-0.33
60.35,-0.23
60.96,-0.16
61.57,0.01
62.18,0.16
62.80,0.25
63.43,0.36
64.07,0.48
64.71,0.67
65.35,0.77
66.01,0.80
66.67,1.04
67.33,1.13
68.01,1.08
68.69,1.17
69.37,1.22
70.07,1.25
70.77,1.32
71.48,1.41
72.19,1.50
72.91,1.52
73.64,1.52
74.38,1.58
75.12,1.68
75.87,1.65
76.63,1.77
77.40,1.85
78.17,1.84
78.95,1.78
79.74,1.82
80.54,1.93
81.35,1.96
82.16,1.87
82.98,1.84
83.81,1.84
84.65,1.84
85.50,1.84
86.35,1.85
87.22,1.85
88.09,1.85
88.97,1.81
89.86,1.81
90.76,1.92
91.66,2.02
92.58,2.05
93.51,2.10
94.44,2.18
95.39,2.26
96.34,2.36
97.30,2.39
98.28,2.42
99.26,2.50
100.25,2.46
101.25,2.44
102.27,2.56
103.29,2.49
104.32,2.37
105.37,2.25
106.42,2.33
107.48,2.25
108.56,2.08
109.64,1.93
110.74,1.98
111.85,2.09
112.97,2.00
114.10,1.87
115.24,1.86
116.39,1.80
117.55,1.77
118.73,1.91
119.92,2.07
121.12,2.18
122.33,2.06
123.55,2.13
124.79,2.38
126.03,2.43
127.29,2.49
128.57,2.54
129.85,2.57
131.15,2.45
132.46,2.45
133.79,2.46
135.12,2.46
136.48,2.47
137.84,2.47
139.22,2.51
140.61,2.57
142.02,2.52
143.44,2.41
144.87,2.37
146.32,2.42
147.78,2.29
149.26,2.17
150.75,2.16
152.26,2.17
153.78,2.22
155.32,2.26
156.88,2.15
158.44,1.96
160.03,1.76
161.63,1.39
163.24,1.17
164.88,0.98
166.53,0.73
168.19,0.56
169.87,0.54
171.57,0.64
173.29,0.75
175.02,0.86
176.77,0.99
178.54,1.09
180.32,1.23
182.13,1.34
183.95,1.44
185.79,1.45
187.65,1.47
189.52,1.45
191.42,1.43
193.33,1.48
195.27,1.62
197.22,1.68
199.19,1.60
201.18,1.56
203.19,1.58
205.23,1.60
207.28,1.52
209.35,1.45
211.44,1.50
213.56,1.55
215.69,1.55
217.85,1.55
220.03,1.50
222.23,1.46
224.45,1.44
226.70,1.44
228.96,1.44
231.25,1.37
233.57,1.36
235.90,1.38
238.26,1.38
240.64,1.32
243.05,1.39
245.48,1.44
247.93,1.47
250.41,1.45
252.92,1.40
255.45,1.42
258.00,1.43
260.58,1.38
263.19,1.33
265.82,1.25
268.48,1.23
271.16,1.22
273.87,1.22
276.61,1.22
279.38,1.20
282.17,1.08
284.99,1.03
287.84,1.03
290.72,1.04
293.63,0.97
296.57,0.97
299.53,0.98
302.53,0.98
305.55,1.02
308.61,1.13
311.69,1.35
314.81,1.71
317.96,1.95
321.14,2.09
324.35,2.25
327.59,2.24
330.87,2.12
334.18,2.03
337.52,1.93
340.90,1.74
344.30,1.57
347.75,1.46
351.23,1.41
354.74,1.36
358.28,1.18
361.87,1.09
365.49,1.12
369.14,1.07
372.83,1.03
376.56,1.11
380.33,0.99
384.13,0.83
387.97,0.83
391.85,0.87
395.77,0.85
399.73,0.73
403.72,0.71
407.76,0.76
411.84,0.77
415.96,0.62
420.12,0.58
424.32,0.66
428.56,0.69
432.85,0.70
437.18,0.68
441.55,0.66
445.96,0.63
450.42,0.66
454.93,0.62
459.48,0.56
464.07,0.74
468.71,0.91
473.40,0.86
478.13,0.78
482.91,0.65
487.74,0.73
492.62,0.92
497.55,0.89
502.52,0.64
507.55,0.60
512.62,0.69
517.75,0.55
522.93,0.60
528.16,0.71
533.44,0.40
538.77,0.32
544.16,0.45
549.60,0.12
555.10,-0.11
560.65,-0.06
566.25,-0.10
571.92,-0.20
577.64,-0.34
583.41,-0.50
589.25,-0.72
595.14,-0.85
601.09,-0.66
607.10,-0.64
613.17,-0.94
619.30,-0.85
625.50,-0.76
631.75,-1.06
638.07,-1.00
644.45,-0.86
650.89,-1.12
657.40,-1.19
663.98,-1.02
670.62,-1.00
677.32,-1.00
684.10,-1.03
690.94,-1.02
697.85,-0.98
704.83,-0.96
711.87,-0.94
718.99,-0.89
726.18,-0.83
733.44,-0.81
740.78,-0.83
748.19,-0.86
755.67,-0.89
763.23,-0.91
770.86,-0.93
778.57,-0.94
786.35,-1.07
794.22,-1.07
802.16,-0.90
810.18,-0.84
818.28,-0.84
826.46,-0.85
834.73,-0.95
843.08,-0.99
851.51,-0.79
860.02,-0.85
868.62,-0.89
877.31,-0.71
886.08,-0.58
894.94,-0.57
903.89,-0.50
912.93,-0.57
922.06,-0.61
931.28,-0.45
940.59,-0.24
950.00,-0.16
959.50,-0.31
969.09,-0.34
978.78,-0.16
988.57,-0.06
998.46,-0.01
1008.44,0.05
1018.53,0.02
1028.71,0.12
1039.00,0.41
1049.39,0.42
1059.88,0.40
1070.48,0.39
1081.19,0.70
1092.00,0.87
1102.92,0.86
1113.95,0.90
1125.09,0.96
1136.34,1.03
1147.70,1.04
1159.18,1.14
1170.77,1.31
1182.48,1.36
1194.30,1.41
1206.25,1.37
1218.31,1.42
1230.49,1.63
1242.80,1.78
1255.22,1.92
1267.78,1.94
1280.45,1.96
1293.26,2.20
1306.19,2.39
1319.25,2.48
1332.45,2.46
1345.77,2.67
1359.23,2.89
1372.82,3.08
1386.55,3.43
1400.41,3.55
1414.42,3.45
1428.56,3.60
1442.85,3.96
1457.28,4.18
1471.85,4.35
1486.57,4.56
1501.43,4.62
1516.45,4.55
1531.61,4.75
1546.93,5.10
1562.40,5.25
1578.02,5.42
1593.80,5.67
1609.74,5.94
1625.84,6.18
1642.10,6.47
1658.52,6.76
1675.10,7.04
1691.85,7.33
1708.77,7.64
1725.86,7.85
1743.12,8.07
1760.55,8.34
1778.15,8.53
1795.94,8.65
1813.90,8.84
1832.03,9.05
1850.36,9.24
1868.86,9.41
1887.55,9.55
1906.42,9.64
1925.49,9.73
1944.74,9.85
1964.19,9.98
1983.83,10.03
2003.67,10.05
2023.71,10.04
2043.94,10.07
2064.38,10.08
2085.03,10.10
2105.88,10.05
2126.94,10.01
2148.20,9.97
2169.69,9.84
2191.38,9.73
2213.30,9.71
2235.43,9.69
2257.78,9.64
2280.36,9.59
2303.17,9.51
2326.20,9.47
2349.46,9.51
2372.95,9.70
2396.68,9.72
2420.65,9.55
2444.86,9.44
2469.31,9.34
2494.00,9.21
2518.94,9.27
2544.13,9.38
2569.57,9.57
2595.27,9.69
2621.22,9.74
2647.43,9.79
2673.90,9.79
2700.64,9.79
2727.65,9.79
2754.93,9.92
2782.48,10.06
2810.30,10.17
2838.40,10.30
2866.79,10.24
2895.46,10.16
2924.41,10.02
2953.65,9.96
2983.19,9.94
3013.02,9.89
3043.15,9.92
3073.58,9.95
3104.32,10.00
3135.36,10.06
3166.72,10.10
3198.38,10.13
3230.37,10.16
3262.67,10.09
3295.30,9.97
3328.25,9.80
3361.53,9.57
3395.15,9.34
3429.10,9.14
3463.39,8.88
3498.03,8.52
3533.01,8.25
3568.34,7.94
3604.02,7.42
3640.06,6.98
3676.46,6.48
3713.22,5.71
3750.36,5.07
3787.86,4.27
3825.74,3.38
3864.00,2.60
3902.64,1.73
3941.66,0.92
3981.08,0.23
4020.89,-0.25
4061.10,-0.68
4101.71,-1.16
4142.73,-1.62
4184.15,-2.10
4226.00,-2.82
4268.26,-3.65
4310.94,-4.27
4354.05,-4.75
4397.59,-5.31
4441.56,-5.64
4485.98,-5.86
4530.84,-6.20
4576.15,-6.18
4621.91,-5.79
4668.13,-5.32
4714.81,-5.06
4761.96,-4.78
4809.58,-4.37
4857.67,-4.08
4906.25,-3.55
4955.31,-2.68
5004.87,-1.90
5054.91,-1.44
5105.46,-1.31
5156.52,-1.08
5208.08,-0.70
5260.16,-0.36
5312.77,-0.10
5365.89,0.10
5419.55,0.22
5473.75,0.42
5528.49,0.75
5583.77,0.97
5639.61,1.06
5696.00,1.09
5752.96,0.94
5810.49,0.64
5868.60,0.27
5927.28,0.00
5986.56,-0.30
6046.42,-0.67
6106.89,-1.11
6167.96,-1.54
6229.64,-1.93
6291.93,-2.33
6354.85,-2.76
6418.40,-3.29
6482.58,-3.57
6547.41,-3.64
6612.88,-3.69
6679.01,-3.50
6745.80,-3.54
6813.26,-3.77
6881.39,-3.98
6950.21,-4.12
7019.71,-4.09
7089.91,-3.94
7160.81,-3.54
7232.41,-3.02
7304.74,-2.61
7377.79,-2.16
7451.56,-1.53
7526.08,-0.95
7601.34,-0.43
7677.35,0.27
7754.13,1.14
7831.67,1.96
7909.98,2.90
7989.08,3.87
8068.98,5.37
8149.67,6.76
8231.16,8.41
8313.47,9.61
8396.61,10.23
8480.57,10.92
8565.38,10.52
8651.03,10.17
8737.54,10.03
8824.92,10.03
8913.17,10.19
9002.30,10.26
9092.32,10.40
9183.25,10.71
9275.08,10.73
9367.83,10.02
9461.51,9.19
9556.12,8.52
9651.68,8.17
9748.20,8.44
9845.68,8.48
9944.14,7.93
10043.58,6.14
10144.02,4.48
10245.46,3.73
10347.91,3.21
10451.39,2.31
10555.91,1.67
10661.46,0.76
10768.08,-0.32
10875.76,-1.10
10984.52,-2.11
11094.36,-4.21
11205.31,-6.84
11317.36,-9.00
11430.53,-10.79
11544.84,-10.95
11660.29,-11.01
11776.89,-11.49
11894.66,-12.34
12013.60,-13.00
12133.74,-12.78
12255.08,-11.44
12377.63,-11.03
12501.41,-11.86
12626.42,-12.99
12752.68,-14.36
12880.21,-15.35
13009.01,-15.93
13139.10,-15.83
13270.49,-15.92
13403.20,-15.69
13537.23,-15.77
13672.60,-17.80
13809.33,-19.55
13947.42,-20.72
14086.90,-20.44
14227.77,-19.51
14370.04,-18.78
14513.74,-17.78
14658.88,-16.56
14805.47,-14.53
14953.52,-13.53
15103.06,-14.13
15254.09,-14.36
15406.63,-13.75
15560.70,-11.87
15716.30,-10.88
15873.47,-10.01
16032.20,-9.62
16192.52,-9.73
16354.45,-9.97
16517.99,-10.36
16683.17,-10.47
16850.01,-10.57
17018.51,-11.07
17188.69,-12.13
17360.58,-12.80
17534.18,-13.29
17709.53,-13.65
17886.62,-14.03
18065.49,-14.59
18246.14,-15.60
18428.60,-17.25
18612.89,-19.94
18799.02,-22.13
18987.01,-24.20
19176.88,-25.02
19368.65,-25.31
19562.33,-23.65
19757.96,-22.98
19955.54,-23.90
