frequency,raw
20.00,-24.13
20.20,-23.99
20.40,-23.85
20.61,-23.71
20.81,-23.57
21.02,-23.43
21.23,-23.28
21.44,-23.13
21.66,-22.98
21.87,-22.84
22.09,-22.69
22.31,-22.56
22.54,-22.43
22.76,-22.30
22.99,-22.17
23.22,-22.01
23.45,-21.86
23.69,-21.70
23.92,-21.55
24.16,-21.39
24.40,-21.23
24.65,-21.06
24.89,-20.90
25.14,-20.75
25.39,-20.61
25.65,-20.48
25.91,-20.34
26.16,-20.20
26.43,-20.06
26.69,-19.92
26.96,-19.78
27.23,-19.65
27.50,-19.51
27.77,-19.37
28.05,-19.22
28.33,-19.03
28.62,-18.84
28.90,-18.65
29.19,-18.48
29.48,-18.32
29.78,-18.16
30.08,-18.01
30.38,-17.88
30.68,-17.75
30.99,-17.62
31.30,-17.46
31.61,-17.30
31.93,-17.14
32.24,-16.98
32.57,-16.82
32.89,-16.66
33.22,-16.52
33.55,-16.40
33.89,-16.27
34.23,-16.09
34.57,-15.88
34.92,-15.67
35.27,-15.50
35.62,-15.35
35.97,-15.20
36.33,-15.07
36.70,-14.94
37.06,-14.81
37.43,-14.64
37.81,-14.47
38.19,-14.30
38.57,-14.10
38.95,-13.91
39.34,-13.78
39.74,-13.65
40.14,-13.49
40.54,-13.30
40.94,-13.11
41.35,-12.97
41.76,-12.84
42.18,-12.68
42.60,-12.47
43.03,-12.26
43.46,-12.12
43.90,-11.98
44.33,-11.83
44.78,-11.66
45.23,-11.50
45.68,-11.34
46.13,-11.17
46.60,-11.00
47.06,-10.84
47.53,-10.69
48.01,-10.54
48.49,-10.32
48.97,-10.11
49.46,-9.94
49.96,-9.77
50.46,-9.60
50.96,-9.43
51.47,-9.26
51.99,-9.08
52.51,-8.94
53.03,-8.79
53.56,-8.63
54.10,-8.46
54.64,-8.32
55.18,-8.15
55.74,-7.93
56.29,-7.74
56.86,-7.59
57.42,-7.44
58.00,-7.29
58.58,-7.10
59.16,-6.91
59.76,-6.73
60.35,-6.58
60.96,-6.45
61.57,-6.33
62.18,-6.19
62.80,-6.02
63.43,-5.87
64.07,-5.72
64.71,-5.58
65.35,-5.45
66.01,-5.33
66.67,-5.20
67.33,-5.08
68.01,-4.95
68.69,-4.79
69.37,-4.64
70.07,-4.49
70.77,-4.37
71.48,-4.27
72.19,-4.18
72.91,-4.12
73.64,-3.96
74.38,-3.82
75.12,-3.71
75.87,-3.59
76.63,-3.44
77.40,-3.31
78.17,-3.19
78.95,-3.06
79.74,-2.95
80.54,-2.88
81.35,-2.78
82.16,-2.64
82.98,-2.53
83.81,-2.44
84.65,-2.35
85.50,-2.27
86.35,-2.18
87.22,-2.11
88.09,-2.10
88.97,-1.95
89.86,-1.91
90.76,-1.92
91.66,-1.90
92.58,-1.85
93.51,-1.77
94.44,-1.72
95.39,-1.71
96.34,-1.68
97.30,-1.62
98.28,-1.63
99.26,-1.64
100.25,-1.66
101.25,-1.66
102.27,-1.62
103.29,-1.62
104.32,-1.66
105.37,-1.76
106.42,-1.84
107.48,-1.90
108.56,-1.95
109.64,-2.05
110.74,-2.13
111.85,-2.17
112.97,-2.19
114.10,-2.20
115.24,-2.27
116.39,-2.32
117.55,-2.39
118.73,-2.46
119.92,-2.52
121.12,-2.50
122.33,-2.46
123.55,-2.52
124.79,-2.59
126.03,-2.56
127.29,-2.66
128.57,-2.73
129.85,-2.79
131.15,-2.91
132.46,-3.04
133.79,-3.18
135.12,-3.20
136.48,-3.27
137.84,-3.38
139.22,-3.22
140.61,-3.10
142.02,-3.43
143.44,-3.81
144.87,-3.98
146.32,-3.95
147.78,-4.04
149.26,-4.10
150.75,-4.16
152.26,-4.13
153.78,-4.18
155.32,-4.52
156.88,-4.75
158.44,-4.70
160.03,-4.49
161.63,-4.56
163.24,-4.73
164.88,-4.76
166.53,-4.72
168.19,-4.51
169.87,-4.19
171.57,-3.39
173.29,-2.46
175.02,-1.62
176.77,-1.16
178.54,-0.46
180.32,-0.17
182.13,0.02
183.95,0.19
185.79,-0.17
187.65,-0.17
189.52,-0.02
191.42,-0.29
193.33,-0.54
195.27,-0.78
197.22,-1.11
199.19,-1.30
201.18,-1.19
203.19,-1.15
205.23,-1.07
207.28,-1.06
209.35,-0.98
211.44,-1.25
213.56,-1.49
215.69,-1.47
217.85,-1.55
220.03,-1.72
222.23,-1.74
224.45,-1.36
226.70,-1.09
228.96,-0.87
231.25,-0.55
233.57,-0.42
235.90,-0.47
238.26,-0.46
240.64,-0.44
243.05,-0.46
245.48,-0.48
247.93,-0.48
250.41,-0.46
252.92,-0.45
255.45,-0.46
258.00,-0.51
260.58,-0.52
263.19,-0.57
265.82,-0.62
268.48,-0.70
271.16,-0.73
273.87,-0.73
276.61,-0.73
279.38,-0.76
282.17,-0.81
284.99,-0.87
287.84,-0.92
290.72,-0.91
293.63,-0.98
296.57,-1.02
299.53,-1.06
302.53,-1.06
305.55,-1.05
308.61,-1.11
311.69,-1.15
314.81,-1.23
317.96,-1.30
321.14,-1.37
324.35,-1.43
327.59,-1.56
330.87,-1.62
334.18,-1.64
337.52,-1.72
340.90,-1.81
344.30,-1.86
347.75,-1.92
351.23,-1.99
354.74,-2.05
358.28,-2.12
361.87,-2.18
365.49,-2.21
369.14,-2.22
372.83,-2.21
376.56,-2.24
380.33,-2.23
384.13,-2.27
387.97,-2.28
391.85,-2.28
395.77,-2.29
399.73,-2.37
403.72,-2.44
407.76,-2.49
411.84,-2.51
415.96,-2.56
420.12,-2.61
424.32,-2.67
428.56,-2.74
432.85,-2.82
437.18,-2.94
441.55,-2.91
445.96,-2.83
450.42,-2.87
454.93,-2.88
459.48,-2.88
464.07,-2.90
468.71,-2.91
473.40,-2.93
478.13,-2.85
482.91,-2.79
487.74,-2.88
492.62,-2.97
497.55,-3.03
502.52,-3.06
507.55,-3.06
512.62,-3.07
517.75,-3.13
522.93,-3.14
528.16,-3.16
533.44,-3.24
538.77,-3.29
544.16,-3.33
549.60,-3.42
555.10,-3.52
560.65,-3.66
566.25,-3.73
571.92,-3.78
577.64,-3.88
583.41,-3.91
589.25,-3.88
595.14,-3.85
601.09,-3.73
607.10,-3.70
613.17,-3.79
619.30,-3.74
625.50,-3.61
631.75,-3.46
638.07,-3.24
644.45,-3.03
650.89,-2.74
657.40,-2.41
663.98,-2.12
670.62,-1.93
677.32,-1.75
684.10,-1.62
690.94,-1.58
697.85,-1.47
704.83,-1.39
711.87,-1.40
718.99,-1.35
726.18,-1.32
733.44,-1.26
740.78,-1.23
748.19,-1.20
755.67,-1.11
763.23,-1.03
770.86,-0.98
778.57,-0.98
786.35,-0.92
794.22,-0.82
802.16,-0.69
810.18,-0.54
818.28,-0.41
826.46,-0.33
834.73,-0.28
843.08,-0.23
851.51,-0.18
860.02,-0.18
868.62,-0.19
877.31,-0.19
886.08,-0.20
894.94,-0.21
903.89,-0.16
912.93,-0.18
922.06,-0.34
931.28,-0.61
940.59,-0.75
950.00,-0.67
959.50,-0.50
969.09,-0.25
978.78,-0.12
988.57,-0.08
998.46,-0.01
1008.44,0.05
1018.53,0.09
1028.71,-0.02
1039.00,-0.37
1049.39,-0.82
1059.88,-1.01
1070.48,-1.14
1081.19,-1.27
1092.00,-1.31
1102.92,-1.11
1113.95,-0.75
1125.09,-0.54
1136.34,-0.42
1147.70,-0.29
1159.18,-0.23
1170.77,-0.32
1182.48,-0.44
1194.30,-0.59
1206.25,-0.70
1218.31,-0.72
1230.49,-0.87
1242.80,-1.18
1255.22,-1.43
1267.78,-1.62
1280.45,-2.09
1293.26,-2.40
1306.19,-2.60
1319.25,-2.73
1332.45,-2.72
1345.77,-2.67
1359.23,-2.45
1372.82,-2.42
1386.55,-2.67
1400.41,-3.00
1414.42,-3.34
1428.56,-3.44
1442.85,-3.35
1457.28,-3.55
1471.85,-3.86
1486.57,-4.19
1501.43,-4.63
1516.45,-4.82
1531.61,-4.75
1546.93,-4.58
1562.40,-4.71
1578.02,-4.83
1593.80,-4.95
1609.74,-5.02
1625.84,-4.99
1642.10,-4.86
1658.52,-4.83
1675.10,-5.12
1691.85,-5.19
1708.77,-5.20
1725.86,-5.30
1743.12,-5.30
1760.55,-5.26
1778.15,-5.25
1795.94,-5.15
1813.90,-5.15
1832.03,-5.24
1850.36,-5.41
1868.86,-5.53
1887.55,-5.54
1906.42,-5.45
1925.49,-5.50
1944.74,-5.72
1964.19,-5.99
1983.83,-6.28
2003.67,-6.45
2023.71,-6.32
2043.94,-6.29
2064.38,-6.27
2085.03,-6.11
2105.88,-6.46
2126.94,-6.66
2148.20,-6.60
2169.69,-6.20
2191.38,-5.85
2213.30,-5.42
2235.43,-4.86
2257.78,-4.53
2280.36,-4.51
2303.17,-4.65
2326.20,-4.55
2349.46,-4.41
2372.95,-4.30
2396.68,-3.98
2420.65,-3.96
2444.86,-4.08
2469.31,-4.30
2494.00,-4.06
2518.94,-3.50
2544.13,-2.73
2569.57,-1.76
2595.27,-1.10
2621.22,-0.44
2647.43,-0.46
2673.90,-0.59
2700.64,-0.72
2727.65,-0.67
2754.93,-0.24
2782.48,0.24
2810.30,0.78
2838.40,1.38
2866.79,2.17
2895.46,2.62
2924.41,3.15
2953.65,3.05
2983.19,2.72
3013.02,2.24
3043.15,2.17
3073.58,2.56
3104.32,3.11
3135.36,3.42
3166.72,3.44
3198.38,3.25
3230.37,3.18
3262.67,3.26
3295.30,3.26
3328.25,3.12
3361.53,2.84
3395.15,2.69
3429.10,2.75
3463.39,2.97
3498.03,3.04
3533.01,2.96
3568.34,2.76
3604.02,2.82
3640.06,2.91
3676.46,2.92
3713.22,2.80
3750.36,2.71
3787.86,2.75
3825.74,2.54
3864.00,2.31
3902.64,2.05
3941.66,2.01
3981.08,1.82
4020.89,1.46
4061.10,1.06
4101.71,1.04
4142.73,1.04
4184.15,0.73
4226.00,-0.03
4268.26,-0.84
4310.94,-1.38
4354.05,-1.72
4397.59,-2.33
4441.56,-2.81
4485.98,-3.07
4530.84,-2.93
4576.15,-3.21
4621.91,-3.67
4668.13,-4.15
4714.81,-4.33
4761.96,-4.05
4809.58,-3.78
4857.67,-3.73
4906.25,-4.15
4955.31,-4.29
5004.87,-3.82
5054.91,-3.22
5105.46,-2.81
5156.52,-2.30
5208.08,-1.66
5260.16,-1.25
5312.77,-1.38
5365.89,-1.08
5419.55,-0.64
5473.75,0.10
5528.49,1.04
5583.77,1.49
5639.61,1.57
5696.00,1.18
5752.96,1.24
5810.49,1.37
5868.60,1.82
5927.28,1.74
5986.56,1.28
6046.42,0.71
6106.89,0.73
6167.96,0.66
6229.64,0.33
6291.93,0.17
6354.85,0.05
6418.40,-0.13
6482.58,-0.35
6547.41,-0.63
6612.88,-0.89
6679.01,-1.12
6745.80,-1.36
6813.26,-1.27
6881.39,-1.51
6950.21,-1.91
7019.71,-2.08
7089.91,-2.10
7160.81,-2.43
7232.41,-2.80
7304.74,-3.07
7377.79,-3.55
7451.56,-3.86
7526.08,-4.15
7601.34,-4.49
7677.35,-4.87
7754.13,-4.93
7831.67,-5.06
7909.98,-5.38
7989.08,-5.83
8068.98,-6.19
8149.67,-6.26
8231.16,-6.12
8313.47,-5.79
8396.61,-5.48
8480.57,-5.16
8565.38,-4.92
8651.03,-4.73
8737.54,-4.89
8824.92,-4.95
8913.17,-4.99
9002.30,-5.16
9092.32,-5.63
9183.25,-5.26
9275.08,-4.29
9367.83,-3.72
9461.51,-3.50
9556.12,-3.11
9651.68,-2.71
9748.20,-2.63
9845.68,-2.77
9944.14,-3.04
10043.58,-3.64
10144.02,-4.23
10245.46,-4.49
10347.91,-4.78
10451.39,-4.95
10555.91,-4.99
10661.46,-4.98
10768.08,-4.89
10875.76,-4.55
10984.52,-4.20
11094.36,-3.89
11205.31,-3.54
11317.36,-3.21
11430.53,-3.43
11544.84,-3.77
11660.29,-3.52
11776.89,-2.99
11894.66,-2.32
12013.60,-1.64
12133.74,-1.34
12255.08,-1.42
12377.63,-1.19
12501.41,-1.14
12626.42,-1.23
12752.68,-1.16
12880.21,-1.05
13009.01,-1.26
13139.10,-1.76
13270.49,-2.35
13403.20,-2.60
13537.23,-2.64
13672.60,-4.21
13809.33,-5.76
13947.42,-6.34
14086.90,-6.02
14227.77,-5.56
14370.04,-5.30
14513.74,-5.20
14658.88,-4.89
14805.47,-4.90
14953.52,-4.88
15103.06,-4.84
15254.09,-4.86
15406.63,-4.91
15560.70,-5.86
15716.30,-6.32
15873.47,-6.83
16032.20,-7.42
16192.52,-7.88
16354.45,-8.71
16517.99,-11.63
16683.17,-14.60
16850.01,-15.96
17018.51,-15.94
17188.69,-13.93
17360.58,-12.46
17534.18,-11.48
17709.53,-10.88
17886.62,-10.35
18065.49,-10.35
18246.14,-11.26
18428.60,-13.02
18612.89,-14.98
18799.02,-16.75
18987.01,-17.20
19176.88,-11.95
19368.65,-8.62
19562.33,-8.96
19757.96,-10.20
19955.54,-11.03
