frequency,raw
20.00,-4.40
20.20,-4.27
20.40,-4.14
20.61,-4.01
20.81,-3.89
21.02,-3.76
21.23,-3.67
21.44,-3.58
21.66,-3.49
21.87,-3.39
22.09,-3.31
22.31,-3.23
22.54,-3.15
22.76,-3.07
22.99,-2.99
23.22,-2.93
23.45,-2.86
23.69,-2.79
23.92,-2.72
24.16,-2.64
24.40,-2.56
24.65,-2.48
24.89,-2.40
25.14,-2.29
25.39,-2.17
25.65,-2.05
25.91,-1.93
26.16,-1.84
26.43,-1.76
26.69,-1.68
26.96,-1.60
27.23,-1.57
27.50,-1.54
27.77,-1.51
28.05,-1.48
28.33,-1.43
28.62,-1.38
28.90,-1.33
29.19,-1.27
29.48,-1.22
29.78,-1.16
30.08,-1.11
30.38,-1.07
30.68,-1.03
30.99,-0.99
31.30,-0.96
31.61,-0.93
31.93,-0.91
32.24,-0.90
32.57,-0.90
32.89,-0.90
33.22,-0.90
33.55,-0.90
33.89,-0.90
34.23,-0.90
34.57,-0.90
34.92,-0.90
35.27,-0.90
35.62,-0.90
35.97,-0.90
36.33,-0.90
36.70,-0.90
37.06,-0.91
37.43,-0.94
37.81,-0.98
38.19,-1.00
38.57,-1.00
38.95,-1.00
39.34,-1.03
39.74,-1.07
40.14,-1.09
40.54,-1.09
40.94,-1.09
41.35,-1.09
41.76,-1.09
42.18,-1.13
42.60,-1.21
43.03,-1.28
43.46,-1.28
43.90,-1.28
44.33,-1.29
44.78,-1.31
45.23,-1.36
45.68,-1.43
46.13,-1.48
46.60,-1.48
47.06,-1.49
47.53,-1.53
48.01,-1.58
48.49,-1.62
48.97,-1.67
49.46,-1.67
49.96,-1.67
50.46,-1.73
50.96,-1.79
51.47,-1.83
51.99,-1.86
52.51,-1.91
53.03,-1.96
53.56,-1.96
54.10,-1.96
54.64,-1.97
55.18,-2.00
55.74,-2.06
56.29,-2.11
56.86,-2.14
57.42,-2.15
58.00,-2.15
58.58,-2.16
59.16,-2.18
59.76,-2.22
60.35,-2.24
60.96,-2.24
61.57,-2.24
62.18,-2.26
62.80,-2.32
63.43,-2.38
64.07,-2.44
64.71,-2.44
65.35,-2.44
66.01,-2.44
66.67,-2.49
67.33,-2.55
68.01,-2.60
68.69,-2.62
69.37,-2.63
70.07,-2.63
70.77,-2.63
71.48,-2.65
72.19,-2.68
72.91,-2.72
73.64,-2.72
74.38,-2.75
75.12,-2.79
75.87,-2.82
76.63,-2.82
77.40,-2.82
78.17,-2.82
78.95,-2.82
79.74,-2.83
80.54,-2.88
81.35,-2.92
82.16,-2.92
82.98,-2.92
83.81,-2.92
84.65,-2.85
85.50,-2.82
86.35,-2.82
87.22,-2.82
88.09,-2.82
88.97,-2.82
89.86,-2.82
90.76,-2.81
91.66,-2.81
92.58,-2.81
93.51,-2.81
94.44,-2.81
95.39,-2.81
96.34,-2.82
97.30,-2.79
98.28,-2.74
99.26,-2.75
100.25,-2.77
101.25,-2.81
102.27,-2.90
103.29,-2.96
104.32,-3.02
105.37,-3.05
106.42,-3.08
107.48,-3.15
108.56,-3.22
109.64,-3.24
110.74,-3.25
111.85,-3.27
112.97,-3.28
114.10,-3.34
115.24,-3.39
116.39,-3.41
117.55,-3.46
118.73,-3.47
119.92,-3.46
121.12,-3.46
122.33,-3.45
123.55,-3.44
124.79,-3.43
126.03,-3.43
127.29,-3.44
128.57,-3.47
129.85,-3.52
131.15,-3.58
132.46,-3.59
133.79,-3.59
135.12,-3.58
136.48,-3.58
137.84,-3.58
139.22,-3.57
140.61,-3.57
142.02,-3.57
143.44,-3.57
144.87,-3.57
146.32,-3.57
147.78,-3.57
149.26,-3.65
150.75,-3.74
152.26,-3.76
153.78,-3.76
155.32,-3.76
156.88,-3.76
158.44,-3.76
160.03,-3.76
161.63,-3.76
163.24,-3.77
164.88,-3.77
166.53,-3.77
168.19,-3.78
169.87,-3.79
171.57,-3.79
173.29,-3.80
175.02,-3.80
176.77,-3.81
178.54,-3.81
180.32,-3.81
182.13,-3.80
183.95,-3.79
185.79,-3.78
187.65,-3.76
189.52,-3.75
191.42,-3.74
193.33,-3.72
195.27,-3.76
197.22,-3.78
199.19,-3.78
201.18,-3.77
203.19,-3.76
205.23,-3.76
207.28,-3.76
209.35,-3.76
211.44,-3.77
213.56,-3.77
215.69,-3.77
217.85,-3.78
220.03,-3.78
222.23,-3.78
224.45,-3.78
226.70,-3.78
228.96,-3.78
231.25,-3.77
233.57,-3.76
235.90,-3.75
238.26,-3.73
240.64,-3.71
243.05,-3.70
245.48,-3.68
247.93,-3.65
250.41,-3.64
252.92,-3.62
255.45,-3.61
258.00,-3.60
260.58,-3.59
263.19,-3.59
265.82,-3.59
268.48,-3.60
271.16,-3.60
273.87,-3.60
276.61,-3.61
279.38,-3.61
282.17,-3.60
284.99,-3.60
287.84,-3.59
290.72,-3.58
293.63,-3.57
296.57,-3.55
299.53,-3.54
302.53,-3.53
305.55,-3.52
308.61,-3.51
311.69,-3.50
314.81,-3.43
317.96,-3.40
321.14,-3.40
324.35,-3.40
327.59,-3.40
330.87,-3.40
334.18,-3.41
337.52,-3.41
340.90,-3.48
344.30,-3.53
347.75,-3.52
351.23,-3.51
354.74,-3.50
358.28,-3.50
361.87,-3.49
365.49,-3.37
369.14,-3.34
372.83,-3.37
376.56,-3.37
380.33,-3.36
384.13,-3.35
387.97,-3.35
391.85,-3.35
395.77,-3.34
399.73,-3.34
403.72,-3.35
407.76,-3.35
411.84,-3.35
415.96,-3.33
420.12,-3.35
424.32,-3.43
428.56,-3.43
432.85,-3.42
437.18,-3.39
441.55,-3.37
445.96,-3.42
450.42,-3.39
454.93,-3.31
459.48,-3.10
464.07,-3.02
468.71,-3.01
473.40,-2.96
478.13,-2.91
482.91,-2.86
487.74,-2.82
492.62,-2.79
497.55,-2.76
502.52,-2.73
507.55,-2.71
512.62,-2.67
517.75,-2.55
522.93,-2.54
528.16,-2.60
533.44,-2.62
538.77,-2.65
544.16,-2.69
549.60,-2.65
555.10,-2.61
560.65,-2.71
566.25,-2.78
571.92,-2.83
577.64,-2.88
583.41,-2.97
589.25,-2.95
595.14,-2.72
601.09,-2.65
607.10,-2.71
613.17,-2.71
619.30,-2.69
625.50,-2.70
631.75,-2.72
638.07,-2.57
644.45,-2.33
650.89,-2.26
657.40,-2.27
663.98,-2.29
670.62,-2.24
677.32,-1.99
684.10,-1.89
690.94,-1.85
697.85,-1.80
704.83,-1.80
711.87,-1.80
718.99,-1.82
726.18,-1.90
733.44,-1.91
740.78,-1.82
748.19,-1.77
755.67,-1.77
763.23,-1.69
770.86,-1.70
778.57,-1.73
786.35,-1.61
794.22,-1.48
802.16,-1.42
810.18,-1.38
818.28,-1.35
826.46,-1.29
834.73,-1.13
843.08,-1.02
851.51,-1.01
860.02,-0.94
868.62,-0.85
877.31,-0.85
886.08,-0.77
894.94,-0.66
903.89,-0.62
912.93,-0.54
922.06,-0.49
931.28,-0.50
940.59,-0.45
950.00,-0.38
959.50,-0.33
969.09,-0.30
978.78,-0.25
988.57,-0.14
998.46,-0.02
1008.44,0.02
1018.53,0.14
1028.71,0.20
1039.00,0.22
1049.39,0.26
1059.88,0.30
1070.48,0.36
1081.19,0.40
1092.00,0.42
1102.92,0.49
1113.95,0.59
1125.09,0.71
1136.34,0.85
1147.70,1.08
1159.18,1.16
1170.77,1.22
1182.48,1.44
1194.30,1.66
1206.25,1.76
1218.31,1.87
1230.49,1.98
1242.80,2.09
1255.22,2.27
1267.78,2.37
1280.45,2.48
1293.26,2.60
1306.19,2.72
1319.25,2.84
1332.45,3.01
1345.77,3.19
1359.23,3.37
1372.82,3.56
1386.55,3.71
1400.41,3.72
1414.42,3.75
1428.56,3.87
1442.85,3.89
1457.28,3.76
1471.85,3.71
1486.57,3.78
1501.43,3.82
1516.45,3.76
1531.61,3.69
1546.93,3.62
1562.40,3.73
1578.02,3.81
1593.80,3.99
1609.74,4.22
1625.84,4.33
1642.10,4.39
1658.52,4.53
1675.10,4.58
1691.85,4.54
1708.77,4.70
1725.86,4.95
1743.12,5.16
1760.55,5.16
1778.15,5.02
1795.94,4.79
1813.90,4.65
1832.03,4.60
1850.36,4.57
1868.86,4.41
1887.55,4.17
1906.42,3.89
1925.49,3.71
1944.74,3.64
1964.19,3.32
1983.83,3.12
2003.67,3.00
2023.71,2.83
2043.94,2.69
2064.38,2.54
2085.03,2.40
2105.88,2.22
2126.94,2.00
2148.20,1.70
2169.69,1.38
2191.38,1.28
2213.30,1.16
2235.43,1.11
2257.78,0.99
2280.36,0.86
2303.17,0.61
2326.20,0.53
2349.46,0.70
2372.95,0.99
2396.68,1.28
2420.65,1.67
2444.86,2.12
2469.31,2.51
2494.00,2.91
2518.94,3.26
2544.13,3.50
2569.57,3.84
2595.27,4.04
2621.22,4.24
2647.43,4.63
2673.90,5.13
2700.64,5.69
2727.65,6.33
2754.93,6.77
2782.48,7.29
2810.30,7.66
2838.40,7.88
2866.79,8.04
2895.46,8.02
2924.41,8.03
2953.65,8.25
2983.19,8.51
3013.02,8.86
3043.15,9.17
3073.58,9.43
3104.32,9.59
3135.36,9.69
3166.72,9.77
3198.38,9.88
3230.37,9.93
3262.67,9.81
3295.30,9.72
3328.25,9.71
3361.53,9.71
3395.15,9.72
3429.10,9.63
3463.39,9.50
3498.03,9.32
3533.01,9.16
3568.34,9.10
3604.02,8.93
3640.06,8.81
3676.46,8.70
3713.22,8.49
3750.36,8.18
3787.86,7.80
3825.74,7.36
3864.00,6.98
3902.64,6.72
3941.66,6.18
3981.08,5.59
4020.89,5.21
4061.10,5.14
4101.71,5.05
4142.73,4.91
4184.15,4.85
4226.00,4.33
4268.26,4.03
4310.94,3.82
4354.05,3.58
4397.59,3.61
4441.56,3.50
4485.98,3.13
4530.84,2.86
4576.15,2.58
4621.91,2.44
4668.13,2.68
4714.81,2.87
4761.96,2.61
4809.58,2.35
4857.67,2.14
4906.25,2.05
4955.31,1.79
5004.87,1.46
5054.91,1.10
5105.46,0.67
5156.52,0.29
5208.08,0.01
5260.16,-0.14
5312.77,-0.28
5365.89,-0.35
5419.55,-0.28
5473.75,-0.07
5528.49,0.27
5583.77,0.55
5639.61,0.82
5696.00,1.23
5752.96,1.99
5810.49,2.82
5868.60,3.28
5927.28,3.41
5986.56,3.47
6046.42,3.50
6106.89,3.40
6167.96,3.15
6229.64,2.57
6291.93,1.99
6354.85,1.51
6418.40,1.02
6482.58,0.30
6547.41,-0.52
6612.88,-1.20
6679.01,-1.76
6745.80,-2.24
6813.26,-2.61
6881.39,-2.90
6950.21,-3.22
7019.71,-3.48
7089.91,-3.39
7160.81,-3.27
7232.41,-2.93
7304.74,-2.32
7377.79,-2.20
7451.56,-2.49
7526.08,-2.76
7601.34,-3.04
7677.35,-2.69
7754.13,-2.42
7831.67,-2.07
7909.98,-1.38
7989.08,-0.92
8068.98,-0.44
8149.67,0.17
8231.16,0.93
8313.47,1.65
8396.61,2.18
8480.57,2.93
8565.38,3.64
8651.03,3.94
8737.54,3.83
8824.92,3.73
8913.17,3.91
9002.30,4.33
9092.32,4.63
9183.25,4.51
9275.08,4.14
9367.83,3.73
9461.51,3.62
9556.12,3.61
9651.68,3.41
9748.20,2.96
9845.68,2.01
9944.14,1.04
10043.58,-0.37
10144.02,-1.13
10245.46,-1.48
10347.91,-1.63
10451.39,-1.80
10555.91,-2.11
10661.46,-2.08
10768.08,-1.57
10875.76,-0.89
10984.52,-0.40
11094.36,-0.54
11205.31,-0.95
11317.36,-1.17
11430.53,-1.35
11544.84,-1.72
11660.29,-2.34
11776.89,-3.15
11894.66,-3.67
12013.60,-4.74
12133.74,-5.65
12255.08,-6.06
12377.63,-6.78
12501.41,-7.67
12626.42,-8.69
12752.68,-9.58
12880.21,-9.73
13009.01,-10.03
13139.10,-12.46
13270.49,-14.54
13403.20,-15.99
13537.23,-17.01
13672.60,-16.63
13809.33,-16.71
13947.42,-16.82
14086.90,-16.50
14227.77,-15.87
14370.04,-15.77
14513.74,-16.19
14658.88,-16.83
14805.47,-16.71
14953.52,-16.10
15103.06,-15.31
15254.09,-16.02
15406.63,-17.13
15560.70,-17.85
15716.30,-17.60
15873.47,-16.92
16032.20,-16.18
16192.52,-14.89
16354.45,-13.01
16517.99,-11.58
16683.17,-10.83
16850.01,-10.20
17018.51,-9.84
17188.69,-9.14
17360.58,-8.65
17534.18,-7.80
17709.53,-7.18
17886.62,-6.77
18065.49,-6.24
18246.14,-5.78
18428.60,-5.70
18612.89,-6.34
18799.02,-6.94
18987.01,-6.95
19176.88,-6.80
19368.65,-7.02
19562.33,-7.26
19757.96,-7.87
19955.54,-8.11
