frequency,raw
20.00,-15.88
20.20,-15.75
20.40,-15.63
20.61,-15.50
20.81,-15.37
21.02,-15.25
21.23,-15.14
21.44,-15.02
21.66,-14.91
21.87,-14.80
22.09,-14.66
22.31,-14.51
22.54,-14.36
22.76,-14.20
22.99,-14.05
23.22,-13.91
23.45,-13.77
23.69,-13.63
23.92,-13.49
24.16,-13.35
24.40,-13.22
24.65,-13.09
24.89,-12.97
25.14,-12.82
25.39,-12.66
25.65,-12.50
25.91,-12.34
26.16,-12.19
26.43,-12.05
26.69,-11.91
26.96,-11.77
27.23,-11.63
27.50,-11.48
27.77,-11.34
28.05,-11.19
28.33,-11.04
28.62,-10.89
28.90,-10.74
29.19,-10.60
29.48,-10.47
29.78,-10.34
30.08,-10.19
30.38,-10.01
30.68,-9.82
30.99,-9.64
31.30,-9.49
31.61,-9.34
31.93,-9.19
32.24,-9.02
32.57,-8.84
32.89,-8.67
33.22,-8.52
33.55,-8.39
33.89,-8.25
34.23,-8.09
34.57,-7.92
34.92,-7.74
35.27,-7.60
35.62,-7.46
35.97,-7.33
36.33,-7.14
36.70,-6.95
37.06,-6.77
37.43,-6.65
37.81,-6.52
38.19,-6.37
38.57,-6.20
38.95,-6.03
39.34,-5.87
39.74,-5.71
40.14,-5.55
40.54,-5.37
40.94,-5.20
41.35,-5.04
41.76,-4.89
42.18,-4.76
42.60,-4.64
43.03,-4.52
43.46,-4.35
43.90,-4.19
44.33,-4.05
44.78,-3.92
45.23,-3.81
45.68,-3.70
46.13,-3.58
46.60,-3.43
47.06,-3.30
47.53,-3.22
48.01,-3.15
48.49,-3.00
48.97,-2.85
49.46,-2.85
49.96,-2.86
50.46,-2.75
50.96,-2.63
51.47,-2.49
51.99,-2.34
52.51,-2.42
53.03,-2.48
53.56,-2.33
54.10,-2.19
54.64,-2.09
55.18,-2.03
55.74,-2.05
56.29,-2.00
56.86,-1.87
57.42,-1.80
58.00,-1.74
58.58,-1.71
59.16,-1.66
59.76,-1.60
60.35,-1.58
60.96,-1.57
61.57,-1.50
62.18,-1.45
62.80,-1.45
63.43,-1.41
64.07,-1.36
64.71,-1.36
65.35,-1.34
66.01,-1.31
66.67,-1.22
67.33,-1.17
68.01,-1.17
68.69,-1.17
69.37,-1.14
70.07,-1.08
70.77,-1.07
71.48,-1.07
72.19,-1.07
72.91,-1.07
73.64,-1.07
74.38,-1.07
75.12,-1.07
75.87,-1.07
76.63,-1.07
77.40,-1.07
78.17,-1.07
78.95,-1.07
79.74,-1.07
80.54,-1.07
81.35,-1.07
82.16,-1.07
82.98,-1.07
83.81,-1.00
84.65,-0.98
85.50,-0.98
86.35,-0.98
87.22,-0.98
88.09,-0.98
88.97,-1.07
89.86,-1.07
90.76,-1.07
91.66,-1.06
92.58,-1.06
93.51,-1.08
94.44,-1.13
95.39,-1.16
96.34,-1.15
97.30,-1.17
98.28,-1.18
99.26,-1.12
100.25,-1.12
101.25,-1.14
102.27,-1.15
103.29,-1.16
104.32,-1.18
105.37,-1.20
106.42,-1.24
107.48,-1.34
108.56,-1.45
109.64,-1.49
110.74,-1.52
111.85,-1.65
112.97,-1.73
114.10,-1.73
115.24,-1.75
116.39,-1.83
117.55,-1.90
118.73,-1.92
119.92,-1.91
121.12,-1.90
122.33,-1.89
123.55,-1.88
124.79,-1.89
126.03,-2.04
127.29,-2.05
128.57,-2.05
129.85,-2.04
131.15,-2.07
132.46,-2.11
133.79,-2.13
135.12,-2.13
136.48,-2.19
137.84,-2.23
139.22,-2.28
140.61,-2.30
142.02,-2.30
143.44,-2.37
144.87,-2.40
146.32,-2.47
147.78,-2.50
149.26,-2.50
150.75,-2.50
152.26,-2.50
153.78,-2.51
155.32,-2.56
156.88,-2.59
158.44,-2.66
160.03,-2.69
161.63,-2.69
163.24,-2.69
164.88,-2.69
166.53,-2.74
168.19,-2.78
169.87,-2.81
171.57,-2.81
173.29,-2.82
175.02,-2.86
176.77,-2.91
178.54,-2.92
180.32,-2.92
182.13,-2.91
183.95,-2.90
185.79,-2.89
187.65,-2.96
189.52,-2.96
191.42,-2.95
193.33,-2.93
195.27,-2.97
197.22,-3.00
199.19,-2.99
201.18,-2.98
203.19,-2.98
205.23,-2.97
207.28,-3.01
209.35,-3.06
211.44,-3.07
213.56,-3.08
215.69,-3.14
217.85,-3.18
220.03,-3.18
222.23,-3.19
224.45,-3.19
226.70,-3.19
228.96,-3.18
231.25,-3.23
233.57,-3.26
235.90,-3.25
238.26,-3.23
240.64,-3.21
243.05,-3.20
245.48,-3.18
247.93,-3.15
250.41,-3.17
252.92,-3.21
255.45,-3.20
258.00,-3.19
260.58,-3.23
263.19,-3.27
265.82,-3.28
268.48,-3.29
271.16,-3.29
273.87,-3.30
276.61,-3.30
279.38,-3.30
282.17,-3.29
284.99,-3.29
287.84,-3.28
290.72,-3.27
293.63,-3.26
296.57,-3.24
299.53,-3.23
302.53,-3.22
305.55,-3.21
308.61,-3.20
311.69,-3.27
314.81,-3.29
317.96,-3.28
321.14,-3.28
324.35,-3.28
327.59,-3.29
330.87,-3.29
334.18,-3.29
337.52,-3.29
340.90,-3.29
344.30,-3.29
347.75,-3.29
351.23,-3.29
354.74,-3.29
358.28,-3.28
361.87,-3.28
365.49,-3.27
369.14,-3.27
372.83,-3.26
376.56,-3.31
380.33,-3.34
384.13,-3.33
387.97,-3.33
391.85,-3.32
395.77,-3.32
399.73,-3.29
403.72,-3.25
407.76,-3.23
411.84,-3.24
415.96,-3.24
420.12,-3.24
424.32,-3.23
428.56,-3.22
432.85,-3.21
437.18,-3.18
441.55,-3.14
445.96,-3.10
450.42,-3.03
454.93,-2.91
459.48,-2.83
464.07,-2.77
468.71,-2.72
473.40,-2.65
478.13,-2.60
482.91,-2.55
487.74,-2.51
492.62,-2.47
497.55,-2.36
502.52,-2.31
507.55,-2.30
512.62,-2.29
517.75,-2.28
522.93,-2.29
528.16,-2.31
533.44,-2.31
538.77,-2.20
544.16,-2.19
549.60,-2.24
555.10,-2.43
560.65,-2.52
566.25,-2.58
571.92,-2.64
577.64,-2.76
583.41,-2.70
589.25,-2.65
595.14,-2.72
601.09,-2.85
607.10,-2.80
613.17,-2.76
619.30,-2.69
625.50,-2.64
631.75,-2.53
638.07,-2.48
644.45,-2.37
650.89,-2.31
657.40,-2.26
663.98,-2.23
670.62,-2.16
677.32,-1.97
684.10,-1.86
690.94,-1.83
697.85,-1.81
704.83,-1.64
711.87,-1.57
718.99,-1.60
726.18,-1.57
733.44,-1.54
740.78,-1.56
748.19,-1.48
755.67,-1.44
763.23,-1.45
770.86,-1.45
778.57,-1.40
786.35,-1.37
794.22,-1.31
802.16,-1.27
810.18,-1.17
818.28,-1.10
826.46,-1.05
834.73,-0.91
843.08,-0.82
851.51,-0.74
860.02,-0.64
868.62,-0.62
877.31,-0.56
886.08,-0.50
894.94,-0.40
903.89,-0.32
912.93,-0.24
922.06,-0.13
931.28,-0.09
940.59,-0.09
950.00,-0.06
959.50,0.03
969.09,0.10
978.78,0.19
988.57,0.20
998.46,0.04
1008.44,-0.15
1018.53,-0.28
1028.71,-0.34
1039.00,-0.26
1049.39,-0.20
1059.88,-0.22
1070.48,-0.22
1081.19,-0.18
1092.00,-0.09
1102.92,0.10
1113.95,0.21
1125.09,0.32
1136.34,0.43
1147.70,0.48
1159.18,0.52
1170.77,0.60
1182.48,0.70
1194.30,0.88
1206.25,1.03
1218.31,1.28
1230.49,1.44
1242.80,1.61
1255.22,1.72
1267.78,1.83
1280.45,1.95
1293.26,2.02
1306.19,1.96
1319.25,1.96
1332.45,2.03
1345.77,2.13
1359.23,2.12
1372.82,2.09
1386.55,1.78
1400.41,1.54
1414.42,1.21
1428.56,1.07
1442.85,0.99
1457.28,0.86
1471.85,0.78
1486.57,0.80
1501.43,0.83
1516.45,0.79
1531.61,0.64
1546.93,0.36
1562.40,0.04
1578.02,-0.18
1593.80,-0.34
1609.74,-0.68
1625.84,-0.74
1642.10,-0.82
1658.52,-0.81
1675.10,-0.78
1691.85,-0.84
1708.77,-0.91
1725.86,-1.03
1743.12,-1.16
1760.55,-1.27
1778.15,-1.34
1795.94,-1.40
1813.90,-1.38
1832.03,-1.30
1850.36,-1.18
1868.86,-1.09
1887.55,-0.96
1906.42,-0.81
1925.49,-0.81
1944.74,-0.85
1964.19,-0.83
1983.83,-0.59
2003.67,-0.26
2023.71,0.05
2043.94,0.36
2064.38,0.58
2085.03,0.80
2105.88,0.94
2126.94,1.01
2148.20,1.24
2169.69,1.52
2191.38,1.76
2213.30,2.32
2235.43,2.64
2257.78,2.84
2280.36,3.06
2303.17,3.31
2326.20,3.48
2349.46,3.66
2372.95,3.84
2396.68,4.11
2420.65,4.44
2444.86,4.76
2469.31,5.03
2494.00,5.36
2518.94,5.76
2544.13,5.94
2569.57,6.01
2595.27,6.11
2621.22,6.24
2647.43,6.43
2673.90,6.72
2700.64,6.91
2727.65,7.17
2754.93,7.32
2782.48,7.36
2810.30,7.38
2838.40,7.29
2866.79,7.14
2895.46,7.01
2924.41,6.96
2953.65,6.94
2983.19,6.97
3013.02,7.14
3043.15,7.34
3073.58,7.49
3104.32,7.65
3135.36,7.67
3166.72,7.79
3198.38,7.76
3230.37,7.65
3262.67,7.48
3295.30,7.41
3328.25,7.51
3361.53,7.58
3395.15,7.57
3429.10,7.59
3463.39,7.53
3498.03,7.38
3533.01,7.37
3568.34,7.39
3604.02,7.45
3640.06,7.47
3676.46,7.41
3713.22,7.20
3750.36,7.02
3787.86,6.81
3825.74,6.60
3864.00,6.42
3902.64,6.18
3941.66,6.01
3981.08,6.03
4020.89,5.88
4061.10,5.78
4101.71,5.68
4142.73,5.62
4184.15,5.48
4226.00,5.40
4268.26,5.32
4310.94,5.12
4354.05,4.95
4397.59,4.71
4441.56,4.49
4485.98,4.33
4530.84,4.25
4576.15,4.16
4621.91,4.11
4668.13,4.21
4714.81,4.22
4761.96,4.12
4809.58,4.05
4857.67,4.02
4906.25,3.90
4955.31,3.78
5004.87,3.61
5054.91,3.35
5105.46,3.10
5156.52,2.88
5208.08,2.75
5260.16,2.67
5312.77,2.67
5365.89,2.82
5419.55,2.91
5473.75,2.89
5528.49,2.76
5583.77,2.87
5639.61,3.10
5696.00,3.42
5752.96,3.64
5810.49,3.81
5868.60,3.92
5927.28,3.93
5986.56,3.88
6046.42,3.67
6106.89,3.43
6167.96,3.26
6229.64,3.16
6291.93,3.02
6354.85,2.87
6418.40,2.67
6482.58,2.44
6547.41,2.06
6612.88,1.68
6679.01,1.41
6745.80,1.09
6813.26,1.09
6881.39,1.12
6950.21,1.14
7019.71,1.11
7089.91,0.82
7160.81,0.56
7232.41,0.31
7304.74,-0.01
7377.79,-0.30
7451.56,-0.51
7526.08,-0.44
7601.34,-0.15
7677.35,-0.29
7754.13,-0.29
7831.67,0.15
7909.98,0.56
7989.08,0.81
8068.98,0.84
8149.67,0.72
8231.16,0.96
8313.47,1.35
8396.61,1.58
8480.57,2.06
8565.38,2.48
8651.03,2.92
8737.54,3.60
8824.92,4.08
8913.17,4.15
9002.30,4.30
9092.32,4.46
9183.25,4.79
9275.08,5.35
9367.83,5.20
9461.51,4.91
9556.12,4.69
9651.68,4.13
9748.20,3.57
9845.68,2.44
9944.14,0.20
10043.58,-2.02
10144.02,-3.87
10245.46,-5.34
10347.91,-6.92
10451.39,-8.23
10555.91,-7.89
10661.46,-6.47
10768.08,-6.83
10875.76,-6.80
10984.52,-5.53
11094.36,-3.72
11205.31,-3.30
11317.36,-3.35
11430.53,-3.39
11544.84,-3.09
11660.29,-2.63
11776.89,-2.51
11894.66,-2.53
12013.60,-3.05
12133.74,-3.35
12255.08,-3.48
12377.63,-3.41
12501.41,-3.32
12626.42,-3.32
12752.68,-3.42
12880.21,-3.50
13009.01,-3.49
13139.10,-3.88
13270.49,-4.60
13403.20,-5.58
13537.23,-6.85
13672.60,-8.00
13809.33,-8.46
13947.42,-8.56
14086.90,-8.58
14227.77,-8.54
14370.04,-8.38
14513.74,-7.97
14658.88,-7.34
14805.47,-7.00
14953.52,-6.86
15103.06,-7.20
15254.09,-7.99
15406.63,-8.45
15560.70,-8.08
15716.30,-7.65
15873.47,-8.09
16032.20,-8.75
16192.52,-9.74
16354.45,-10.96
16517.99,-11.55
16683.17,-11.34
16850.01,-10.31
17018.51,-10.05
17188.69,-9.79
17360.58,-9.19
17534.18,-7.69
17709.53,-6.46
17886.62,-5.37
18065.49,-4.58
18246.14,-3.84
18428.60,-2.84
18612.89,-3.27
18799.02,-4.48
18987.01,-6.00
19176.88,-7.44
19368.65,-6.21
19562.33,-4.53
19757.96,-2.56
19955.54,-1.10
