frequency,raw
20,-15.81
21,-15.20
22,-14.60
23,-14.02
24,-13.46
25,-12.92
26,-12.39
27,-11.88
28,-11.39
29,-10.91
30,-10.46
31,-10.01
32,-9.61
33,-9.21
34,-8.84
35,-8.47
36,-8.11
37,-7.76
38,-7.41
39,-7.07
40,-6.73
41,-6.40
42,-6.08
43,-5.76
44,-5.46
45,-5.17
46,-4.88
47,-4.61
48,-4.35
49,-4.11
50,-3.87
51,-3.64
52,-3.42
53,-3.20
54,-3.00
55,-2.79
56,-2.60
57,-2.41
58,-2.23
59,-2.06
60,-1.90
61,-1.75
62,-1.61
63,-1.48
64,-1.35
65,-1.23
66,-1.11
67,-1.00
68,-0.88
69,-0.78
70,-0.67
71,-0.56
72,-0.45
73,-0.35
74,-0.24
75,-0.15
76,-0.08
77,0.00
78,0.06
79,0.12
80,0.19
81,0.24
82,0.29
83,0.35
84,0.39
85,0.42
86,0.46
87,0.49
88,0.52
89,0.54
90,0.56
91,0.58
92,0.60
93,0.61
94,0.62
95,0.61
96,0.61
97,0.60
98,0.60
99,0.60
100,0.60
101,0.60
102,0.60
104,0.60
105,0.60
106,0.60
107,0.60
108,0.60
109,0.60
110,0.60
111,0.60
112,0.60
113,0.61
114,0.61
115,0.61
117,0.61
118,0.59
119,0.57
120,0.55
121,0.52
123,0.49
124,0.46
125,0.42
126,0.39
128,0.36
129,0.33
130,0.30
131,0.28
133,0.26
134,0.26
135,0.27
137,0.28
138,0.28
140,0.28
141,0.27
142,0.25
144,0.23
145,0.20
147,0.17
148,0.14
150,0.10
151,0.07
153,0.03
154,0.00
156,-0.02
157,-0.05
159,-0.06
160,-0.07
162,-0.06
164,-0.05
165,-0.04
167,-0.04
169,-0.06
170,-0.08
172,-0.11
174,-0.14
175,-0.17
177,-0.21
179,-0.24
181,-0.27
183,-0.31
184,-0.34
186,-0.36
188,-0.38
190,-0.39
192,-0.40
194,-0.40
196,-0.39
198,-0.38
200,-0.38
202,-0.38
204,-0.38
206,-0.38
208,-0.38
210,-0.38
212,-0.38
214,-0.38
216,-0.38
218,-0.38
221,-0.38
223,-0.38
225,-0.38
227,-0.38
229,-0.38
232,-0.38
234,-0.38
236,-0.38
239,-0.38
241,-0.38
244,-0.38
246,-0.38
248,-0.38
251,-0.38
253,-0.38
256,-0.38
259,-0.38
261,-0.38
264,-0.38
266,-0.38
269,-0.38
272,-0.38
274,-0.38
277,-0.38
280,-0.38
283,-0.38
286,-0.38
288,-0.38
291,-0.38
294,-0.38
297,-0.38
300,-0.38
303,-0.38
306,-0.38
309,-0.38
312,-0.38
316,-0.38
319,-0.38
322,-0.38
325,-0.38
328,-0.38
332,-0.38
335,-0.38
338,-0.38
342,-0.38
345,-0.38
349,-0.38
352,-0.38
356,-0.38
359,-0.38
363,-0.38
366,-0.38
370,-0.38
374,-0.38
377,-0.38
381,-0.38
385,-0.38
389,-0.38
393,-0.38
397,-0.38
401,-0.38
405,-0.38
409,-0.38
413,-0.38
417,-0.38
421,-0.38
425,-0.38
430,-0.38
434,-0.38
438,-0.38
443,-0.38
447,-0.38
451,-0.38
456,-0.38
460,-0.38
465,-0.38
470,-0.38
474,-0.38
479,-0.38
484,-0.38
489,-0.38
494,-0.38
499,-0.38
504,-0.37
509,-0.36
514,-0.35
519,-0.35
524,-0.36
529,-0.38
535,-0.40
540,-0.42
545,-0.45
551,-0.49
556,-0.52
562,-0.55
568,-0.59
573,-0.62
579,-0.65
585,-0.68
591,-0.70
596,-0.71
602,-0.72
608,-0.73
615,-0.73
621,-0.73
627,-0.72
633,-0.71
639,-0.70
646,-0.68
652,-0.65
659,-0.62
665,-0.59
672,-0.55
679,-0.52
686,-0.49
692,-0.45
699,-0.42
706,-0.40
713,-0.38
721,-0.36
728,-0.35
735,-0.35
742,-0.36
750,-0.37
757,-0.38
765,-0.38
773,-0.38
780,-0.38
788,-0.38
796,-0.38
804,-0.38
812,-0.38
820,-0.39
828,-0.39
837,-0.40
845,-0.39
853,-0.38
862,-0.36
871,-0.34
879,-0.31
888,-0.28
897,-0.25
906,-0.21
915,-0.18
924,-0.15
933,-0.12
943,-0.10
952,-0.09
962,-0.07
971,-0.05
981,-0.03
991,-0.02
1001,0.00
1011,0.03
1021,0.05
1031,0.08
1041,0.11
1052,0.13
1062,0.16
1073,0.20
1084,0.24
1094,0.28
1105,0.32
1116,0.36
1128,0.39
1139,0.41
1150,0.43
1162,0.45
1173,0.49
1185,0.54
1197,0.58
1209,0.62
1221,0.66
1233,0.71
1246,0.75
1258,0.79
1271,0.83
1283,0.88
1296,0.94
1309,1.01
1322,1.07
1335,1.15
1349,1.22
1362,1.30
1376,1.37
1390,1.43
1404,1.50
1418,1.58
1432,1.67
1446,1.75
1461,1.80
1475,1.86
1490,1.92
1505,1.98
1520,2.02
1535,2.07
1550,2.12
1566,2.19
1582,2.26
1597,2.34
1613,2.43
1629,2.55
1646,2.69
1662,2.84
1679,3.02
1696,3.23
1713,3.47
1730,3.74
1747,4.03
1764,4.34
1782,4.65
1800,4.98
1818,5.31
1836,5.63
1854,5.94
1873,6.25
1892,6.56
1911,6.87
1930,7.15
1949,7.41
1969,7.64
1988,7.86
2008,8.06
2028,8.24
2048,8.40
2069,8.54
2090,8.68
2111,8.79
2132,8.88
2153,8.95
2175,9.00
2196,9.02
2218,9.01
2240,8.98
2263,8.94
2285,8.90
2308,8.86
2331,8.79
2355,8.71
2378,8.62
2402,8.54
2426,8.47
2450,8.39
2475,8.31
2500,8.25
2525,8.19
2550,8.13
2575,8.06
2601,7.98
2627,7.90
2653,7.83
2680,7.75
2707,7.65
2734,7.55
2761,7.45
2789,7.35
2817,7.22
2845,7.08
2873,6.95
2902,6.83
2931,6.69
2960,6.54
2990,6.38
3020,6.23
3050,6.07
3080,5.91
3111,5.74
3142,5.60
3174,5.47
3206,5.37
3238,5.30
3270,5.25
3303,5.21
3336,5.22
3369,5.25
3403,5.30
3437,5.37
3471,5.45
3506,5.57
3541,5.70
3576,5.84
3612,5.99
3648,6.14
3685,6.31
3721,6.48
3759,6.66
3796,6.85
3834,7.06
3873,7.27
3911,7.50
3950,7.75
3990,7.98
4030,8.22
4070,8.46
4111,8.68
4152,8.88
4193,9.08
4235,9.27
4278,9.43
4321,9.58
4364,9.73
4407,9.85
4451,9.96
4496,10.07
4541,10.17
4586,10.27
4632,10.36
4679,10.45
4725,10.54
4773,10.63
4820,10.71
4868,10.78
4917,10.84
4966,10.90
5016,10.93
5066,10.95
5117,10.97
5168,10.98
5220,10.99
5272,11.00
5325,11.01
5378,11.01
5432,11.03
5486,11.06
5541,11.11
5596,11.17
5652,11.24
5709,11.30
5766,11.35
5823,11.41
5882,11.45
5940,11.48
6000,11.50
6060,11.51
6120,11.49
6182,11.45
6244,11.40
6306,11.31
6369,11.21
6433,11.07
6497,10.92
6562,10.74
6628,10.53
6694,10.31
6761,10.06
6828,9.77
6897,9.45
6966,9.10
7035,8.73
7106,8.34
7177,7.91
7249,7.48
7321,7.03
7394,6.56
7468,6.05
7543,5.53
7618,4.98
7694,4.42
7771,3.88
7849,3.36
7928,2.86
8007,2.40
8087,1.99
8168,1.64
8250,1.35
8332,1.13
8415,1.01
8499,0.98
8584,1.04
8670,1.19
8757,1.41
8845,1.71
8933,2.07
9022,2.45
9113,2.86
9204,3.30
9296,3.73
9389,4.15
9483,4.57
9577,4.94
9673,5.29
9770,5.61
9868,5.90
9966,6.14
10066,6.34
10167,6.51
10268,6.65
10371,6.77
10475,6.87
10579,6.98
10685,7.06
10792,7.13
10900,7.19
11009,7.25
11119,7.30
11230,7.33
11343,7.32
11456,7.30
11571,7.25
11686,7.17
11803,7.09
11921,7.01
12040,6.90
12161,6.77
12282,6.63
12405,6.48
12529,6.34
12655,6.19
12781,6.04
12909,5.89
13038,5.71
13168,5.51
13300,5.29
13433,5.02
13567,4.73
13703,4.38
13840,3.99
13978,3.57
14118,3.11
14259,2.64
14402,2.15
14546,1.65
14692,1.13
14838,0.59
14987,0.04
15137,-0.51
15288,-1.07
15441,-1.63
15595,-2.20
15751,-2.76
15909,-3.30
16068,-3.85
16229,-4.38
16391,-4.90
16555,-5.41
16720,-5.91
16888,-6.41
17056,-6.88
17227,-7.35
17399,-7.81
17573,-8.28
17749,-8.79
17926,-9.36
18106,-9.98
18287,-10.67
18470,-11.40
18654,-12.18
18841,-13.00
19029,-13.87
19220,-14.77
19412,-15.72
19606,-16.71
19802,-17.75
20000,-18.82
