frequency,raw,error,smoothed,error_smoothed,equalization,parametric_eq,fixed_band_eq,equalized_raw,equalized_smoothed,target
20.00,3.09,2.20,3.10,2.20,-2.18,-3.55,-1.15,0.91,0.91,0.89
20.20,3.11,2.23,3.11,2.22,-2.22,-3.55,-1.19,0.89,0.89,0.88
20.40,3.13,2.26,3.13,2.25,-2.26,-3.55,-1.22,0.88,0.87,0.87
20.61,3.15,2.28,3.15,2.28,-2.29,-3.55,-1.26,0.86,0.86,0.87
20.81,3.17,2.32,3.17,2.31,-2.33,-3.55,-1.29,0.84,0.84,0.85
21.02,3.19,2.34,3.20,2.35,-2.37,-3.55,-1.33,0.83,0.84,0.85
21.23,3.24,2.40,3.24,2.39,-2.40,-3.55,-1.37,0.84,0.83,0.84
21.44,3.28,2.43,3.28,2.43,-2.44,-3.55,-1.41,0.84,0.84,0.85
21.66,3.32,2.48,3.33,2.49,-2.48,-3.55,-1.45,0.84,0.84,0.84
21.87,3.37,2.54,3.37,2.53,-2.53,-3.55,-1.49,0.85,0.84,0.83
22.09,3.40,2.58,3.40,2.57,-2.57,-3.55,-1.53,0.83,0.83,0.82
22.31,3.42,2.60,3.42,2.61,-2.60,-3.55,-1.58,0.82,0.82,0.82
22.54,3.44,2.63,3.45,2.64,-2.63,-3.55,-1.62,0.81,0.81,0.81
22.76,3.47,2.66,3.47,2.66,-2.66,-3.55,-1.67,0.81,0.81,0.81
22.99,3.49,2.69,3.49,2.69,-2.68,-3.55,-1.72,0.82,0.81,0.80
23.22,3.49,2.70,3.49,2.70,-2.69,-3.55,-1.77,0.80,0.81,0.79
23.45,3.49,2.69,3.49,2.70,-2.70,-3.55,-1.81,0.79,0.79,0.80
23.69,3.49,2.70,3.49,2.70,-2.71,-3.55,-1.87,0.78,0.78,0.79
23.92,3.49,2.71,3.50,2.71,-2.72,-3.55,-1.92,0.77,0.78,0.79
24.16,3.51,2.72,3.51,2.72,-2.73,-3.55,-1.97,0.78,0.78,0.80
24.40,3.54,2.74,3.54,2.74,-2.75,-3.55,-2.02,0.79,0.79,0.80
24.65,3.57,2.77,3.57,2.77,-2.77,-3.55,-2.08,0.80,0.80,0.80
24.89,3.60,2.80,3.60,2.79,-2.79,-3.55,-2.13,0.81,0.81,0.80
25.14,3.62,2.82,3.62,2.82,-2.81,-3.55,-2.19,0.81,0.81,0.80
25.39,3.64,2.84,3.64,2.84,-2.83,-3.55,-2.24,0.81,0.81,0.80
25.65,3.66,2.86,3.66,2.86,-2.85,-3.55,-2.30,0.81,0.81,0.80
25.91,3.68,2.87,3.68,2.87,-2.86,-3.55,-2.36,0.82,0.82,0.81
26.16,3.69,2.87,3.69,2.87,-2.87,-3.55,-2.41,0.82,0.82,0.82
26.43,3.69,2.87,3.69,2.87,-2.88,-3.55,-2.47,0.82,0.82,0.82
26.69,3.69,2.87,3.69,2.87,-2.88,-3.55,-2.53,0.81,0.81,0.82
26.96,3.69,2.88,3.69,2.88,-2.89,-3.55,-2.58,0.81,0.81,0.82
27.23,3.70,2.89,3.70,2.89,-2.89,-3.55,-2.64,0.81,0.81,0.82
27.50,3.72,2.91,3.72,2.90,-2.90,-3.55,-2.69,0.82,0.81,0.81
27.77,3.73,2.91,3.73,2.91,-2.92,-3.55,-2.74,0.82,0.82,0.82
28.05,3.74,2.92,3.74,2.93,-2.93,-3.55,-2.79,0.81,0.82,0.82
28.33,3.76,2.95,3.76,2.94,-2.94,-3.55,-2.84,0.82,0.82,0.81
28.62,3.77,2.96,3.77,2.96,-2.95,-3.55,-2.89,0.82,0.82,0.81
28.90,3.79,2.97,3.79,2.97,-2.96,-3.55,-2.93,0.83,0.82,0.82
29.19,3.79,2.98,3.79,2.98,-2.97,-3.55,-2.98,0.82,0.82,0.82
29.48,3.79,2.98,3.79,2.98,-2.97,-3.55,-3.02,0.82,0.82,0.81
29.78,3.79,2.98,3.79,2.97,-2.97,-3.55,-3.05,0.82,0.82,0.81
30.08,3.79,2.97,3.79,2.98,-2.98,-3.55,-3.09,0.81,0.81,0.82
30.38,3.79,2.98,3.79,2.98,-2.99,-3.55,-3.12,0.80,0.80,0.81
30.68,3.79,2.99,3.79,2.99,-3.00,-3.55,-3.14,0.79,0.79,0.80
30.99,3.79,2.99,3.80,3.01,-3.02,-3.55,-3.17,0.77,0.78,0.80
31.30,3.82,3.04,3.82,3.04,-3.04,-3.55,-3.19,0.78,0.78,0.78
31.61,3.85,3.07,3.85,3.07,-3.07,-3.55,-3.21,0.79,0.78,0.78
31.93,3.88,3.11,3.88,3.10,-3.09,-3.55,-3.22,0.79,0.79,0.77
32.24,3.89,3.12,3.89,3.12,-3.11,-3.55,-3.23,0.78,0.78,0.77
32.57,3.89,3.14,3.89,3.14,-3.12,-3.55,-3.24,0.77,0.77,0.76
32.89,3.89,3.14,3.89,3.14,-3.14,-3.55,-3.25,0.75,0.75,0.75
33.22,3.89,3.14,3.89,3.14,-3.15,-3.55,-3.25,0.74,0.74,0.75
33.55,3.89,3.14,3.89,3.14,-3.15,-3.55,-3.25,0.74,0.74,0.75
33.89,3.89,3.13,3.89,3.14,-3.15,-3.55,-3.25,0.74,0.74,0.76
34.23,3.89,3.15,3.89,3.15,-3.14,-3.55,-3.24,0.75,0.75,0.74
34.57,3.89,3.15,3.89,3.15,-3.13,-3.55,-3.24,0.76,0.76,0.74
34.92,3.89,3.15,3.88,3.14,-3.12,-3.55,-3.23,0.77,0.76,0.74
35.27,3.86,3.12,3.86,3.12,-3.11,-3.55,-3.22,0.75,0.75,0.74
35.62,3.83,3.10,3.83,3.09,-3.10,-3.55,-3.21,0.73,0.73,0.73
35.97,3.79,3.06,3.80,3.08,-3.10,-3.55,-3.20,0.69,0.71,0.73
36.33,3.79,3.08,3.79,3.07,-3.09,-3.54,-3.19,0.70,0.70,0.72
36.70,3.79,3.09,3.79,3.09,-3.10,-3.54,-3.18,0.70,0.69,0.70
37.06,3.79,3.10,3.79,3.11,-3.10,-3.54,-3.17,0.69,0.69,0.69
37.43,3.79,3.13,3.79,3.12,-3.12,-3.54,-3.16,0.67,0.67,0.66
37.81,3.79,3.14,3.79,3.14,-3.14,-3.54,-3.15,0.65,0.65,0.65
38.19,3.79,3.17,3.79,3.16,-3.16,-3.54,-3.15,0.63,0.63,0.63
38.57,3.79,3.19,3.79,3.19,-3.19,-3.54,-3.14,0.60,0.60,0.60
38.95,3.79,3.21,3.79,3.22,-3.21,-3.54,-3.13,0.58,0.58,0.58
39.34,3.79,3.25,3.79,3.24,-3.24,-3.54,-3.13,0.55,0.55,0.54
39.74,3.79,3.26,3.79,3.27,-3.26,-3.54,-3.13,0.53,0.53,0.53
40.14,3.79,3.29,3.79,3.29,-3.29,-3.54,-3.12,0.50,0.50,0.50
40.54,3.79,3.31,3.79,3.31,-3.32,-3.54,-3.13,0.48,0.48,0.48
40.94,3.79,3.34,3.79,3.34,-3.34,-3.54,-3.13,0.45,0.45,0.45
41.35,3.79,3.35,3.79,3.36,-3.37,-3.54,-3.13,0.42,0.42,0.44
41.76,3.79,3.39,3.79,3.38,-3.39,-3.54,-3.14,0.40,0.40,0.40
42.18,3.79,3.41,3.79,3.41,-3.41,-3.54,-3.15,0.38,0.39,0.38
42.60,3.79,3.42,3.79,3.43,-3.42,-3.54,-3.16,0.37,0.37,0.37
43.03,3.79,3.45,3.78,3.44,-3.42,-3.54,-3.18,0.37,0.36,0.34
43.46,3.76,3.45,3.76,3.45,-3.42,-3.54,-3.20,0.34,0.35,0.31
43.90,3.73,3.43,3.73,3.43,-3.41,-3.53,-3.22,0.32,0.31,0.30
44.33,3.68,3.41,3.68,3.40,-3.41,-3.53,-3.24,0.27,0.27,0.27
44.78,3.62,3.38,3.63,3.38,-3.41,-3.53,-3.26,0.22,0.22,0.24
45.23,3.59,3.36,3.60,3.37,-3.41,-3.53,-3.29,0.18,0.19,0.24
45.68,3.59,3.39,3.59,3.39,-3.42,-3.53,-3.32,0.17,0.17,0.20
46.13,3.59,3.43,3.59,3.42,-3.44,-3.53,-3.35,0.15,0.15,0.16
46.60,3.59,3.46,3.59,3.46,-3.46,-3.53,-3.39,0.13,0.13,0.13
47.06,3.59,3.49,3.60,3.50,-3.48,-3.53,-3.42,0.11,0.12,0.10
47.53,3.59,3.52,3.59,3.53,-3.50,-3.53,-3.46,0.09,0.09,0.07
48.01,3.59,3.57,3.58,3.55,-3.52,-3.53,-3.50,0.07,0.05,0.02
48.49,3.54,3.56,3.54,3.56,-3.54,-3.53,-3.55,-0.00,0.00,-0.02
48.97,3.49,3.55,3.49,3.55,-3.56,-3.53,-3.59,-0.07,-0.06,-0.06
49.46,3.45,3.54,3.45,3.55,-3.57,-3.53,-3.64,-0.12,-0.13,-0.09
49.96,3.40,3.55,3.41,3.56,-3.58,-3.53,-3.69,-0.18,-0.17,-0.15
50.46,3.40,3.59,3.40,3.58,-3.60,-3.52,-3.74,-0.19,-0.20,-0.18
50.96,3.39,3.61,3.39,3.61,-3.61,-3.52,-3.79,-0.22,-0.21,-0.22
51.47,3.39,3.64,3.39,3.65,-3.63,-3.52,-3.84,-0.24,-0.23,-0.25
51.99,3.39,3.68,3.37,3.66,-3.65,-3.52,-3.89,-0.25,-0.27,-0.29
52.51,3.34,3.67,3.34,3.66,-3.66,-3.52,-3.94,-0.32,-0.32,-0.33
53.03,3.29,3.64,3.31,3.67,-3.68,-3.52,-3.99,-0.39,-0.36,-0.35
53.56,3.29,3.69,3.29,3.68,-3.69,-3.52,-4.05,-0.40,-0.40,-0.39
54.10,3.28,3.72,3.27,3.70,-3.69,-3.52,-4.10,-0.41,-0.43,-0.44
54.64,3.23,3.71,3.23,3.71,-3.70,-3.52,-4.15,-0.47,-0.46,-0.47
55.18,3.18,3.70,3.18,3.70,-3.70,-3.52,-4.19,-0.52,-0.52,-0.52
55.74,3.13,3.69,3.14,3.69,-3.70,-3.52,-4.24,-0.57,-0.57,-0.56
56.29,3.10,3.69,3.11,3.70,-3.71,-3.52,-4.28,-0.60,-0.60,-0.58
56.86,3.09,3.70,3.08,3.70,-3.70,-3.53,-4.32,-0.61,-0.62,-0.61
57.42,3.06,3.72,3.06,3.71,-3.70,-3.53,-4.36,-0.64,-0.64,-0.66
58.00,3.02,3.70,3.03,3.71,-3.70,-3.53,-4.39,-0.68,-0.66,-0.68
58.58,3.00,3.70,3.00,3.70,-3.69,-3.53,-4.42,-0.69,-0.70,-0.70
59.16,2.97,3.70,2.96,3.69,-3.69,-3.53,-4.44,-0.72,-0.73,-0.73
59.76,2.91,3.67,2.92,3.69,-3.69,-3.53,-4.46,-0.78,-0.77,-0.76
60.35,2.87,3.68,2.88,3.69,-3.69,-3.54,-4.47,-0.82,-0.81,-0.81
60.96,2.84,3.70,2.83,3.68,-3.69,-3.54,-4.48,-0.85,-0.87,-0.85
61.57,2.78,3.69,2.78,3.69,-3.70,-3.54,-4.48,-0.92,-0.92,-0.91
62.18,2.72,3.68,2.73,3.70,-3.71,-3.55,-4.47,-0.99,-0.98,-0.96
62.80,2.70,3.72,2.71,3.72,-3.72,-3.55,-4.46,-1.02,-1.01,-1.02
63.43,2.69,3.75,2.69,3.75,-3.73,-3.55,-4.44,-1.04,-1.04,-1.06
64.07,2.69,3.79,2.68,3.78,-3.74,-3.56,-4.42,-1.05,-1.07,-1.10
64.71,2.64,3.78,2.63,3.77,-3.76,-3.56,-4.39,-1.12,-1.13,-1.14
65.35,2.57,3.75,2.57,3.75,-3.78,-3.57,-4.36,-1.20,-1.21,-1.18
66.01,2.49,3.72,2.52,3.74,-3.78,-3.57,-4.32,-1.29,-1.27,-1.23
66.67,2.49,3.75,2.50,3.77,-3.78,-3.58,-4.27,-1.29,-1.28,-1.26
67.33,2.49,3.81,2.49,3.80,-3.77,-3.59,-4.22,-1.27,-1.28,-1.32
68.01,2.49,3.85,2.45,3.80,-3.75,-3.59,-4.17,-1.26,-1.30,-1.36
68.69,2.35,3.76,2.37,3.78,-3.74,-3.60,-4.11,-1.39,-1.37,-1.41
69.37,2.26,3.70,2.27,3.72,-3.73,-3.61,-4.04,-1.47,-1.46,-1.44
70.07,2.19,3.69,2.18,3.67,-3.73,-3.62,-3.98,-1.53,-1.55,-1.49
70.77,2.11,3.65,2.12,3.66,-3.72,-3.62,-3.91,-1.60,-1.59,-1.54
71.48,2.08,3.66,2.10,3.69,-3.70,-3.63,-3.83,-1.62,-1.60,-1.58
72.19,2.08,3.72,2.07,3.71,-3.69,-3.64,-3.76,-1.61,-1.62,-1.64
72.91,2.07,3.76,2.03,3.71,-3.68,-3.65,-3.68,-1.61,-1.65,-1.68
73.64,1.95,3.68,1.98,3.71,-3.67,-3.65,-3.61,-1.72,-1.69,-1.73
74.38,1.88,3.65,1.90,3.67,-3.67,-3.66,-3.53,-1.78,-1.76,-1.77
75.12,1.86,3.68,1.82,3.64,-3.66,-3.66,-3.45,-1.80,-1.83,-1.82
75.87,1.75,3.60,1.77,3.62,-3.64,-3.66,-3.37,-1.89,-1.87,-1.85
76.63,1.70,3.59,1.71,3.60,-3.61,-3.66,-3.29,-1.91,-1.90,-1.89
77.40,1.66,3.58,1.66,3.58,-3.59,-3.66,-3.22,-1.92,-1.93,-1.92
78.17,1.62,3.58,1.62,3.57,-3.56,-3.65,-3.14,-1.94,-1.94,-1.96
78.95,1.56,3.55,1.56,3.55,-3.54,-3.64,-3.06,-1.97,-1.97,-1.99
79.74,1.50,3.52,1.50,3.52,-3.52,-3.63,-2.98,-2.01,-2.02,-2.02
80.54,1.43,3.49,1.42,3.48,-3.50,-3.62,-2.91,-2.06,-2.07,-2.06
81.35,1.35,3.44,1.37,3.45,-3.47,-3.60,-2.83,-2.12,-2.11,-2.09
82.16,1.30,3.42,1.31,3.43,-3.44,-3.58,-2.76,-2.14,-2.13,-2.12
82.98,1.28,3.44,1.26,3.41,-3.41,-3.55,-2.69,-2.13,-2.15,-2.15
83.81,1.20,3.39,1.20,3.39,-3.37,-3.52,-2.62,-2.17,-2.17,-2.19
84.65,1.11,3.34,1.12,3.36,-3.32,-3.49,-2.55,-2.21,-2.20,-2.23
85.50,1.03,3.31,1.03,3.30,-3.28,-3.45,-2.49,-2.25,-2.25,-2.28
86.35,0.93,3.24,0.92,3.23,-3.23,-3.40,-2.42,-2.30,-2.31,-2.31
87.22,0.81,3.15,0.82,3.17,-3.19,-3.36,-2.36,-2.38,-2.37,-2.34
88.09,0.71,3.10,0.73,3.11,-3.14,-3.31,-2.30,-2.43,-2.41,-2.38
88.97,0.66,3.08,0.65,3.07,-3.10,-3.25,-2.24,-2.43,-2.45,-2.42
89.86,0.59,3.06,0.59,3.05,-3.05,-3.20,-2.18,-2.46,-2.47,-2.47
90.76,0.52,3.02,0.53,3.04,-3.02,-3.14,-2.13,-2.50,-2.49,-2.50
91.66,0.47,3.03,0.46,3.01,-2.99,-3.08,-2.07,-2.52,-2.53,-2.56
92.58,0.39,2.98,0.38,2.97,-2.97,-3.02,-2.02,-2.58,-2.59,-2.59
93.51,0.28,2.92,0.30,2.93,-2.94,-2.95,-1.97,-2.66,-2.65,-2.64
94.44,0.20,2.88,0.22,2.90,-2.92,-2.89,-1.92,-2.72,-2.69,-2.68
95.39,0.16,2.90,0.15,2.88,-2.89,-2.82,-1.87,-2.72,-2.74,-2.74
96.34,0.09,2.88,0.07,2.86,-2.85,-2.76,-1.83,-2.76,-2.78,-2.79
97.30,-0.04,2.81,-0.03,2.82,-2.81,-2.69,-1.78,-2.85,-2.84,-2.85
98.28,-0.14,2.77,-0.13,2.78,-2.77,-2.62,-1.74,-2.91,-2.90,-2.91
99.26,-0.25,2.72,-0.24,2.73,-2.73,-2.55,-1.69,-2.97,-2.97,-2.97
100.25,-0.33,2.70,-0.34,2.68,-2.68,-2.49,-1.65,-3.01,-3.02,-3.03
101.25,-0.46,2.62,-0.46,2.63,-2.63,-2.42,-1.62,-3.09,-3.09,-3.08
102.27,-0.57,2.57,-0.57,2.56,-2.58,-2.36,-1.58,-3.15,-3.15,-3.14
103.29,-0.70,2.49,-0.69,2.50,-2.52,-2.29,-1.54,-3.22,-3.21,-3.19
104.32,-0.80,2.44,-0.79,2.46,-2.46,-2.22,-1.50,-3.25,-3.24,-3.24
105.37,-0.88,2.42,-0.89,2.41,-2.39,-2.16,-1.47,-3.27,-3.28,-3.30
106.42,-0.99,2.37,-1.00,2.35,-2.32,-2.10,-1.43,-3.31,-3.33,-3.36
107.48,-1.15,2.28,-1.15,2.27,-2.26,-2.03,-1.40,-3.40,-3.40,-3.42
108.56,-1.30,2.16,-1.30,2.17,-2.19,-1.97,-1.37,-3.49,-3.49,-3.46
109.64,-1.45,2.07,-1.43,2.10,-2.12,-1.91,-1.34,-3.57,-3.55,-3.52
110.74,-1.54,2.04,-1.54,2.04,-2.06,-1.85,-1.30,-3.59,-3.59,-3.58
111.85,-1.61,2.02,-1.64,1.98,-1.99,-1.78,-1.27,-3.60,-3.63,-3.62
112.97,-1.76,1.91,-1.74,1.93,-1.93,-1.72,-1.24,-3.69,-3.67,-3.67
114.10,-1.86,1.86,-1.84,1.88,-1.87,-1.66,-1.21,-3.73,-3.72,-3.72
115.24,-1.94,1.84,-1.96,1.81,-1.82,-1.61,-1.18,-3.75,-3.77,-3.77
116.39,-2.06,1.77,-2.06,1.76,-1.76,-1.55,-1.15,-3.82,-3.82,-3.83
117.55,-2.19,1.68,-2.17,1.70,-1.69,-1.49,-1.12,-3.88,-3.86,-3.87
118.73,-2.28,1.64,-2.28,1.63,-1.62,-1.43,-1.09,-3.90,-3.91,-3.92
119.92,-2.39,1.57,-2.40,1.56,-1.55,-1.37,-1.06,-3.94,-3.95,-3.96
121.12,-2.51,1.47,-2.51,1.48,-1.47,-1.32,-1.03,-3.98,-3.98,-3.98
122.33,-2.64,1.39,-2.63,1.39,-1.39,-1.26,-0.99,-4.03,-4.02,-4.02
123.55,-2.75,1.31,-2.75,1.30,-1.31,-1.20,-0.96,-4.06,-4.06,-4.06
124.79,-2.87,1.22,-2.87,1.22,-1.22,-1.14,-0.93,-4.09,-4.09,-4.09
126.03,-3.00,1.13,-2.99,1.14,-1.14,-1.09,-0.90,-4.14,-4.13,-4.13
127.29,-3.10,1.07,-3.11,1.06,-1.07,-1.03,-0.87,-4.17,-4.18,-4.17
128.57,-3.23,0.98,-3.23,0.98,-1.00,-0.98,-0.83,-4.22,-4.23,-4.21
129.85,-3.37,0.88,-3.34,0.91,-0.93,-0.92,-0.80,-4.29,-4.26,-4.25
131.15,-3.43,0.86,-3.44,0.85,-0.86,-0.86,-0.76,-4.29,-4.29,-4.29
132.46,-3.52,0.81,-3.53,0.80,-0.79,-0.81,-0.73,-4.31,-4.32,-4.33
133.79,-3.63,0.74,-3.63,0.74,-0.72,-0.75,-0.69,-4.35,-4.35,-4.37
135.12,-3.75,0.65,-3.74,0.65,-0.64,-0.69,-0.66,-4.39,-4.39,-4.40
136.48,-3.87,0.56,-3.87,0.56,-0.57,-0.63,-0.62,-4.43,-4.44,-4.43
137.84,-3.99,0.48,-4.00,0.47,-0.48,-0.57,-0.58,-4.47,-4.48,-4.46
139.22,-4.14,0.38,-4.12,0.39,-0.39,-0.52,-0.54,-4.52,-4.50,-4.52
140.61,-4.25,0.29,-4.25,0.30,-0.29,-0.46,-0.51,-4.54,-4.53,-4.54
142.02,-4.36,0.23,-4.39,0.19,-0.19,-0.40,-0.47,-4.55,-4.58,-4.58
143.44,-4.55,0.08,-4.54,0.08,-0.09,-0.33,-0.43,-4.64,-4.63,-4.63
144.87,-4.71,-0.05,-4.68,-0.03,0.01,-0.27,-0.39,-4.70,-4.67,-4.66
146.32,-4.81,-0.12,-4.82,-0.13,0.11,-0.21,-0.35,-4.70,-4.71,-4.69
147.78,-4.94,-0.21,-4.95,-0.22,0.21,-0.15,-0.31,-4.73,-4.73,-4.73
149.26,-5.08,-0.31,-5.07,-0.30,0.32,-0.08,-0.26,-4.76,-4.75,-4.77
150.75,-5.21,-0.40,-5.20,-0.39,0.43,-0.01,-0.22,-4.78,-4.77,-4.81
152.26,-5.32,-0.48,-5.34,-0.50,0.53,0.06,-0.18,-4.79,-4.82,-4.84
153.78,-5.49,-0.61,-5.51,-0.63,0.62,0.13,-0.14,-4.87,-4.89,-4.88
155.32,-5.69,-0.78,-5.66,-0.75,0.71,0.20,-0.09,-4.98,-4.95,-4.91
156.88,-5.82,-0.86,-5.80,-0.84,0.80,0.27,-0.05,-5.02,-5.00,-4.95
158.44,-5.88,-0.88,-5.90,-0.90,0.88,0.35,-0.01,-5.00,-5.02,-5.00
160.03,-5.99,-0.95,-5.99,-0.95,0.96,0.43,0.04,-5.03,-5.03,-5.04
161.63,-6.10,-1.02,-6.11,-1.02,1.04,0.51,0.08,-5.05,-5.06,-5.08
163.24,-6.24,-1.11,-6.24,-1.11,1.13,0.59,0.13,-5.11,-5.11,-5.13
164.88,-6.38,-1.21,-6.36,-1.19,1.22,0.68,0.17,-5.16,-5.15,-5.17
166.53,-6.49,-1.27,-6.49,-1.28,1.31,0.76,0.22,-5.18,-5.19,-5.22
168.19,-6.63,-1.37,-6.65,-1.39,1.40,0.85,0.27,-5.23,-5.25,-5.26
169.87,-6.81,-1.50,-6.82,-1.51,1.49,0.94,0.31,-5.32,-5.33,-5.31
171.57,-7.01,-1.65,-6.98,-1.63,1.58,1.04,0.36,-5.42,-5.40,-5.35
173.29,-7.12,-1.72,-7.11,-1.71,1.67,1.14,0.41,-5.45,-5.44,-5.40
175.02,-7.20,-1.76,-7.20,-1.76,1.75,1.24,0.46,-5.45,-5.45,-5.44
176.77,-7.27,-1.79,-7.28,-1.80,1.82,1.34,0.51,-5.44,-5.46,-5.48
178.54,-7.36,-1.83,-7.40,-1.88,1.90,1.44,0.56,-5.46,-5.50,-5.52
180.32,-7.55,-1.98,-7.52,-1.95,1.96,1.55,0.61,-5.59,-5.55,-5.57
182.13,-7.66,-2.06,-7.61,-2.01,2.02,1.65,0.66,-5.64,-5.59,-5.60
183.95,-7.67,-2.04,-7.70,-2.07,2.08,1.76,0.71,-5.59,-5.63,-5.63
185.79,-7.77,-2.10,-7.81,-2.14,2.14,1.86,0.76,-5.63,-5.68,-5.67
187.65,-7.93,-2.23,-7.93,-2.22,2.20,1.97,0.81,-5.73,-5.73,-5.70
189.52,-8.10,-2.36,-8.01,-2.27,2.26,2.07,0.87,-5.84,-5.75,-5.74
191.42,-8.04,-2.28,-8.06,-2.29,2.31,2.17,0.92,-5.73,-5.75,-5.76
193.33,-8.03,-2.23,-8.11,-2.31,2.34,2.26,0.97,-5.68,-5.77,-5.80
195.27,-8.21,-2.37,-8.20,-2.37,2.37,2.35,1.03,-5.84,-5.83,-5.84
197.22,-8.36,-2.48,-8.31,-2.44,2.39,2.43,1.08,-5.97,-5.92,-5.88
199.19,-8.40,-2.50,-8.36,-2.46,2.40,2.51,1.13,-6.00,-5.97,-5.90
201.18,-8.32,-2.38,-8.34,-2.41,2.40,2.57,1.19,-5.92,-5.94,-5.94
203.19,-8.29,-2.32,-8.32,-2.36,2.40,2.63,1.24,-5.89,-5.92,-5.96
205.23,-8.33,-2.34,-8.34,-2.35,2.40,2.66,1.29,-5.93,-5.94,-5.99
207.28,-8.41,-2.39,-8.39,-2.37,2.39,2.70,1.34,-6.01,-6.00,-6.01
209.35,-8.45,-2.40,-8.44,-2.39,2.38,2.71,1.39,-6.06,-6.05,-6.05
211.44,-8.46,-2.38,-8.46,-2.38,2.37,2.71,1.44,-6.09,-6.10,-6.08
213.56,-8.46,-2.35,-8.47,-2.36,2.34,2.69,1.49,-6.12,-6.12,-6.11
215.69,-8.47,-2.33,-8.47,-2.33,2.32,2.67,1.53,-6.15,-6.15,-6.14
217.85,-8.47,-2.31,-8.48,-2.32,2.28,2.63,1.58,-6.18,-6.20,-6.16
220.03,-8.47,-2.27,-8.48,-2.28,2.25,2.57,1.62,-6.22,-6.23,-6.20
222.23,-8.48,-2.25,-8.41,-2.19,2.20,2.50,1.66,-6.27,-6.20,-6.22
224.45,-8.33,-2.08,-8.34,-2.09,2.15,2.43,1.69,-6.18,-6.19,-6.25
226.70,-8.22,-1.95,-8.32,-2.06,2.10,2.34,1.73,-6.12,-6.22,-6.27
228.96,-8.33,-2.05,-8.32,-2.04,2.05,2.25,1.76,-6.28,-6.27,-6.28
231.25,-8.42,-2.13,-8.32,-2.03,1.99,2.15,1.78,-6.43,-6.33,-6.29
233.57,-8.28,-1.97,-8.29,-1.99,1.94,2.04,1.81,-6.34,-6.36,-6.31
235.90,-8.14,-1.82,-8.18,-1.86,1.88,1.93,1.82,-6.26,-6.30,-6.31
238.26,-8.10,-1.77,-8.09,-1.77,1.81,1.82,1.84,-6.29,-6.28,-6.32
240.64,-8.02,-1.71,-8.09,-1.78,1.74,1.70,1.84,-6.28,-6.35,-6.31
243.05,-8.09,-1.77,-8.01,-1.69,1.67,1.58,1.85,-6.42,-6.34,-6.32
245.48,-8.03,-1.70,-7.89,-1.57,1.59,1.47,1.84,-6.44,-6.31,-6.33
247.93,-7.61,-1.27,-7.83,-1.50,1.51,1.35,1.84,-6.10,-6.32,-6.34
250.41,-7.73,-1.40,-7.73,-1.40,1.43,1.23,1.82,-6.30,-6.30,-6.32
252.92,-7.83,-1.51,-7.67,-1.34,1.36,1.12,1.81,-6.47,-6.31,-6.32
255.45,-7.58,-1.24,-7.67,-1.34,1.28,1.01,1.78,-6.30,-6.39,-6.34
258.00,-7.53,-1.19,-7.54,-1.21,1.20,0.90,1.76,-6.33,-6.35,-6.33
260.58,-7.49,-1.15,-7.41,-1.07,1.11,0.79,1.72,-6.37,-6.30,-6.34
263.19,-7.30,-0.95,-7.40,-1.05,1.03,0.69,1.68,-6.27,-6.37,-6.35
265.82,-7.32,-0.96,-7.34,-0.98,0.95,0.58,1.64,-6.37,-6.40,-6.36
268.48,-7.39,-1.02,-7.22,-0.85,0.87,0.48,1.59,-6.52,-6.35,-6.37
271.16,-7.09,-0.70,-7.14,-0.76,0.78,0.39,1.54,-6.31,-6.36,-6.38
273.87,-6.90,-0.51,-7.05,-0.65,0.68,0.29,1.48,-6.21,-6.36,-6.39
276.61,-7.06,-0.65,-6.97,-0.56,0.59,0.20,1.42,-6.47,-6.38,-6.40
279.38,-7.00,-0.57,-6.94,-0.52,0.49,0.11,1.36,-6.51,-6.46,-6.43
282.17,-6.84,-0.41,-6.87,-0.45,0.37,0.02,1.29,-6.47,-6.51,-6.42
284.99,-6.70,-0.27,-6.74,-0.31,0.26,-0.06,1.22,-6.44,-6.48,-6.43
287.84,-6.61,-0.19,-6.56,-0.13,0.16,-0.15,1.14,-6.45,-6.41,-6.42
290.72,-6.47,-0.03,-6.42,0.01,0.05,-0.23,1.07,-6.42,-6.36,-6.44
293.63,-6.19,0.24,-6.32,0.11,-0.05,-0.30,0.99,-6.24,-6.37,-6.43
296.57,-6.26,0.17,-6.23,0.20,-0.16,-0.38,0.91,-6.42,-6.39,-6.42
299.53,-6.26,0.17,-6.17,0.26,-0.27,-0.46,0.82,-6.52,-6.43,-6.43
302.53,-6.06,0.36,-6.15,0.27,-0.36,-0.53,0.74,-6.42,-6.51,-6.42
305.55,-6.04,0.39,-6.02,0.40,-0.45,-0.60,0.65,-6.49,-6.47,-6.43
308.61,-5.98,0.44,-5.88,0.54,-0.53,-0.67,0.56,-6.50,-6.41,-6.42
311.69,-5.70,0.73,-5.80,0.62,-0.60,-0.74,0.47,-6.30,-6.41,-6.43
314.81,-5.69,0.74,-5.71,0.72,-0.68,-0.81,0.39,-6.37,-6.39,-6.43
317.96,-5.71,0.73,-5.63,0.81,-0.76,-0.88,0.29,-6.47,-6.39,-6.44
321.14,-5.57,0.86,-5.60,0.83,-0.84,-0.95,0.20,-6.41,-6.45,-6.43
324.35,-5.51,0.93,-5.54,0.89,-0.92,-1.01,0.11,-6.43,-6.46,-6.43
327.59,-5.51,0.92,-5.46,0.97,-0.99,-1.08,0.02,-6.50,-6.46,-6.43
330.87,-5.39,1.04,-5.39,1.04,-1.06,-1.14,-0.08,-6.45,-6.46,-6.43
334.18,-5.30,1.14,-5.32,1.12,-1.13,-1.20,-0.17,-6.43,-6.45,-6.44
337.52,-5.21,1.23,-5.21,1.23,-1.20,-1.27,-0.27,-6.41,-6.41,-6.43
340.90,-5.16,1.28,-5.12,1.31,-1.27,-1.33,-0.36,-6.43,-6.40,-6.44
344.30,-5.02,1.41,-5.06,1.37,-1.35,-1.39,-0.46,-6.37,-6.41,-6.43
347.75,-5.00,1.42,-5.01,1.41,-1.42,-1.45,-0.56,-6.42,-6.43,-6.42
351.23,-4.99,1.44,-4.96,1.47,-1.48,-1.51,-0.65,-6.47,-6.44,-6.43
354.74,-4.91,1.51,-4.89,1.53,-1.55,-1.57,-0.75,-6.46,-6.44,-6.41
358.28,-4.78,1.64,-4.80,1.62,-1.62,-1.63,-0.85,-6.40,-6.42,-6.42
361.87,-4.69,1.72,-4.72,1.69,-1.69,-1.69,-0.95,-6.38,-6.41,-6.41
365.49,-4.66,1.74,-4.64,1.76,-1.76,-1.75,-1.05,-6.42,-6.40,-6.40
369.14,-4.60,1.79,-4.55,1.84,-1.83,-1.81,-1.15,-6.43,-6.39,-6.39
372.83,-4.44,1.94,-4.47,1.92,-1.91,-1.87,-1.25,-6.35,-6.38,-6.38
376.56,-4.35,2.04,-4.38,2.00,-1.99,-1.92,-1.35,-6.33,-6.37,-6.38
380.33,-4.35,2.04,-4.32,2.07,-2.06,-1.98,-1.45,-6.41,-6.37,-6.39
384.13,-4.27,2.11,-4.27,2.11,-2.12,-2.04,-1.55,-6.39,-6.39,-6.38
387.97,-4.21,2.17,-4.21,2.17,-2.18,-2.10,-1.65,-6.39,-6.39,-6.38
391.85,-4.13,2.25,-4.13,2.26,-2.24,-2.15,-1.75,-6.37,-6.37,-6.38
395.77,-4.06,2.33,-4.07,2.31,-2.30,-2.21,-1.85,-6.36,-6.37,-6.39
399.73,-4.02,2.37,-4.03,2.36,-2.35,-2.26,-1.95,-6.37,-6.39,-6.39
403.72,-4.01,2.37,-3.99,2.40,-2.41,-2.32,-2.05,-6.42,-6.40,-6.38
407.76,-3.97,2.44,-3.94,2.45,-2.47,-2.37,-2.15,-6.44,-6.42,-6.40
411.84,-3.86,2.55,-3.89,2.52,-2.53,-2.43,-2.25,-6.39,-6.42,-6.40
415.96,-3.82,2.59,-3.82,2.59,-2.59,-2.48,-2.35,-6.41,-6.41,-6.41
420.12,-3.77,2.65,-3.75,2.66,-2.65,-2.54,-2.45,-6.42,-6.40,-6.42
424.32,-3.68,2.73,-3.69,2.71,-2.71,-2.59,-2.55,-6.38,-6.40,-6.41
428.56,-3.62,2.77,-3.62,2.78,-2.76,-2.64,-2.65,-6.38,-6.38,-6.39
432.85,-3.55,2.82,-3.54,2.83,-2.82,-2.69,-2.74,-6.37,-6.37,-6.37
437.18,-3.47,2.89,-3.48,2.87,-2.88,-2.75,-2.83,-6.34,-6.36,-6.36
441.55,-3.42,2.90,-3.41,2.91,-2.93,-2.80,-2.92,-6.35,-6.34,-6.32
445.96,-3.34,2.94,-3.32,2.96,-2.97,-2.84,-3.01,-6.31,-6.30,-6.28
450.42,-3.23,3.01,-3.22,3.02,-3.02,-2.89,-3.09,-6.25,-6.24,-6.24
454.93,-3.09,3.10,-3.11,3.07,-3.06,-2.94,-3.17,-6.15,-6.18,-6.19
459.48,-3.01,3.13,-3.02,3.12,-3.11,-2.99,-3.25,-6.11,-6.12,-6.13
464.07,-2.95,3.12,-2.92,3.15,-3.15,-3.03,-3.32,-6.09,-6.07,-6.06
468.71,-2.83,3.19,-2.84,3.17,-3.18,-3.08,-3.39,-6.01,-6.02,-6.02
