frequency,raw,smoothed,error,error_smoothed,equalization,parametric_eq,fixed_band_eq,equalized_raw,equalized_smoothed,target
20.00,8.11,8.11,1.30,1.30,-1.30,-1.38,-0.75,6.80,6.80,6.81
20.20,8.12,8.12,1.31,1.31,-1.32,-1.38,-0.77,6.80,6.81,6.81
20.40,8.14,8.13,1.33,1.33,-1.33,-1.38,-0.80,6.81,6.81,6.81
20.61,8.15,8.15,1.34,1.34,-1.34,-1.39,-0.82,6.81,6.81,6.81
20.81,8.16,8.16,1.35,1.35,-1.35,-1.39,-0.84,6.81,6.81,6.80
21.02,8.17,8.17,1.36,1.36,-1.36,-1.39,-0.87,6.81,6.81,6.80
21.23,8.18,8.17,1.37,1.37,-1.37,-1.39,-0.90,6.81,6.80,6.80
21.44,8.18,8.18,1.38,1.38,-1.38,-1.39,-0.92,6.80,6.80,6.80
21.66,8.19,8.19,1.39,1.39,-1.39,-1.40,-0.95,6.80,6.80,6.80
21.87,8.20,8.20,1.40,1.40,-1.40,-1.40,-0.98,6.80,6.80,6.80
22.09,8.21,8.21,1.41,1.41,-1.41,-1.40,-1.00,6.80,6.80,6.80
22.31,8.22,8.22,1.42,1.42,-1.42,-1.40,-1.03,6.80,6.80,6.80
22.54,8.23,8.23,1.43,1.43,-1.43,-1.40,-1.06,6.80,6.80,6.80
22.76,8.24,8.24,1.44,1.44,-1.44,-1.41,-1.10,6.80,6.80,6.80
22.99,8.25,8.25,1.45,1.45,-1.45,-1.41,-1.13,6.80,6.80,6.80
23.22,8.26,8.26,1.46,1.46,-1.46,-1.41,-1.16,6.80,6.80,6.80
23.45,8.27,8.27,1.47,1.47,-1.47,-1.41,-1.19,6.79,6.79,6.79
23.69,8.28,8.28,1.48,1.48,-1.49,-1.42,-1.23,6.79,6.79,6.79
23.92,8.29,8.29,1.50,1.50,-1.50,-1.42,-1.26,6.79,6.79,6.79
24.16,8.30,8.30,1.51,1.51,-1.51,-1.42,-1.30,6.79,6.79,6.79
24.40,8.32,8.31,1.53,1.52,-1.52,-1.42,-1.33,6.79,6.79,6.79
24.65,8.33,8.33,1.54,1.54,-1.54,-1.42,-1.37,6.79,6.79,6.79
24.89,8.34,8.34,1.55,1.55,-1.55,-1.43,-1.40,6.79,6.79,6.79
25.14,8.35,8.35,1.56,1.56,-1.56,-1.43,-1.44,6.79,6.79,6.79
25.39,8.36,8.35,1.57,1.57,-1.57,-1.43,-1.48,6.79,6.79,6.78
25.65,8.36,8.36,1.57,1.58,-1.57,-1.44,-1.51,6.78,6.78,6.78
25.91,8.36,8.36,1.58,1.58,-1.58,-1.44,-1.55,6.78,6.78,6.78
26.16,8.37,8.36,1.59,1.58,-1.59,-1.44,-1.59,6.78,6.78,6.78
26.43,8.37,8.37,1.59,1.59,-1.59,-1.44,-1.62,6.77,6.78,6.78
26.69,8.38,8.38,1.60,1.60,-1.60,-1.45,-1.66,6.78,6.78,6.78
26.96,8.38,8.38,1.60,1.60,-1.60,-1.45,-1.69,6.77,6.77,6.78
27.23,8.39,8.39,1.61,1.61,-1.61,-1.45,-1.73,6.78,6.77,6.77
27.50,8.39,8.39,1.62,1.62,-1.62,-1.46,-1.76,6.77,6.77,6.77
27.77,8.40,8.40,1.63,1.63,-1.63,-1.46,-1.79,6.77,6.77,6.77
28.05,8.40,8.40,1.63,1.63,-1.63,-1.46,-1.83,6.76,6.77,6.77
28.33,8.41,8.40,1.64,1.64,-1.64,-1.47,-1.86,6.77,6.76,6.77
28.62,8.41,8.41,1.64,1.65,-1.65,-1.47,-1.89,6.76,6.76,6.76
28.90,8.42,8.42,1.66,1.66,-1.66,-1.47,-1.91,6.76,6.76,6.76
29.19,8.43,8.42,1.67,1.66,-1.67,-1.47,-1.94,6.76,6.76,6.76
29.48,8.43,8.43,1.67,1.68,-1.68,-1.48,-1.96,6.75,6.76,6.76
29.78,8.44,8.44,1.68,1.68,-1.69,-1.48,-1.98,6.75,6.75,6.75
30.08,8.45,8.44,1.70,1.69,-1.69,-1.49,-2.00,6.75,6.75,6.75
30.38,8.45,8.45,1.70,1.70,-1.70,-1.49,-2.01,6.75,6.75,6.75
30.68,8.46,8.45,1.71,1.71,-1.71,-1.49,-2.03,6.75,6.75,6.75
30.99,8.46,8.45,1.72,1.71,-1.71,-1.50,-2.04,6.75,6.75,6.74
31.30,8.45,8.45,1.71,1.71,-1.71,-1.50,-2.05,6.74,6.74,6.74
31.61,8.45,8.45,1.71,1.71,-1.71,-1.50,-2.05,6.74,6.74,6.74
31.93,8.44,8.44,1.70,1.71,-1.71,-1.51,-2.05,6.73,6.73,6.73
32.24,8.44,8.44,1.71,1.71,-1.71,-1.51,-2.06,6.73,6.73,6.73
32.57,8.43,8.43,1.70,1.70,-1.70,-1.52,-2.05,6.72,6.73,6.73
32.89,8.43,8.42,1.70,1.70,-1.70,-1.52,-2.05,6.73,6.72,6.72
33.22,8.42,8.42,1.70,1.70,-1.70,-1.52,-2.04,6.72,6.72,6.72
33.55,8.42,8.42,1.70,1.70,-1.70,-1.53,-2.03,6.72,6.72,6.71
33.89,8.42,8.41,1.71,1.70,-1.70,-1.53,-2.02,6.71,6.71,6.71
34.23,8.41,8.41,1.70,1.70,-1.71,-1.54,-2.01,6.70,6.70,6.71
34.57,8.41,8.41,1.71,1.71,-1.71,-1.54,-2.00,6.69,6.70,6.70
34.92,8.42,8.41,1.72,1.72,-1.72,-1.55,-1.98,6.70,6.70,6.70
35.27,8.42,8.42,1.72,1.72,-1.72,-1.55,-1.97,6.69,6.69,6.69
35.62,8.42,8.42,1.73,1.73,-1.73,-1.56,-1.95,6.69,6.69,6.69
35.97,8.42,8.42,1.73,1.74,-1.73,-1.56,-1.93,6.69,6.69,6.68
36.33,8.42,8.41,1.74,1.74,-1.73,-1.57,-1.91,6.68,6.68,6.68
36.70,8.41,8.41,1.74,1.74,-1.73,-1.57,-1.89,6.67,6.67,6.67
37.06,8.40,8.40,1.73,1.73,-1.73,-1.58,-1.87,6.67,6.67,6.67
37.43,8.39,8.39,1.73,1.73,-1.73,-1.58,-1.85,6.66,6.66,6.66
37.81,8.38,8.38,1.72,1.72,-1.72,-1.59,-1.83,6.65,6.65,6.65
38.19,8.37,8.37,1.72,1.72,-1.72,-1.59,-1.81,6.65,6.65,6.65
38.57,8.36,8.36,1.72,1.72,-1.72,-1.60,-1.79,6.64,6.64,6.64
38.95,8.35,8.35,1.71,1.71,-1.71,-1.60,-1.77,6.63,6.63,6.63
39.34,8.34,8.34,1.71,1.71,-1.71,-1.61,-1.76,6.63,6.63,6.63
39.74,8.33,8.33,1.71,1.71,-1.71,-1.61,-1.74,6.62,6.62,6.62
40.14,8.32,8.32,1.70,1.70,-1.70,-1.62,-1.72,6.61,6.61,6.61
40.54,8.31,8.31,1.70,1.70,-1.70,-1.62,-1.71,6.61,6.61,6.61
40.94,8.30,8.30,1.70,1.70,-1.70,-1.63,-1.69,6.60,6.60,6.60
41.35,8.29,8.29,1.70,1.70,-1.70,-1.64,-1.68,6.59,6.59,6.59
41.76,8.28,8.28,1.70,1.70,-1.70,-1.64,-1.66,6.58,6.58,6.58
42.18,8.27,8.27,1.70,1.70,-1.70,-1.65,-1.65,6.57,6.57,6.57
42.60,8.26,8.26,1.70,1.70,-1.70,-1.66,-1.64,6.56,6.56,6.56
43.03,8.25,8.25,1.70,1.70,-1.70,-1.66,-1.63,6.55,6.55,6.55
43.46,8.24,8.24,1.70,1.70,-1.70,-1.67,-1.62,6.54,6.54,6.54
43.90,8.23,8.23,1.70,1.70,-1.70,-1.67,-1.62,6.53,6.53,6.53
44.33,8.22,8.22,1.70,1.70,-1.69,-1.68,-1.61,6.52,6.52,6.52
44.78,8.21,8.20,1.70,1.70,-1.69,-1.69,-1.60,6.52,6.52,6.51
45.23,8.19,8.19,1.69,1.69,-1.69,-1.69,-1.60,6.50,6.50,6.50
45.68,8.17,8.17,1.68,1.68,-1.68,-1.70,-1.60,6.49,6.49,6.49
46.13,8.15,8.15,1.67,1.67,-1.68,-1.71,-1.60,6.47,6.47,6.47
46.60,8.13,8.13,1.67,1.67,-1.68,-1.72,-1.60,6.45,6.45,6.46
47.06,8.12,8.12,1.67,1.67,-1.68,-1.72,-1.60,6.44,6.44,6.45
47.53,8.11,8.11,1.67,1.67,-1.68,-1.73,-1.60,6.43,6.43,6.43
48.01,8.10,8.10,1.68,1.68,-1.68,-1.74,-1.60,6.42,6.42,6.42
48.49,8.09,8.09,1.68,1.68,-1.68,-1.74,-1.61,6.41,6.41,6.40
48.97,8.08,8.07,1.69,1.69,-1.68,-1.75,-1.61,6.40,6.39,6.39
49.46,8.06,8.06,1.68,1.69,-1.68,-1.76,-1.62,6.38,6.38,6.37
49.96,8.04,8.04,1.68,1.68,-1.68,-1.77,-1.63,6.36,6.36,6.36
50.46,8.02,8.02,1.68,1.68,-1.68,-1.78,-1.64,6.34,6.34,6.34
50.96,8.00,7.99,1.68,1.67,-1.67,-1.78,-1.65,6.32,6.32,6.32
51.47,7.97,7.97,1.66,1.67,-1.67,-1.79,-1.66,6.30,6.30,6.30
51.99,7.95,7.95,1.66,1.66,-1.66,-1.80,-1.67,6.28,6.28,6.29
52.51,7.93,7.92,1.66,1.66,-1.66,-1.81,-1.68,6.27,6.26,6.27
53.03,7.90,7.90,1.65,1.66,-1.66,-1.82,-1.69,6.24,6.25,6.25
53.56,7.88,7.88,1.65,1.65,-1.65,-1.82,-1.70,6.22,6.23,6.23
54.10,7.86,7.85,1.65,1.65,-1.65,-1.83,-1.72,6.21,6.20,6.20
54.64,7.83,7.83,1.65,1.65,-1.65,-1.84,-1.73,6.18,6.18,6.18
55.18,7.81,7.81,1.65,1.65,-1.65,-1.85,-1.74,6.16,6.16,6.16
55.74,7.79,7.79,1.65,1.65,-1.65,-1.86,-1.75,6.14,6.14,6.14
56.29,7.77,7.76,1.66,1.65,-1.65,-1.87,-1.77,6.12,6.11,6.11
56.86,7.74,7.74,1.65,1.65,-1.65,-1.88,-1.78,6.08,6.09,6.09
57.42,7.72,7.72,1.66,1.66,-1.66,-1.89,-1.79,6.06,6.06,6.06
58.00,7.70,7.69,1.66,1.66,-1.66,-1.89,-1.80,6.04,6.04,6.03
58.58,7.67,7.67,1.66,1.66,-1.66,-1.90,-1.81,6.01,6.01,6.01
59.16,7.65,7.65,1.67,1.67,-1.67,-1.91,-1.82,5.98,5.98,5.98
59.76,7.62,7.62,1.67,1.67,-1.67,-1.92,-1.83,5.95,5.95,5.95
60.35,7.60,7.60,1.68,1.67,-1.67,-1.93,-1.84,5.92,5.92,5.92
60.96,7.57,7.57,1.68,1.68,-1.68,-1.94,-1.85,5.89,5.89,5.89
61.57,7.55,7.55,1.69,1.69,-1.68,-1.95,-1.86,5.86,5.86,5.86
62.18,7.52,7.52,1.69,1.69,-1.69,-1.96,-1.87,5.83,5.83,5.83
62.80,7.49,7.49,1.69,1.69,-1.70,-1.97,-1.87,5.79,5.79,5.79
63.43,7.46,7.46,1.70,1.70,-1.70,-1.98,-1.88,5.76,5.76,5.76
64.07,7.43,7.43,1.70,1.71,-1.71,-1.99,-1.88,5.72,5.72,5.72
64.71,7.41,7.40,1.72,1.72,-1.72,-2.00,-1.89,5.69,5.69,5.69
65.35,7.38,7.38,1.73,1.73,-1.72,-2.01,-1.89,5.65,5.65,5.65
66.01,7.35,7.35,1.74,1.74,-1.73,-2.02,-1.89,5.61,5.61,5.61
66.67,7.32,7.32,1.74,1.74,-1.74,-2.03,-1.89,5.57,5.57,5.57
67.33,7.29,7.29,1.75,1.75,-1.76,-2.04,-1.89,5.53,5.53,5.53
68.01,7.26,7.26,1.77,1.76,-1.77,-2.05,-1.90,5.49,5.49,5.49
68.69,7.23,7.23,1.78,1.78,-1.78,-2.06,-1.90,5.45,5.45,5.45
69.37,7.20,7.20,1.79,1.79,-1.79,-2.07,-1.90,5.41,5.41,5.41
70.07,7.17,7.17,1.80,1.80,-1.80,-2.08,-1.90,5.37,5.37,5.36
70.77,7.13,7.13,1.81,1.81,-1.81,-2.09,-1.90,5.32,5.32,5.32
71.48,7.10,7.09,1.83,1.82,-1.82,-2.11,-1.90,5.27,5.27,5.27
72.19,7.06,7.06,1.83,1.83,-1.84,-2.12,-1.90,5.22,5.22,5.22
72.91,7.03,7.03,1.85,1.85,-1.85,-2.13,-1.90,5.17,5.18,5.18
73.64,7.00,7.00,1.87,1.87,-1.87,-2.14,-1.90,5.13,5.13,5.13
74.38,6.97,6.96,1.89,1.89,-1.89,-2.15,-1.90,5.08,5.08,5.08
75.12,6.93,6.93,1.90,1.90,-1.91,-2.16,-1.90,5.02,5.03,5.03
75.87,6.90,6.90,1.92,1.93,-1.93,-2.17,-1.91,4.97,4.97,4.97
76.63,6.87,6.87,1.95,1.95,-1.95,-2.18,-1.91,4.92,4.92,4.92
77.40,6.84,6.84,1.97,1.97,-1.97,-2.20,-1.92,4.87,4.87,4.87
78.17,6.80,6.80,1.99,1.99,-1.99,-2.21,-1.92,4.81,4.81,4.81
78.95,6.77,6.77,2.01,2.01,-2.01,-2.22,-1.93,4.76,4.75,4.75
79.74,6.73,6.73,2.03,2.03,-2.03,-2.23,-1.94,4.69,4.70,4.70
80.54,6.70,6.70,2.06,2.06,-2.06,-2.24,-1.95,4.64,4.64,4.64
81.35,6.66,6.66,2.08,2.08,-2.08,-2.26,-1.96,4.58,4.58,4.58
82.16,6.62,6.62,2.10,2.10,-2.10,-2.27,-1.98,4.52,4.52,4.52
82.98,6.58,6.58,2.12,2.12,-2.12,-2.28,-1.99,4.46,4.46,4.46
83.81,6.54,6.54,2.14,2.14,-2.14,-2.29,-2.01,4.40,4.40,4.40
84.65,6.50,6.50,2.16,2.16,-2.16,-2.30,-2.02,4.34,4.33,4.33
85.50,6.46,6.45,2.19,2.18,-2.18,-2.32,-2.04,4.27,4.27,4.27
86.35,6.41,6.41,2.20,2.21,-2.20,-2.33,-2.06,4.20,4.21,4.21
87.22,6.37,6.37,2.23,2.23,-2.23,-2.34,-2.09,4.14,4.14,4.14
88.09,6.33,6.32,2.25,2.25,-2.25,-2.36,-2.11,4.08,4.07,4.07
88.97,6.28,6.28,2.27,2.27,-2.28,-2.37,-2.13,4.00,4.00,4.01
89.86,6.24,6.24,2.30,2.30,-2.31,-2.38,-2.16,3.93,3.93,3.94
90.76,6.20,6.20,2.33,2.32,-2.34,-2.40,-2.19,3.86,3.86,3.87
91.66,6.16,6.16,2.35,2.36,-2.36,-2.41,-2.22,3.79,3.80,3.80
92.58,6.13,6.13,2.39,2.39,-2.39,-2.42,-2.25,3.74,3.74,3.73
93.51,6.09,6.09,2.42,2.42,-2.41,-2.44,-2.29,3.68,3.68,3.67
94.44,6.04,6.04,2.44,2.44,-2.42,-2.45,-2.32,3.62,3.62,3.59
95.39,5.98,5.98,2.45,2.45,-2.43,-2.46,-2.36,3.55,3.55,3.52
96.34,5.91,5.90,2.45,2.45,-2.44,-2.48,-2.39,3.47,3.47,3.45
97.30,5.82,5.82,2.44,2.44,-2.44,-2.49,-2.43,3.37,3.38,3.38
98.28,5.74,5.74,2.43,2.43,-2.46,-2.51,-2.47,3.28,3.29,3.31
99.26,5.68,5.68,2.44,2.44,-2.48,-2.52,-2.51,3.20,3.20,3.24
100.25,5.64,5.64,2.47,2.48,-2.50,-2.53,-2.56,3.14,3.14,3.16
101.25,5.62,5.62,2.53,2.53,-2.54,-2.55,-2.60,3.08,3.08,3.09
102.27,5.61,5.60,2.59,2.58,-2.58,-2.56,-2.64,3.03,3.02,3.02
103.29,5.59,5.59,2.64,2.64,-2.63,-2.58,-2.69,2.96,2.96,2.95
104.32,5.57,5.57,2.69,2.69,-2.68,-2.59,-2.73,2.89,2.89,2.87
105.37,5.54,5.54,2.74,2.74,-2.73,-2.61,-2.77,2.81,2.81,2.80
106.42,5.51,5.51,2.78,2.78,-2.77,-2.63,-2.82,2.74,2.74,2.73
107.48,5.47,5.47,2.81,2.81,-2.81,-2.64,-2.86,2.66,2.66,2.65
108.56,5.43,5.43,2.85,2.84,-2.84,-2.66,-2.90,2.59,2.58,2.58
109.64,5.38,5.38,2.87,2.87,-2.87,-2.67,-2.95,2.51,2.51,2.51
110.74,5.33,5.33,2.89,2.89,-2.90,-2.69,-2.99,2.43,2.43,2.44
111.85,5.28,5.28,2.91,2.92,-2.92,-2.70,-3.03,2.36,2.36,2.36
112.97,5.24,5.23,2.95,2.94,-2.95,-2.72,-3.06,2.29,2.29,2.29
114.10,5.19,5.19,2.97,2.97,-2.97,-2.74,-3.10,2.22,2.22,2.22
115.24,5.15,5.15,3.00,3.00,-3.00,-2.75,-3.13,2.15,2.15,2.15
116.39,5.10,5.10,3.02,3.02,-3.02,-2.77,-3.16,2.08,2.08,2.08
117.55,5.06,5.06,3.05,3.05,-3.05,-2.79,-3.19,2.01,2.01,2.01
118.73,5.01,5.01,3.07,3.07,-3.07,-2.80,-3.21,1.94,1.94,1.94
119.92,4.96,4.96,3.09,3.09,-3.09,-2.82,-3.23,1.87,1.87,1.87
121.12,4.91,4.91,3.11,3.11,-3.11,-2.84,-3.25,1.80,1.80,1.80
122.33,4.86,4.86,3.13,3.13,-3.13,-2.85,-3.27,1.73,1.73,1.73
123.55,4.81,4.81,3.14,3.14,-3.15,-2.87,-3.28,1.66,1.66,1.66
124.79,4.76,4.76,3.16,3.16,-3.16,-2.88,-3.28,1.60,1.60,1.60
126.03,4.71,4.71,3.18,3.18,-3.18,-2.90,-3.29,1.53,1.53,1.53
127.29,4.66,4.66,3.19,3.19,-3.19,-2.92,-3.29,1.46,1.46,1.46
128.57,4.61,4.61,3.21,3.21,-3.21,-2.93,-3.28,1.40,1.40,1.40
129.85,4.56,4.56,3.22,3.22,-3.22,-2.95,-3.27,1.34,1.34,1.34
131.15,4.51,4.51,3.23,3.24,-3.23,-2.97,-3.26,1.27,1.28,1.27
132.46,4.46,4.46,3.25,3.25,-3.24,-2.98,-3.25,1.21,1.21,1.21
133.79,4.41,4.40,3.26,3.25,-3.25,-3.00,-3.23,1.15,1.15,1.15
135.12,4.35,4.35,3.26,3.26,-3.26,-3.01,-3.21,1.08,1.09,1.09
136.48,4.30,4.30,3.27,3.27,-3.27,-3.03,-3.19,1.03,1.03,1.03
137.84,4.25,4.25,3.28,3.28,-3.28,-3.04,-3.16,0.97,0.97,0.97
139.22,4.20,4.20,3.28,3.28,-3.28,-3.06,-3.13,0.91,0.92,0.91
140.61,4.15,4.15,3.29,3.29,-3.29,-3.07,-3.10,0.86,0.86,0.86
142.02,4.10,4.09,3.30,3.29,-3.29,-3.09,-3.07,0.81,0.80,0.80
143.44,4.04,4.04,3.29,3.29,-3.29,-3.10,-3.04,0.74,0.75,0.75
144.87,3.99,3.99,3.29,3.29,-3.29,-3.11,-3.01,0.69,0.69,0.69
146.32,3.94,3.93,3.30,3.29,-3.29,-3.12,-2.98,0.64,0.64,0.64
147.78,3.88,3.88,3.29,3.29,-3.29,-3.14,-2.94,0.59,0.59,0.59
149.26,3.83,3.82,3.29,3.29,-3.29,-3.15,-2.91,0.54,0.54,0.54
150.75,3.77,3.77,3.28,3.28,-3.28,-3.16,-2.88,0.48,0.49,0.49
152.26,3.72,3.72,3.28,3.28,-3.28,-3.17,-2.84,0.44,0.44,0.44
153.78,3.67,3.66,3.27,3.27,-3.27,-3.18,-2.81,0.40,0.39,0.39
155.32,3.61,3.61,3.26,3.26,-3.26,-3.19,-2.78,0.35,0.35,0.35
156.88,3.56,3.56,3.26,3.25,-3.25,-3.20,-2.75,0.31,0.30,0.30
158.44,3.50,3.50,3.24,3.24,-3.24,-3.20,-2.72,0.26,0.26,0.26
160.03,3.44,3.44,3.22,3.23,-3.23,-3.21,-2.69,0.21,0.21,0.21
161.63,3.38,3.38,3.22,3.21,-3.21,-3.21,-2.66,0.16,0.16,0.16
163.24,3.32,3.32,3.20,3.20,-3.20,-3.22,-2.64,0.12,0.12,0.12
164.88,3.27,3.26,3.19,3.19,-3.18,-3.22,-2.61,0.09,0.08,0.08
166.53,3.21,3.21,3.17,3.17,-3.16,-3.23,-2.59,0.04,0.04,0.04
168.19,3.15,3.15,3.15,3.15,-3.15,-3.23,-2.57,0.00,0.00,0.00
169.87,3.09,3.09,3.12,3.13,-3.13,-3.23,-2.55,-0.04,-0.04,-0.04
171.57,3.04,3.04,3.11,3.11,-3.11,-3.23,-2.54,-0.07,-0.07,-0.07
173.29,2.99,2.99,3.10,3.09,-3.09,-3.23,-2.52,-0.11,-0.11,-0.11
175.02,2.94,2.94,3.08,3.08,-3.08,-3.23,-2.51,-0.14,-0.14,-0.14
176.77,2.89,2.89,3.06,3.07,-3.07,-3.22,-2.50,-0.18,-0.18,-0.18
178.54,2.85,2.85,3.06,3.05,-3.06,-3.22,-2.49,-0.21,-0.21,-0.21
180.32,2.81,2.81,3.05,3.05,-3.05,-3.21,-2.48,-0.25,-0.24,-0.24
182.13,2.78,2.78,3.05,3.05,-3.05,-3.21,-2.48,-0.27,-0.27,-0.27
183.95,2.75,2.75,3.05,3.05,-3.05,-3.20,-2.47,-0.30,-0.30,-0.30
185.79,2.72,2.72,3.05,3.05,-3.05,-3.19,-2.47,-0.33,-0.33,-0.33
187.65,2.69,2.69,3.05,3.05,-3.04,-3.18,-2.47,-0.36,-0.36,-0.36
189.52,2.66,2.66,3.04,3.04,-3.04,-3.17,-2.48,-0.39,-0.38,-0.39
191.42,2.63,2.63,3.04,3.04,-3.04,-3.15,-2.48,-0.41,-0.41,-0.41
193.33,2.60,2.60,3.04,3.03,-3.03,-3.14,-2.49,-0.44,-0.44,-0.44
195.27,2.56,2.56,3.02,3.02,-3.02,-3.12,-2.49,-0.47,-0.46,-0.46
197.22,2.53,2.53,3.02,3.01,-3.01,-3.11,-2.50,-0.48,-0.49,-0.49
199.19,2.49,2.49,3.00,3.00,-3.00,-3.09,-2.51,-0.51,-0.51,-0.51
201.18,2.45,2.45,2.98,2.98,-2.98,-3.07,-2.52,-0.53,-0.53,-0.53
203.19,2.40,2.40,2.95,2.96,-2.96,-3.05,-2.53,-0.56,-0.56,-0.56
205.23,2.36,2.36,2.94,2.93,-2.93,-3.03,-2.55,-0.58,-0.58,-0.58
207.28,2.31,2.31,2.91,2.91,-2.91,-3.00,-2.56,-0.60,-0.60,-0.60
209.35,2.26,2.26,2.88,2.88,-2.88,-2.98,-2.57,-0.62,-0.62,-0.62
211.44,2.21,2.21,2.85,2.85,-2.85,-2.96,-2.59,-0.64,-0.64,-0.64
213.56,2.16,2.16,2.81,2.81,-2.81,-2.93,-2.60,-0.66,-0.66,-0.66
215.69,2.11,2.10,2.78,2.78,-2.78,-2.90,-2.61,-0.67,-0.67,-0.68
217.85,2.05,2.05,2.74,2.74,-2.74,-2.87,-2.63,-0.70,-0.69,-0.69
220.03,2.00,2.00,2.71,2.71,-2.71,-2.84,-2.64,-0.71,-0.71,-0.71
222.23,1.95,1.94,2.67,2.67,-2.67,-2.81,-2.65,-0.72,-0.73,-0.73
224.45,1.89,1.89,2.63,2.63,-2.63,-2.78,-2.66,-0.75,-0.74,-0.74
226.70,1.84,1.84,2.60,2.60,-2.60,-2.74,-2.67,-0.76,-0.76,-0.76
228.96,1.79,1.79,2.56,2.56,-2.56,-2.71,-2.67,-0.78,-0.78,-0.77
231.25,1.74,1.74,2.52,2.53,-2.53,-2.68,-2.68,-0.79,-0.79,-0.79
233.57,1.69,1.69,2.49,2.49,-2.49,-2.64,-2.68,-0.80,-0.80,-0.80
235.90,1.64,1.64,2.46,2.46,-2.46,-2.60,-2.68,-0.82,-0.82,-0.82
238.26,1.59,1.59,2.43,2.42,-2.42,-2.56,-2.68,-0.83,-0.83,-0.84
240.64,1.54,1.54,2.39,2.39,-2.39,-2.52,-2.67,-0.85,-0.85,-0.85
243.05,1.49,1.49,2.35,2.35,-2.35,-2.49,-2.66,-0.86,-0.86,-0.86
245.48,1.44,1.44,2.31,2.31,-2.31,-2.44,-2.64,-0.87,-0.87,-0.87
247.93,1.39,1.39,2.27,2.27,-2.27,-2.40,-2.63,-0.89,-0.89,-0.89
250.41,1.34,1.34,2.23,2.23,-2.24,-2.36,-2.61,-0.90,-0.90,-0.90
252.92,1.29,1.29,2.19,2.20,-2.20,-2.32,-2.58,-0.91,-0.91,-0.91
255.45,1.24,1.24,2.16,2.16,-2.16,-2.27,-2.56,-0.92,-0.92,-0.92
258.00,1.20,1.19,2.12,2.12,-2.12,-2.23,-2.53,-0.92,-0.93,-0.93
260.58,1.15,1.15,2.08,2.08,-2.08,-2.19,-2.49,-0.93,-0.94,-0.94
263.19,1.10,1.10,2.04,2.04,-2.04,-2.14,-2.46,-0.95,-0.95,-0.95
265.82,1.05,1.05,2.00,2.01,-2.01,-2.10,-2.41,-0.96,-0.96,-0.95
268.48,1.01,1.00,1.97,1.97,-1.97,-2.05,-2.37,-0.96,-0.97,-0.96
271.16,0.96,0.96,1.93,1.93,-1.93,-2.00,-2.32,-0.97,-0.97,-0.97
273.87,0.91,0.91,1.89,1.89,-1.89,-1.96,-2.28,-0.98,-0.98,-0.98
276.61,0.87,0.86,1.85,1.85,-1.85,-1.91,-2.22,-0.98,-0.99,-0.99
279.38,0.82,0.82,1.81,1.81,-1.81,-1.86,-2.17,-0.99,-0.99,-0.99
282.17,0.77,0.77,1.77,1.77,-1.77,-1.81,-2.11,-1.00,-1.00,-1.00
284.99,0.73,0.72,1.73,1.72,-1.72,-1.77,-2.06,-1.00,-1.00,-1.00
287.84,0.68,0.68,1.67,1.68,-1.68,-1.72,-2.00,-1.00,-1.00,-1.00
290.72,0.64,0.63,1.64,1.64,-1.64,-1.67,-1.94,-1.00,-1.00,-1.00
293.63,0.59,0.59,1.60,1.59,-1.59,-1.62,-1.87,-1.01,-1.00,-1.01
296.57,0.55,0.55,1.55,1.55,-1.55,-1.57,-1.81,-1.00,-1.00,-1.00
299.53,0.51,0.50,1.51,1.51,-1.51,-1.52,-1.75,-1.00,-1.00,-1.00
302.53,0.46,0.46,1.46,1.46,-1.46,-1.47,-1.68,-1.01,-1.00,-1.00
305.55,0.42,0.42,1.42,1.42,-1.42,-1.43,-1.62,-1.00,-1.00,-1.00
308.61,0.38,0.37,1.38,1.38,-1.38,-1.38,-1.55,-1.00,-1.00,-1.01
311.69,0.33,0.33,1.33,1.33,-1.33,-1.33,-1.49,-1.01,-1.00,-1.00
314.81,0.29,0.29,1.29,1.29,-1.29,-1.28,-1.42,-1.00,-1.00,-1.00
317.96,0.25,0.25,1.25,1.25,-1.25,-1.23,-1.36,-1.00,-1.00,-1.00
321.14,0.21,0.21,1.21,1.21,-1.21,-1.18,-1.29,-1.00,-1.00,-1.00
324.35,0.17,0.17,1.17,1.17,-1.17,-1.13,-1.23,-1.00,-1.00,-1.00
327.59,0.13,0.13,1.12,1.12,-1.12,-1.09,-1.16,-1.00,-1.00,-0.99
330.87,0.09,0.09,1.08,1.08,-1.08,-1.04,-1.10,-0.99,-0.99,-1.00
334.18,0.05,0.05,1.04,1.04,-1.04,-0.99,-1.03,-0.99,-0.99,-0.99
337.52,0.01,0.01,1.00,1.00,-1.00,-0.94,-0.97,-0.99,-0.99,-0.99
340.90,-0.03,-0.03,0.96,0.95,-0.95,-0.90,-0.91,-0.98,-0.98,-0.99
344.30,-0.07,-0.07,0.91,0.91,-0.91,-0.85,-0.84,-0.98,-0.98,-0.98
347.75,-0.11,-0.11,0.86,0.86,-0.86,-0.80,-0.78,-0.98,-0.98,-0.97
351.23,-0.15,-0.15,0.83,0.82,-0.82,-0.76,-0.72,-0.97,-0.97,-0.98
354.74,-0.19,-0.19,0.77,0.77,-0.78,-0.71,-0.66,-0.97,-0.97,-0.96
358.28,-0.23,-0.23,0.73,0.73,-0.73,-0.66,-0.60,-0.97,-0.96,-0.96
361.87,-0.26,-0.27,0.69,0.69,-0.69,-0.62,-0.54,-0.95,-0.96,-0.96
365.49,-0.30,-0.30,0.65,0.65,-0.65,-0.57,-0.48,-0.95,-0.95,-0.95
369.14,-0.33,-0.33,0.62,0.61,-0.61,-0.53,-0.42,-0.94,-0.94,-0.95
372.83,-0.37,-0.37,0.56,0.57,-0.57,-0.49,-0.36,-0.94,-0.94,-0.93
376.56,-0.40,-0.41,0.53,0.53,-0.53,-0.44,-0.30,-0.93,-0.94,-0.94
380.33,-0.44,-0.44,0.49,0.49,-0.49,-0.40,-0.24,-0.94,-0.93,-0.93
384.13,-0.47,-0.47,0.46,0.46,-0.45,-0.36,-0.19,-0.93,-0.93,-0.93
387.97,-0.50,-0.50,0.42,0.42,-0.42,-0.32,-0.13,-0.92,-0.92,-0.92
391.85,-0.53,-0.53,0.37,0.38,-0.38,-0.27,-0.07,-0.91,-0.91,-0.91
395.77,-0.56,-0.56,0.35,0.34,-0.34,-0.23,-0.02,-0.90,-0.90,-0.91
399.73,-0.59,-0.60,0.31,0.30,-0.30,-0.19,0.04,-0.90,-0.90,-0.90
403.72,-0.63,-0.63,0.26,0.27,-0.27,-0.15,0.09,-0.90,-0.90,-0.89
407.76,-0.66,-0.66,0.23,0.23,-0.23,-0.11,0.14,-0.89,-0.89,-0.89
411.84,-0.69,-0.69,0.19,0.19,-0.19,-0.07,0.20,-0.89,-0.89,-0.89
415.96,-0.72,-0.72,0.15,0.16,-0.16,-0.03,0.25,-0.88,-0.88,-0.88
420.12,-0.75,-0.75,0.13,0.12,-0.12,0.00,0.30,-0.88,-0.88,-0.88
424.32,-0.78,-0.78,0.09,0.09,-0.09,0.04,0.35,-0.87,-0.87,-0.87
428.56,-0.80,-0.81,0.06,0.06,-0.06,0.08,0.40,-0.86,-0.86,-0.86
432.85,-0.83,-0.83,0.02,0.02,-0.02,0.11,0.44,-0.85,-0.85,-0.85
437.18,-0.86,-0.86,-0.01,-0.01,0.02,0.15,0.49,-0.85,-0.85,-0.85
441.55,-0.89,-0.89,-0.05,-0.05,0.05,0.19,0.53,-0.84,-0.84,-0.85
445.96,-0.92,-0.92,-0.09,-0.09,0.09,0.22,0.58,-0.83,-0.83,-0.84
450.42,-0.95,-0.95,-0.13,-0.13,0.12,0.25,0.62,-0.83,-0.83,-0.82
454.93,-0.97,-0.98,-0.16,-0.17,0.16,0.29,0.65,-0.81,-0.82,-0.81
459.48,-1.00,-1.00,-0.20,-0.20,0.20,0.32,0.69,-0.81,-0.81,-0.80
464.07,-1.03,-1.03,-0.23,-0.23,0.23,0.35,0.73,-0.80,-0.80,-0.80
468.71,-1.05,-1.06,-0.26,-0.26,0.27,0.39,0.76,-0.79,-0.79,-0.79
473.40,-1.08,-1.08,-0.30,-0.30,0.30,0.42,0.79,-0.78,-0.78,-0.78
478.13,-1.10,-1.10,-0.33,-0.33,0.33,0.45,0.81,-0.77,-0.77,-0.78
482.91,-1.13,-1.13,-0.37,-0.36,0.36,0.48,0.84,-0.77,-0.77,-0.77
487.74,-1.15,-1.16,-0.40,-0.40,0.40,0.51,0.86,-0.76,-0.76,-0.76
492.62,-1.18,-1.18,-0.43,-0.43,0.43,0.53,0.88,-0.75,-0.75,-0.75
497.55,-1.20,-1.20,-0.46,-0.46,0.46,0.56,0.90,-0.74,-0.74,-0.74
502.52,-1.22,-1.22,-0.49,-0.50,0.50,0.59,0.91,-0.73,-0.73,-0.73
507.55,-1.24,-1.24,-0.53,-0.53,0.53,0.62,0.92,-0.71,-0.71,-0.71
512.62,-1.26,-1.26,-0.56,-0.56,0.56,0.64,0.93,-0.70,-0.70,-0.70
