frequency,raw,error,smoothed,error_smoothed,equalization,parametric_eq,equalized_raw,equalized_smoothed,target
20.00,2.40,1.90,2.40,1.90,-1.90,-0.86,0.50,0.50,0.50
20.20,2.44,1.90,2.44,1.90,-1.90,-0.88,0.54,0.54,0.54
20.40,2.49,1.91,2.49,1.90,-1.90,-0.91,0.59,0.58,0.58
20.61,2.53,1.91,2.53,1.91,-1.91,-0.94,0.62,0.62,0.62
20.81,2.57,1.91,2.57,1.91,-1.91,-0.96,0.66,0.66,0.66
21.02,2.61,1.91,2.61,1.91,-1.91,-0.99,0.70,0.70,0.70
21.23,2.65,1.91,2.65,1.91,-1.91,-1.02,0.74,0.74,0.74
21.44,2.70,1.92,2.70,1.91,-1.91,-1.05,0.79,0.78,0.78
21.66,2.74,1.92,2.74,1.92,-1.92,-1.08,0.83,0.82,0.82
21.87,2.78,1.92,2.78,1.92,-1.92,-1.11,0.86,0.86,0.86
22.09,2.82,1.92,2.82,1.92,-1.92,-1.15,0.90,0.90,0.90
22.31,2.86,1.92,2.86,1.92,-1.92,-1.18,0.94,0.94,0.94
22.54,2.90,1.92,2.91,1.92,-1.92,-1.21,0.98,0.98,0.98
22.76,2.95,1.93,2.95,1.93,-1.93,-1.25,1.02,1.02,1.02
22.99,2.99,1.93,2.99,1.93,-1.93,-1.29,1.06,1.06,1.06
23.22,3.03,1.93,3.03,1.93,-1.93,-1.32,1.10,1.10,1.10
23.45,3.07,1.93,3.07,1.93,-1.93,-1.36,1.14,1.14,1.14
23.69,3.11,1.93,3.11,1.94,-1.94,-1.40,1.17,1.18,1.18
23.92,3.16,1.95,3.16,1.94,-1.94,-1.44,1.22,1.22,1.22
24.16,3.20,1.95,3.20,1.94,-1.94,-1.48,1.26,1.26,1.26
24.40,3.24,1.95,3.24,1.95,-1.95,-1.52,1.30,1.29,1.29
24.65,3.28,1.95,3.28,1.95,-1.95,-1.56,1.33,1.33,1.33
24.89,3.32,1.95,3.32,1.95,-1.95,-1.60,1.37,1.37,1.37
25.14,3.36,1.95,3.36,1.96,-1.96,-1.64,1.41,1.41,1.41
25.39,3.40,1.96,3.40,1.96,-1.96,-1.69,1.44,1.44,1.44
25.65,3.44,1.96,3.44,1.96,-1.96,-1.73,1.48,1.48,1.48
25.91,3.49,1.97,3.48,1.97,-1.97,-1.77,1.52,1.52,1.52
26.16,3.53,1.98,3.52,1.97,-1.97,-1.82,1.56,1.55,1.56
26.43,3.56,1.97,3.56,1.97,-1.97,-1.86,1.59,1.59,1.59
26.69,3.60,1.97,3.60,1.98,-1.98,-1.90,1.62,1.62,1.63
26.96,3.64,1.98,3.64,1.98,-1.98,-1.95,1.66,1.66,1.66
27.23,3.68,1.99,3.68,1.99,-1.99,-1.99,1.69,1.69,1.69
27.50,3.72,1.99,3.72,2.00,-2.00,-2.03,1.72,1.73,1.73
27.77,3.76,2.00,3.76,2.00,-2.00,-2.07,1.76,1.76,1.76
28.05,3.80,2.01,3.80,2.01,-2.01,-2.11,1.79,1.80,1.79
28.33,3.84,2.01,3.84,2.01,-2.01,-2.15,1.83,1.83,1.83
28.62,3.88,2.02,3.88,2.02,-2.02,-2.18,1.86,1.86,1.86
28.90,3.92,2.03,3.92,2.03,-2.03,-2.22,1.89,1.89,1.89
29.19,3.96,2.04,3.95,2.03,-2.03,-2.25,1.93,1.92,1.92
29.48,3.99,2.04,3.99,2.04,-2.04,-2.28,1.95,1.95,1.95
29.78,4.03,2.05,4.02,2.04,-2.04,-2.31,1.99,1.98,1.98
30.08,4.07,2.06,4.06,2.05,-2.05,-2.34,2.02,2.01,2.01
30.38,4.09,2.05,4.09,2.05,-2.05,-2.36,2.04,2.04,2.04
30.68,4.12,2.05,4.13,2.06,-2.06,-2.38,2.06,2.07,2.07
30.99,4.15,2.06,4.16,2.07,-2.07,-2.40,2.09,2.09,2.10
31.30,4.18,2.06,4.19,2.07,-2.07,-2.42,2.11,2.12,2.12
31.61,4.22,2.08,4.22,2.08,-2.08,-2.44,2.14,2.14,2.15
31.93,4.25,2.08,4.25,2.09,-2.09,-2.45,2.16,2.17,2.17
32.24,4.28,2.09,4.28,2.09,-2.09,-2.46,2.19,2.19,2.19
32.57,4.32,2.11,4.32,2.10,-2.10,-2.47,2.22,2.21,2.21
32.89,4.35,2.12,4.35,2.11,-2.11,-2.47,2.24,2.23,2.23
33.22,4.38,2.13,4.38,2.13,-2.13,-2.47,2.26,2.25,2.25
33.55,4.41,2.14,4.41,2.14,-2.14,-2.48,2.27,2.27,2.27
33.89,4.44,2.15,4.44,2.15,-2.15,-2.47,2.29,2.29,2.29
34.23,4.47,2.16,4.47,2.16,-2.16,-2.47,2.31,2.31,2.31
34.57,4.50,2.18,4.50,2.18,-2.18,-2.47,2.32,2.33,2.33
34.92,4.53,2.19,4.53,2.19,-2.19,-2.46,2.34,2.34,2.34
35.27,4.56,2.21,4.56,2.21,-2.21,-2.46,2.35,2.35,2.35
35.62,4.59,2.22,4.59,2.23,-2.23,-2.45,2.37,2.37,2.37
35.97,4.62,2.24,4.62,2.24,-2.24,-2.44,2.38,2.38,2.38
36.33,4.65,2.26,4.65,2.26,-2.26,-2.43,2.39,2.39,2.39
36.70,4.68,2.28,4.67,2.28,-2.28,-2.42,2.40,2.40,2.40
37.06,4.70,2.29,4.70,2.29,-2.29,-2.42,2.41,2.41,2.41
37.43,4.73,2.31,4.73,2.31,-2.31,-2.41,2.42,2.41,2.42
37.81,4.75,2.33,4.75,2.33,-2.33,-2.40,2.42,2.42,2.42
38.19,4.77,2.34,4.78,2.35,-2.35,-2.39,2.42,2.43,2.43
38.57,4.79,2.36,4.80,2.37,-2.37,-2.38,2.42,2.43,2.43
38.95,4.82,2.38,4.82,2.39,-2.39,-2.38,2.43,2.43,2.44
39.34,4.84,2.40,4.84,2.41,-2.41,-2.37,2.43,2.44,2.44
39.74,4.86,2.42,4.86,2.42,-2.42,-2.37,2.44,2.44,2.44
40.14,4.89,2.45,4.88,2.44,-2.44,-2.37,2.45,2.44,2.44
40.54,4.90,2.46,4.90,2.46,-2.46,-2.36,2.44,2.44,2.44
40.94,4.92,2.48,4.92,2.47,-2.47,-2.36,2.45,2.44,2.44
41.35,4.93,2.49,4.93,2.48,-2.48,-2.36,2.45,2.45,2.45
41.76,4.94,2.50,4.94,2.49,-2.49,-2.37,2.45,2.45,2.45
42.18,4.94,2.50,4.95,2.50,-2.50,-2.37,2.44,2.45,2.45
42.60,4.95,2.51,4.95,2.50,-2.50,-2.38,2.45,2.45,2.44
43.03,4.96,2.52,4.95,2.51,-2.51,-2.38,2.45,2.45,2.44
43.46,4.96,2.52,4.95,2.51,-2.51,-2.39,2.46,2.44,2.44
43.90,4.95,2.51,4.95,2.50,-2.50,-2.40,2.45,2.44,2.44
44.33,4.94,2.50,4.94,2.49,-2.49,-2.41,2.45,2.44,2.44
44.78,4.93,2.49,4.93,2.48,-2.48,-2.43,2.45,2.44,2.44
45.23,4.91,2.47,4.92,2.47,-2.47,-2.44,2.44,2.45,2.44
45.68,4.90,2.46,4.90,2.45,-2.45,-2.46,2.45,2.45,2.44
46.13,4.88,2.43,4.88,2.44,-2.44,-2.48,2.44,2.45,2.45
46.60,4.87,2.42,4.87,2.42,-2.42,-2.50,2.45,2.45,2.45
47.06,4.85,2.40,4.85,2.40,-2.40,-2.52,2.46,2.45,2.45
47.53,4.83,2.38,4.83,2.37,-2.37,-2.55,2.46,2.45,2.45
48.01,4.81,2.36,4.81,2.35,-2.35,-2.57,2.46,2.45,2.46
48.49,4.79,2.33,4.79,2.33,-2.33,-2.60,2.46,2.46,2.46
48.97,4.76,2.30,4.77,2.31,-2.31,-2.63,2.45,2.46,2.46
49.46,4.75,2.28,4.75,2.29,-2.29,-2.66,2.46,2.47,2.47
49.96,4.73,2.26,4.74,2.27,-2.27,-2.69,2.46,2.47,2.47
50.46,4.72,2.24,4.73,2.25,-2.25,-2.73,2.47,2.48,2.48
50.96,4.71,2.23,4.72,2.24,-2.24,-2.76,2.48,2.48,2.48
51.47,4.71,2.22,4.71,2.22,-2.22,-2.80,2.49,2.49,2.49
51.99,4.71,2.22,4.71,2.22,-2.22,-2.83,2.50,2.49,2.49
52.51,4.71,2.21,4.71,2.21,-2.21,-2.87,2.50,2.50,2.50
53.03,4.71,2.21,4.71,2.21,-2.21,-2.91,2.50,2.50,2.50
53.56,4.72,2.22,4.72,2.22,-2.22,-2.95,2.50,2.50,2.50
54.10,4.72,2.22,4.73,2.23,-2.23,-2.99,2.49,2.50,2.51
54.64,4.75,2.24,4.75,2.25,-2.25,-3.02,2.51,2.50,2.51
55.18,4.77,2.26,4.77,2.27,-2.27,-3.06,2.50,2.50,2.51
55.74,4.79,2.29,4.79,2.30,-2.30,-3.10,2.50,2.50,2.51
56.29,4.82,2.32,4.82,2.33,-2.33,-3.14,2.49,2.49,2.50
56.86,4.85,2.35,4.86,2.37,-2.37,-3.18,2.48,2.49,2.50
57.42,4.89,2.40,4.90,2.42,-2.42,-3.22,2.47,2.48,2.49
58.00,4.93,2.44,4.95,2.47,-2.47,-3.25,2.46,2.48,2.49
58.58,4.99,2.51,5.00,2.53,-2.53,-3.29,2.46,2.47,2.48
59.16,5.05,2.58,5.06,2.59,-2.59,-3.32,2.46,2.47,2.47
59.76,5.12,2.66,5.12,2.66,-2.66,-3.36,2.46,2.46,2.46
60.35,5.19,2.74,5.18,2.73,-2.73,-3.39,2.46,2.45,2.45
60.96,5.25,2.81,5.25,2.81,-2.81,-3.42,2.44,2.44,2.44
61.57,5.32,2.89,5.32,2.89,-2.89,-3.45,2.44,2.43,2.43
62.18,5.39,2.97,5.39,2.97,-2.97,-3.48,2.43,2.42,2.42
62.80,5.47,3.06,5.46,3.05,-3.05,-3.50,2.42,2.41,2.41
63.43,5.55,3.15,5.54,3.13,-3.13,-3.53,2.42,2.41,2.40
64.07,5.62,3.22,5.62,3.22,-3.22,-3.55,2.40,2.40,2.40
64.71,5.70,3.31,5.69,3.31,-3.31,-3.57,2.40,2.39,2.39
65.35,5.77,3.39,5.77,3.39,-3.39,-3.60,2.38,2.38,2.38
66.01,5.84,3.47,5.85,3.48,-3.48,-3.62,2.36,2.37,2.37
66.67,5.93,3.56,5.94,3.57,-3.57,-3.64,2.36,2.37,2.37
67.33,6.01,3.65,6.02,3.66,-3.66,-3.65,2.35,2.36,2.36
68.01,6.10,3.74,6.11,3.75,-3.75,-3.67,2.35,2.36,2.36
68.69,6.19,3.84,6.19,3.84,-3.84,-3.69,2.35,2.35,2.35
69.37,6.28,3.93,6.28,3.93,-3.93,-3.71,2.35,2.35,2.35
70.07,6.36,4.01,6.37,4.02,-4.02,-3.72,2.34,2.35,2.35
70.77,6.45,4.10,6.45,4.11,-4.11,-3.74,2.34,2.34,2.35
71.48,6.54,4.20,6.54,4.20,-4.20,-3.76,2.34,2.34,2.34
72.19,6.63,4.29,6.63,4.29,-4.29,-3.78,2.34,2.34,2.34
72.91,6.72,4.38,6.71,4.38,-4.38,-3.80,2.34,2.33,2.34
73.64,6.81,4.48,6.80,4.47,-4.47,-3.82,2.34,2.33,2.33
74.38,6.89,4.56,6.88,4.55,-4.55,-3.84,2.34,2.33,2.33
75.12,6.96,4.63,6.96,4.64,-4.64,-3.87,2.32,2.32,2.33
75.87,7.03,4.71,7.04,4.72,-4.72,-3.90,2.31,2.32,2.32
76.63,7.10,4.78,7.12,4.80,-4.80,-3.92,2.30,2.32,2.32
77.40,7.18,4.87,7.19,4.88,-4.88,-3.95,2.31,2.31,2.31
78.17,7.26,4.95,7.26,4.95,-4.95,-3.99,2.31,2.31,2.31
78.95,7.34,5.04,7.33,5.02,-5.02,-4.02,2.32,2.31,2.31
79.74,7.40,5.10,7.39,5.09,-5.09,-4.06,2.32,2.30,2.30
80.54,7.46,5.16,7.45,5.15,-5.15,-4.10,2.31,2.30,2.30
81.35,7.51,5.21,7.51,5.21,-5.21,-4.14,2.30,2.30,2.30
82.16,7.57,5.27,7.57,5.26,-5.26,-4.19,2.31,2.30,2.30
82.98,7.62,5.32,7.62,5.32,-5.32,-4.24,2.30,2.31,2.30
83.81,7.67,5.37,7.68,5.37,-5.37,-4.29,2.30,2.31,2.30
84.65,7.72,5.42,7.73,5.42,-5.42,-4.35,2.31,2.31,2.30
85.50,7.77,5.46,7.77,5.46,-5.46,-4.41,2.31,2.31,2.31
86.35,7.82,5.51,7.82,5.51,-5.51,-4.47,2.31,2.31,2.31
87.22,7.87,5.56,7.86,5.55,-5.55,-4.53,2.32,2.31,2.31
88.09,7.91,5.60,7.90,5.59,-5.59,-4.60,2.32,2.31,2.31
88.97,7.95,5.64,7.94,5.64,-5.64,-4.68,2.31,2.30,2.31
89.86,7.98,5.67,7.99,5.69,-5.69,-4.75,2.29,2.30,2.31
90.76,8.02,5.71,8.03,5.74,-5.74,-4.83,2.28,2.29,2.31
91.66,8.06,5.76,8.07,5.79,-5.79,-4.92,2.27,2.28,2.30
92.58,8.10,5.81,8.11,5.84,-5.84,-5.00,2.26,2.27,2.29
93.51,8.14,5.87,8.15,5.90,-5.90,-5.09,2.24,2.25,2.27
94.44,8.18,5.93,8.19,5.96,-5.96,-5.19,2.22,2.23,2.25
95.39,8.23,6.01,8.23,6.02,-6.02,-5.28,2.21,2.21,2.22
96.34,8.27,6.08,8.27,6.09,-6.09,-5.38,2.18,2.18,2.20
97.30,8.31,6.15,8.31,6.15,-6.15,-5.49,2.16,2.15,2.16
98.28,8.35,6.22,8.34,6.22,-6.22,-5.59,2.13,2.12,2.13
99.26,8.39,6.30,8.38,6.29,-6.29,-5.70,2.10,2.08,2.09
100.25,8.41,6.36,8.41,6.36,-6.36,-5.81,2.05,2.05,2.05
101.25,8.44,6.43,8.43,6.42,-6.42,-5.92,2.02,2.01,2.01
102.27,8.45,6.49,8.45,6.49,-6.49,-6.03,1.96,1.96,1.96
103.29,8.47,6.55,8.47,6.55,-6.55,-6.15,1.92,1.92,1.92
104.32,8.49,6.62,8.49,6.61,-6.61,-6.26,1.88,1.88,1.87
105.37,8.50,6.67,8.50,6.66,-6.66,-6.38,1.84,1.83,1.83
106.42,8.51,6.73,8.50,6.72,-6.72,-6.49,1.80,1.79,1.78
107.48,8.52,6.78,8.51,6.76,-6.76,-6.61,1.76,1.74,1.74
108.56,8.52,6.82,8.51,6.81,-6.81,-6.72,1.71,1.70,1.70
109.64,8.51,6.85,8.51,6.85,-6.85,-6.83,1.66,1.66,1.66
110.74,8.50,6.87,8.51,6.88,-6.88,-6.94,1.62,1.63,1.63
111.85,8.50,6.90,8.51,6.92,-6.92,-7.04,1.58,1.60,1.60
112.97,8.50,6.93,8.51,6.95,-6.95,-7.14,1.55,1.56,1.57
114.10,8.50,6.96,8.51,6.98,-6.98,-7.23,1.52,1.54,1.54
115.24,8.50,6.99,8.51,7.00,-7.00,-7.31,1.50,1.51,1.51
116.39,8.50,7.01,8.52,7.02,-7.02,-7.39,1.48,1.49,1.49
117.55,8.50,7.03,8.52,7.04,-7.04,-7.46,1.46,1.47,1.47
118.73,8.51,7.05,8.52,7.06,-7.06,-7.52,1.45,1.46,1.46
119.92,8.52,7.07,8.52,7.07,-7.07,-7.57,1.45,1.45,1.45
121.12,8.52,7.08,8.52,7.08,-7.08,-7.62,1.44,1.44,1.44
122.33,8.52,7.09,8.51,7.09,-7.09,-7.65,1.43,1.43,1.43
123.55,8.51,7.09,8.51,7.09,-7.09,-7.66,1.42,1.42,1.42
124.79,8.50,7.09,8.49,7.08,-7.08,-7.67,1.42,1.41,1.41
126.03,8.49,7.08,8.48,7.07,-7.07,-7.67,1.42,1.41,1.41
127.29,8.47,7.07,8.46,7.05,-7.05,-7.65,1.42,1.41,1.40
128.57,8.44,7.04,8.43,7.03,-7.03,-7.63,1.41,1.40,1.40
129.85,8.39,7.00,8.39,7.00,-7.00,-7.59,1.39,1.39,1.39
131.15,8.35,6.96,8.35,6.96,-6.96,-7.54,1.39,1.38,1.39
132.46,8.31,6.93,8.30,6.92,-6.92,-7.48,1.39,1.38,1.38
133.79,8.24,6.87,8.24,6.87,-6.87,-7.41,1.37,1.36,1.37
135.12,8.17,6.81,8.18,6.82,-6.82,-7.34,1.35,1.35,1.36
136.48,8.12,6.77,8.11,6.77,-6.77,-7.25,1.35,1.34,1.35
137.84,8.03,6.70,8.03,6.71,-6.71,-7.16,1.32,1.33,1.33
139.22,7.97,6.65,7.96,6.64,-6.64,-7.07,1.33,1.31,1.32
140.61,7.88,6.58,7.88,6.58,-6.58,-6.96,1.30,1.30,1.30
142.02,7.76,6.48,7.79,6.51,-6.51,-6.86,1.25,1.28,1.28
143.44,7.70,6.44,7.71,6.44,-6.44,-6.75,1.26,1.26,1.27
144.87,7.60,6.36,7.62,6.37,-6.37,-6.64,1.23,1.24,1.24
146.32,7.53,6.31,7.52,6.30,-6.30,-6.52,1.23,1.22,1.22
147.78,7.42,6.22,7.43,6.23,-6.23,-6.41,1.19,1.20,1.20
149.26,7.34,6.16,7.33,6.16,-6.16,-6.29,1.19,1.18,1.18
150.75,7.23,6.07,7.24,6.08,-6.08,-6.18,1.15,1.16,1.16
152.26,7.15,6.01,7.14,6.00,-6.00,-6.06,1.15,1.13,1.14
153.78,7.04,5.93,7.04,5.93,-5.93,-5.95,1.11,1.11,1.11
155.32,6.95,5.86,6.94,5.85,-5.85,-5.83,1.10,1.09,1.09
156.88,6.82,5.75,6.84,5.77,-5.77,-5.72,1.05,1.07,1.07
158.44,6.74,5.70,6.73,5.69,-5.69,-5.61,1.05,1.05,1.04
160.03,6.61,5.59,6.63,5.61,-5.61,-5.51,1.00,1.02,1.02
161.63,6.52,5.52,6.52,5.52,-5.52,-5.40,1.00,1.00,1.00
163.24,6.43,5.45,6.41,5.44,-5.44,-5.30,0.99,0.97,0.98
164.88,6.30,5.35,6.31,5.35,-5.35,-5.20,0.95,0.95,0.96
166.53,6.21,5.28,6.20,5.27,-5.27,-5.11,0.94,0.93,0.94
168.19,6.11,5.19,6.10,5.18,-5.18,-5.02,0.93,0.92,0.92
169.87,5.98,5.08,5.99,5.09,-5.09,-4.93,0.89,0.90,0.90
171.57,5.89,5.01,5.89,5.01,-5.01,-4.85,0.89,0.89,0.88
173.29,5.80,4.93,5.79,4.92,-4.92,-4.76,0.88,0.87,0.87
175.02,5.66,4.80,5.69,4.83,-4.83,-4.69,0.83,0.86,0.86
176.77,5.58,4.73,5.60,4.74,-4.74,-4.61,0.84,0.86,0.85
178.54,5.50,4.65,5.50,4.65,-4.65,-4.54,0.85,0.85,0.85
180.32,5.42,4.58,5.41,4.56,-4.56,-4.48,0.86,0.85,0.84
182.13,5.34,4.50,5.32,4.48,-4.48,-4.41,0.86,0.85,0.84
183.95,5.21,4.37,5.24,4.39,-4.39,-4.35,0.82,0.85,0.84
185.79,5.15,4.30,5.15,4.30,-4.30,-4.29,0.85,0.85,0.85
187.65,5.07,4.22,5.07,4.22,-4.22,-4.24,0.85,0.85,0.85
189.52,4.98,4.13,4.98,4.13,-4.13,-4.19,0.85,0.85,0.85
191.42,4.91,4.05,4.90,4.05,-4.05,-4.14,0.86,0.86,0.86
193.33,4.84,3.98,4.82,3.96,-3.96,-4.10,0.88,0.86,0.86
195.27,4.75,3.88,4.75,3.88,-3.88,-4.06,0.87,0.87,0.87
197.22,4.67,3.80,4.67,3.80,-3.80,-4.02,0.87,0.87,0.87
199.19,4.59,3.72,4.59,3.72,-3.72,-3.98,0.87,0.87,0.87
201.18,4.51,3.64,4.52,3.65,-3.65,-3.95,0.86,0.87,0.87
203.19,4.44,3.57,4.44,3.58,-3.58,-3.91,0.87,0.87,0.87
205.23,4.37,3.50,4.37,3.51,-3.51,-3.88,0.87,0.87,0.87
207.28,4.30,3.44,4.30,3.44,-3.44,-3.86,0.86,0.86,0.86
209.35,4.23,3.37,4.23,3.38,-3.38,-3.83,0.86,0.85,0.86
211.44,4.17,3.32,4.16,3.32,-3.32,-3.80,0.85,0.84,0.85
213.56,4.10,3.26,4.10,3.26,-3.26,-3.78,0.84,0.83,0.84
215.69,4.04,3.21,4.03,3.21,-3.21,-3.75,0.83,0.82,0.83
217.85,3.97,3.15,3.98,3.17,-3.17,-3.73,0.80,0.81,0.82
220.03,3.92,3.12,3.92,3.13,-3.13,-3.71,0.79,0.80,0.80
222.23,3.87,3.08,3.87,3.09,-3.09,-3.69,0.78,0.78,0.79
224.45,3.82,3.05,3.83,3.06,-3.06,-3.66,0.76,0.77,0.77
226.70,3.78,3.03,3.78,3.04,-3.04,-3.64,0.75,0.75,0.76
228.96,3.73,2.99,3.75,3.02,-3.02,-3.62,0.71,0.73,0.74
231.25,3.71,2.99,3.71,3.00,-3.00,-3.59,0.71,0.71,0.72
233.57,3.68,2.98,3.69,2.99,-2.99,-3.56,0.69,0.70,0.70
235.90,3.67,2.99,3.67,2.99,-2.99,-3.53,0.68,0.68,0.69
238.26,3.65,2.98,3.65,2.98,-2.98,-3.50,0.67,0.67,0.67
240.64,3.63,2.98,3.64,2.99,-2.99,-3.47,0.64,0.65,0.65
243.05,3.62,2.98,3.63,2.99,-2.99,-3.44,0.63,0.64,0.64
245.48,3.61,2.98,3.63,3.00,-3.00,-3.40,0.61,0.63,0.63
247.93,3.62,3.00,3.62,3.00,-3.00,-3.36,0.62,0.62,0.62
250.41,3.63,3.02,3.62,3.01,-3.01,-3.32,0.62,0.61,0.61
252.92,3.63,3.03,3.62,3.02,-3.02,-3.27,0.61,0.60,0.60
255.45,3.64,3.04,3.63,3.03,-3.03,-3.22,0.61,0.60,0.60
258.00,3.64,3.05,3.63,3.04,-3.04,-3.17,0.60,0.59,0.59
260.58,3.64,3.05,3.63,3.04,-3.04,-3.12,0.60,0.59,0.59
263.19,3.64,3.05,3.64,3.05,-3.05,-3.07,0.59,0.59,0.59
265.82,3.64,3.05,3.65,3.05,-3.05,-3.01,0.59,0.59,0.59
268.48,3.64,3.04,3.65,3.05,-3.05,-2.95,0.59,0.60,0.60
271.16,3.64,3.04,3.65,3.05,-3.05,-2.89,0.59,0.61,0.60
273.87,3.64,3.03,3.65,3.04,-3.04,-2.82,0.60,0.61,0.61
276.61,3.65,3.03,3.65,3.03,-3.03,-2.75,0.62,0.62,0.62
279.38,3.65,3.02,3.65,3.02,-3.02,-2.69,0.63,0.63,0.63
282.17,3.66,3.01,3.65,3.00,-3.00,-2.62,0.66,0.64,0.65
284.99,3.65,2.99,3.64,2.98,-2.98,-2.55,0.67,0.66,0.66
287.84,3.64,2.96,3.63,2.96,-2.96,-2.48,0.68,0.67,0.68
290.72,3.63,2.94,3.62,2.93,-2.93,-2.40,0.70,0.69,0.69
293.63,3.60,2.89,3.60,2.90,-2.90,-2.33,0.70,0.71,0.71
296.57,3.58,2.86,3.58,2.86,-2.86,-2.26,0.72,0.72,0.72
299.53,3.56,2.82,3.56,2.82,-2.82,-2.18,0.74,0.74,0.74
302.53,3.53,2.77,3.53,2.78,-2.78,-2.11,0.76,0.75,0.76
305.55,3.50,2.73,3.50,2.73,-2.73,-2.03,0.77,0.77,0.77
308.61,3.46,2.67,3.46,2.67,-2.67,-1.96,0.79,0.79,0.79
311.69,3.41,2.61,3.42,2.62,-2.62,-1.89,0.80,0.80,0.80
314.81,3.38,2.56,3.37,2.55,-2.55,-1.81,0.83,0.82,0.82
317.96,3.34,2.50,3.33,2.49,-2.49,-1.74,0.85,0.84,0.84
321.14,3.28,2.42,3.28,2.42,-2.42,-1.66,0.86,0.86,0.86
324.35,3.21,2.34,3.23,2.35,-2.35,-1.59,0.86,0.88,0.87
327.59,3.16,2.27,3.17,2.27,-2.27,-1.52,0.89,0.90,0.90
330.87,3.11,2.19,3.11,2.19,-2.19,-1.45,0.92,0.92,0.92
334.18,3.06,2.12,3.05,2.11,-2.11,-1.38,0.95,0.94,0.94
337.52,2.99,2.03,2.99,2.03,-2.03,-1.31,0.96,0.97,0.96
340.90,2.93,1.94,2.93,1.94,-1.94,-1.24,0.99,0.99,0.99
344.30,2.86,1.85,2.86,1.85,-1.85,-1.17,1.01,1.01,1.01
347.75,2.79,1.75,2.80,1.76,-1.76,-1.10,1.03,1.04,1.04
351.23,2.72,1.65,2.73,1.66,-1.66,-1.03,1.06,1.06,1.07
354.74,2.65,1.56,2.65,1.57,-1.57,-0.97,1.08,1.09,1.09
358.28,2.58,1.47,2.58,1.47,-1.47,-0.90,1.11,1.11,1.11
361.87,2.51,1.37,2.50,1.36,-1.36,-0.84,1.15,1.14,1.14
365.49,2.42,1.26,2.42,1.26,-1.26,-0.77,1.16,1.16,1.16
369.14,2.34,1.16,2.34,1.15,-1.15,-0.71,1.19,1.18,1.18
372.83,2.26,1.06,2.25,1.04,-1.04,-0.64,1.22,1.21,1.20
376.56,2.15,0.93,2.16,0.93,-0.93,-0.58,1.22,1.23,1.22
380.33,2.06,0.82,2.06,0.82,-0.82,-0.52,1.24,1.24,1.24
384.13,1.97,0.71,1.96,0.70,-0.70,-0.46,1.27,1.26,1.26
387.97,1.87,0.60,1.86,0.58,-0.58,-0.40,1.29,1.27,1.27
391.85,1.75,0.47,1.75,0.47,-0.47,-0.34,1.28,1.28,1.28
395.77,1.65,0.36,1.64,0.35,-0.35,-0.28,1.30,1.29,1.29
399.73,1.54,0.24,1.52,0.23,-0.23,-0.22,1.31,1.30,1.30
403.72,1.42,0.12,1.41,0.11,-0.11,-0.16,1.31,1.30,1.31
407.76,1.29,-0.02,1.29,-0.01,0.01,-0.10,1.30,1.30,1.31
411.84,1.17,-0.13,1.18,-0.12,0.12,-0.05,1.29,1.30,1.31
415.96,1.06,-0.24,1.06,-0.23,0.23,0.01,1.29,1.30,1.30
420.12,0.94,-0.35,0.95,-0.34,0.34,0.06,1.28,1.29,1.29
424.32,0.83,-0.46,0.84,-0.44,0.44,0.12,1.27,1.28,1.29
428.56,0.74,-0.54,0.73,-0.54,0.54,0.17,1.28,1.27,1.28
432.85,0.63,-0.64,0.63,-0.63,0.63,0.22,1.27,1.27,1.27
437.18,0.53,-0.73,0.54,-0.72,0.72,0.27,1.25,1.26,1.26
441.55,0.45,-0.80,0.45,-0.80,0.80,0.32,1.25,1.25,1.25
445.96,0.36,-0.88,0.37,-0.87,0.87,0.36,1.23,1.24,1.24
450.42,0.28,-0.96,0.30,-0.93,0.93,0.41,1.21,1.24,1.24
454.93,0.22,-1.01,0.24,-0.99,0.99,0.45,1.21,1.23,1.23
459.48,0.17,-1.06,0.19,-1.04,1.04,0.49,1.21,1.23,1.23
464.07,0.13,-1.09,0.14,-1.08,1.08,0.53,1.21,1.22,1.23
468.71,0.11,-1.11,0.10,-1.11,1.11,0.57,1.22,1.22,1.22
473.40,0.07,-1.15,0.07,-1.14,1.14,0.60,1.21,1.21,1.22
478.13,0.06,-1.16,0.05,-1.16,1.16,0.64,1.22,1.21,1.22
482.91,0.05,-1.17,0.04,-1.17,1.17,0.67,1.23,1.21,1.22
487.74,0.04,-1.18,0.03,-1.18,1.18,0.70,1.22,1.22,1.22
492.62,0.02,-1.20,0.03,-1.19,1.19,0.72,1.21,1.22,1.22
497.55,0.03,-1.19,0.04,-1.18,1.18,0.75,1.21,1.22,1.22
502.52,0.04,-1.18,0.05,-1.18,1.18,0.77,1.22,1.22,1.22
507.55,0.06,-1.16,0.06,-1.17,1.17,0.79,1.23,1.23,1.23
512.62,0.09,-1.14,0.08,-1.15,1.15,0.80,1.24,1.23,1.23
517.75,0.12,-1.12,0.11,-1.14,1.14,0.82,1.26,1.24,1.24
522.93,0.14,-1.11,0.14,-1.12,1.12,0.83,1.26,1.25,1.25
528.16,0.16,-1.10,0.17,-1.09,1.09,0.84,1.26,1.27,1.26
533.44,0.19,-1.09,0.21,-1.07,1.07,0.85,1.26,1.28,1.28
538.77,0.23,-1.06,0.25,-1.05,1.05,0.86,1.28,1.30,1.29
544.16,0.28,-1.03,0.29,-1.02,1.02,0.86,1.30,1.31,1.31
549.60,0.33,-1.00,0.34,-0.99,0.99,0.87,1.32,1.33,1.33
555.10,0.39,-0.96,0.38,-0.96,0.96,0.87,1.35,1.34,1.35
560.65,0.44,-0.92,0.42,-0.93,0.93,0.87,1.38,1.36,1.36
566.25,0.49,-0.89,0.47,-0.90,0.90,0.87,1.40,1.37,1.38
571.92,0.53,-0.87,0.51,-0.87,0.87,0.87,1.40,1.38,1.40
577.64,0.57,-0.84,0.55,-0.84,0.84,0.87,1.41,1.40,1.41
583.41,0.60,-0.82,0.60,-0.81,0.81,0.86,1.41,1.41,1.42
589.25,0.63,-0.80,0.64,-0.78,0.78,0.86,1.41,1.42,1.43
595.14,0.66,-0.78,0.68,-0.75,0.75,0.86,1.41,1.43,1.44
601.09,0.70,-0.74,0.72,-0.72,0.72,0.85,1.42,1.44,1.45
607.10,0.75,-0.70,0.75,-0.69,0.69,0.85,1.44,1.45,1.45
613.17,0.79,-0.67,0.79,-0.67,0.67,0.84,1.46,1.45,1.46
619.30,0.83,-0.63,0.82,-0.64,0.64,0.84,1.47,1.46,1.46
625.50,0.86,-0.61,0.86,-0.62,0.62,0.83,1.48,1.48,1.47
631.75,0.89,-0.59,0.89,-0.60,0.60,0.83,1.49,1.49,1.48
638.07,0.92,-0.57,0.92,-0.58,0.58,0.83,1.50,1.50,1.49
644.45,0.94,-0.56,0.95,-0.57,0.57,0.82,1.51,1.52,1.51
650.89,0.97,-0.55,0.98,-0.56,0.56,0.82,1.53,1.54,1.52
657.40,1.00,-0.54,1.00,-0.56,0.56,0.81,1.56,1.55,1.54
663.98,1.03,-0.53,1.02,-0.55,0.55,0.81,1.59,1.57,1.56
670.62,1.05,-0.53,1.03,-0.56,0.56,0.81,1.61,1.59,1.58
677.32,1.06,-0.54,1.04,-0.56,0.56,0.81,1.62,1.60,1.61
684.10,1.06,-0.56,1.05,-0.57,0.57,0.81,1.63,1.62,1.62
690.94,1.06,-0.58,1.05,-0.58,0.58,0.81,1.64,1.63,1.64
697.85,1.05,-0.60,1.05,-0.59,0.59,0.81,1.64,1.64,1.65
704.83,1.05,-0.61,1.06,-0.60,0.60,0.81,1.65,1.65,1.67
711.87,1.04,-0.63,1.05,-0.61,0.61,0.81,1.65,1.66,1.67
718.99,1.04,-0.64,1.05,-0.61,0.61,0.81,1.65,1.66,1.68
726.18,1.04,-0.64,1.05,-0.62,0.62,0.81,1.66,1.67,1.68
733.44,1.04,-0.64,1.05,-0.62,0.62,0.82,1.66,1.67,1.68
740.78,1.04,-0.63,1.05,-0.61,0.61,0.82,1.65,1.66,1.67
748.19,1.04,-0.63,1.05,-0.61,0.61,0.83,1.65,1.66,1.67
755.67,1.04,-0.62,1.05,-0.60,0.60,0.83,1.64,1.65,1.66
763.23,1.04,-0.60,1.05,-0.59,0.59,0.84,1.63,1.64,1.65
770.86,1.04,-0.59,1.05,-0.57,0.57,0.84,1.61,1.63,1.63
778.57,1.05,-0.56,1.05,-0.56,0.56,0.85,1.61,1.61,1.61
786.35,1.06,-0.53,1.05,-0.54,0.54,0.86,1.60,1.59,1.59
794.22,1.06,-0.51,1.05,-0.52,0.52,0.87,1.58,1.57,1.57
