frequency,raw
20,11.17
21,11.17
22,11.17
23,11.17
24,11.17
25,11.16
26,11.15
27,11.13
28,11.11
29,11.10
30,11.08
31,11.06
32,11.04
33,11.02
34,11.00
35,10.97
36,10.95
37,10.92
38,10.89
39,10.86
40,10.83
41,10.80
42,10.77
43,10.74
44,10.71
45,10.67
46,10.64
47,10.60
48,10.56
49,10.54
50,10.53
51,10.49
52,10.40
53,10.30
54,10.26
55,10.26
56,10.24
57,10.18
58,10.11
59,10.05
60,10.04
61,10.02
62,9.99
63,9.95
64,9.91
65,9.86
66,9.81
67,9.76
68,9.72
69,9.68
70,9.64
71,9.60
72,9.57
73,9.54
74,9.50
75,9.43
76,9.36
77,9.29
78,9.24
79,9.19
80,9.17
81,9.14
82,9.10
83,9.06
84,9.03
85,8.99
86,8.93
87,8.88
88,8.84
89,8.79
90,8.75
91,8.71
92,8.68
93,8.64
94,8.60
95,8.56
96,8.52
97,8.46
98,8.41
99,8.35
100,8.29
101,8.23
102,8.19
104,8.13
105,8.09
106,8.06
107,8.01
108,7.97
109,7.91
110,7.86
111,7.81
112,7.76
113,7.73
114,7.69
115,7.65
117,7.58
118,7.55
119,7.50
120,7.46
121,7.41
123,7.32
124,7.28
125,7.24
126,7.20
128,7.13
129,7.10
130,7.06
131,7.03
133,6.94
134,6.90
135,6.84
137,6.74
138,6.69
140,6.61
141,6.56
142,6.51
144,6.44
145,6.40
147,6.33
148,6.28
150,6.21
151,6.17
153,6.10
154,6.07
156,5.99
157,5.95
159,5.88
160,5.85
162,5.78
164,5.73
165,5.70
167,5.64
169,5.60
170,5.57
172,5.52
174,5.48
175,5.45
177,5.41
179,5.36
181,5.31
183,5.24
184,5.21
186,5.17
188,5.13
190,5.10
192,5.08
194,5.05
196,5.02
198,4.98
200,4.94
202,4.90
204,4.85
206,4.80
208,4.76
210,4.72
212,4.67
214,4.62
216,4.57
218,4.50
221,4.41
223,4.34
225,4.28
227,4.24
229,4.19
232,4.13
234,4.08
236,4.03
239,3.96
241,3.91
244,3.84
246,3.79
248,3.74
251,3.67
253,3.62
256,3.55
259,3.48
261,3.43
264,3.36
266,3.31
269,3.25
272,3.18
274,3.13
277,3.07
280,3.00
283,2.93
286,2.87
288,2.83
291,2.76
294,2.70
297,2.64
300,2.58
303,2.52
306,2.46
309,2.41
312,2.35
316,2.28
319,2.22
322,2.17
325,2.12
328,2.06
332,2.00
335,1.95
338,1.90
342,1.83
345,1.78
349,1.72
352,1.67
356,1.61
359,1.56
363,1.50
366,1.46
370,1.40
374,1.34
377,1.29
381,1.23
385,1.18
389,1.12
393,1.06
397,1.00
401,0.95
405,0.89
409,0.83
413,0.78
417,0.72
421,0.66
425,0.61
430,0.54
434,0.48
438,0.42
443,0.37
447,0.32
451,0.27
456,0.22
460,0.17
465,0.12
470,0.07
474,0.03
479,-0.02
484,-0.07
489,-0.12
494,-0.17
499,-0.22
504,-0.28
509,-0.34
514,-0.40
519,-0.48
524,-0.55
529,-0.61
535,-0.66
540,-0.71
545,-0.74
551,-0.77
556,-0.81
562,-0.85
568,-0.91
573,-0.94
579,-0.99
585,-1.04
591,-1.08
596,-1.12
602,-1.15
608,-1.19
615,-1.23
621,-1.28
627,-1.33
633,-1.38
639,-1.43
646,-1.46
652,-1.48
659,-1.49
665,-1.50
672,-1.52
679,-1.54
686,-1.57
692,-1.59
699,-1.61
706,-1.63
713,-1.64
721,-1.63
728,-1.63
735,-1.63
742,-1.63
750,-1.65
757,-1.66
765,-1.68
773,-1.69
780,-1.68
788,-1.67
796,-1.65
804,-1.62
812,-1.59
820,-1.56
828,-1.54
837,-1.50
845,-1.47
853,-1.43
862,-1.38
871,-1.32
879,-1.28
888,-1.21
897,-1.14
906,-1.06
915,-0.99
924,-0.91
933,-0.82
943,-0.71
952,-0.61
962,-0.48
971,-0.36
981,-0.24
991,-0.11
1001,0.01
1011,0.13
1021,0.26
1031,0.38
1041,0.52
1052,0.67
1062,0.81
1073,0.97
1084,1.14
1094,1.28
1105,1.44
1116,1.60
1128,1.76
1139,1.89
1150,2.02
1162,2.13
1173,2.24
1185,2.35
1197,2.45
1209,2.55
1221,2.65
1233,2.74
1246,2.86
1258,2.96
1271,3.09
1283,3.19
1296,3.30
1309,3.40
1322,3.48
1335,3.56
1349,3.63
1362,3.71
1376,3.81
1390,3.91
1404,4.02
1418,4.11
1432,4.21
1446,4.28
1461,4.36
1475,4.42
1490,4.49
1505,4.58
1520,4.67
1535,4.77
1550,4.88
1566,4.98
1582,5.08
1597,5.18
1613,5.26
1629,5.36
1646,5.47
1662,5.56
1679,5.66
1696,5.77
1713,5.88
1730,5.99
1747,6.11
1764,6.24
1782,6.37
1800,6.50
1818,6.64
1836,6.77
1854,6.89
1873,7.04
1892,7.18
1911,7.33
1930,7.48
1949,7.63
1969,7.78
1988,7.94
2008,8.11
2028,8.29
2048,8.49
2069,8.68
2090,8.90
2111,9.10
2132,9.30
2153,9.50
2175,9.70
2196,9.89
2218,10.10
2240,10.30
2263,10.51
2285,10.73
2308,10.93
2331,11.13
2355,11.31
2378,11.47
2402,11.63
2426,11.78
2450,11.92
2475,12.07
2500,12.21
2525,12.34
2550,12.46
2575,12.55
2601,12.62
2627,12.64
2653,12.62
2680,12.56
2707,12.46
2734,12.32
2761,12.17
2789,11.97
2817,11.79
2845,11.59
2873,11.40
2902,11.21
2931,11.00
2960,10.79
2990,10.56
3020,10.32
3050,10.08
3080,9.84
3111,9.59
3142,9.33
3174,9.07
3206,8.80
3238,8.53
3270,8.26
3303,7.99
3336,7.75
3369,7.50
3403,7.27
3437,7.03
3471,6.83
3506,6.62
3541,6.40
3576,6.18
3612,5.96
3648,5.74
3685,5.52
3721,5.32
3759,5.12
3796,4.93
3834,4.74
3873,4.58
3911,4.43
3950,4.28
3990,4.13
4030,3.96
4070,3.80
4111,3.65
4152,3.49
4193,3.34
4235,3.20
4278,3.06
4321,2.94
4364,2.82
4407,2.72
4451,2.65
4496,2.59
4541,2.54
4586,2.49
4632,2.45
4679,2.40
4725,2.36
4773,2.32
4820,2.26
4868,2.19
4917,2.12
4966,2.05
5016,1.99
5066,1.94
5117,1.91
5168,1.92
5220,1.94
5272,1.97
5325,2.03
5378,2.09
5432,2.16
5486,2.24
5541,2.32
5596,2.40
5652,2.51
5709,2.64
5766,2.75
5823,2.88
5882,3.03
5940,3.19
6000,3.36
6060,3.58
6120,3.82
6182,4.09
6244,4.40
6306,4.73
6369,5.07
6433,5.46
6497,5.88
6562,6.36
6628,6.88
6694,7.43
6761,8.00
6828,8.59
6897,9.20
6966,9.80
7035,10.40
7106,10.93
7177,11.41
7249,11.81
7321,12.03
7394,12.06
7468,11.93
7543,11.60
7618,11.14
7694,10.58
7771,9.94
7849,9.26
7928,8.55
8007,7.82
8087,7.13
8168,6.44
8250,5.80
8332,5.24
8415,4.74
8499,4.25
8584,3.73
8670,3.18
8757,2.61
8845,2.09
8933,1.77
9022,1.34
9113,1.16
9204,1.13
9296,1.09
9389,1.02
9483,0.99
9577,0.98
9673,1.02
9770,1.18
9868,1.41
9966,1.70
10066,2.06
10167,2.50
10268,3.00
10371,3.53
10475,4.08
10579,4.68
10685,5.31
10792,5.77
10900,6.06
11009,6.18
11119,5.90
11230,5.38
11343,4.73
11456,4.04
11571,2.58
11686,0.64
11803,-0.58
11921,-2.01
12040,-3.37
12161,-4.39
12282,-5.66
12405,-6.88
12529,-7.96
12655,-8.95
12781,-9.85
12909,-10.72
13038,-11.52
13168,-12.31
13300,-13.05
13433,-13.61
13567,-14.17
13703,-14.72
13840,-15.33
13978,-15.88
14118,-16.41
14259,-16.92
14402,-17.40
14546,-17.85
14692,-18.30
14838,-18.71
14987,-19.10
15137,-19.47
15288,-19.80
15441,-20.11
15595,-20.41
15751,-20.67
15909,-20.91
16068,-21.12
16229,-21.30
16391,-21.45
16555,-21.58
16720,-21.69
16888,-21.75
17056,-21.78
17227,-21.80
17399,-21.75
17573,-21.67
17749,-21.55
17926,-21.36
18106,-21.11
18287,-20.81
18470,-20.43
18654,-19.95
18841,-19.39
19029,-18.77
19220,-18.09
19412,-17.42
19606,-16.78
19802,-16.40
20000,-16.25
