frequency,raw,error,smoothed,error_smoothed,equalization,equalized_raw,equalized_smoothed,target
20,-7.086564675531309,-11.207185426139223,-7.0975953484640435,-11.21823434364231,5.999999999999998,-1.086564675531311,-1.0975953484640453,4.120620750607913
21,-6.634619608637004,-10.786854753346336,-6.6831000365228785,-10.835324557036493,6.0,-0.6346196086370037,-0.6831000365228785,4.152235144709332
22,-6.392840644688213,-10.573289124711708,-6.283585746738615,-10.464012165099733,5.999999999999998,-0.39284064468821445,-0.28358574673861714,4.180448480023496
23,-5.909667579027396,-10.114926929348933,-5.899052479111252,-10.104297167832026,6.000000000000001,0.0903324209726053,0.1009475208887487,4.205259350321538
24,-5.505339028320824,-9.73200512477506,-5.5295002336407855,-9.756179565233365,5.999999999999997,0.4946609716791732,0.47049976635921187,4.2266660964542355
25,-5.088015414507142,-9.332682189412939,-5.175621729365847,-9.42036043010022,6.000000000000002,0.9119845854928599,0.8243782706341545,4.244666774905798
26,-4.82632831171408,-9.08558743576434,-4.836354472650767,-9.095772878892229,6.000000000000001,1.1736716882859213,1.1636455273492343,4.259259124050261
27,-4.599787721863431,-8.870297195573972,-4.510995591030108,-8.781705688759587,6.0,1.4002122781365687,1.4890044089698922,4.270509473710542
28,-4.160571709353726,-8.438933349939674,-4.198968706544316,-8.477563007733274,5.999999999999999,1.8394282906462731,1.801031293455683,4.278361640585948
29,-3.920419120335689,-8.2032058118474,-3.9001091724830736,-8.183145193374443,6.0,2.079580879664311,2.0998908275169264,4.282786691511712
30,-3.6972455549141774,-7.980983243574972,-3.615099778968273,-7.899083233606038,6.0,2.3027544450858226,2.384900221031727,4.2837376886607945
31,-3.318516182471207,-7.599663049346086,-3.3450167018712067,-7.6263817287111255,5.999999999999998,2.6814838175287914,2.6549832981287915,4.281146866874879
32,-3.028398987714439,-7.303323269240904,-3.090911921151818,-7.366001454118429,6.000000000000001,2.971601012285562,2.9090880788481828,4.274924281526465
33,-2.8292389695379914,-7.0941975899461855,-2.8531979278824315,-7.118245896267466,6.0,3.1707610304620086,3.1468020721175685,4.264958620408194
34,-2.590772626433848,-6.841904682368886,-2.63112628829149,-6.882243592659556,5.999999999999998,3.40922737356615,3.3688737117085084,4.251132055935038
35,-2.4383993126142967,-6.671713873872433,-2.422692121347378,-6.655858901154984,6.000000000000001,3.5616006873857042,3.577307878652623,4.233314561258136
36,-2.162057289984668,-6.373432407487993,-2.224946806589962,-6.4360131467662,5.999999999999999,3.837942710015331,3.775053193410037,4.211375117503325
37,-2.13359804860646,-6.318790253543282,-2.0346932108840936,-6.21939056324714,5.951524716218769,3.817926667612309,3.916831505334675,4.185192204936822
38,-1.8952268897826479,-6.049893340922091,-1.8493276737506865,-6.003293146516447,5.850450511351472,3.955223621568824,4.001122837600786,4.154666451139444
39,-1.7206327200822678,-5.840367809928033,-1.6675254152751757,-5.78634081195953,5.70110360244662,3.9804708823643526,4.033578187171445,4.119735089845765
40,-1.4951782244380873,-5.575565986357551,-1.4895424817350675,-5.568789613333993,5.525798483628523,4.030620259190435,4.036256001893456,4.0803877619194635
41,-1.269490934331154,-5.306175846372217,-1.317029190733912,-5.352362390962938,5.338327031919243,4.068836097588089,4.021297841185331,4.036684912041063
42,-1.0875380040188432,-5.076313431972429,-1.1524324074142445,-5.139668410068758,5.139668410068759,4.0521304060499155,3.987236002654514,3.9887754279535863
43,-1.0304395185713706,-4.9673534039507565,-0.9982022314103106,-4.933426631894925,4.933426631894926,3.902987113323555,3.935224400484615,3.9369138853793864
44,-0.7975869630310757,-4.679063065848435,-0.856068627091819,-4.735757083869768,4.735757083869767,3.938170120838691,3.8796884567779477,3.881476102817359
45,-0.7932937852155637,-4.616265625714634,-0.726612688340218,-4.547763894968489,4.547763894968487,3.7544701097529227,3.8211512066282687,3.8229718404990702
46,-0.5619714341707571,-4.324024869295125,-0.6092413505181964,-4.369517689237471,4.369517689237472,3.8075462550667147,3.760276338719275,3.762053435124368
47,-0.559292797970383,-4.258811986697389,-0.5025326569445923,-4.200403404090041,4.200403404090039,3.641110606119656,3.697870747145447,3.699519188727006
48,-0.3291517750112478,-3.965462508314893,-0.40479957548419554,-4.039680640296366,4.039680640296367,3.710528865285119,3.634881064812171,3.6363107333036453
49,-0.3273074387528483,-3.9008109799194752,-0.31466009171925385,-3.8870436017434873,3.8870436017434873,3.5597361629906388,3.5723835100242334,3.573503541166627
50,-0.3260175386773527,-3.838307693086433,-0.23141347792849615,-3.7429801383153043,3.7429801383153047,3.416962599637952,3.5115666603868085,3.5122901544090803
51,-0.09764286792326948,-3.551598906526732,-0.15510031414747177,-3.6088074155547556,3.6088074155547556,3.511164547631486,3.453707101407284,3.453956038603463
52,-0.09814777355711235,-3.4979961250355602,-0.08624207950284317,-3.4863803452644273,3.4863803452644273,3.3882325717073147,3.400138265761584,3.3998483514784477
53,-0.09940526439042041,-3.4507435800257262,-0.02537668271488924,-3.3775898466751744,3.3775898466751753,3.278184582284755,3.352213163960286,3.351338315635306
54,0.1269988106772233,-3.1827794573068493,0.027414112381727928,-3.2838479739297757,3.2838479739297752,3.4108467846069983,3.311262086311503,3.309778267984073
55,0.12576177164631663,-3.150693075216269,0.07278281096996712,-3.2057638956831442,3.2057638956831447,3.331525667329461,3.278546706653112,3.2764548468625856
56,0.12509763047822364,-3.127442456135304,0.1120682143326881,-3.143144103351819,3.14314410335182,3.2682417338300436,3.2552123176845082,3.2525400866135277
57,0.12491457422415642,-3.1141278595987965,0.14691271163140782,-3.0953274434830114,3.0953274434830105,3.220242017707167,3.2422401551144184,3.239042433822953
58,0.12484052603842355,-3.111919324583905,0.1786642482330396,-3.061737657539367,3.061737657539367,3.18657818357779,3.2404019057724067,3.2367598506223283
59,0.1245176750103616,-3.121719540768262,0.2077622146961951,-3.042456315652238,3.042456315652238,3.1669739906625995,3.2502185303484334,3.2462372157786232
60,0.12389927377136556,-3.1438308910806745,0.2333072690899306,-3.0386181879801972,3.0386181879801972,3.1625174617515626,3.271925457070128,3.26773016485204
61,0.35127085880650566,-2.9499064640443597,0.2529440654857979,-3.0525019516975744,3.052501951697575,3.4037728105040808,3.305446017183373,3.301177322850865
62,0.35139297725831065,-2.994789608438392,0.2630828957396273,-3.0872918061959895,3.0872918061959886,3.438684783454299,3.350374701935616,3.346182585696703
63,0.35265576052894887,-3.0493529493542164,0.2593974765156817,-3.1465739592003006,3.1465739592003006,3.4992297197292492,3.4059714357159825,3.4020087098831655
64,0.1271237569527619,-3.3404592352125317,0.23748779357881675,-3.233679805344586,3.233679805344587,3.360803562297349,3.4711675989234037,3.4675829921652936
65,0.12999052388616317,-3.411524762852526,0.19358767484994283,-3.350996344775041,3.35099634477504,3.480986868661203,3.544584019624983,3.541515286738689
66,0.1321875895495157,-3.4899404545785995,0.1252039078925285,-3.4993567045179153,3.4993567045179157,3.6315442940674316,3.6245606124104444,3.6221280441281154
67,0.13239388941112118,-3.575103604812087,0.03157443452774653,-3.6776223695584154,3.6776223695584145,3.8100162589695357,3.709196804086161,3.707497494223208
68,-0.09843250380181123,-3.893937069936405,-0.08617033611625695,-3.8825717137412044,3.8825717137412044,3.784139209939393,3.7964013776249472,3.7955045661345936
69,-0.13131179700633155,-4.015205466432616,-0.22523698371812062,-4.109186900972519,4.109186900972519,3.9778751039661877,3.8839499172543985,3.8838936694262842
70,-0.34341020043763315,-4.313747281415305,-0.38180323639650754,-4.351350911487531,4.35135091148753,4.007940711049897,3.9695476750910226,3.970337080977672
71,-0.584805453275969,-4.637307863864123,-0.5519334777182192,-4.602828900193592,4.602828900193593,4.018023446917624,4.050895422475374,4.052502410588154
72,-0.8351121515279558,-4.963232623096261,-0.7325052321377736,-4.858260939949111,4.85826093994911,4.023148788421154,4.1257557078113365,4.128120471568305
73,-1.0712850199347255,-5.266335887833508,-0.9217968222797044,-5.1138137434759425,5.113813743475943,4.042528723541218,4.192016921196239,4.195050867898782
74,-1.0849980210946333,-5.336340748453712,-1.1194427302525487,-5.367195402902798,5.367195402902798,4.282197381808165,4.2477526726502495,4.251342727359079
75,-1.2658768882247409,-5.561165141150111,-1.3256690492190801,-5.616943267332512,5.576871089237625,4.310994201012884,4.251202040018545,4.295288252925371
76,-1.393861402634227,-5.719328520812246,-1.5400111025272254,-5.8611851145480856,5.737586627517185,4.343725224882958,4.19757552498996,4.325467118178018
77,-1.7423884141135026,-6.083168589855154,-1.7599639920748154,-6.096322915999849,5.851249514416542,4.10886110030304,4.091285522341727,4.340780175741651
78,-1.8575411447251857,-6.1980126001261855,-1.9801019252646839,-6.31617411924993,5.9285181327573895,4.0709769880322035,3.9484162074927056,4.3404714554009995
79,-2.1977300531547175,-6.5218680250020125,-2.192069428145687,-6.5119731589645315,5.977753839285684,3.780023786130967,3.7856844111399974,4.3241379718472945
80,-2.4914966836584336,-6.78322409471659,-2.385540948421052,-6.67332972259112,6.0,3.5085033163415664,3.614459051578948,4.291727411058156
81,-2.650295875413544,-6.893820165128912,-2.5498902450360355,-6.789885465835576,6.0,3.349704124586456,3.4501097549639645,4.243524289715368
82,-2.7517712671124364,-6.9318969239115305,-2.676056989776079,-6.853157146964347,6.0,3.2482287328875636,3.323943010223921,4.180125656799094
83,-2.7737308613473175,-6.876138668842237,-2.7580492687468707,-6.85800580143585,5.999999999999999,3.2262691386526816,3.2419507312531284,4.102407807494919
84,-2.7963808683499147,-6.807866657320537,-2.7936859020638805,-6.803337581688327,5.999999999999999,3.2036191316500844,3.2063140979361187,4.011485788970623
85,-2.817106169652063,-6.725773853350599,-2.784475740734876,-6.691936349641409,5.999999999999999,3.182893830347936,3.215524259265123,3.908667683698537
86,-2.7075144596999436,-6.502920213360159,-2.734820919199018,-6.529619199724362,5.999999999999999,3.2924855403000555,3.2651790808009813,3.795405753660216
87,-2.61918036793332,-6.292426887315446,-2.650904963594672,-6.324080416147995,5.947577116517241,3.328396748583921,3.296672152922569,3.673246519382126
88,-2.580650566271612,-6.124432305126817,-2.5396362878650836,-6.083797551926832,5.835684539312794,3.255033973041182,3.2960482514477105,3.543781738855204
89,-2.408636319946252,-5.817238375785157,-2.40789154670375,-5.817243639099594,5.666370979238864,3.2577346592926117,3.258479432535114,3.4086020558389056
90,-2.232199453595179,-5.501454275470001,-2.2621214029559455,-5.532462823246874,5.454193699038561,3.2219942454433825,3.192072296082616,3.2692548218748225
91,-2.1778354122868593,-5.305042693692955,-2.1082309594067423,-5.2369126355421205,5.210858396817005,3.0330229845301457,3.1026274374102627,3.1272072814060956
92,-1.9008151438771101,-4.884631109846746,-1.9515810261246798,-4.937410301253463,4.937410301253462,3.036595157376352,2.9858292751287823,2.9838159659696353
93,-1.7651645247148422,-4.6054673173970695,-1.7969772059077163,-4.640047671436157,4.6400476714361565,2.8748831467213143,2.8430704655284402,2.8403027926822273
94,-1.592305002644554,-4.290043026586298,-1.6485868167446776,-4.350024163147957,4.350024163147957,2.757719160503403,2.7014373464032793,2.697738023941744
95,-1.5606909378332912,-4.117720874430715,-1.5098022869871248,-4.071438557145092,4.071438557145093,2.510747619311802,2.5616362701579685,2.5570299365974236
96,-1.365744082369031,-3.7846648658929696,-1.3831176910102605,-3.8071359198296486,3.807135919829649,2.441391837460618,2.4240182288193886,2.4189207835239386
97,-1.2827893904616863,-3.566777808686826,-1.2700903760549096,-3.5587072311286385,3.558707231128638,2.275917840666952,2.2886168550737285,2.2839884182251398
98,-1.1806389715680758,-3.33329177071822,-1.1714301259678677,-3.3266924728331926,3.3266924728331935,2.1460535012651176,2.155262346865326,2.152652799150144
99,-1.0141732499070821,-3.0393597458535986,-1.087213033896305,-3.11096591311611,3.110965913116109,2.096792663209027,2.023752879219804,2.0251864959465165
100,-0.9905308719372279,-2.8922591540891034,-1.0171738577187648,-2.911212582457498,2.911212582457498,1.9206817105202703,1.8940387247387334,1.9017282821518755
101,-1.0079639171805117,-2.7902628290038525,-0.9610010831402365,-2.7273612954276163,2.7273612954276167,1.719397378247105,1.7663602122873803,1.7822989118233408
102,-1.0260585623258822,-2.692876795160172,-0.9185506163708568,-2.5598378076946617,2.5598378076946613,1.533779245368779,1.6412871913238045,1.6668182328342898
104,-0.8182993440060478,-2.3114575957977928,-0.8899117306598505,-2.409546986031706,2.4095469860317054,1.5912476420256576,1.5196352553718548,1.493158251791745
105,-0.84140020525365,-2.2263385754821727,-0.8753023863785421,-2.2775766296268074,2.2775766296268074,1.4361764243731574,1.4022742432482653,1.3849383702285227
106,-0.8674243893973961,-2.1475441490037985,-0.874832542010439,-2.1647156300032573,2.1647156300032573,1.2972912406058612,1.2898830879928183,1.2801197596064027
107,-0.8954357491612099,-2.0738253838138796,-0.8882342424965837,-2.070961231695713,2.070961231695713,1.175525482534503,1.1827269891991292,1.1783896346526697
108,-0.9238731687119486,-2.003289622025166,-0.9146908124844364,-1.9952197185624225,1.9952197185624223,1.0713465498504737,1.080528906077986,1.0794164533132178
109,-0.9510365663835454,-1.9338997283987218,-0.9528810603209155,-1.9353594053879184,1.9353594053879186,0.9843228390043732,0.9824783450670032,0.9828631620151764
110,-0.9755544680662559,-1.8639532995662562,-1.0012794291385876,-1.8886562160935845,1.8886562160935845,0.9131017480273286,0.8873767869549969,0.8883988315000004
111,-1.0040412908238212,-1.799749927425958,-1.0586369543262146,-1.8525134775043743,1.8525134775043748,0.8484721866805536,0.7938765231781602,0.7957086366021369
112,-1.2419541105199574,-1.9464562917242765,-1.1244547174203539,-1.8251974728885916,1.8251974728885922,0.5832433623686348,0.7007427554682384,0.7045021812043191
113,-1.2556987940436886,-1.8702189952973323,-1.199205057126894,-1.8062712010795399,1.8062712010795394,0.5505724070358509,0.6070661439526455,0.6145202012536437
114,-1.2658422875706294,-1.7913819848895096,-1.284096947835014,-1.796471078835799,1.7964710788357994,0.5306287912651699,0.5123741310007854,0.5255396973188802
115,-1.2723552071382054,-1.7097327647226623,-1.3803255209331082,-1.7969508124792193,1.7969508124792197,0.5245956053410143,0.4166252915461115,0.43737755758445696
117,-1.5031621645459066,-1.7983421849485537,-1.4879530134530903,-1.808060960536085,1.8080609605360842,0.30489879599017766,0.32010794708299395,0.2951800204026471
118,-1.5246787132826762,-1.7340776643921059,-1.6047631036328331,-1.828052602084801,1.8280526020848005,0.30337388880212424,0.22328949845196733,0.20939895110942963
119,-1.7272833830598757,-1.8514713849870246,-1.725525988228001,-1.8521951873806812,1.852195187380681,0.12491180432080529,0.12666919915268005,0.12418800192714885
120,-1.730688545601617,-1.7702136326835558,-1.842050755074002,-1.87272549679045,1.87272549679045,0.14203695118883308,0.03067474171644813,0.0395250870819388
121,-1.9428254897194466,-1.8982516322854868,-1.9441863162782496,-1.8798052954732285,1.8798052954732287,-0.06302019424621785,-0.06438102080502084,-0.04457385743395981
123,-2.164771108106544,-1.9893140530356694,-2.0216255051408134,-1.8633336735039163,1.8633336735039165,-0.3014374346026276,-0.15829183163689686,-0.17545705507087472
124,-2.1581118501396306,-1.901170142530369,-2.066075104383197,-1.8151523280001272,1.8151523280001274,-0.3429595221395032,-0.2509227763830695,-0.2569417076092615
125,-2.151854448769166,-1.8142350951414823,-2.073187500792762,-1.7310129154513032,1.7310129154513032,-0.4208415333178628,-0.3421745853414586,-0.3376193536276837
126,-2.146288740168618,-1.7289159118765545,-2.043678449405674,-1.6117142947253371,1.6117142947253367,-0.5345744454432815,-0.4319641546803372,-0.4173728282920637
128,-2.029336308118152,-1.4924402657923557,-1.9832785099829686,-1.4630554577286852,1.4630554577286858,-0.5662808503894663,-0.5202230522542828,-0.5368960423257965
129,-1.8210871391303622,-1.2079869323966084,-1.9015088361149486,-1.294605101965184,1.2946051019651843,-0.5264820371651779,-0.6069037341497643,-0.6131002067337539
130,-1.6804094875380435,-0.99241944873749,-1.8096197774921436,-1.1176401766241448,1.117640176624145,-0.5627693109138985,-0.6919796008679986,-0.6879900388005535
131,-1.6794099662229656,-0.9179728781862517,-1.7182677350636983,-0.9428369521018557,0.9428369521018557,-0.7365730141211099,-0.7754307829618426,-0.7614370880367138
133,-1.6791834358313147,-0.8114091718661269,-1.635555350462314,-0.7783369893871264,0.7783369893871265,-0.9008464464441882,-0.8572183610751875,-0.8677742639651878
134,-1.5005760497587604,-0.5637985303338169,-1.5659132983283488,-0.6286544443668971,0.6286544443668972,-0.8719216053918631,-0.9372588539614516,-0.9367775194249435
135,-1.4519737141184983,-0.44792473473167216,-1.5100175493167294,-0.49460456887540083,0.494604568875401,-0.9573691452430972,-1.0154129804413283,-1.0040489793868261
137,-1.4527144063450772,-0.353446330896096,-1.4656168880536766,-0.3741199979949148,0.3741199979949147,-1.0785944083501624,-1.091496890058762,-1.0992680754489812
138,-1.4537633598765787,-0.2919853279385576,-1.4288979919471405,-0.2635843347484693,0.2635843347484694,-1.1901790251281092,-1.165313657198671,-1.161778031938021
140,-1.4550700450505243,-0.2061202145697587,-1.395915178160569,-0.159222155629358,0.15922215562935796,-1.2958478894211662,-1.236693022531211,-1.2489498304807656
141,-1.4563680670544903,-0.14965834520844945,-1.3636814276036437,-0.05815821464607518,0.058158214646075186,-1.398209852408415,-1.3055232129575685,-1.3067097218460408
142,-1.347183153375276,0.015435500969402716,-1.330715468323013,0.04104686386537326,-0.041046863865373276,-1.3882300172406494,-1.3717623321883863,-1.3626186543446788
144,-1.2294373822387743,0.2098859927886234,-1.2970780851587396,0.13834813341167485,-0.1383481334116748,-1.367785515650449,-1.4354262185704143,-1.4393233750273977
145,-1.228826666080741,0.2618271385089015,-1.2641100479120277,0.2324498831663285,-0.2324498831663285,-1.4612765492470694,-1.4965599310783562,-1.4906538045896425
147,-1.227965929951869,0.3322772244389802,-1.234132683357738,0.3210735503963552,-0.3210735503963552,-1.5490394803482244,-1.555206233754093,-1.5602431543908493
148,-1.227594719670618,0.3795826447528592,-1.2102771833848491,0.4011069711430072,-0.4011069711430072,-1.6287016908136254,-1.6113841545278564,-1.6071773644234773
150,-1.228327596150828,0.4417563411436989,-1.1964231407505066,0.4686615961260777,-0.4686615961260777,-1.6969891922769058,-1.6650847368765844,-1.6700839372945269
151,-1.230317019691495,0.48243481785082043,-1.1970512917198708,0.5192311530239243,-0.5192311530239243,-1.7495481727154192,-1.7162824447437952,-1.7127518375423154
153,-1.2332045094622084,0.5361076961766196,-1.2167530401646767,0.5482006088402382,-0.5482006088402382,-1.7814051183024466,-1.764953649004915,-1.769312205638828
154,-1.236410716253058,0.5713298966033422,-1.2592417835921845,0.5518495846056628,-0.5518495846056628,-1.7882603008587208,-1.8110913681978473,-1.8077406128564002
156,-1.2395784584315208,0.6185782388442898,-1.3259512549127666,0.5287572317244862,-0.5287572317244864,-1.7683356901560072,-1.854708486637253,-1.8581566972758106
157,-1.2616759345997286,0.6305771630998462,-1.4145829813841413,0.4812450448585597,-0.4812450448585596,-1.7429209794582883,-1.895828026242701,-1.8922530976995748
159,-1.4748410398760543,0.461753804800922,-1.518143379200352,0.4163220967396032,-0.4163220967396032,-1.8911631366156576,-1.9344654759399553,-1.9365948446769763
