frequency,raw,error,smoothed,error_smoothed,equalization,parametric_eq,fixed_band_eq,equalized_raw,equalized_smoothed,target
20.00,13.46,8.58,13.44,8.54,-8.54,-8.22,-4.26,4.93,4.90,4.88
20.20,13.51,8.60,13.51,8.58,-8.58,-8.30,-4.37,4.93,4.93,4.91
20.40,13.57,8.63,13.57,8.63,-8.63,-8.39,-4.49,4.95,4.95,4.94
20.61,13.62,8.66,13.64,8.67,-8.67,-8.47,-4.61,4.95,4.97,4.96
20.81,13.68,8.68,13.70,8.71,-8.71,-8.56,-4.73,4.96,4.98,4.99
21.02,13.73,8.71,13.75,8.76,-8.76,-8.64,-4.86,4.98,5.00,5.02
21.23,13.79,8.76,13.81,8.80,-8.80,-8.72,-4.99,5.00,5.01,5.03
21.44,13.86,8.81,13.86,8.84,-8.84,-8.79,-5.13,5.02,5.02,5.04
21.66,13.92,8.87,13.92,8.88,-8.88,-8.87,-5.27,5.04,5.04,5.05
21.87,13.99,8.93,13.97,8.92,-8.92,-8.94,-5.41,5.06,5.05,5.05
22.09,14.04,8.98,14.01,8.96,-8.96,-9.01,-5.55,5.08,5.05,5.06
22.31,14.08,9.01,14.06,9.00,-9.00,-9.08,-5.70,5.07,5.06,5.06
22.54,14.11,9.05,14.10,9.04,-9.04,-9.14,-5.86,5.07,5.06,5.06
22.76,14.14,9.09,14.15,9.09,-9.09,-9.21,-6.02,5.06,5.06,5.06
22.99,14.18,9.14,14.19,9.13,-9.13,-9.27,-6.18,5.06,5.06,5.05
23.22,14.21,9.17,14.22,9.17,-9.17,-9.32,-6.35,5.05,5.06,5.05
23.45,14.24,9.20,14.26,9.20,-9.20,-9.37,-6.52,5.04,5.06,5.05
23.69,14.28,9.24,14.29,9.24,-9.24,-9.42,-6.69,5.05,5.05,5.05
23.92,14.31,9.27,14.32,9.27,-9.27,-9.47,-6.87,5.05,5.05,5.05
24.16,14.34,9.29,14.35,9.30,-9.30,-9.51,-7.05,5.05,5.05,5.06
24.40,14.37,9.32,14.37,9.33,-9.33,-9.55,-7.24,5.05,5.05,5.06
24.65,14.40,9.36,14.40,9.36,-9.36,-9.59,-7.42,5.05,5.05,5.05
24.89,14.43,9.39,14.43,9.38,-9.38,-9.62,-7.62,5.05,5.05,5.05
25.14,14.45,9.41,14.45,9.41,-9.41,-9.65,-7.81,5.04,5.04,5.05
25.39,14.47,9.43,14.48,9.44,-9.44,-9.67,-8.01,5.04,5.04,5.04
25.65,14.49,9.45,14.50,9.46,-9.46,-9.69,-8.21,5.04,5.04,5.04
25.91,14.51,9.48,14.52,9.48,-9.48,-9.71,-8.42,5.04,5.04,5.03
26.16,14.53,9.50,14.54,9.50,-9.50,-9.72,-8.62,5.04,5.04,5.03
26.43,14.55,9.52,14.55,9.51,-9.51,-9.73,-8.83,5.04,5.03,5.03
26.69,14.56,9.53,14.56,9.53,-9.53,-9.74,-9.03,5.04,5.03,5.03
26.96,14.58,9.55,14.57,9.54,-9.54,-9.74,-9.23,5.04,5.03,5.03
27.23,14.58,9.55,14.58,9.55,-9.55,-9.74,-9.44,5.03,5.03,5.03
27.50,14.58,9.55,14.58,9.56,-9.56,-9.74,-9.64,5.03,5.02,5.03
27.77,14.58,9.57,14.58,9.56,-9.56,-9.73,-9.83,5.02,5.02,5.02
28.05,14.58,9.57,14.59,9.57,-9.57,-9.72,-10.02,5.02,5.02,5.02
28.33,14.57,9.57,14.59,9.57,-9.57,-9.70,-10.20,5.00,5.01,5.01
28.62,14.57,9.57,14.58,9.57,-9.57,-9.68,-10.38,5.00,5.01,5.01
28.90,14.56,9.56,14.58,9.57,-9.57,-9.66,-10.54,4.99,5.01,5.01
29.19,14.56,9.57,14.57,9.57,-9.57,-9.64,-10.69,5.00,5.00,4.99
29.48,14.55,9.55,14.56,9.56,-9.56,-9.61,-10.83,4.99,5.00,5.00
29.78,14.54,9.55,14.55,9.56,-9.56,-9.58,-10.96,4.99,4.99,4.99
30.08,14.54,9.55,14.53,9.55,-9.55,-9.55,-11.07,5.00,4.99,4.99
30.38,14.52,9.54,14.52,9.54,-9.54,-9.52,-11.16,4.99,4.98,4.98
30.68,14.50,9.52,14.50,9.52,-9.52,-9.48,-11.23,4.98,4.98,4.98
30.99,14.48,9.52,14.47,9.50,-9.50,-9.44,-11.28,4.98,4.97,4.97
31.30,14.45,9.49,14.45,9.48,-9.48,-9.40,-11.32,4.98,4.97,4.97
31.61,14.41,9.45,14.42,9.45,-9.45,-9.36,-11.33,4.96,4.96,4.97
31.93,14.38,9.43,14.38,9.43,-9.43,-9.32,-11.32,4.96,4.96,4.96
32.24,14.34,9.40,14.34,9.39,-9.39,-9.28,-11.30,4.95,4.95,4.94
32.57,14.30,9.36,14.30,9.36,-9.36,-9.23,-11.25,4.95,4.94,4.94
32.89,14.26,9.32,14.26,9.32,-9.32,-9.18,-11.19,4.95,4.94,4.94
33.22,14.21,9.29,14.21,9.28,-9.28,-9.13,-11.12,4.94,4.93,4.93
33.55,14.15,9.23,14.16,9.23,-9.23,-9.08,-11.02,4.92,4.92,4.93
33.89,14.09,9.18,14.11,9.19,-9.19,-9.04,-10.92,4.90,4.92,4.92
34.23,14.04,9.13,14.05,9.15,-9.15,-8.98,-10.81,4.90,4.91,4.91
34.57,13.99,9.09,14.00,9.10,-9.10,-8.93,-10.68,4.90,4.90,4.90
34.92,13.95,9.05,13.95,9.05,-9.05,-8.88,-10.55,4.89,4.89,4.89
35.27,13.89,9.00,13.89,9.00,-9.00,-8.83,-10.41,4.88,4.89,4.89
35.62,13.82,8.95,13.83,8.95,-8.95,-8.78,-10.27,4.87,4.88,4.88
35.97,13.76,8.90,13.77,8.90,-8.90,-8.73,-10.13,4.86,4.87,4.86
36.33,13.71,8.85,13.71,8.85,-8.85,-8.67,-9.98,4.86,4.86,4.86
36.70,13.65,8.80,13.65,8.80,-8.80,-8.62,-9.83,4.85,4.85,4.85
37.06,13.59,8.76,13.59,8.75,-8.75,-8.57,-9.68,4.85,4.84,4.84
37.43,13.52,8.69,13.52,8.69,-8.69,-8.52,-9.53,4.83,4.83,4.84
37.81,13.45,8.63,13.46,8.64,-8.64,-8.46,-9.39,4.82,4.82,4.82
38.19,13.38,8.57,13.39,8.57,-8.57,-8.41,-9.25,4.81,4.81,4.81
38.57,13.31,8.51,13.31,8.51,-8.51,-8.36,-9.10,4.81,4.80,4.81
38.95,13.24,8.45,13.24,8.44,-8.44,-8.31,-8.97,4.80,4.79,4.79
39.34,13.15,8.37,13.16,8.37,-8.37,-8.26,-8.84,4.78,4.78,4.78
39.74,13.07,8.31,13.07,8.30,-8.30,-8.21,-8.71,4.78,4.78,4.77
40.14,12.99,8.22,12.98,8.22,-8.22,-8.16,-8.58,4.77,4.77,4.77
40.54,12.90,8.14,12.89,8.13,-8.13,-8.11,-8.46,4.76,4.76,4.75
40.94,12.79,8.05,12.79,8.04,-8.04,-8.06,-8.35,4.75,4.75,4.75
41.35,12.70,7.97,12.69,7.95,-7.95,-8.02,-8.24,4.75,4.74,4.73
41.76,12.60,7.87,12.59,7.86,-7.86,-7.97,-8.14,4.74,4.73,4.73
42.18,12.49,7.77,12.48,7.77,-7.77,-7.93,-8.04,4.73,4.72,4.73
42.60,12.38,7.67,12.38,7.67,-7.67,-7.88,-7.95,4.71,4.71,4.71
43.03,12.27,7.57,12.27,7.57,-7.57,-7.84,-7.86,4.70,4.70,4.71
43.46,12.15,7.46,12.16,7.47,-7.47,-7.79,-7.78,4.68,4.68,4.69
43.90,12.04,7.37,12.05,7.37,-7.37,-7.75,-7.70,4.66,4.67,4.67
44.33,11.92,7.27,11.93,7.27,-7.27,-7.71,-7.63,4.65,4.66,4.66
44.78,11.82,7.17,11.82,7.18,-7.18,-7.67,-7.56,4.64,4.65,4.64
45.23,11.72,7.09,11.71,7.08,-7.08,-7.63,-7.50,4.64,4.63,4.63
45.68,11.62,7.01,11.60,6.98,-6.98,-7.59,-7.45,4.63,4.62,4.61
46.13,11.51,6.92,11.49,6.89,-6.89,-7.55,-7.40,4.62,4.60,4.59
46.60,11.42,6.83,11.39,6.80,-6.80,-7.52,-7.36,4.61,4.59,4.59
47.06,11.32,6.75,11.29,6.73,-6.73,-7.48,-7.32,4.60,4.57,4.57
47.53,11.22,6.67,11.21,6.66,-6.66,-7.45,-7.28,4.57,4.55,4.56
48.01,11.13,6.58,11.13,6.60,-6.60,-7.41,-7.25,4.53,4.53,4.55
48.49,11.06,6.54,11.07,6.56,-6.56,-7.38,-7.23,4.51,4.51,4.52
48.97,10.99,6.50,11.02,6.53,-6.53,-7.35,-7.21,4.47,4.50,4.50
49.46,10.94,6.47,10.99,6.51,-6.51,-7.32,-7.19,4.43,4.48,4.47
49.96,10.88,6.44,10.97,6.52,-6.52,-7.29,-7.18,4.37,4.46,4.44
50.46,10.90,6.47,10.97,6.53,-6.53,-7.26,-7.17,4.37,4.44,4.43
50.96,10.92,6.51,10.99,6.57,-6.57,-7.23,-7.17,4.35,4.42,4.42
51.47,10.98,6.60,11.02,6.62,-6.62,-7.20,-7.17,4.36,4.40,4.39
51.99,11.04,6.67,11.06,6.68,-6.68,-7.17,-7.17,4.36,4.38,4.37
52.51,11.11,6.75,11.11,6.76,-6.76,-7.15,-7.17,4.36,4.36,4.36
53.03,11.17,6.83,11.18,6.84,-6.84,-7.13,-7.17,4.34,4.34,4.34
53.56,11.26,6.94,11.24,6.93,-6.93,-7.10,-7.18,4.34,4.32,4.32
54.10,11.34,7.04,11.31,7.01,-7.01,-7.08,-7.19,4.33,4.30,4.30
54.64,11.41,7.13,11.38,7.09,-7.09,-7.06,-7.20,4.32,4.28,4.28
55.18,11.47,7.21,11.43,7.17,-7.17,-7.04,-7.21,4.31,4.27,4.26
55.74,11.51,7.27,11.49,7.24,-7.24,-7.02,-7.22,4.28,4.25,4.24
56.29,11.54,7.31,11.52,7.29,-7.29,-7.00,-7.23,4.25,4.23,4.23
56.86,11.57,7.37,11.55,7.34,-7.34,-6.98,-7.24,4.24,4.21,4.21
57.42,11.59,7.41,11.57,7.37,-7.37,-6.96,-7.24,4.22,4.20,4.19
58.00,11.61,7.44,11.58,7.40,-7.40,-6.95,-7.25,4.21,4.18,4.17
58.58,11.58,7.42,11.58,7.42,-7.42,-6.93,-7.25,4.17,4.16,4.16
59.16,11.55,7.41,11.56,7.42,-7.42,-6.92,-7.25,4.13,4.14,4.15
59.76,11.52,7.39,11.54,7.42,-7.42,-6.90,-7.25,4.11,4.12,4.14
60.35,11.49,7.38,11.51,7.40,-7.40,-6.89,-7.24,4.09,4.10,4.11
60.96,11.45,7.36,11.47,7.38,-7.38,-6.88,-7.23,4.07,4.08,4.10
61.57,11.41,7.35,11.42,7.36,-7.36,-6.86,-7.22,4.06,4.06,4.06
62.18,11.37,7.34,11.37,7.32,-7.32,-6.85,-7.20,4.05,4.04,4.04
62.80,11.33,7.31,11.31,7.29,-7.29,-6.84,-7.18,4.05,4.02,4.02
63.43,11.26,7.27,11.25,7.25,-7.25,-6.83,-7.15,4.02,4.00,3.99
64.07,11.18,7.20,11.19,7.20,-7.20,-6.83,-7.12,3.97,3.98,3.98
64.71,11.11,7.16,11.12,7.16,-7.16,-6.82,-7.09,3.96,3.96,3.96
65.35,11.04,7.10,11.05,7.11,-7.11,-6.81,-7.05,3.93,3.94,3.94
66.01,10.97,7.05,10.98,7.06,-7.06,-6.80,-7.01,3.91,3.92,3.92
66.67,10.90,7.00,10.91,7.01,-7.01,-6.80,-6.97,3.90,3.90,3.90
67.33,10.83,6.95,10.84,6.95,-6.95,-6.79,-6.92,3.88,3.88,3.88
68.01,10.76,6.90,10.76,6.90,-6.90,-6.79,-6.87,3.87,3.86,3.86
68.69,10.68,6.84,10.68,6.84,-6.84,-6.78,-6.82,3.84,3.84,3.84
69.37,10.61,6.79,10.61,6.79,-6.79,-6.78,-6.77,3.83,3.82,3.82
70.07,10.54,6.74,10.54,6.73,-6.73,-6.77,-6.72,3.81,3.80,3.80
70.77,10.47,6.69,10.47,6.69,-6.69,-6.77,-6.66,3.79,3.78,3.79
71.48,10.41,6.65,10.41,6.65,-6.65,-6.77,-6.61,3.77,3.76,3.76
72.19,10.35,6.61,10.34,6.61,-6.61,-6.77,-6.55,3.75,3.74,3.74
72.91,10.27,6.56,10.29,6.57,-6.57,-6.76,-6.50,3.71,3.72,3.72
73.64,10.22,6.53,10.23,6.54,-6.54,-6.76,-6.45,3.69,3.70,3.69
74.38,10.17,6.50,10.19,6.51,-6.51,-6.76,-6.40,3.66,3.68,3.68
75.12,10.12,6.47,10.15,6.49,-6.49,-6.76,-6.35,3.63,3.66,3.65
75.87,10.09,6.46,10.12,6.48,-6.48,-6.76,-6.30,3.62,3.64,3.63
76.63,10.08,6.47,10.09,6.48,-6.48,-6.76,-6.25,3.61,3.62,3.62
77.40,10.08,6.49,10.08,6.48,-6.48,-6.76,-6.21,3.61,3.60,3.60
78.17,10.07,6.50,10.07,6.49,-6.49,-6.76,-6.17,3.59,3.58,3.57
78.95,10.03,6.47,10.06,6.51,-6.51,-6.77,-6.13,3.53,3.56,3.56
79.74,10.04,6.50,10.07,6.53,-6.53,-6.77,-6.10,3.52,3.54,3.54
80.54,10.06,6.54,10.08,6.56,-6.56,-6.77,-6.07,3.50,3.52,3.52
81.35,10.09,6.59,10.10,6.60,-6.60,-6.77,-6.04,3.50,3.50,3.50
82.16,10.12,6.64,10.12,6.64,-6.64,-6.77,-6.02,3.49,3.48,3.48
82.98,10.13,6.67,10.14,6.68,-6.68,-6.78,-6.00,3.46,3.46,3.47
83.81,10.16,6.73,10.16,6.72,-6.72,-6.78,-5.98,3.44,3.44,3.44
84.65,10.18,6.77,10.18,6.76,-6.76,-6.78,-5.97,3.42,3.42,3.41
85.50,10.20,6.80,10.20,6.80,-6.80,-6.78,-5.96,3.40,3.40,3.40
86.35,10.22,6.85,10.21,6.84,-6.84,-6.79,-5.96,3.39,3.38,3.38
87.22,10.23,6.88,10.22,6.87,-6.87,-6.79,-5.96,3.36,3.35,3.35
88.09,10.27,6.95,10.23,6.90,-6.90,-6.79,-5.97,3.37,3.33,3.33
88.97,10.27,6.96,10.23,6.93,-6.93,-6.80,-5.98,3.35,3.31,3.31
89.86,10.23,6.95,10.23,6.95,-6.95,-6.80,-6.00,3.29,3.28,3.29
90.76,10.22,6.98,10.22,6.96,-6.96,-6.80,-6.01,3.26,3.25,3.25
91.66,10.19,6.96,10.21,6.98,-6.98,-6.81,-6.04,3.22,3.23,3.23
92.58,10.17,6.98,10.19,6.99,-6.99,-6.81,-6.07,3.19,3.20,3.20
93.51,10.15,6.98,10.17,6.99,-6.99,-6.81,-6.10,3.16,3.17,3.18
94.44,10.13,6.98,10.14,7.00,-7.00,-6.82,-6.13,3.14,3.15,3.15
95.39,10.10,6.98,10.11,7.00,-7.00,-6.82,-6.17,3.11,3.12,3.12
96.34,10.07,6.99,10.08,6.99,-6.99,-6.82,-6.22,3.08,3.09,3.08
97.30,10.05,7.00,10.05,6.99,-6.99,-6.83,-6.27,3.07,3.06,3.06
98.28,10.01,6.99,10.01,6.98,-6.98,-6.83,-6.32,3.04,3.03,3.03
99.26,9.98,6.99,9.97,6.97,-6.97,-6.83,-6.37,3.01,3.00,3.00
100.25,9.93,6.96,9.94,6.97,-6.97,-6.83,-6.43,2.97,2.97,2.97
101.25,9.89,6.95,9.90,6.95,-6.95,-6.84,-6.49,2.94,2.94,2.94
102.27,9.86,6.95,9.85,6.94,-6.94,-6.84,-6.55,2.92,2.91,2.91
103.29,9.81,6.94,9.81,6.93,-6.93,-6.84,-6.61,2.89,2.88,2.87
104.32,9.76,6.91,9.76,6.91,-6.91,-6.84,-6.68,2.85,2.85,2.85
105.37,9.71,6.89,9.72,6.90,-6.90,-6.84,-6.75,2.82,2.82,2.82
106.42,9.66,6.87,9.67,6.88,-6.88,-6.84,-6.81,2.79,2.79,2.79
107.48,9.62,6.86,9.62,6.86,-6.86,-6.84,-6.88,2.76,2.76,2.76
108.56,9.57,6.85,9.57,6.85,-6.85,-6.84,-6.95,2.73,2.73,2.73
109.64,9.52,6.83,9.53,6.83,-6.83,-6.84,-7.01,2.69,2.69,2.70
110.74,9.46,6.80,9.48,6.82,-6.82,-6.84,-7.08,2.65,2.66,2.67
111.85,9.41,6.78,9.43,6.81,-6.81,-6.84,-7.14,2.61,2.63,2.64
112.97,9.38,6.80,9.39,6.79,-6.79,-6.84,-7.20,2.59,2.59,2.59
114.10,9.33,6.77,9.34,6.78,-6.78,-6.84,-7.25,2.55,2.56,2.56
115.24,9.30,6.78,9.29,6.77,-6.77,-6.84,-7.31,2.54,2.52,2.52
116.39,9.25,6.77,9.25,6.76,-6.76,-6.83,-7.35,2.50,2.49,2.48
117.55,9.20,6.76,9.20,6.75,-6.75,-6.83,-7.39,2.46,2.45,2.45
118.73,9.15,6.75,9.15,6.74,-6.74,-6.83,-7.43,2.42,2.42,2.41
119.92,9.11,6.73,9.11,6.72,-6.72,-6.82,-7.45,2.39,2.38,2.38
121.12,9.06,6.72,9.06,6.71,-6.71,-6.82,-7.48,2.35,2.35,2.35
122.33,9.01,6.71,9.01,6.70,-6.70,-6.82,-7.49,2.31,2.31,2.31
123.55,8.96,6.68,8.97,6.69,-6.69,-6.81,-7.49,2.27,2.28,2.28
124.79,8.91,6.67,8.92,6.68,-6.68,-6.80,-7.49,2.24,2.24,2.25
126.03,8.86,6.65,8.87,6.66,-6.66,-6.80,-7.48,2.20,2.21,2.21
127.29,8.81,6.64,8.82,6.65,-6.65,-6.79,-7.46,2.17,2.17,2.18
128.57,8.77,6.64,8.77,6.63,-6.63,-6.78,-7.44,2.14,2.14,2.13
129.85,8.71,6.61,8.73,6.62,-6.62,-6.77,-7.40,2.09,2.11,2.10
131.15,8.68,6.62,8.68,6.61,-6.61,-6.76,-7.36,2.08,2.07,2.07
132.46,8.63,6.60,8.64,6.60,-6.60,-6.76,-7.31,2.04,2.04,2.04
133.79,8.59,6.58,8.59,6.58,-6.58,-6.74,-7.26,2.01,2.01,2.01
135.12,8.54,6.57,8.55,6.57,-6.57,-6.73,-7.20,1.97,1.98,1.97
136.48,8.50,6.55,8.50,6.56,-6.56,-6.72,-7.13,1.95,1.95,1.95
137.84,8.46,6.54,8.46,6.54,-6.54,-6.71,-7.06,1.92,1.92,1.92
139.22,8.41,6.53,8.42,6.52,-6.52,-6.70,-6.99,1.89,1.89,1.88
140.61,8.37,6.52,8.37,6.51,-6.51,-6.68,-6.91,1.87,1.86,1.85
142.02,8.33,6.49,8.33,6.49,-6.49,-6.67,-6.83,1.84,1.84,1.84
143.44,8.28,6.47,8.29,6.47,-6.47,-6.65,-6.75,1.81,1.81,1.82
144.87,8.24,6.46,8.24,6.45,-6.45,-6.64,-6.67,1.79,1.79,1.79
146.32,8.19,6.43,8.20,6.43,-6.43,-6.62,-6.59,1.76,1.76,1.76
147.78,8.15,6.41,8.15,6.42,-6.42,-6.60,-6.50,1.74,1.74,1.75
149.26,8.10,6.38,8.11,6.40,-6.40,-6.59,-6.42,1.71,1.71,1.72
150.75,8.06,6.38,8.06,6.38,-6.38,-6.57,-6.34,1.69,1.69,1.68
152.26,8.02,6.36,8.02,6.36,-6.36,-6.55,-6.26,1.66,1.66,1.66
153.78,7.97,6.34,7.97,6.34,-6.34,-6.53,-6.18,1.63,1.63,1.64
155.32,7.93,6.33,7.93,6.33,-6.33,-6.51,-6.10,1.61,1.60,1.60
156.88,7.88,6.30,7.89,6.31,-6.31,-6.49,-6.02,1.57,1.58,1.58
158.44,7.84,6.30,7.85,6.30,-6.30,-6.46,-5.95,1.55,1.55,1.55
160.03,7.80,6.29,7.80,6.28,-6.28,-6.44,-5.88,1.52,1.52,1.52
161.63,7.74,6.26,7.76,6.27,-6.27,-6.41,-5.82,1.48,1.49,1.49
163.24,7.71,6.26,7.72,6.25,-6.25,-6.39,-5.75,1.46,1.46,1.46
164.88,7.66,6.23,7.67,6.24,-6.24,-6.36,-5.69,1.43,1.43,1.44
166.53,7.62,6.22,7.63,6.22,-6.22,-6.34,-5.64,1.40,1.41,1.41
168.19,7.59,6.22,7.58,6.20,-6.20,-6.31,-5.59,1.39,1.38,1.38
169.87,7.54,6.19,7.54,6.19,-6.19,-6.28,-5.54,1.36,1.35,1.35
171.57,7.50,6.18,7.49,6.17,-6.17,-6.25,-5.49,1.34,1.32,1.32
173.29,7.44,6.15,7.44,6.15,-6.15,-6.22,-5.45,1.29,1.29,1.30
175.02,7.40,6.14,7.40,6.14,-6.14,-6.19,-5.42,1.27,1.26,1.27
176.77,7.34,6.11,7.35,6.12,-6.12,-6.16,-5.39,1.23,1.23,1.23
178.54,7.29,6.10,7.30,6.10,-6.10,-6.13,-5.36,1.20,1.20,1.20
180.32,7.24,6.07,7.26,6.08,-6.08,-6.09,-5.34,1.16,1.17,1.17
182.13,7.19,6.05,7.21,6.06,-6.06,-6.06,-5.32,1.13,1.14,1.15
183.95,7.15,6.04,7.16,6.04,-6.04,-6.02,-5.30,1.11,1.12,1.11
185.79,7.10,6.02,7.11,6.03,-6.03,-5.99,-5.29,1.08,1.09,1.09
187.65,7.07,6.02,7.07,6.00,-6.00,-5.95,-5.28,1.07,1.06,1.06
189.52,7.01,5.98,7.02,5.98,-5.98,-5.91,-5.28,1.03,1.03,1.03
191.42,6.98,5.97,6.97,5.96,-5.96,-5.88,-5.28,1.02,1.01,1.01
193.33,6.93,5.95,6.93,5.94,-5.94,-5.84,-5.28,0.99,0.99,0.99
195.27,6.87,5.91,6.88,5.92,-5.92,-5.80,-5.29,0.96,0.96,0.97
197.22,6.83,5.89,6.83,5.89,-5.89,-5.75,-5.29,0.95,0.94,0.95
199.19,6.79,5.88,6.79,5.86,-5.86,-5.71,-5.31,0.93,0.93,0.91
201.18,6.73,5.83,6.74,5.83,-5.83,-5.67,-5.32,0.90,0.91,0.90
203.19,6.68,5.79,6.69,5.80,-5.80,-5.63,-5.34,0.89,0.89,0.89
205.23,6.63,5.76,6.64,5.76,-5.76,-5.58,-5.35,0.87,0.88,0.87
207.28,6.58,5.71,6.59,5.72,-5.72,-5.54,-5.37,0.86,0.86,0.87
209.35,6.54,5.69,6.54,5.68,-5.68,-5.49,-5.39,0.86,0.85,0.86
211.44,6.48,5.65,6.49,5.64,-5.64,-5.44,-5.41,0.84,0.85,0.84
213.56,6.43,5.60,6.43,5.59,-5.59,-5.39,-5.43,0.84,0.84,0.84
215.69,6.38,5.54,6.38,5.55,-5.55,-5.34,-5.45,0.84,0.83,0.84
217.85,6.33,5.50,6.33,5.50,-5.50,-5.29,-5.47,0.83,0.83,0.83
220.03,6.28,5.46,6.28,5.45,-5.45,-5.24,-5.49,0.84,0.83,0.82
222.23,6.22,5.41,6.22,5.40,-5.40,-5.19,-5.51,0.83,0.83,0.82
224.45,6.16,5.34,6.17,5.34,-5.34,-5.14,-5.52,0.82,0.83,0.83
226.70,6.11,5.28,6.12,5.29,-5.29,-5.09,-5.53,0.82,0.83,0.83
228.96,6.05,5.22,6.07,5.23,-5.23,-5.03,-5.54,0.82,0.84,0.84
231.25,6.01,5.17,6.02,5.17,-5.17,-4.98,-5.54,0.84,0.84,0.85
233.57,5.96,5.11,5.96,5.11,-5.11,-4.92,-5.54,0.85,0.85,0.85
235.90,5.91,5.06,5.91,5.05,-5.05,-4.86,-5.53,0.86,0.86,0.86
238.26,5.86,5.00,5.86,4.99,-4.99,-4.81,-5.52,0.87,0.87,0.86
240.64,5.80,4.93,5.81,4.93,-4.93,-4.75,-5.50,0.87,0.88,0.88
243.05,5.75,4.86,5.76,4.87,-4.87,-4.69,-5.47,0.89,0.89,0.89
245.48,5.70,4.80,5.70,4.80,-4.80,-4.63,-5.44,0.90,0.90,0.91
247.93,5.64,4.72,5.65,4.73,-4.73,-4.57,-5.40,0.91,0.92,0.92
250.41,5.59,4.67,5.60,4.66,-4.66,-4.50,-5.35,0.93,0.94,0.93
252.92,5.53,4.58,5.54,4.59,-4.59,-4.44,-5.29,0.95,0.95,0.95
255.45,5.49,4.52,5.48,4.51,-4.51,-4.38,-5.23,0.98,0.97,0.98
258.00,5.43,4.44,5.42,4.43,-4.43,-4.31,-5.16,1.00,0.99,0.99
260.58,5.36,4.36,5.36,4.35,-4.35,-4.25,-5.08,1.01,1.01,1.01
263.19,5.31,4.28,5.30,4.27,-4.27,-4.18,-5.00,1.05,1.03,1.03
265.82,5.24,4.19,5.24,4.18,-4.18,-4.11,-4.90,1.06,1.05,1.05
268.48,5.17,4.10,5.17,4.10,-4.10,-4.04,-4.81,1.08,1.08,1.08
271.16,5.10,4.00,5.11,4.01,-4.01,-3.97,-4.70,1.09,1.10,1.10
273.87,5.02,3.90,5.04,3.92,-3.92,-3.90,-4.59,1.10,1.12,1.12
276.61,4.97,3.83,4.98,3.84,-3.84,-3.83,-4.48,1.14,1.14,1.15
279.38,4.91,3.75,4.91,3.75,-3.75,-3.76,-4.36,1.17,1.16,1.16
282.17,4.84,3.66,4.84,3.66,-3.66,-3.69,-4.23,1.18,1.18,1.18
284.99,4.77,3.57,4.78,3.57,-3.57,-3.61,-4.11,1.20,1.20,1.21
287.84,4.70,3.48,4.71,3.49,-3.49,-3.54,-3.98,1.22,1.23,1.22
290.72,4.65,3.40,4.65,3.40,-3.40,-3.46,-3.84,1.26,1.25,1.25
293.63,4.57,3.30,4.58,3.31,-3.31,-3.39,-3.71,1.26,1.27,1.27
296.57,4.52,3.23,4.52,3.22,-3.22,-3.31,-3.57,1.30,1.30,1.30
299.53,4.46,3.15,4.46,3.14,-3.14,-3.23,-3.43,1.33,1.32,1.31
302.53,4.39,3.06,4.40,3.05,-3.05,-3.15,-3.29,1.34,1.34,1.33
305.55,4.33,2.96,4.33,2.97,-2.97,-3.07,-3.15,1.37,1.37,1.37
308.61,4.27,2.89,4.27,2.88,-2.88,-2.99,-3.01,1.40,1.39,1.39
311.69,4.21,2.80,4.21,2.79,-2.79,-2.91,-2.87,1.42,1.42,1.42
314.81,4.14,2.69,4.15,2.71,-2.71,-2.82,-2.73,1.44,1.44,1.45
317.96,4.07,2.60,4.08,2.62,-2.62,-2.74,-2.59,1.45,1.46,1.47
321.14,4.01,2.52,4.02,2.53,-2.53,-2.66,-2.45,1.48,1.49,1.49
324.35,3.95,2.45,3.96,2.45,-2.45,-2.57,-2.31,1.51,1.51,1.51
327.59,3.90,2.37,3.90,2.36,-2.36,-2.48,-2.17,1.54,1.53,1.54
330.87,3.83,2.28,3.83,2.28,-2.28,-2.40,-2.03,1.56,1.56,1.56
334.18,3.76,2.19,3.77,2.19,-2.19,-2.31,-1.89,1.58,1.58,1.57
337.52,3.69,2.10,3.70,2.10,-2.10,-2.22,-1.75,1.59,1.60,1.59
340.90,3.64,2.02,3.63,2.01,-2.01,-2.13,-1.61,1.63,1.62,1.62
344.30,3.57,1.93,3.57,1.93,-1.93,-2.03,-1.48,1.65,1.64,1.64
347.75,3.49,1.84,3.50,1.84,-1.84,-1.94,-1.34,1.65,1.66,1.66
351.23,3.43,1.76,3.43,1.75,-1.75,-1.85,-1.20,1.68,1.68,1.68
354.74,3.36,1.67,3.36,1.67,-1.67,-1.75,-1.07,1.70,1.70,1.70
358.28,3.28,1.57,3.29,1.57,-1.57,-1.66,-0.94,1.71,1.71,1.71
361.87,3.20,1.47,3.22,1.48,-1.48,-1.56,-0.80,1.72,1.73,1.73
365.49,3.12,1.37,3.14,1.39,-1.39,-1.46,-0.67,1.73,1.75,1.75
369.14,3.05,1.29,3.07,1.30,-1.30,-1.37,-0.54,1.75,1.76,1.76
372.83,2.99,1.21,2.99,1.21,-1.21,-1.27,-0.41,1.79,1.78,1.78
376.56,2.91,1.13,2.91,1.11,-1.11,-1.17,-0.28,1.80,1.80,1.79
380.33,2.83,1.02,2.82,1.01,-1.01,-1.07,-0.15,1.82,1.81,1.82
384.13,2.74,0.92,2.74,0.91,-0.91,-0.96,-0.02,1.83,1.82,1.83
387.97,2.65,0.82,2.65,0.81,-0.81,-0.86,0.11,1.85,1.84,1.84
391.85,2.56,0.72,2.55,0.70,-0.70,-0.76,0.23,1.86,1.85,1.85
395.77,2.46,0.60,2.46,0.60,-0.60,-0.65,0.36,1.87,1.86,1.87
399.73,2.37,0.50,2.37,0.49,-0.49,-0.55,0.48,1.88,1.87,1.87
403.72,2.26,0.38,2.27,0.38,-0.38,-0.44,0.61,1.88,1.89,1.88
407.76,2.16,0.27,2.17,0.27,-0.27,-0.33,0.73,1.89,1.90,1.89
411.84,2.06,0.15,2.07,0.16,-0.16,-0.22,0.85,1.91,1.91,1.91
415.96,1.96,0.04,1.97,0.05,-0.05,-0.11,0.97,1.92,1.92,1.92
420.12,1.85,-0.08,1.86,-0.06,0.06,-0.00,1.09,1.92,1.93,1.93
424.32,1.75,-0.19,1.76,-0.18,0.18,0.11,1.20,1.93,1.94,1.94
428.56,1.65,-0.30,1.66,-0.29,0.29,0.22,1.32,1.94,1.95,1.95
432.85,1.55,-0.40,1.56,-0.40,0.40,0.33,1.43,1.95,1.96,1.96
437.18,1.46,-0.50,1.46,-0.51,0.51,0.44,1.53,1.98,1.97,1.97
441.55,1.36,-0.62,1.36,-0.62,0.62,0.56,1.64,1.99,1.99,1.99
445.96,1.26,-0.73,1.26,-0.73,0.73,0.67,1.74,2.00,2.00,2.00
450.42,1.16,-0.84,1.17,-0.85,0.85,0.78,1.84,2.01,2.01,2.01
454.93,1.07,-0.95,1.06,-0.96,0.96,0.90,1.94,2.04,2.03,2.03
459.48,0.97,-1.06,0.96,-1.08,1.08,1.01,2.03,2.05,2.04,2.04
464.07,0.86,-1.19,0.86,-1.19,1.19,1.13,2.11,2.06,2.06,2.06
468.71,0.77,-1.30,0.76,-1.31,1.31,1.24,2.20,2.08,2.07,2.08
473.40,0.66,-1.42,0.66,-1.42,1.42,1.36,2.27,2.09,2.09,2.09
478.13,0.56,-1.54,0.56,-1.54,1.54,1.48,2.35,2.11,2.10,2.11
482.91,0.45,-1.66,0.46,-1.66,1.66,1.59,2.42,2.11,2.12,2.11
487.74,0.35,-1.78,0.36,-1.78,1.78,1.71,2.48,2.13,2.13,2.13
492.62,0.25,-1.90,0.26,-1.89,1.89,1.82,2.54,2.15,2.15,2.15
497.55,0.14,-2.02,0.16,-2.01,2.01,1.94,2.59,2.15,2.17,2.16
502.52,0.05,-2.13,0.06,-2.12,2.12,2.05,2.63,2.18,2.18,2.18
507.55,-0.04,-2.23,-0.04,-2.24,2.24,2.17,2.67,2.20,2.20,2.19
512.62,-0.14,-2.35,-0.13,-2.35,2.35,2.28,2.71,2.21,2.22,2.21
517.75,-0.25,-2.48,-0.23,-2.46,2.46,2.39,2.74,2.21,2.23,2.23
