frequency,raw
10,1.1295477731224963
11,1.7953158270037575
12,2.444942471644926
13,2.8772782817586524
14,3.289511654766348
15,3.6572591232590312
16,3.982391967179619
17,4.1784213757108075
18,4.46261013344622
19,4.590873089702798
20,4.799963165742496
21,5.017959756633265
22,5.227181654899101
23,5.366174820139297
24,5.421752755661109
25,5.588403975215409
26,5.599329121486721
27,5.7971149478207975
28,5.805596329733901
29,5.824356621543518
30,6.021830783010333
31,6.062592316652693
32,6.062851829279107
33,6.16607960200962
34,6.094617793913417
35,6.17939883910823
36,6.14934820384041
37,6.133078249027741
38,6.133261949218103
39,6.147052146326593
40,6.167942702007463
41,6.188612006511934
42,6.203407808213584
43,6.209650396298026
44,6.2077059569941975
45,6.2002815901819615
46,6.191418945522638
47,6.1854121806032785
48,6.185702359748073
49,6.073185548467998
50,6.108502561102536
51,6.130276070694566
52,6.114358488754626
53,6.059840933974255
54,5.9988866583003135
55,5.959522961463246
56,5.959346594784212
57,5.949480317994083
58,5.958990492121516
59,5.8290507536820835
60,5.822324460873122
61,5.697610652409037
62,5.71574637431194
63,5.725513713648321
64,5.694534452117119
65,5.611653740685582
66,5.610536642862328
67,5.583917023850947
68,5.511186890577041
69,5.475101697058478
70,5.374379738069126
71,5.31370585399108
72,5.342954628970005
73,5.138294893919405
74,5.154248562173044
75,4.973908960097394
76,4.806598715201285
77,4.698357013403425
78,4.577497946444756
79,4.459722302114581
80,4.462635544230475
81,4.210613451287745
82,4.155289864490849
83,4.159628394773004
84,4.087933337094804
85,3.9613526457601083
86,3.9959146157606655
87,4.030837708810061
88,4.101510758619522
89,4.118389091018556
90,4.244360906778049
91,4.273943862814078
92,4.535137727921469
93,4.675141798412009
94,4.791720373929151
95,4.790577347595332
96,4.827663713867067
97,5.060734451773736
98,5.2055215109061495
99,5.346888495270483
100,5.587113693800883
101,5.722713860150317
102,5.783468496995984
104,5.895429971228519
105,5.8594982681725485
106,6.188286670271201
107,6.14109365359518
108,6.061074943715721
109,6.323847078383243
110,6.478605280428197
111,6.458724130113986
112,6.350444918232655
113,6.338560809662046
114,6.546643344303527
115,6.439094904163457
117,6.548162995244335
118,6.528202934728159
119,6.532040906714998
120,6.571140650243845
121,6.517881254466714
123,6.369052760073923
124,6.314798147127312
125,6.280700504271702
126,6.247996952201691
128,6.017889284024316
129,6.010286665347622
130,6.057527425281662
131,6.010234514750127
133,5.7891062450361135
134,5.720435432991532
135,5.605991199901344
137,5.521270682996028
138,5.536019830858431
140,5.4173959686624675
141,5.427651798972163
142,5.4117333266879415
144,5.235749986867918
145,5.222066086225584
147,5.139870514160235
148,5.072091087836415
150,4.844979404005568
151,4.764514247911705
153,4.642928081899441
154,4.584868501947566
156,4.284785791585546
157,4.148191170299847
159,3.957231282993379
160,3.86545159995233
162,3.7591998123045682
164,3.611336713319033
165,3.6541451174369257
167,3.780905004995997
169,3.916130757327287
170,3.9694139221534313
172,3.9786481195331573
174,3.931778980983628
175,3.915482960705126
177,3.8296202824857213
179,3.6639670984072277
181,3.5004219728237036
183,3.213120174386618
184,3.1354278113819927
186,3.0439607234006134
188,3.073613395486759
190,2.82688156355068
192,2.552089135028079
194,2.3333557127735647
196,2.250351030351724
198,2.249954500714307
200,2.2174072002836533
202,2.1333388730479346
204,1.8978100536224192
206,1.9365751287423212
208,2.1319433403329446
210,1.9256732000492987
212,1.7271848461223351
214,1.5970990808980048
216,1.5263769073916622
218,1.4551550428684914
221,1.44979269668102
223,1.2992274406964608
225,1.1214674854148896
227,0.9435901891774456
229,0.8928916817245183
232,0.8264013264539356
234,0.6522618476356392
236,0.48934951103746105
239,0.40949731109729726
241,0.30991836405243145
244,0.15675837308856666
246,-0.045086300369733046
248,-0.17456895784980553
251,-0.3353987861144039
253,-0.46120737731788886
256,-0.7301002992367667
259,-0.8928914363818237
261,-1.0053243176767124
264,-1.0866389668740508
266,-1.2192577906493733
269,-1.507352317151053
272,-1.586730229424413
274,-1.6660156470956253
277,-1.76769594554443
280,-1.9150677204814093
283,-1.9543024120544592
286,-1.9440451545366715
288,-2.070512464296611
291,-2.2403519318587097
294,-2.47265024262379
297,-2.5532253784493957
300,-2.518676249508784
303,-2.4708935507227077
306,-2.470306580874778
309,-2.7300597614879756
312,-2.893868618218009
316,-2.8226600477725223
319,-2.929121089775596
322,-3.0097465515371864
325,-2.9483565457685272
328,-3.1312031755034577
332,-3.207407947682526
335,-3.251000427640168
338,-3.326525558910072
342,-3.3028249314972946
345,-3.2908119462687853
349,-3.600543483155068
352,-3.5495970393231495
356,-3.406944375449366
359,-3.49193644659605
363,-3.576147102794712
366,-3.5617785023493798
370,-3.6410301317897247
374,-3.6817221511577136
377,-3.7253186497476616
381,-3.7152121071203377
385,-3.706484387055202
389,-3.6347189034626393
393,-3.6426968264994706
397,-3.778476685111845
401,-3.7662749142468965
405,-3.755203969447805
409,-3.7080692183847423
413,-3.7204319465506885
417,-3.873802192751515
421,-3.787815798521187
425,-3.764259910702593
430,-3.7674627827659064
434,-3.784813528895155
438,-3.767635788876271
443,-3.527975360807148
447,-3.523401809182519
451,-3.52933715239626
456,-3.5375256939051143
460,-3.4909380443080895
465,-3.387749241327853
470,-3.3721276046434365
474,-3.261547125123664
479,-3.141863715030036
484,-3.125324286622869
489,-3.0767567570561796
494,-2.9764129717604777
499,-2.9447784494643328
504,-2.9118807986017066
509,-2.8816088693800244
514,-2.7652646467125357
519,-2.739081423659113
524,-2.728934682867967
529,-2.7250260818725556
535,-2.7258035407693324
540,-2.628818596477843
545,-2.5325690598109043
551,-2.535479194165735
556,-2.5349287345216402
562,-2.4823896378552868
568,-2.4164394689156086
573,-2.3975408400032334
579,-2.2904283900397493
585,-2.244628885301431
591,-2.218036003230949
596,-2.197197973732778
602,-2.1802420770154476
608,-2.082486332473031
615,-2.025577436718776
621,-1.9877367623533313
627,-1.982979409337235
633,-1.9676144981148451
639,-1.9435046662207343
646,-1.9171366474730225
652,-1.8769490196156573
659,-1.6864985822660397
665,-1.6898210317088216
672,-1.7009958500381939
679,-1.7129592257418351
686,-1.6625755936220483
692,-1.5363019855768174
699,-1.5055099853558769
706,-1.489011405746906
713,-1.4429825056281724
721,-1.3490448474527779
728,-1.331895602382562
735,-1.286102269282141
742,-1.220448227844308
750,-1.2331976731582186
757,-1.2577284059915201
765,-1.0873923087459185
773,-1.1162620247259936
780,-1.1357083248402784
788,-1.1425872371617287
796,-1.1083888815871918
804,-0.93408985024652
812,-0.9370422486702754
820,-0.8537583833675169
828,-0.8869551331380894
837,-0.8314602682698022
845,-0.7801154924234264
853,-0.8250825979856007
862,-0.8595077178694579
871,-0.748524151449895
879,-0.6889937956762173
888,-0.6898895049166285
897,-0.634984591090106
906,-0.5815341739592301
915,-0.5451854335835042
924,-0.45233763408406347
933,-0.363832907815242
943,-0.3512397720982725
952,-0.33209735654903527
962,-0.16432001473468594
971,-0.07648402081622097
981,-0.04514281880954396
991,-0.020368494028816908
1001,0.0022518406779008515
1011,0.04401993912359181
1021,0.24355815802773817
1031,0.27208632461813664
1041,0.2973224786215689
1052,0.3331805254545044
1062,0.3743659468130396
1073,0.4201098423269527
1084,0.47009493842984673
1094,0.5239565516640647
1105,0.5804120461342612
1116,0.6739812063667601
1128,0.7920107298024783
1139,0.779221787436247
1150,0.7875529448295344
1162,0.7478637823564704
1173,0.8130846009242791
1185,0.8927146481732571
1197,0.9876604918465883
1209,1.0101390008026159
1221,1.0831234256872162
1233,1.1373969916866313
1246,1.2684747962520952
1258,1.3903340085360045
1271,1.4861996005194351
1283,1.5416492623436429
1296,1.552151196678086
1309,1.7034311173192282
1322,1.8088518698230256
1335,1.8914362008508667
1349,1.9450252079568315
1362,2.0422704455704705
1376,2.1107112226398033
1390,2.255145771314263
1404,2.398169328365308
1418,2.4714687914100737
1432,2.559429731493432
1446,2.6729085830808934
1461,2.7766780855853552
1475,2.7740962696615337
1490,2.9697552674547563
1505,3.0617680878644915
1520,3.1475639617736064
1535,3.323657081529131
1550,3.386736195661536
1566,3.5395064852282965
1582,3.597028589556547
1597,3.734675011485842
1613,3.8354216622132786
1629,3.9866840448322334
1646,4.202143467506113
1662,4.330331469102369
1679,4.483427465770253
1696,4.717681022048182
1713,4.827685094952627
1730,4.899969708633847
1747,4.997683960638058
1764,5.0951395623200275
1782,5.218784415704867
1800,5.4575032000955375
1818,5.577811335449729
1836,5.691379801681961
1854,5.812466530247488
1873,6.010233566952444
1892,6.153305991885358
1911,6.205636694833362
1930,6.366632991163061
1949,6.5226052875759475
1969,6.6422678898638425
1988,6.761659721858553
2008,6.882702713045366
2028,7.005938901665808
2048,7.045499082146102
2069,7.154466555111342
2090,7.200504834177344
2111,7.232990046184927
2132,7.242657154843122
2153,7.323604889667049
2175,7.378591211562298
2196,7.396475800471459
2218,7.506957251872988
2240,7.570541700561779
2263,7.591688356015548
2285,7.540409668517656
2308,7.516444751521189
2331,7.586365180821336
2355,7.606540710957236
2378,7.660031277853864
2402,7.693859126583548
2426,7.705815296912257
2450,7.769521127050743
2475,7.856282345425373
2500,7.876418730542369
2525,7.857755379556861
2550,7.8609862068362695
2575,7.857096986137543
2601,7.856536702055734
2627,7.8349158643176375
2653,7.7821848749694205
2680,7.7522464566918305
2707,7.784730828737828
2734,7.82358134654191
2761,7.913068531311716
2789,7.943356541088359
2817,8.033285059794448
2845,8.152895881472528
2873,8.278408962533376
2902,8.390681996753244
2931,8.422042638339601
2960,8.470649787324014
2990,8.540910306543271
3020,8.61896224012664
3050,8.670934562586222
3080,8.788459398449167
3111,8.899317877207205
3142,8.989493051903223
3174,9.07162647783269
3206,9.179434721001122
3238,9.282679559002052
3270,9.295921672450762
3303,9.35608263465308
3336,9.410421414304963
3369,9.367906313674226
3403,9.61219072912674
3437,9.575221874553142
3471,9.491878735416613
3506,9.436124500733245
3541,9.41098762817325
3576,9.495568174393863
3612,9.414206345226336
3648,9.374073859409405
3685,9.26500665755342
3721,9.09621659718847
3759,8.77638441778878
3796,8.590334540891934
3834,8.468340179797963
3873,8.289433320992192
3911,8.030921210509145
3950,7.770738353358358
3990,7.525755863506422
4030,7.237465398043464
4070,6.909594971771878
4111,6.491783460942905
4152,5.990666331785242
4193,5.627055436690132
4235,5.210375228688364
4278,4.405315587304927
4321,2.7006467842226254
4364,2.085689010051081
4407,1.8256141433730733
4451,2.458598341901908
4496,1.938872551399192
4541,0.7851876339031119
4586,-0.23469976497444023
4632,-1.0142222050074494
4679,-1.1820522289309725
4725,-1.504012975234584
4773,-1.654862735660755
4820,-1.751180348176228
4868,-1.8569159568131122
4917,-2.004674468629399
4966,-2.1575280264216365
5016,-2.2682183230099975
5066,-2.3729507713221816
5117,-2.586792672086365
5168,-2.763118598624872
5220,-2.8998314934248333
5272,-2.8985051048517994
5325,-2.9523621385290584
5378,-3.147885103816665
5432,-4.338469868060748
5486,-5.168846913218254
5541,-6.307116959945181
5596,-7.677409945227496
5652,-8.228762714473813
5709,-7.905109535288919
5766,-8.683021957239635
5823,-8.564260297402823
5882,-8.206038492348366
5940,-7.790085779916713
6000,-7.752432924021478
6060,-7.939531012940508
6120,-7.931270275934683
6182,-7.617411823301575
6244,-7.15647448524149
6306,-6.767778946960129
6369,-5.998641157589902
6433,-5.750822025192011
6497,-5.632832359051723
6562,-5.230717174329516
6628,-4.998020670054126
6694,-4.892664652135687
6761,-4.569641528962498
6828,-4.5863655322128976
6897,-4.61111830201989
6966,-4.4411460732603025
7035,-4.288244724111296
7106,-3.814056655595052
7177,-2.9854040751464637
7249,-2.477665742958831
7321,-1.8000868311016962
7394,-1.1808676285141568
7468,-0.456984076397279
7543,0.4898432355128235
7618,1.2951046481921646
7694,1.8086937079742897
7771,2.5370483024914767
7849,3.3761360185903966
7928,3.617647116470054
8007,3.8623608822555395
8087,4.092575928245749
8168,4.026555047914499
8250,4.015782210838368
8332,4.046299050426928
8415,4.158855551419616
8499,4.004413464771737
8584,3.784093737761029
8670,3.834169814222885
8757,3.941176128835754
8845,4.184121325616672
8933,4.6885141934988015
9022,5.0464248253523305
9113,5.3195385936003134
9204,5.63705626893575
9296,5.701171428258846
9389,5.651038391454449
9483,5.370327837790167
9577,4.94118553577904
9673,4.628031729931407
9770,3.6720038990110764
9868,2.349600608488737
9966,1.5485025727215342
10066,0.5287898026239879
10167,-0.6196043140581113
10268,-1.4394893377928506
10371,-1.9592024431235862
10475,-2.4436270012187835
10579,-3.7629756455603216
10685,-5.335619811729442
10792,-7.595245346305888
10900,-7.1054183946889795
11009,-6.750468005003627
11119,-6.423134418842239
11230,-5.256014946763482
11343,-5.353077722244654
11456,-5.464259920991971
11571,-5.478086054024024
11686,-4.935490977745458
11803,-5.3566195136633254
11921,-5.907188256599254
12040,-4.762898954576627
12161,-3.912002288975944
12282,-2.8219313311202225
12405,-1.9964076439863025
12529,-1.281047132810479
12655,-0.24128644449527048
12781,-0.13726024845818063
12909,-0.3751804551106046
13038,-1.0844934256507441
13168,-2.0425280325538884
13300,-3.8855343307426975
13433,-5.237410103468484
13567,-7.44485609596364
13703,-8.812907161642158
13840,-9.941087881775477
13978,-11.017283201992065
14118,-12.38463032709099
14259,-13.827685781070027
14402,-14.971943528524148
14546,-15.640911127302218
14692,-15.919339260358635
14838,-15.847262354082678
14987,-15.45436521894745
15137,-15.30859789437913
15288,-15.659420636850104
15441,-15.915650241034356
15595,-16.556332000569224
15751,-17.57742709661017
15909,-17.770793957729914
16068,-18.731973311691156
16229,-19.277953906739867
16391,-19.774993688025507
16555,-20.273931058623877
16720,-21.034181290436976
16888,-21.388984471485273
17056,-21.264748777698316
17227,-20.557297208960456
17399,-19.519101182273413
17573,-18.430912920830405
17749,-16.409059067792665
17926,-14.482874309121524
18106,-12.816806231401646
18287,-11.349271500241212
18470,-10.63869075567984
18654,-11.961964339628063
18841,-12.742947532757558
19029,-14.793378289540307
19220,-16.293583362131614
19412,-16.579305399258658
19606,-17.361145965347532
19802,-17.332319442744105
20000,-17.17255580790393
20200,-16.642269126474407
20402,-15.988631755187122
20606,-15.45453499094271
20812,-14.559199940672443
21020,-13.811776274203016
21230,-13.587041561132414
21443,-13.975239418852858
21657,-14.526758062109941
21874,-15.49854293538566
22092,-16.20326773614995
22313,-16.31791527906329
22537,-15.984517002811646
22762,-16.26661007918562
22989,-15.952448741168155
23219,-15.250430005474897
23452,-15.913578305386075
23686,-16.051097551481927
23923,-15.735711174878592
24162,-15.674044422207078
24404,-15.613484588899897
24648,-15.553497655912501
24894,-15.493881377567877
25143,-15.434795192510379
25395,-15.37602637334593
25649,-15.31703651551028
25905,-15.257732682042105
26164,-15.198443802506242
26426,-15.139161228961632
26690,-15.079543046102367
26957,-15.019989986489117
27227,-14.960535115404806
27499,-14.900848920585155
27774,-14.841293512375783
28052,-14.781858440270362
28332,-14.722183867029724
28615,-14.662589705514916
28902,-14.60339827092453
29191,-14.543926562098491
29482,-14.484175128367664
29777,-14.424790391170934
