frequency,raw,smoothed,error,error_smoothed,equalization,parametric_eq,fixed_band_eq,equalized_raw,equalized_smoothed,target
20.00,-14.26,-14.19,-19.56,-19.49,6.00,6.63,2.64,-8.26,-8.19,5.30
20.20,-14.74,-14.80,-20.03,-20.09,6.00,6.63,2.72,-8.74,-8.80,5.29
20.40,-15.39,-15.46,-20.67,-20.74,6.00,6.63,2.79,-9.39,-9.46,5.28
20.61,-16.14,-16.16,-21.40,-21.43,6.00,6.63,2.87,-10.14,-10.16,5.27
20.81,-17.01,-16.98,-22.27,-22.24,6.00,6.62,2.95,-11.01,-10.98,5.26
21.02,-17.78,-17.78,-23.03,-23.03,6.00,6.62,3.04,-11.78,-11.78,5.25
21.23,-18.47,-18.46,-23.71,-23.70,6.00,6.62,3.12,-12.47,-12.46,5.24
21.44,-18.99,-18.97,-24.22,-24.20,6.00,6.62,3.21,-12.99,-12.97,5.23
21.66,-19.29,-19.30,-24.51,-24.51,6.00,6.62,3.30,-13.29,-13.30,5.22
21.87,-19.43,-19.41,-24.64,-24.62,6.00,6.62,3.40,-13.43,-13.41,5.21
22.09,-19.37,-19.36,-24.57,-24.56,6.00,6.61,3.49,-13.37,-13.36,5.20
22.31,-19.16,-19.17,-24.35,-24.36,6.00,6.61,3.59,-13.16,-13.17,5.19
22.54,-18.89,-18.89,-24.07,-24.07,6.00,6.61,3.70,-12.89,-12.89,5.18
22.76,-18.58,-18.59,-23.75,-23.76,6.00,6.61,3.80,-12.58,-12.59,5.17
22.99,-18.29,-18.30,-23.46,-23.46,6.00,6.61,3.91,-12.29,-12.30,5.17
23.22,-18.04,-18.04,-23.20,-23.20,6.00,6.60,4.02,-12.04,-12.04,5.16
23.45,-17.83,-17.84,-22.98,-22.99,6.00,6.60,4.13,-11.83,-11.84,5.15
23.69,-17.69,-17.69,-22.83,-22.82,6.00,6.60,4.24,-11.69,-11.69,5.14
23.92,-17.57,-17.57,-22.70,-22.70,6.00,6.60,4.36,-11.57,-11.57,5.13
24.16,-17.48,-17.49,-22.60,-22.60,6.00,6.59,4.48,-11.48,-11.49,5.12
24.40,-17.42,-17.42,-22.53,-22.53,6.00,6.59,4.60,-11.42,-11.42,5.11
24.65,-17.36,-17.36,-22.47,-22.47,6.00,6.59,4.72,-11.36,-11.36,5.11
24.89,-17.30,-17.30,-22.41,-22.41,6.00,6.59,4.85,-11.30,-11.30,5.11
25.14,-17.23,-17.23,-22.34,-22.34,6.00,6.58,4.97,-11.23,-11.23,5.11
25.39,-17.16,-17.16,-22.26,-22.26,6.00,6.58,5.10,-11.16,-11.16,5.10
25.65,-17.08,-17.08,-22.18,-22.18,6.00,6.58,5.23,-11.08,-11.08,5.10
25.91,-16.99,-16.99,-22.09,-22.09,6.00,6.58,5.36,-10.99,-10.99,5.10
26.16,-16.90,-16.90,-22.00,-22.00,6.00,6.57,5.48,-10.90,-10.90,5.10
26.43,-16.80,-16.80,-21.90,-21.90,6.00,6.57,5.61,-10.80,-10.80,5.10
26.69,-16.70,-16.70,-21.80,-21.80,6.00,6.57,5.74,-10.70,-10.70,5.10
26.96,-16.61,-16.61,-21.71,-21.71,6.00,6.56,5.87,-10.61,-10.61,5.10
27.23,-16.52,-16.52,-21.62,-21.62,6.00,6.56,5.99,-10.52,-10.52,5.10
27.50,-16.44,-16.44,-21.54,-21.54,6.00,6.56,6.11,-10.44,-10.44,5.10
27.77,-16.37,-16.37,-21.47,-21.46,6.00,6.55,6.23,-10.37,-10.37,5.10
28.05,-16.29,-16.29,-21.38,-21.38,6.00,6.55,6.35,-10.29,-10.29,5.09
28.33,-16.21,-16.21,-21.30,-21.29,6.00,6.55,6.46,-10.21,-10.21,5.09
28.62,-16.10,-16.10,-21.18,-21.18,6.00,6.54,6.56,-10.10,-10.10,5.08
28.90,-15.97,-15.97,-21.05,-21.05,6.00,6.54,6.66,-9.97,-9.97,5.08
29.19,-15.81,-15.80,-20.88,-20.87,6.00,6.54,6.75,-9.81,-9.80,5.07
29.48,-15.60,-15.60,-20.66,-20.66,6.00,6.53,6.84,-9.60,-9.60,5.06
29.78,-15.36,-15.36,-20.42,-20.42,6.00,6.53,6.92,-9.36,-9.36,5.06
30.08,-15.11,-15.11,-20.16,-20.16,6.00,6.52,6.98,-9.11,-9.11,5.05
30.38,-14.85,-14.86,-19.90,-19.91,6.00,6.52,7.05,-8.85,-8.86,5.05
30.68,-14.61,-14.61,-19.66,-19.66,6.00,6.51,7.09,-8.61,-8.61,5.05
30.99,-14.38,-14.38,-19.43,-19.43,6.00,6.51,7.14,-8.38,-8.38,5.05
31.30,-14.17,-14.18,-19.22,-19.23,6.00,6.51,7.17,-8.17,-8.18,5.05
31.61,-13.98,-13.98,-19.03,-19.03,6.00,6.50,7.20,-7.98,-7.98,5.05
31.93,-13.80,-13.80,-18.86,-18.85,6.00,6.50,7.21,-7.80,-7.80,5.06
32.24,-13.61,-13.61,-18.67,-18.67,6.00,6.49,7.21,-7.61,-7.61,5.06
32.57,-13.42,-13.42,-18.48,-18.48,6.00,6.49,7.21,-7.42,-7.42,5.06
32.89,-13.22,-13.22,-18.29,-18.28,6.00,6.48,7.20,-7.22,-7.22,5.07
33.22,-13.01,-13.01,-18.08,-18.08,6.00,6.47,7.17,-7.01,-7.01,5.07
33.55,-12.81,-12.81,-17.88,-17.88,6.00,6.47,7.15,-6.81,-6.81,5.07
33.89,-12.62,-12.62,-17.68,-17.68,6.00,6.46,7.11,-6.62,-6.62,5.06
34.23,-12.45,-12.46,-17.51,-17.52,6.00,6.46,7.07,-6.45,-6.46,5.06
34.57,-12.31,-12.31,-17.37,-17.37,6.00,6.45,7.03,-6.31,-6.31,5.06
34.92,-12.19,-12.19,-17.24,-17.24,6.00,6.44,6.98,-6.19,-6.19,5.05
35.27,-12.08,-12.08,-17.12,-17.12,6.00,6.44,6.93,-6.08,-6.08,5.04
35.62,-11.98,-11.98,-17.01,-17.01,6.00,6.43,6.87,-5.98,-5.98,5.03
35.97,-11.89,-11.89,-16.91,-16.91,6.00,6.43,6.81,-5.89,-5.89,5.02
36.33,-11.80,-11.80,-16.81,-16.81,6.00,6.42,6.75,-5.80,-5.80,5.01
36.70,-11.70,-11.70,-16.69,-16.69,6.00,6.41,6.69,-5.70,-5.70,4.99
37.06,-11.58,-11.58,-16.56,-16.55,6.00,6.40,6.63,-5.58,-5.58,4.98
37.43,-11.44,-11.44,-16.40,-16.41,6.00,6.40,6.57,-5.44,-5.44,4.96
37.81,-11.30,-11.30,-16.25,-16.24,6.00,6.39,6.51,-5.30,-5.30,4.95
38.19,-11.14,-11.14,-16.07,-16.07,6.00,6.38,6.45,-5.14,-5.14,4.93
38.57,-10.97,-10.98,-15.89,-15.89,6.00,6.37,6.40,-4.97,-4.98,4.92
38.95,-10.81,-10.81,-15.72,-15.71,6.00,6.36,6.34,-4.81,-4.81,4.91
39.34,-10.64,-10.64,-15.54,-15.54,6.00,6.36,6.29,-4.64,-4.64,4.90
39.74,-10.48,-10.48,-15.37,-15.37,6.00,6.35,6.25,-4.48,-4.48,4.89
40.14,-10.32,-10.32,-15.20,-15.21,6.00,6.34,6.20,-4.32,-4.32,4.88
40.54,-10.17,-10.17,-15.05,-15.05,6.00,6.33,6.16,-4.17,-4.17,4.88
40.94,-10.03,-10.03,-14.91,-14.90,6.00,6.32,6.12,-4.03,-4.03,4.88
41.35,-9.89,-9.89,-14.76,-14.76,6.00,6.31,6.09,-3.89,-3.89,4.87
41.76,-9.76,-9.76,-14.63,-14.63,6.00,6.30,6.06,-3.76,-3.76,4.87
42.18,-9.63,-9.63,-14.51,-14.50,6.00,6.29,6.04,-3.63,-3.63,4.88
42.60,-9.50,-9.50,-14.38,-14.38,6.00,6.28,6.02,-3.50,-3.50,4.88
43.03,-9.37,-9.37,-14.25,-14.25,6.00,6.27,6.00,-3.37,-3.37,4.88
43.46,-9.23,-9.23,-14.12,-14.12,6.00,6.26,5.99,-3.23,-3.23,4.89
43.90,-9.10,-9.10,-14.00,-13.99,6.00,6.25,5.98,-3.10,-3.10,4.90
44.33,-8.96,-8.96,-13.86,-13.87,6.00,6.23,5.98,-2.96,-2.96,4.90
44.78,-8.83,-8.83,-13.74,-13.74,6.00,6.22,5.98,-2.83,-2.83,4.91
45.23,-8.70,-8.70,-13.62,-13.62,6.00,6.21,5.99,-2.70,-2.70,4.92
45.68,-8.58,-8.58,-13.50,-13.50,6.00,6.20,6.00,-2.58,-2.58,4.92
46.13,-8.47,-8.47,-13.39,-13.40,6.00,6.19,6.01,-2.47,-2.47,4.92
46.60,-8.37,-8.37,-13.30,-13.30,6.00,6.17,6.03,-2.37,-2.37,4.93
47.06,-8.28,-8.28,-13.21,-13.21,6.00,6.16,6.06,-2.28,-2.28,4.93
47.53,-8.18,-8.18,-13.11,-13.11,6.00,6.15,6.09,-2.18,-2.18,4.93
48.01,-8.07,-8.07,-13.00,-13.00,6.00,6.13,6.12,-2.07,-2.07,4.93
48.49,-7.95,-7.95,-12.88,-12.88,6.00,6.12,6.16,-1.95,-1.95,4.93
48.97,-7.81,-7.81,-12.74,-12.74,6.00,6.11,6.20,-1.81,-1.81,4.93
49.46,-7.65,-7.65,-12.58,-12.57,6.00,6.09,6.24,-1.65,-1.65,4.93
49.96,-7.47,-7.47,-12.39,-12.39,6.00,6.08,6.29,-1.47,-1.47,4.92
50.46,-7.28,-7.28,-12.20,-12.20,6.00,6.07,6.34,-1.28,-1.28,4.92
50.96,-7.09,-7.09,-12.00,-12.00,6.00,6.05,6.39,-1.09,-1.09,4.91
51.47,-6.89,-6.89,-11.80,-11.80,6.00,6.04,6.44,-0.89,-0.89,4.91
51.99,-6.69,-6.69,-11.60,-11.60,6.00,6.02,6.50,-0.69,-0.69,4.91
52.51,-6.50,-6.51,-11.41,-11.41,6.00,6.01,6.55,-0.50,-0.51,4.91
53.03,-6.33,-6.33,-11.24,-11.24,6.00,5.99,6.61,-0.33,-0.33,4.91
53.56,-6.17,-6.17,-11.08,-11.08,6.00,5.98,6.66,-0.17,-0.17,4.91
54.10,-6.02,-6.02,-10.93,-10.93,6.00,5.96,6.72,-0.02,-0.02,4.91
54.64,-5.88,-5.88,-10.79,-10.79,6.00,5.95,6.77,0.12,0.12,4.91
55.18,-5.74,-5.74,-10.65,-10.65,6.00,5.94,6.83,0.26,0.26,4.91
55.74,-5.61,-5.61,-10.52,-10.52,6.00,5.92,6.88,0.39,0.39,4.91
56.29,-5.49,-5.49,-10.40,-10.40,6.00,5.91,6.92,0.51,0.51,4.91
56.86,-5.38,-5.38,-10.29,-10.29,6.00,5.90,6.96,0.62,0.62,4.91
57.42,-5.26,-5.26,-10.17,-10.17,6.00,5.89,7.00,0.74,0.74,4.91
58.00,-5.14,-5.14,-10.05,-10.05,6.00,5.87,7.03,0.86,0.86,4.91
58.58,-5.01,-5.01,-9.92,-9.92,6.00,5.86,7.05,0.99,0.99,4.91
59.16,-4.87,-4.87,-9.78,-9.78,6.00,5.85,7.07,1.13,1.13,4.91
59.76,-4.73,-4.73,-9.64,-9.64,6.00,5.85,7.07,1.27,1.27,4.91
60.35,-4.57,-4.57,-9.48,-9.48,6.00,5.84,7.07,1.43,1.43,4.91
60.96,-4.41,-4.41,-9.32,-9.32,6.00,5.84,7.06,1.59,1.59,4.91
61.57,-4.25,-4.25,-9.15,-9.15,6.00,5.83,7.04,1.75,1.75,4.90
62.18,-4.08,-4.08,-8.98,-8.98,6.00,5.83,7.01,1.92,1.92,4.90
62.80,-3.91,-3.91,-8.81,-8.81,6.00,5.83,6.97,2.09,2.09,4.90
63.43,-3.75,-3.75,-8.64,-8.65,6.00,5.84,6.92,2.25,2.25,4.89
64.07,-3.60,-3.60,-8.49,-8.49,6.00,5.84,6.86,2.40,2.40,4.89
64.71,-3.45,-3.45,-8.34,-8.33,6.00,5.85,6.79,2.55,2.55,4.89
65.35,-3.29,-3.29,-8.18,-8.18,6.00,5.87,6.71,2.71,2.71,4.89
66.01,-3.13,-3.13,-8.02,-8.02,6.00,5.88,6.62,2.87,2.87,4.89
66.67,-2.98,-2.98,-7.87,-7.87,6.00,5.90,6.53,3.02,3.02,4.89
67.33,-2.82,-2.82,-7.71,-7.71,6.00,5.92,6.42,3.18,3.18,4.89
68.01,-2.67,-2.67,-7.56,-7.56,6.00,5.95,6.31,3.33,3.33,4.89
68.69,-2.51,-2.51,-7.40,-7.40,6.00,5.97,6.19,3.49,3.49,4.89
69.37,-2.36,-2.36,-7.25,-7.25,6.00,5.99,6.06,3.64,3.64,4.89
70.07,-2.20,-2.20,-7.10,-7.10,6.00,6.01,5.93,3.80,3.80,4.90
70.77,-2.05,-2.05,-6.95,-6.95,6.00,6.03,5.80,3.95,3.95,4.90
71.48,-1.91,-1.91,-6.81,-6.81,6.01,6.04,5.66,4.10,4.11,4.90
72.19,-1.76,-1.76,-6.66,-6.66,6.02,6.04,5.52,4.26,4.26,4.90
72.91,-1.61,-1.61,-6.52,-6.52,6.03,6.02,5.37,4.42,4.41,4.91
73.64,-1.47,-1.47,-6.38,-6.37,6.01,6.00,5.22,4.54,4.55,4.91
74.38,-1.32,-1.32,-6.23,-6.23,5.99,5.95,5.07,4.67,4.67,4.91
75.12,-1.17,-1.18,-6.08,-6.09,5.94,5.89,4.93,4.77,4.76,4.91
75.87,-1.03,-1.03,-5.95,-5.94,5.87,5.81,4.78,4.84,4.84,4.92
76.63,-0.89,-0.89,-5.81,-5.80,5.78,5.71,4.63,4.89,4.90,4.92
77.40,-0.74,-0.74,-5.66,-5.66,5.67,5.60,4.48,4.93,4.93,4.92
78.17,-0.60,-0.60,-5.52,-5.52,5.55,5.48,4.33,4.95,4.95,4.92
78.95,-0.46,-0.46,-5.39,-5.38,5.41,5.34,4.18,4.95,4.95,4.93
79.74,-0.32,-0.32,-5.25,-5.25,5.26,5.20,4.03,4.94,4.94,4.93
80.54,-0.18,-0.18,-5.11,-5.11,5.11,5.06,3.89,4.93,4.93,4.93
81.35,-0.04,-0.04,-4.98,-4.97,4.97,4.91,3.74,4.93,4.93,4.94
82.16,0.10,0.10,-4.84,-4.84,4.83,4.76,3.60,4.93,4.94,4.94
82.98,0.25,0.25,-4.69,-4.70,4.70,4.61,3.46,4.95,4.94,4.94
83.81,0.39,0.39,-4.56,-4.56,4.56,4.47,3.32,4.95,4.95,4.95
84.65,0.53,0.53,-4.42,-4.42,4.42,4.32,3.18,4.95,4.96,4.95
85.50,0.67,0.67,-4.29,-4.29,4.29,4.18,3.05,4.96,4.96,4.96
86.35,0.81,0.81,-4.16,-4.16,4.16,4.04,2.92,4.97,4.97,4.97
87.22,0.94,0.94,-4.03,-4.03,4.03,3.91,2.79,4.97,4.97,4.97
88.09,1.07,1.07,-3.91,-3.91,3.91,3.78,2.66,4.98,4.98,4.98
88.97,1.20,1.20,-3.78,-3.78,3.78,3.65,2.53,4.98,4.98,4.98
89.86,1.33,1.33,-3.66,-3.66,3.66,3.52,2.41,4.99,4.99,4.99
90.76,1.46,1.46,-3.53,-3.54,3.54,3.39,2.28,5.00,4.99,4.99
91.66,1.58,1.58,-3.42,-3.42,3.42,3.27,2.16,5.00,4.99,5.00
92.58,1.70,1.70,-3.30,-3.29,3.29,3.15,2.04,4.99,4.99,5.00
93.51,1.83,1.83,-3.17,-3.17,3.17,3.03,1.93,5.00,5.00,5.00
94.44,1.96,1.96,-3.04,-3.04,3.04,2.91,1.81,5.00,5.00,5.00
95.39,2.09,2.09,-2.91,-2.91,2.91,2.79,1.70,5.00,5.00,5.00
96.34,2.22,2.22,-2.78,-2.78,2.78,2.67,1.59,4.99,5.00,5.00
97.30,2.36,2.36,-2.64,-2.64,2.64,2.56,1.48,5.00,4.99,5.00
98.28,2.49,2.49,-2.50,-2.50,2.50,2.44,1.37,4.99,4.99,4.99
99.26,2.63,2.63,-2.36,-2.36,2.36,2.33,1.26,4.99,4.99,4.99
100.25,2.77,2.77,-2.22,-2.22,2.22,2.21,1.16,4.98,4.98,4.99
101.25,2.91,2.91,-2.07,-2.07,2.07,2.10,1.05,4.98,4.98,4.98
102.27,3.05,3.05,-1.93,-1.93,1.93,1.98,0.95,4.98,4.98,4.98
103.29,3.20,3.20,-1.78,-1.78,1.78,1.87,0.85,4.98,4.98,4.98
104.32,3.34,3.34,-1.64,-1.64,1.64,1.76,0.75,4.98,4.98,4.98
105.37,3.48,3.48,-1.50,-1.50,1.50,1.64,0.65,4.98,4.98,4.98
106.42,3.62,3.62,-1.36,-1.36,1.36,1.53,0.55,4.98,4.98,4.98
107.48,3.76,3.76,-1.22,-1.22,1.22,1.41,0.46,4.98,4.98,4.98
108.56,3.90,3.90,-1.08,-1.08,1.08,1.30,0.36,4.98,4.98,4.98
109.64,4.04,4.04,-0.95,-0.95,0.95,1.18,0.27,4.99,4.98,4.99
110.74,4.18,4.18,-0.81,-0.81,0.81,1.07,0.18,4.99,4.99,4.99
111.85,4.31,4.31,-0.68,-0.68,0.68,0.95,0.09,4.99,4.99,4.99
112.97,4.45,4.45,-0.54,-0.54,0.54,0.84,-0.00,4.99,4.99,4.99
114.10,4.58,4.58,-0.41,-0.41,0.41,0.72,-0.09,4.99,4.99,4.99
115.24,4.71,4.71,-0.28,-0.28,0.28,0.61,-0.17,4.99,4.99,4.99
116.39,4.83,4.83,-0.15,-0.15,0.15,0.49,-0.26,4.98,4.98,4.98
117.55,4.96,4.96,-0.02,-0.02,0.02,0.38,-0.34,4.98,4.97,4.98
118.73,5.08,5.08,0.11,0.11,-0.11,0.26,-0.43,4.97,4.97,4.97
119.92,5.21,5.21,0.25,0.25,-0.25,0.14,-0.51,4.96,4.96,4.96
121.12,5.33,5.33,0.38,0.38,-0.38,0.03,-0.59,4.95,4.95,4.95
122.33,5.45,5.45,0.51,0.51,-0.51,-0.09,-0.67,4.94,4.94,4.94
123.55,5.58,5.58,0.65,0.65,-0.65,-0.21,-0.75,4.93,4.92,4.93
124.79,5.70,5.70,0.78,0.78,-0.79,-0.33,-0.82,4.91,4.91,4.92
126.03,5.83,5.83,0.92,0.92,-0.93,-0.45,-0.90,4.90,4.90,4.91
127.29,5.96,5.96,1.07,1.07,-1.07,-0.56,-0.97,4.89,4.89,4.89
128.57,6.09,6.09,1.21,1.21,-1.21,-0.68,-1.05,4.88,4.88,4.88
129.85,6.22,6.22,1.35,1.35,-1.35,-0.80,-1.12,4.87,4.87,4.87
131.15,6.35,6.35,1.49,1.49,-1.49,-0.92,-1.20,4.86,4.86,4.86
132.46,6.48,6.48,1.63,1.63,-1.63,-1.04,-1.27,4.85,4.85,4.85
133.79,6.61,6.61,1.76,1.76,-1.76,-1.16,-1.34,4.84,4.84,4.85
135.12,6.74,6.74,1.90,1.90,-1.90,-1.28,-1.41,4.84,4.84,4.84
136.48,6.87,6.87,2.03,2.03,-2.03,-1.40,-1.49,4.84,4.84,4.84
137.84,7.00,7.00,2.16,2.16,-2.16,-1.52,-1.56,4.84,4.84,4.84
139.22,7.12,7.12,2.28,2.28,-2.28,-1.64,-1.63,4.84,4.84,4.84
140.61,7.24,7.24,2.40,2.40,-2.40,-1.77,-1.70,4.84,4.84,4.84
142.02,7.36,7.36,2.52,2.52,-2.52,-1.89,-1.78,4.84,4.84,4.84
143.44,7.48,7.48,2.64,2.64,-2.64,-2.01,-1.85,4.84,4.84,4.84
144.87,7.60,7.60,2.76,2.76,-2.76,-2.13,-1.92,4.84,4.84,4.84
146.32,7.71,7.71,2.87,2.87,-2.87,-2.25,-2.00,4.84,4.84,4.84
147.78,7.83,7.83,2.99,2.99,-2.99,-2.38,-2.08,4.84,4.84,4.84
149.26,7.94,7.94,3.10,3.10,-3.10,-2.50,-2.15,4.83,4.84,4.84
150.75,8.06,8.06,3.22,3.22,-3.22,-2.62,-2.23,4.84,4.84,4.84
152.26,8.17,8.17,3.33,3.33,-3.34,-2.74,-2.31,4.83,4.84,4.84
153.78,8.29,8.29,3.45,3.45,-3.45,-2.87,-2.40,4.84,4.84,4.84
155.32,8.41,8.41,3.57,3.57,-3.57,-2.99,-2.48,4.84,4.84,4.84
156.88,8.52,8.52,3.68,3.68,-3.69,-3.11,-2.57,4.83,4.84,4.84
158.44,8.64,8.64,3.80,3.80,-3.80,-3.24,-2.65,4.84,4.83,4.84
160.03,8.75,8.75,3.91,3.92,-3.92,-3.36,-2.74,4.83,4.83,4.84
161.63,8.86,8.86,4.03,4.03,-4.03,-3.48,-2.84,4.83,4.83,4.83
163.24,8.97,8.97,4.15,4.14,-4.14,-3.61,-2.93,4.83,4.82,4.82
164.88,9.07,9.07,4.25,4.25,-4.25,-3.73,-3.03,4.82,4.82,4.82
166.53,9.17,9.17,4.35,4.35,-4.35,-3.85,-3.13,4.82,4.82,4.82
168.19,9.27,9.27,4.45,4.45,-4.45,-3.97,-3.23,4.82,4.82,4.82
169.87,9.36,9.36,4.54,4.54,-4.54,-4.09,-3.33,4.82,4.82,4.82
171.57,9.44,9.44,4.63,4.63,-4.63,-4.21,-3.44,4.81,4.82,4.81
173.29,9.52,9.52,4.71,4.71,-4.70,-4.33,-3.55,4.81,4.81,4.81
175.02,9.59,9.59,4.78,4.78,-4.78,-4.45,-3.66,4.81,4.81,4.81
176.77,9.66,9.66,4.85,4.85,-4.85,-4.57,-3.78,4.81,4.81,4.81
178.54,9.72,9.72,4.91,4.91,-4.91,-4.69,-3.90,4.81,4.81,4.81
180.32,9.78,9.78,4.97,4.97,-4.97,-4.80,-4.02,4.81,4.81,4.81
182.13,9.84,9.84,5.03,5.03,-5.03,-4.92,-4.14,4.81,4.81,4.81
183.95,9.90,9.90,5.09,5.09,-5.09,-5.03,-4.27,4.80,4.80,4.81
185.79,9.96,9.96,5.15,5.15,-5.16,-5.14,-4.40,4.80,4.80,4.81
187.65,10.02,10.02,5.21,5.21,-5.22,-5.25,-4.53,4.80,4.80,4.81
189.52,10.09,10.08,5.28,5.28,-5.28,-5.35,-4.67,4.81,4.80,4.81
191.42,10.15,10.15,5.35,5.35,-5.35,-5.46,-4.81,4.80,4.80,4.80
193.33,10.21,10.21,5.41,5.41,-5.41,-5.56,-4.95,4.80,4.80,4.80
195.27,10.28,10.28,5.48,5.48,-5.48,-5.66,-5.09,4.80,4.80,4.80
197.22,10.34,10.34,5.54,5.54,-5.54,-5.75,-5.24,4.79,4.80,4.80
199.19,10.41,10.41,5.61,5.61,-5.61,-5.85,-5.39,4.80,4.80,4.80
201.18,10.48,10.48,5.68,5.68,-5.68,-5.93,-5.54,4.80,4.80,4.80
203.19,10.54,10.54,5.74,5.74,-5.74,-6.02,-5.69,4.80,4.80,4.80
205.23,10.61,10.61,5.81,5.81,-5.81,-6.10,-5.84,4.80,4.80,4.80
207.28,10.67,10.67,5.87,5.87,-5.88,-6.18,-6.00,4.79,4.80,4.80
209.35,10.74,10.74,5.94,5.94,-5.94,-6.25,-6.15,4.80,4.80,4.80
211.44,10.80,10.80,6.00,6.00,-6.00,-6.32,-6.30,4.80,4.79,4.80
213.56,10.86,10.86,6.07,6.07,-6.06,-6.38,-6.45,4.79,4.79,4.79
215.69,10.91,10.91,6.12,6.13,-6.12,-6.44,-6.60,4.79,4.79,4.79
217.85,10.97,10.97,6.18,6.18,-6.18,-6.50,-6.75,4.79,4.79,4.79
220.03,11.02,11.02,6.23,6.23,-6.23,-6.55,-6.89,4.79,4.79,4.79
222.23,11.06,11.06,6.27,6.28,-6.27,-6.59,-7.03,4.79,4.79,4.79
224.45,11.11,11.11,6.32,6.32,-6.32,-6.63,-7.16,4.79,4.79,4.79
226.70,11.15,11.15,6.36,6.36,-6.36,-6.66,-7.28,4.79,4.79,4.79
228.96,11.18,11.18,6.39,6.39,-6.39,-6.69,-7.40,4.79,4.79,4.79
231.25,11.21,11.21,6.42,6.42,-6.43,-6.71,-7.51,4.78,4.78,4.79
233.57,11.24,11.24,6.45,6.45,-6.46,-6.73,-7.61,4.78,4.78,4.79
235.90,11.26,11.26,6.49,6.48,-6.48,-6.74,-7.69,4.77,4.78,4.77
238.26,11.28,11.28,6.51,6.51,-6.51,-6.75,-7.77,4.77,4.77,4.77
240.64,11.30,11.30,6.53,6.53,-6.53,-6.75,-7.83,4.77,4.77,4.77
243.05,11.32,11.32,6.55,6.55,-6.55,-6.75,-7.88,4.77,4.77,4.77
245.48,11.33,11.33,6.56,6.56,-6.56,-6.74,-7.91,4.77,4.77,4.77
247.93,11.34,11.34,6.57,6.57,-6.57,-6.73,-7.93,4.77,4.77,4.77
250.41,11.35,11.35,6.58,6.58,-6.58,-6.72,-7.93,4.77,4.77,4.77
252.92,11.36,11.36,6.59,6.59,-6.59,-6.70,-7.92,4.77,4.77,4.77
255.45,11.36,11.36,6.59,6.59,-6.59,-6.67,-7.88,4.77,4.77,4.77
258.00,11.36,11.36,6.59,6.59,-6.59,-6.65,-7.84,4.77,4.77,4.77
260.58,11.36,11.36,6.59,6.59,-6.59,-6.62,-7.78,4.77,4.76,4.77
263.19,11.35,11.35,6.59,6.59,-6.59,-6.58,-7.71,4.76,4.76,4.76
265.82,11.34,11.34,6.58,6.58,-6.58,-6.55,-7.62,4.76,4.76,4.76
268.48,11.33,11.33,6.57,6.57,-6.57,-6.51,-7.53,4.76,4.75,4.76
271.16,11.31,11.31,6.56,6.56,-6.56,-6.47,-7.42,4.75,4.75,4.75
273.87,11.29,11.29,6.54,6.54,-6.54,-6.42,-7.30,4.75,4.75,4.75
276.61,11.26,11.26,6.52,6.52,-6.52,-6.38,-7.17,4.74,4.74,4.74
279.38,11.23,11.23,6.49,6.49,-6.49,-6.33,-7.04,4.74,4.74,4.74
282.17,11.19,11.19,6.46,6.46,-6.46,-6.28,-6.90,4.73,4.74,4.73
284.99,11.15,11.15,6.41,6.41,-6.42,-6.22,-6.75,4.73,4.73,4.74
287.84,11.11,11.10,6.37,6.37,-6.37,-6.17,-6.60,4.74,4.73,4.74
290.72,11.05,11.05,6.32,6.32,-6.32,-6.11,-6.45,4.73,4.73,4.73
293.63,11.00,11.00,6.27,6.27,-6.27,-6.05,-6.29,4.73,4.73,4.73
296.57,10.94,10.94,6.21,6.21,-6.21,-5.99,-6.13,4.73,4.73,4.73
299.53,10.88,10.88,6.14,6.14,-6.14,-5.93,-5.97,4.74,4.73,4.74
302.53,10.81,10.81,6.08,6.08,-6.08,-5.87,-5.81,4.73,4.73,4.73
305.55,10.74,10.74,6.00,6.01,-6.01,-5.80,-5.65,4.73,4.73,4.74
308.61,10.67,10.67,5.94,5.94,-5.94,-5.74,-5.49,4.73,4.73,4.73
311.69,10.60,10.60,5.86,5.86,-5.87,-5.67,-5.33,4.73,4.73,4.74
314.81,10.53,10.53,5.80,5.79,-5.79,-5.60,-5.17,4.74,4.73,4.73
317.96,10.45,10.45,5.71,5.72,-5.72,-5.52,-5.02,4.73,4.74,4.74
321.14,10.38,10.38,5.64,5.64,-5.64,-5.44,-4.86,4.74,4.74,4.74
324.35,10.30,10.30,5.56,5.55,-5.55,-5.37,-4.71,4.75,4.74,4.74
327.59,10.21,10.21,5.46,5.47,-5.47,-5.28,-4.56,4.74,4.74,4.75
330.87,10.12,10.12,5.37,5.37,-5.38,-5.20,-4.41,4.74,4.74,4.75
334.18,10.03,10.03,5.28,5.28,-5.28,-5.11,-4.27,4.75,4.75,4.75
337.52,9.94,9.94,5.19,5.19,-5.18,-5.02,-4.13,4.76,4.75,4.75
340.90,9.84,9.84,5.09,5.08,-5.08,-4.93,-3.99,4.76,4.76,4.75
344.30,9.73,9.73,4.97,4.98,-4.97,-4.83,-3.85,4.75,4.76,4.76
347.75,9.63,9.63,4.86,4.86,-4.87,-4.73,-3.72,4.76,4.76,4.77
351.23,9.52,9.52,4.76,4.75,-4.75,-4.63,-3.59,4.77,4.76,4.76
354.74,9.41,9.41,4.63,4.64,-4.64,-4.52,-3.46,4.77,4.77,4.78
358.28,9.29,9.29,4.52,4.52,-4.52,-4.41,-3.33,4.77,4.77,4.77
361.87,9.18,9.18,4.40,4.40,-4.40,-4.30,-3.21,4.78,4.78,4.78
365.49,9.06,9.06,4.28,4.28,-4.28,-4.18,-3.09,4.78,4.78,4.78
369.14,8.94,8.94,4.16,4.16,-4.16,-4.07,-2.97,4.78,4.78,4.78
372.83,8.82,8.82,4.03,4.03,-4.04,-3.95,-2.85,4.78,4.78,4.79
376.56,8.70,8.70,3.91,3.91,-3.92,-3.83,-2.74,4.78,4.78,4.79
380.33,8.58,8.58,3.79,3.79,-3.79,-3.70,-2.63,4.79,4.79,4.79
384.13,8.46,8.46,3.68,3.67,-3.67,-3.58,-2.52,4.79,4.79,4.78
387.97,8.34,8.34,3.55,3.55,-3.55,-3.45,-2.41,4.79,4.79,4.79
391.85,8.22,8.22,3.42,3.43,-3.43,-3.33,-2.31,4.79,4.79,4.80
395.77,8.10,8.10,3.30,3.30,-3.30,-3.20,-2.21,4.80,4.80,4.80
399.73,7.98,7.98,3.18,3.18,-3.18,-3.07,-2.11,4.80,4.80,4.80
403.72,7.86,7.86,3.06,3.06,-3.06,-2.94,-2.01,4.80,4.80,4.80
407.76,7.74,7.74,2.94,2.94,-2.94,-2.81,-1.91,4.80,4.80,4.80
411.84,7.62,7.62,2.82,2.82,-2.82,-2.68,-1.82,4.80,4.80,4.80
415.96,7.50,7.50,2.69,2.70,-2.70,-2.55,-1.72,4.80,4.80,4.81
420.12,7.39,7.39,2.59,2.59,-2.59,-2.42,-1.63,4.80,4.80,4.80
424.32,7.27,7.27,2.47,2.47,-2.47,-2.30,-1.54,4.80,4.80,4.80
428.56,7.15,7.15,2.35,2.35,-2.35,-2.17,-1.45,4.80,4.80,4.80
432.85,7.02,7.02,2.22,2.23,-2.23,-2.04,-1.37,4.79,4.80,4.80
437.18,6.90,6.90,2.11,2.11,-2.10,-1.91,-1.28,4.80,4.80,4.79
441.55,6.77,6.77,1.98,1.98,-1.97,-1.79,-1.19,4.80,4.80,4.79
445.96,6.64,6.64,1.85,1.85,-1.84,-1.66,-1.11,4.80,4.80,4.79
450.42,6.50,6.50,1.70,1.70,-1.71,-1.54,-1.03,4.79,4.79,4.80
454.93,6.36,6.36,1.56,1.56,-1.57,-1.41,-0.94,4.79,4.79,4.80
459.48,6.22,6.22,1.42,1.42,-1.43,-1.29,-0.86,4.79,4.79,4.80
464.07,6.08,6.08,1.29,1.29,-1.28,-1.16,-0.78,4.79,4.79,4.79
468.71,5.93,5.93,1.14,1.14,-1.14,-1.04,-0.70,4.79,4.79,4.79
473.40,5.79,5.79,1.00,1.00,-0.99,-0.92,-0.62,4.80,4.79,4.79
