frequency,raw,error,smoothed,error_smoothed,equalization,parametric_eq,fixed_band_eq,equalized_raw,equalized_smoothed,target
20.00,0.99,-4.22,0.99,-4.23,4.23,3.87,1.81,5.22,5.22,5.22
20.20,1.00,-4.20,1.00,-4.21,4.21,3.89,1.86,5.21,5.21,5.21
20.40,1.01,-4.18,1.01,-4.18,4.18,3.91,1.92,5.20,5.19,5.20
20.61,1.02,-4.16,1.02,-4.16,4.16,3.93,1.97,5.18,5.18,5.19
20.81,1.03,-4.13,1.03,-4.14,4.14,3.95,2.03,5.17,5.17,5.17
21.02,1.04,-4.11,1.04,-4.12,4.12,3.96,2.09,5.16,5.16,5.15
21.23,1.05,-4.09,1.06,-4.10,4.10,3.97,2.15,5.15,5.15,5.14
21.44,1.06,-4.09,1.07,-4.08,4.08,3.97,2.21,5.14,5.14,5.15
21.66,1.07,-4.06,1.08,-4.06,4.06,3.98,2.27,5.13,5.13,5.13
21.87,1.08,-4.05,1.09,-4.04,4.04,3.98,2.34,5.12,5.12,5.13
22.09,1.09,-4.02,1.10,-4.02,4.02,3.98,2.40,5.11,5.12,5.11
22.31,1.11,-4.00,1.11,-4.00,4.00,3.97,2.47,5.11,5.11,5.11
22.54,1.12,-3.98,1.12,-3.98,3.98,3.96,2.54,5.11,5.10,5.10
22.76,1.13,-3.97,1.13,-3.97,3.97,3.95,2.61,5.10,5.10,5.10
22.99,1.14,-3.95,1.14,-3.95,3.95,3.94,2.69,5.10,5.09,5.09
23.22,1.15,-3.93,1.15,-3.94,3.94,3.93,2.76,5.09,5.09,5.08
23.45,1.16,-3.93,1.16,-3.93,3.93,3.91,2.84,5.09,5.08,5.09
23.69,1.17,-3.91,1.17,-3.91,3.91,3.90,2.92,5.08,5.08,5.08
23.92,1.18,-3.89,1.18,-3.90,3.90,3.88,3.00,5.08,5.08,5.07
24.16,1.18,-3.90,1.19,-3.89,3.89,3.86,3.08,5.07,5.07,5.08
24.40,1.19,-3.88,1.20,-3.88,3.88,3.83,3.16,5.07,5.07,5.08
24.65,1.20,-3.87,1.20,-3.87,3.87,3.81,3.24,5.07,5.07,5.08
24.89,1.21,-3.86,1.21,-3.86,3.86,3.79,3.33,5.07,5.07,5.08
25.14,1.21,-3.85,1.22,-3.85,3.85,3.76,3.41,5.06,5.07,5.06
25.39,1.22,-3.84,1.23,-3.84,3.84,3.74,3.50,5.06,5.07,5.06
25.65,1.23,-3.83,1.23,-3.83,3.83,3.71,3.58,5.07,5.07,5.06
25.91,1.24,-3.82,1.24,-3.83,3.83,3.68,3.67,5.07,5.07,5.06
26.16,1.25,-3.82,1.25,-3.82,3.82,3.66,3.75,5.07,5.07,5.07
26.43,1.25,-3.82,1.25,-3.81,3.81,3.63,3.83,5.06,5.07,5.07
26.69,1.26,-3.81,1.26,-3.81,3.81,3.60,3.92,5.07,5.07,5.07
26.96,1.27,-3.80,1.27,-3.80,3.80,3.58,4.00,5.07,5.07,5.07
27.23,1.27,-3.80,1.28,-3.80,3.80,3.55,4.07,5.07,5.07,5.07
27.50,1.28,-3.78,1.28,-3.79,3.79,3.53,4.15,5.07,5.07,5.07
27.77,1.29,-3.78,1.29,-3.79,3.79,3.50,4.22,5.08,5.08,5.08
28.05,1.29,-3.78,1.30,-3.78,3.78,3.48,4.29,5.08,5.08,5.07
28.33,1.30,-3.78,1.30,-3.78,3.78,3.45,4.36,5.08,5.08,5.08
28.62,1.30,-3.78,1.31,-3.77,3.77,3.43,4.42,5.08,5.08,5.08
28.90,1.31,-3.78,1.31,-3.77,3.77,3.41,4.48,5.08,5.08,5.09
29.19,1.31,-3.78,1.32,-3.76,3.76,3.39,4.53,5.08,5.08,5.09
29.48,1.32,-3.76,1.32,-3.76,3.76,3.38,4.57,5.08,5.08,5.09
29.78,1.33,-3.75,1.33,-3.75,3.75,3.36,4.61,5.09,5.08,5.09
30.08,1.33,-3.75,1.33,-3.75,3.75,3.34,4.65,5.08,5.08,5.08
30.38,1.33,-3.74,1.33,-3.74,3.74,3.33,4.67,5.08,5.08,5.07
30.68,1.34,-3.73,1.33,-3.74,3.74,3.32,4.69,5.08,5.07,5.07
30.99,1.34,-3.73,1.33,-3.74,3.74,3.31,4.70,5.08,5.07,5.07
31.30,1.34,-3.72,1.33,-3.73,3.73,3.30,4.71,5.07,5.07,5.07
31.61,1.33,-3.73,1.33,-3.73,3.73,3.29,4.71,5.06,5.06,5.07
31.93,1.33,-3.71,1.33,-3.72,3.72,3.29,4.70,5.05,5.05,5.04
32.24,1.33,-3.72,1.33,-3.72,3.72,3.28,4.68,5.05,5.05,5.05
32.57,1.32,-3.72,1.33,-3.72,3.72,3.28,4.66,5.04,5.04,5.04
32.89,1.32,-3.71,1.32,-3.71,3.71,3.28,4.63,5.04,5.04,5.04
33.22,1.32,-3.71,1.32,-3.71,3.71,3.28,4.59,5.03,5.03,5.03
33.55,1.31,-3.72,1.32,-3.71,3.71,3.28,4.55,5.02,5.03,5.03
33.89,1.31,-3.71,1.32,-3.71,3.71,3.29,4.51,5.02,5.02,5.02
34.23,1.31,-3.69,1.31,-3.70,3.70,3.29,4.46,5.01,5.02,5.01
34.57,1.31,-3.69,1.31,-3.69,3.69,3.30,4.40,5.01,5.01,5.00
34.92,1.31,-3.68,1.31,-3.69,3.69,3.31,4.34,5.00,5.00,4.99
35.27,1.31,-3.70,1.31,-3.68,3.68,3.32,4.28,4.99,4.99,5.01
35.62,1.31,-3.67,1.31,-3.67,3.67,3.33,4.21,4.98,4.98,4.98
35.97,1.31,-3.67,1.31,-3.66,3.66,3.34,4.15,4.97,4.97,4.98
36.33,1.31,-3.66,1.31,-3.65,3.65,3.35,4.08,4.96,4.96,4.97
36.70,1.31,-3.63,1.31,-3.63,3.63,3.36,4.01,4.95,4.95,4.94
37.06,1.31,-3.62,1.31,-3.62,3.62,3.37,3.94,4.93,4.93,4.93
37.43,1.31,-3.60,1.31,-3.60,3.60,3.38,3.87,4.92,4.92,4.92
37.81,1.31,-3.59,1.31,-3.59,3.59,3.39,3.79,4.90,4.90,4.90
38.19,1.31,-3.57,1.31,-3.57,3.57,3.40,3.72,4.88,4.88,4.88
38.57,1.31,-3.55,1.31,-3.55,3.55,3.41,3.65,4.86,4.86,4.86
38.95,1.31,-3.54,1.31,-3.53,3.53,3.42,3.58,4.85,4.85,4.85
39.34,1.31,-3.51,1.31,-3.51,3.51,3.42,3.51,4.83,4.83,4.82
39.74,1.31,-3.49,1.31,-3.50,3.50,3.42,3.44,4.81,4.81,4.80
40.14,1.31,-3.47,1.31,-3.48,3.48,3.43,3.38,4.79,4.79,4.79
40.54,1.31,-3.46,1.31,-3.46,3.46,3.42,3.31,4.77,4.77,4.77
40.94,1.31,-3.43,1.30,-3.45,3.45,3.42,3.25,4.76,4.75,4.74
41.35,1.30,-3.43,1.30,-3.43,3.43,3.41,3.19,4.73,4.73,4.73
41.76,1.29,-3.41,1.30,-3.41,3.41,3.40,3.13,4.71,4.71,4.70
42.18,1.29,-3.40,1.29,-3.40,3.40,3.39,3.07,4.69,4.69,4.70
42.60,1.29,-3.38,1.29,-3.38,3.38,3.37,3.01,4.67,4.67,4.67
43.03,1.29,-3.36,1.29,-3.36,3.36,3.35,2.96,4.65,4.65,4.65
43.46,1.29,-3.34,1.29,-3.34,3.34,3.32,2.91,4.63,4.63,4.63
43.90,1.28,-3.33,1.29,-3.32,3.32,3.29,2.86,4.60,4.61,4.61
44.33,1.28,-3.30,1.29,-3.30,3.30,3.26,2.81,4.58,4.59,4.58
44.78,1.29,-3.27,1.29,-3.27,3.27,3.22,2.77,4.56,4.56,4.57
45.23,1.29,-3.26,1.30,-3.24,3.24,3.19,2.73,4.53,4.54,4.55
45.68,1.30,-3.21,1.30,-3.21,3.21,3.14,2.69,4.51,4.51,4.51
46.13,1.31,-3.17,1.31,-3.17,3.17,3.10,2.65,4.48,4.48,4.48
46.60,1.32,-3.13,1.32,-3.13,3.13,3.05,2.61,4.45,4.45,4.45
47.06,1.33,-3.09,1.33,-3.08,3.08,3.00,2.58,4.42,4.42,4.42
47.53,1.34,-3.05,1.34,-3.04,3.04,2.95,2.55,4.38,4.38,4.39
48.01,1.35,-2.99,1.35,-2.99,2.99,2.89,2.52,4.35,4.35,4.34
48.49,1.36,-2.95,1.37,-2.94,2.94,2.83,2.49,4.31,4.31,4.31
48.97,1.38,-2.89,1.38,-2.89,2.89,2.77,2.47,4.28,4.28,4.27
49.46,1.40,-2.84,1.40,-2.84,2.84,2.71,2.44,4.25,4.24,4.24
49.96,1.42,-2.77,1.42,-2.79,2.79,2.65,2.42,4.21,4.21,4.19
50.46,1.43,-2.74,1.43,-2.74,2.74,2.59,2.40,4.17,4.17,4.17
50.96,1.45,-2.68,1.45,-2.69,2.69,2.53,2.38,4.14,4.14,4.14
51.47,1.46,-2.64,1.47,-2.63,2.63,2.47,2.36,4.10,4.10,4.10
51.99,1.48,-2.58,1.49,-2.58,2.58,2.41,2.34,4.06,4.07,4.06
52.51,1.50,-2.53,1.50,-2.53,2.53,2.35,2.33,4.03,4.03,4.04
53.03,1.52,-2.49,1.52,-2.48,2.48,2.28,2.31,4.00,4.00,4.01
53.56,1.54,-2.44,1.54,-2.43,2.43,2.22,2.30,3.97,3.97,3.98
54.10,1.55,-2.38,1.56,-2.38,2.38,2.16,2.28,3.93,3.94,3.93
54.64,1.57,-2.34,1.57,-2.33,2.33,2.10,2.27,3.91,3.91,3.91
55.18,1.59,-2.28,1.59,-2.29,2.29,2.05,2.26,3.88,3.88,3.87
55.74,1.60,-2.23,1.61,-2.25,2.25,1.99,2.24,3.85,3.85,3.84
56.29,1.62,-2.20,1.62,-2.20,2.20,1.93,2.23,3.83,3.82,3.82
56.86,1.63,-2.16,1.63,-2.16,2.16,1.88,2.21,3.79,3.79,3.79
57.42,1.64,-2.11,1.64,-2.12,2.12,1.82,2.20,3.76,3.76,3.75
58.00,1.65,-2.07,1.65,-2.08,2.08,1.77,2.18,3.74,3.73,3.72
58.58,1.66,-2.04,1.65,-2.05,2.05,1.72,2.17,3.71,3.70,3.70
59.16,1.66,-2.02,1.65,-2.01,2.01,1.67,2.15,3.67,3.66,3.68
59.76,1.66,-1.99,1.65,-1.97,1.97,1.62,2.13,3.64,3.63,3.65
60.35,1.66,-1.95,1.65,-1.94,1.94,1.57,2.11,3.60,3.59,3.61
60.96,1.65,-1.92,1.65,-1.90,1.90,1.52,2.09,3.56,3.56,3.57
61.57,1.64,-1.87,1.65,-1.87,1.87,1.48,2.07,3.51,3.52,3.52
62.18,1.64,-1.83,1.65,-1.83,1.83,1.43,2.05,3.47,3.48,3.47
62.80,1.63,-1.80,1.64,-1.80,1.80,1.39,2.02,3.43,3.44,3.43
63.43,1.63,-1.75,1.64,-1.76,1.76,1.35,1.99,3.39,3.40,3.38
64.07,1.63,-1.71,1.64,-1.72,1.72,1.31,1.97,3.35,3.36,3.35
64.71,1.63,-1.68,1.64,-1.68,1.68,1.27,1.94,3.31,3.32,3.31
65.35,1.63,-1.64,1.64,-1.64,1.64,1.23,1.90,3.27,3.28,3.27
66.01,1.63,-1.60,1.64,-1.60,1.60,1.19,1.87,3.23,3.24,3.23
66.67,1.63,-1.57,1.64,-1.56,1.56,1.15,1.84,3.19,3.20,3.21
67.33,1.63,-1.52,1.64,-1.51,1.51,1.12,1.80,3.15,3.16,3.16
68.01,1.64,-1.48,1.65,-1.47,1.47,1.08,1.76,3.11,3.12,3.13
68.69,1.65,-1.43,1.65,-1.43,1.43,1.05,1.73,3.08,3.08,3.08
69.37,1.65,-1.40,1.65,-1.39,1.39,1.02,1.69,3.04,3.04,3.05
70.07,1.65,-1.36,1.65,-1.35,1.35,0.99,1.65,3.00,3.00,3.01
70.77,1.66,-1.30,1.65,-1.31,1.31,0.95,1.61,2.97,2.96,2.96
71.48,1.66,-1.27,1.65,-1.28,1.28,0.93,1.56,2.94,2.92,2.93
72.19,1.65,-1.23,1.64,-1.24,1.24,0.90,1.52,2.89,2.88,2.88
72.91,1.64,-1.20,1.63,-1.21,1.21,0.87,1.48,2.86,2.85,2.84
73.64,1.63,-1.17,1.62,-1.19,1.19,0.84,1.44,2.82,2.81,2.80
74.38,1.61,-1.15,1.61,-1.17,1.17,0.81,1.39,2.78,2.77,2.76
75.12,1.59,-1.14,1.59,-1.15,1.15,0.79,1.35,2.74,2.74,2.73
75.87,1.57,-1.13,1.57,-1.14,1.14,0.76,1.31,2.71,2.70,2.70
76.63,1.54,-1.12,1.55,-1.13,1.13,0.74,1.26,2.67,2.67,2.66
77.40,1.52,-1.12,1.52,-1.12,1.12,0.71,1.22,2.64,2.64,2.64
78.17,1.49,-1.11,1.49,-1.12,1.12,0.69,1.18,2.61,2.61,2.60
78.95,1.47,-1.11,1.47,-1.11,1.11,0.67,1.13,2.58,2.58,2.59
79.74,1.44,-1.11,1.44,-1.11,1.11,0.64,1.09,2.55,2.55,2.55
80.54,1.41,-1.12,1.42,-1.11,1.11,0.62,1.05,2.52,2.52,2.53
81.35,1.39,-1.10,1.39,-1.10,1.10,0.60,1.00,2.49,2.49,2.49
82.16,1.37,-1.10,1.37,-1.09,1.09,0.58,0.96,2.47,2.46,2.48
82.98,1.34,-1.10,1.35,-1.08,1.08,0.56,0.92,2.43,2.44,2.44
83.81,1.32,-1.09,1.34,-1.07,1.07,0.54,0.88,2.39,2.41,2.41
84.65,1.31,-1.06,1.32,-1.05,1.05,0.52,0.84,2.36,2.37,2.37
85.50,1.30,-1.04,1.31,-1.03,1.03,0.50,0.80,2.33,2.34,2.34
86.35,1.29,-1.02,1.31,-1.01,1.01,0.48,0.76,2.30,2.31,2.31
87.22,1.29,-0.99,1.30,-0.98,0.98,0.46,0.72,2.27,2.28,2.28
88.09,1.29,-0.96,1.30,-0.95,0.95,0.44,0.68,2.24,2.25,2.25
88.97,1.30,-0.91,1.30,-0.92,0.92,0.43,0.64,2.22,2.22,2.22
89.86,1.31,-0.87,1.30,-0.88,0.88,0.41,0.61,2.20,2.18,2.18
90.76,1.31,-0.84,1.30,-0.85,0.85,0.39,0.57,2.16,2.15,2.15
91.66,1.31,-0.79,1.30,-0.81,0.81,0.37,0.53,2.12,2.11,2.11
92.58,1.31,-0.77,1.31,-0.77,0.77,0.36,0.50,2.08,2.08,2.08
93.51,1.31,-0.73,1.31,-0.73,0.73,0.34,0.46,2.04,2.04,2.05
94.44,1.31,-0.70,1.31,-0.69,0.69,0.32,0.42,2.00,2.00,2.01
95.39,1.31,-0.65,1.31,-0.65,0.65,0.31,0.39,1.96,1.96,1.97
96.34,1.31,-0.62,1.31,-0.61,0.61,0.29,0.35,1.93,1.93,1.93
97.30,1.31,-0.58,1.31,-0.58,0.58,0.28,0.32,1.89,1.89,1.89
98.28,1.31,-0.53,1.31,-0.54,0.54,0.26,0.29,1.85,1.85,1.85
99.26,1.31,-0.50,1.31,-0.51,0.51,0.24,0.25,1.82,1.82,1.81
100.25,1.31,-0.46,1.31,-0.47,0.47,0.23,0.22,1.78,1.78,1.77
101.25,1.31,-0.43,1.31,-0.44,0.44,0.21,0.19,1.75,1.75,1.74
102.27,1.31,-0.40,1.31,-0.40,0.40,0.20,0.16,1.72,1.72,1.72
103.29,1.31,-0.37,1.31,-0.37,0.37,0.18,0.13,1.68,1.68,1.68
104.32,1.31,-0.34,1.31,-0.34,0.34,0.17,0.09,1.65,1.65,1.65
105.37,1.31,-0.31,1.31,-0.31,0.31,0.15,0.06,1.62,1.62,1.62
106.42,1.31,-0.28,1.31,-0.28,0.28,0.14,0.03,1.59,1.59,1.60
107.48,1.31,-0.25,1.31,-0.25,0.25,0.12,0.00,1.56,1.56,1.56
108.56,1.31,-0.22,1.31,-0.21,0.21,0.11,-0.02,1.53,1.53,1.53
109.64,1.31,-0.19,1.31,-0.18,0.18,0.09,-0.05,1.49,1.49,1.50
110.74,1.31,-0.15,1.31,-0.15,0.15,0.08,-0.08,1.46,1.46,1.46
111.85,1.31,-0.12,1.31,-0.11,0.11,0.06,-0.11,1.43,1.43,1.43
112.97,1.31,-0.09,1.31,-0.08,0.08,0.05,-0.13,1.39,1.39,1.40
114.10,1.31,-0.05,1.31,-0.05,0.05,0.03,-0.16,1.36,1.36,1.36
115.24,1.31,-0.01,1.31,-0.01,0.01,0.02,-0.18,1.32,1.32,1.32
116.39,1.31,0.03,1.31,0.02,-0.02,0.00,-0.20,1.29,1.29,1.28
117.55,1.31,0.07,1.31,0.05,-0.05,-0.01,-0.23,1.26,1.26,1.25
118.73,1.31,0.10,1.31,0.09,-0.09,-0.03,-0.25,1.23,1.23,1.21
119.92,1.31,0.13,1.31,0.12,-0.12,-0.05,-0.27,1.19,1.19,1.19
121.12,1.31,0.15,1.31,0.15,-0.15,-0.06,-0.29,1.16,1.16,1.16
122.33,1.31,0.18,1.31,0.18,-0.18,-0.08,-0.30,1.13,1.13,1.13
123.55,1.31,0.21,1.31,0.22,-0.22,-0.09,-0.32,1.10,1.10,1.11
124.79,1.31,0.24,1.31,0.25,-0.25,-0.11,-0.34,1.07,1.07,1.07
126.03,1.31,0.27,1.31,0.28,-0.28,-0.13,-0.35,1.03,1.03,1.04
127.29,1.31,0.30,1.31,0.31,-0.31,-0.14,-0.37,1.00,1.00,1.01
128.57,1.31,0.34,1.31,0.34,-0.34,-0.16,-0.38,0.97,0.97,0.97
129.85,1.31,0.37,1.31,0.37,-0.37,-0.18,-0.39,0.94,0.94,0.94
131.15,1.31,0.41,1.31,0.40,-0.40,-0.20,-0.41,0.91,0.91,0.90
132.46,1.31,0.44,1.31,0.44,-0.44,-0.22,-0.42,0.88,0.87,0.87
133.79,1.31,0.48,1.31,0.47,-0.47,-0.23,-0.43,0.84,0.84,0.84
135.12,1.31,0.50,1.31,0.50,-0.50,-0.25,-0.44,0.81,0.81,0.81
136.48,1.31,0.53,1.31,0.53,-0.53,-0.27,-0.44,0.78,0.78,0.78
137.84,1.31,0.56,1.31,0.56,-0.56,-0.29,-0.45,0.75,0.75,0.75
139.22,1.31,0.60,1.32,0.60,-0.60,-0.31,-0.46,0.72,0.72,0.71
140.61,1.31,0.62,1.32,0.63,-0.63,-0.33,-0.47,0.68,0.69,0.69
142.02,1.31,0.65,1.32,0.66,-0.66,-0.35,-0.47,0.65,0.66,0.66
143.44,1.31,0.68,1.33,0.69,-0.69,-0.37,-0.48,0.62,0.64,0.64
144.87,1.31,0.70,1.33,0.72,-0.72,-0.39,-0.49,0.60,0.61,0.61
146.32,1.32,0.74,1.33,0.74,-0.74,-0.42,-0.49,0.58,0.59,0.58
147.78,1.33,0.77,1.33,0.76,-0.76,-0.44,-0.50,0.57,0.56,0.57
149.26,1.33,0.80,1.32,0.78,-0.78,-0.46,-0.51,0.55,0.54,0.54
150.75,1.33,0.82,1.32,0.80,-0.80,-0.48,-0.51,0.53,0.51,0.51
152.26,1.32,0.83,1.31,0.82,-0.82,-0.51,-0.52,0.51,0.49,0.49
153.78,1.31,0.85,1.29,0.83,-0.83,-0.53,-0.53,0.49,0.46,0.47
155.32,1.30,0.86,1.27,0.84,-0.84,-0.56,-0.53,0.47,0.44,0.44
156.88,1.26,0.84,1.26,0.84,-0.84,-0.58,-0.54,0.42,0.41,0.42
158.44,1.24,0.86,1.23,0.85,-0.85,-0.60,-0.55,0.39,0.39,0.38
160.03,1.20,0.84,1.21,0.85,-0.85,-0.63,-0.55,0.35,0.36,0.36
161.63,1.17,0.84,1.18,0.85,-0.85,-0.66,-0.56,0.32,0.33,0.33
163.24,1.14,0.84,1.15,0.85,-0.85,-0.68,-0.57,0.29,0.30,0.30
164.88,1.10,0.83,1.12,0.85,-0.85,-0.71,-0.58,0.25,0.27,0.27
166.53,1.08,0.85,1.10,0.86,-0.86,-0.73,-0.59,0.22,0.24,0.23
168.19,1.06,0.85,1.07,0.86,-0.86,-0.76,-0.60,0.20,0.21,0.21
169.87,1.03,0.86,1.04,0.87,-0.87,-0.79,-0.61,0.16,0.17,0.17
171.57,1.01,0.87,1.02,0.87,-0.87,-0.81,-0.62,0.14,0.14,0.14
173.29,0.99,0.88,0.99,0.88,-0.88,-0.84,-0.63,0.11,0.11,0.11
175.02,0.96,0.89,0.97,0.89,-0.89,-0.86,-0.64,0.07,0.07,0.08
176.77,0.94,0.90,0.94,0.90,-0.90,-0.89,-0.66,0.04,0.04,0.04
178.54,0.92,0.91,0.91,0.91,-0.91,-0.91,-0.67,0.02,0.01,0.01
180.32,0.91,0.95,0.89,0.91,-0.91,-0.94,-0.68,-0.00,-0.03,-0.03
182.13,0.88,0.94,0.86,0.92,-0.92,-0.96,-0.70,-0.04,-0.06,-0.06
183.95,0.84,0.93,0.83,0.93,-0.93,-0.99,-0.71,-0.08,-0.09,-0.09
185.79,0.81,0.94,0.81,0.93,-0.93,-1.01,-0.73,-0.12,-0.13,-0.13
187.65,0.78,0.94,0.78,0.94,-0.94,-1.03,-0.74,-0.16,-0.16,-0.16
189.52,0.75,0.94,0.76,0.95,-0.95,-1.05,-0.76,-0.20,-0.19,-0.19
191.42,0.72,0.94,0.74,0.96,-0.96,-1.07,-0.78,-0.24,-0.22,-0.22
193.33,0.69,0.94,0.72,0.98,-0.98,-1.09,-0.80,-0.28,-0.25,-0.25
195.27,0.67,0.96,0.71,0.99,-0.99,-1.10,-0.81,-0.32,-0.28,-0.29
197.22,0.66,0.99,0.69,1.00,-1.00,-1.12,-0.83,-0.34,-0.31,-0.32
199.19,0.66,1.00,0.67,1.01,-1.01,-1.13,-0.85,-0.35,-0.34,-0.34
201.18,0.66,1.04,0.66,1.02,-1.02,-1.14,-0.87,-0.36,-0.36,-0.38
203.19,0.66,1.05,0.64,1.03,-1.03,-1.15,-0.89,-0.37,-0.39,-0.39
205.23,0.65,1.06,0.63,1.04,-1.04,-1.16,-0.91,-0.39,-0.41,-0.41
207.28,0.64,1.07,0.61,1.05,-1.05,-1.16,-0.92,-0.40,-0.44,-0.43
209.35,0.62,1.08,0.59,1.05,-1.05,-1.16,-0.94,-0.43,-0.46,-0.46
211.44,0.59,1.07,0.57,1.05,-1.05,-1.16,-0.96,-0.46,-0.48,-0.48
213.56,0.56,1.06,0.55,1.05,-1.05,-1.16,-0.98,-0.49,-0.50,-0.49
215.69,0.52,1.04,0.52,1.04,-1.04,-1.16,-1.00,-0.52,-0.52,-0.52
217.85,0.48,1.02,0.50,1.04,-1.04,-1.15,-1.01,-0.55,-0.54,-0.54
220.03,0.46,1.02,0.47,1.03,-1.03,-1.14,-1.03,-0.57,-0.56,-0.56
222.23,0.43,1.01,0.45,1.02,-1.02,-1.13,-1.04,-0.59,-0.57,-0.58
224.45,0.40,0.99,0.42,1.01,-1.01,-1.12,-1.05,-0.61,-0.59,-0.59
226.70,0.37,0.99,0.40,1.01,-1.01,-1.10,-1.07,-0.64,-0.61,-0.61
228.96,0.35,0.97,0.38,1.00,-1.00,-1.09,-1.08,-0.65,-0.62,-0.61
231.25,0.34,0.98,0.36,0.99,-0.99,-1.07,-1.09,-0.65,-0.63,-0.63
233.57,0.33,0.98,0.34,0.98,-0.98,-1.05,-1.09,-0.65,-0.64,-0.64
235.90,0.33,0.98,0.32,0.98,-0.98,-1.03,-1.10,-0.64,-0.65,-0.65
238.26,0.32,0.99,0.31,0.97,-0.97,-1.01,-1.10,-0.64,-0.66,-0.67
240.64,0.31,0.97,0.29,0.95,-0.95,-0.99,-1.11,-0.64,-0.66,-0.66
243.05,0.30,0.97,0.27,0.94,-0.94,-0.96,-1.11,-0.63,-0.67,-0.67
245.48,0.27,0.95,0.24,0.92,-0.92,-0.94,-1.10,-0.64,-0.67,-0.68
247.93,0.23,0.92,0.22,0.89,-0.89,-0.91,-1.10,-0.66,-0.67,-0.68
250.41,0.20,0.87,0.19,0.87,-0.87,-0.88,-1.09,-0.67,-0.67,-0.67
252.92,0.16,0.83,0.17,0.84,-0.84,-0.85,-1.08,-0.68,-0.67,-0.67
255.45,0.14,0.82,0.14,0.81,-0.81,-0.83,-1.07,-0.67,-0.67,-0.68
258.00,0.11,0.78,0.11,0.79,-0.79,-0.80,-1.06,-0.67,-0.67,-0.67
260.58,0.08,0.75,0.09,0.76,-0.76,-0.77,-1.04,-0.68,-0.67,-0.67
263.19,0.05,0.72,0.07,0.74,-0.74,-0.74,-1.02,-0.69,-0.67,-0.66
265.82,0.02,0.69,0.05,0.72,-0.72,-0.71,-1.00,-0.70,-0.67,-0.67
268.48,0.00,0.67,0.04,0.71,-0.71,-0.68,-0.98,-0.70,-0.67,-0.67
271.16,-0.01,0.65,0.03,0.70,-0.70,-0.66,-0.96,-0.70,-0.67,-0.66
273.87,-0.01,0.66,0.02,0.69,-0.69,-0.63,-0.93,-0.70,-0.67,-0.67
276.61,0.00,0.66,0.02,0.68,-0.68,-0.60,-0.90,-0.68,-0.67,-0.66
279.38,0.01,0.69,0.02,0.68,-0.68,-0.57,-0.88,-0.67,-0.66,-0.68
282.17,0.02,0.69,0.01,0.67,-0.67,-0.54,-0.84,-0.65,-0.66,-0.67
284.99,0.03,0.69,0.01,0.66,-0.66,-0.51,-0.81,-0.63,-0.66,-0.66
287.84,0.03,0.68,0.00,0.66,-0.66,-0.49,-0.78,-0.62,-0.65,-0.65
290.72,0.03,0.69,-0.00,0.64,-0.64,-0.46,-0.75,-0.61,-0.65,-0.65
293.63,0.01,0.65,-0.01,0.63,-0.63,-0.43,-0.71,-0.61,-0.64,-0.64
296.57,-0.01,0.62,-0.03,0.60,-0.60,-0.41,-0.68,-0.61,-0.63,-0.63
299.53,-0.04,0.59,-0.05,0.58,-0.58,-0.38,-0.64,-0.62,-0.63,-0.63
302.53,-0.07,0.54,-0.07,0.55,-0.55,-0.36,-0.60,-0.62,-0.62,-0.61
305.55,-0.10,0.52,-0.10,0.51,-0.51,-0.33,-0.56,-0.61,-0.61,-0.61
308.61,-0.13,0.47,-0.12,0.48,-0.48,-0.31,-0.53,-0.60,-0.60,-0.60
311.69,-0.17,0.42,-0.15,0.44,-0.44,-0.28,-0.49,-0.61,-0.59,-0.59
314.81,-0.19,0.40,-0.18,0.40,-0.40,-0.26,-0.45,-0.59,-0.58,-0.58
317.96,-0.22,0.36,-0.20,0.37,-0.37,-0.23,-0.41,-0.59,-0.57,-0.58
321.14,-0.25,0.31,-0.23,0.33,-0.33,-0.21,-0.37,-0.58,-0.56,-0.56
324.35,-0.28,0.28,-0.25,0.30,-0.30,-0.19,-0.33,-0.58,-0.55,-0.56
327.59,-0.29,0.25,-0.27,0.27,-0.27,-0.17,-0.29,-0.56,-0.54,-0.53
330.87,-0.30,0.24,-0.29,0.24,-0.24,-0.14,-0.25,-0.54,-0.54,-0.54
334.18,-0.31,0.22,-0.31,0.22,-0.22,-0.12,-0.21,-0.52,-0.53,-0.53
337.52,-0.33,0.19,-0.33,0.19,-0.19,-0.10,-0.17,-0.51,-0.52,-0.52
340.90,-0.34,0.17,-0.35,0.16,-0.16,-0.08,-0.13,-0.49,-0.51,-0.50
344.30,-0.36,0.14,-0.37,0.12,-0.12,-0.06,-0.09,-0.48,-0.50,-0.50
347.75,-0.37,0.12,-0.40,0.09,-0.09,-0.04,-0.05,-0.46,-0.49,-0.49
351.23,-0.40,0.09,-0.42,0.06,-0.06,-0.02,-0.01,-0.45,-0.48,-0.49
354.74,-0.44,0.02,-0.45,0.02,-0.02,0.00,0.03,-0.46,-0.47,-0.46
358.28,-0.47,-0.00,-0.48,-0.02,0.02,0.02,0.07,-0.45,-0.46,-0.46
361.87,-0.51,-0.05,-0.51,-0.05,0.05,0.04,0.11,-0.45,-0.45,-0.46
365.49,-0.54,-0.09,-0.53,-0.09,0.09,0.06,0.15,-0.45,-0.44,-0.45
369.14,-0.57,-0.14,-0.56,-0.12,0.12,0.08,0.19,-0.44,-0.43,-0.43
372.83,-0.60,-0.18,-0.58,-0.16,0.16,0.10,0.23,-0.44,-0.43,-0.42
376.56,-0.63,-0.21,-0.60,-0.19,0.19,0.12,0.27,-0.44,-0.42,-0.42
380.33,-0.65,-0.23,-0.62,-0.22,0.22,0.14,0.31,-0.43,-0.41,-0.41
384.13,-0.66,-0.26,-0.63,-0.24,0.24,0.16,0.35,-0.42,-0.40,-0.39
387.97,-0.66,-0.27,-0.64,-0.26,0.26,0.18,0.39,-0.40,-0.39,-0.39
391.85,-0.65,-0.27,-0.65,-0.27,0.27,0.20,0.43,-0.38,-0.37,-0.38
395.77,-0.65,-0.28,-0.64,-0.28,0.28,0.22,0.47,-0.37,-0.36,-0.37
399.73,-0.64,-0.28,-0.64,-0.29,0.29,0.23,0.51,-0.35,-0.35,-0.36
403.72,-0.64,-0.31,-0.64,-0.29,0.29,0.25,0.55,-0.34,-0.34,-0.33
407.76,-0.64,-0.31,-0.63,-0.30,0.30,0.27,0.59,-0.34,-0.33,-0.33
411.84,-0.63,-0.31,-0.63,-0.30,0.30,0.29,0.62,-0.32,-0.32,-0.32
415.96,-0.62,-0.31,-0.62,-0.31,0.31,0.31,0.66,-0.31,-0.31,-0.30
420.12,-0.61,-0.30,-0.62,-0.32,0.32,0.33,0.70,-0.29,-0.30,-0.30
424.32,-0.61,-0.31,-0.63,-0.34,0.34,0.35,0.73,-0.27,-0.29,-0.30
428.56,-0.62,-0.34,-0.64,-0.35,0.35,0.37,0.77,-0.26,-0.28,-0.28
432.85,-0.63,-0.36,-0.65,-0.38,0.38,0.39,0.80,-0.25,-0.27,-0.27
437.18,-0.66,-0.39,-0.67,-0.40,0.40,0.40,0.84,-0.25,-0.26,-0.27
441.55,-0.68,-0.42,-0.69,-0.44,0.44,0.42,0.87,-0.24,-0.25,-0.26
445.96,-0.71,-0.46,-0.72,-0.47,0.47,0.44,0.90,-0.24,-0.25,-0.25
450.42,-0.75,-0.51,-0.74,-0.51,0.51,0.46,0.93,-0.24,-0.24,-0.24
454.93,-0.77,-0.54,-0.77,-0.55,0.55,0.48,0.96,-0.22,-0.23,-0.23
459.48,-0.81,-0.59,-0.81,-0.59,0.59,0.50,0.98,-0.22,-0.22,-0.22
464.07,-0.84,-0.64,-0.84,-0.63,0.63,0.52,1.01,-0.21,-0.21,-0.20
468.71,-0.87,-0.67,-0.87,-0.67,0.67,0.54,1.03,-0.20,-0.20,-0.19
473.40,-0.91,-0.72,-0.89,-0.70,0.70,0.57,1.05,-0.20,-0.19,-0.18
478.13,-0.93,-0.75,-0.91,-0.74,0.74,0.59,1.07,-0.19,-0.18,-0.17
482.91,-0.96,-0.79,-0.93,-0.77,0.77,0.61,1.08,-0.19,-0.17,-0.16
487.74,-0.97,-0.81,-0.95,-0.79,0.79,0.63,1.10,-0.17,-0.15,-0.15
492.62,-0.98,-0.83,-0.96,-0.82,0.82,0.65,1.11,-0.16,-0.14,-0.15
497.55,-0.98,-0.84,-0.97,-0.84,0.84,0.68,1.12,-0.14,-0.13,-0.14
502.52,-0.98,-0.85,-0.97,-0.85,0.85,0.70,1.12,-0.13,-0.12,-0.13
507.55,-0.97,-0.86,-0.97,-0.87,0.87,0.72,1.13,-0.10,-0.11,-0.11
512.62,-0.96,-0.86,-0.97,-0.88,0.88,0.75,1.13,-0.08,-0.10,-0.10
517.75,-0.96,-0.88,-0.97,-0.89,0.89,0.77,1.13,-0.07,-0.08,-0.08
522.93,-0.96,-0.89,-0.97,-0.90,0.90,0.79,1.13,-0.06,-0.07,-0.07
528.16,-0.96,-0.90,-0.97,-0.91,0.91,0.82,1.12,-0.05,-0.06,-0.06
