frequency,raw,smoothed,error,error_smoothed,equalization,parametric_eq,fixed_band_eq,equalized_raw,equalized_smoothed,target
20.00,15.32,15.32,7.01,7.02,-7.02,-5.05,-2.77,8.31,8.31,8.31
20.20,15.30,15.30,7.00,6.99,-6.99,-5.05,-2.85,8.31,8.31,8.31
20.40,15.27,15.28,6.97,6.97,-6.97,-5.05,-2.93,8.31,8.31,8.31
20.61,15.25,15.25,6.95,6.94,-6.94,-5.04,-3.01,8.31,8.31,8.31
20.81,15.22,15.23,6.92,6.92,-6.92,-5.04,-3.10,8.31,8.31,8.31
21.02,15.20,15.20,6.90,6.90,-6.89,-5.04,-3.19,8.31,8.31,8.31
21.23,15.17,15.17,6.87,6.87,-6.87,-5.04,-3.28,8.31,8.31,8.31
21.44,15.14,15.14,6.84,6.84,-6.84,-5.04,-3.37,8.30,8.31,8.30
21.66,15.11,15.11,6.81,6.81,-6.81,-5.04,-3.46,8.30,8.30,8.30
21.87,15.08,15.08,6.78,6.78,-6.78,-5.04,-3.57,8.30,8.30,8.30
22.09,15.05,15.06,6.75,6.75,-6.76,-5.04,-3.67,8.30,8.30,8.30
22.31,15.03,15.03,6.73,6.73,-6.73,-5.04,-3.77,8.30,8.30,8.30
22.54,15.00,15.00,6.70,6.70,-6.70,-5.04,-3.88,8.30,8.30,8.30
22.76,14.97,14.98,6.67,6.68,-6.68,-5.04,-3.99,8.30,8.30,8.30
22.99,14.94,14.95,6.65,6.65,-6.65,-5.03,-4.10,8.29,8.30,8.30
23.22,14.92,14.92,6.63,6.62,-6.62,-5.03,-4.22,8.30,8.30,8.30
23.45,14.89,14.89,6.60,6.60,-6.60,-5.03,-4.33,8.30,8.30,8.30
23.69,14.86,14.86,6.57,6.57,-6.57,-5.03,-4.45,8.30,8.30,8.30
23.92,14.83,14.83,6.54,6.54,-6.54,-5.03,-4.57,8.30,8.30,8.29
24.16,14.80,14.80,6.51,6.51,-6.51,-5.03,-4.70,8.30,8.29,8.29
24.40,14.77,14.77,6.48,6.48,-6.48,-5.03,-4.83,8.29,8.29,8.29
24.65,14.73,14.74,6.44,6.45,-6.45,-5.03,-4.96,8.29,8.29,8.29
24.89,14.70,14.70,6.41,6.41,-6.42,-5.02,-5.09,8.29,8.29,8.29
25.14,14.67,14.67,6.39,6.38,-6.39,-5.02,-5.22,8.29,8.28,8.29
25.39,14.64,14.64,6.36,6.36,-6.36,-5.02,-5.35,8.29,8.29,8.29
25.65,14.61,14.61,6.33,6.33,-6.33,-5.02,-5.49,8.29,8.29,8.28
25.91,14.58,14.58,6.30,6.30,-6.30,-5.02,-5.62,8.29,8.29,8.28
26.16,14.55,14.55,6.27,6.27,-6.27,-5.02,-5.76,8.29,8.28,8.28
26.43,14.51,14.52,6.23,6.24,-6.24,-5.01,-5.89,8.28,8.28,8.28
26.69,14.48,14.48,6.21,6.21,-6.21,-5.01,-6.02,8.28,8.28,8.28
26.96,14.45,14.45,6.18,6.18,-6.18,-5.01,-6.15,8.28,8.28,8.28
27.23,14.42,14.42,6.15,6.15,-6.15,-5.01,-6.28,8.28,8.28,8.27
27.50,14.39,14.39,6.12,6.12,-6.12,-5.01,-6.41,8.28,8.27,8.27
27.77,14.35,14.36,6.08,6.09,-6.09,-5.00,-6.53,8.27,8.27,8.27
28.05,14.32,14.32,6.05,6.05,-6.06,-5.00,-6.65,8.27,8.27,8.27
28.33,14.29,14.29,6.03,6.02,-6.02,-5.00,-6.75,8.27,8.26,8.27
28.62,14.25,14.26,5.99,5.99,-5.99,-5.00,-6.86,8.26,8.26,8.26
28.90,14.22,14.22,5.96,5.96,-5.96,-4.99,-6.96,8.26,8.26,8.26
29.19,14.19,14.19,5.93,5.93,-5.93,-4.99,-7.05,8.26,8.26,8.26
29.48,14.15,14.16,5.90,5.90,-5.90,-4.99,-7.12,8.26,8.26,8.26
29.78,14.12,14.12,5.87,5.87,-5.87,-4.99,-7.20,8.26,8.26,8.26
30.08,14.08,14.08,5.83,5.83,-5.83,-4.98,-7.25,8.25,8.25,8.25
30.38,14.04,14.05,5.79,5.80,-5.80,-4.98,-7.30,8.25,8.25,8.25
30.68,14.01,14.01,5.77,5.76,-5.76,-4.98,-7.34,8.25,8.25,8.25
30.99,13.97,13.97,5.73,5.73,-5.73,-4.97,-7.37,8.25,8.25,8.24
31.30,13.93,13.94,5.69,5.69,-5.69,-4.97,-7.38,8.24,8.24,8.24
31.61,13.89,13.89,5.66,5.66,-5.66,-4.97,-7.38,8.24,8.24,8.24
31.93,13.85,13.85,5.62,5.62,-5.62,-4.96,-7.37,8.23,8.23,8.23
32.24,13.81,13.81,5.58,5.58,-5.58,-4.96,-7.35,8.23,8.23,8.23
32.57,13.77,13.77,5.55,5.55,-5.55,-4.96,-7.31,8.23,8.23,8.23
32.89,13.73,13.73,5.51,5.51,-5.51,-4.95,-7.27,8.22,8.22,8.22
33.22,13.69,13.69,5.47,5.47,-5.47,-4.95,-7.21,8.22,8.22,8.22
33.55,13.65,13.65,5.44,5.44,-5.44,-4.94,-7.15,8.22,8.22,8.22
33.89,13.61,13.61,5.40,5.40,-5.40,-4.94,-7.08,8.21,8.21,8.21
34.23,13.57,13.57,5.37,5.37,-5.37,-4.93,-7.00,8.21,8.21,8.21
34.57,13.53,13.53,5.33,5.33,-5.33,-4.93,-6.91,8.20,8.20,8.20
34.92,13.49,13.49,5.29,5.29,-5.29,-4.92,-6.82,8.20,8.20,8.20
35.27,13.45,13.45,5.26,5.26,-5.26,-4.92,-6.72,8.20,8.19,8.19
35.62,13.41,13.41,5.22,5.22,-5.22,-4.91,-6.61,8.19,8.19,8.19
35.97,13.37,13.37,5.19,5.19,-5.19,-4.90,-6.51,8.19,8.19,8.18
36.33,13.33,13.33,5.15,5.15,-5.15,-4.90,-6.40,8.18,8.18,8.18
36.70,13.28,13.29,5.11,5.11,-5.11,-4.89,-6.29,8.17,8.17,8.17
37.06,13.24,13.24,5.07,5.08,-5.08,-4.88,-6.18,8.17,8.17,8.17
37.43,13.20,13.20,5.04,5.04,-5.04,-4.88,-6.06,8.16,8.16,8.16
37.81,13.16,13.16,5.01,5.00,-5.00,-4.87,-5.95,8.16,8.16,8.16
38.19,13.11,13.12,4.96,4.97,-4.97,-4.86,-5.84,8.15,8.15,8.15
38.57,13.07,13.07,4.93,4.93,-4.93,-4.85,-5.72,8.15,8.14,8.14
38.95,13.02,13.03,4.89,4.89,-4.89,-4.84,-5.61,8.13,8.13,8.14
39.34,12.98,12.98,4.85,4.85,-4.85,-4.84,-5.51,8.13,8.13,8.13
39.74,12.93,12.94,4.81,4.81,-4.81,-4.83,-5.40,8.12,8.12,8.12
40.14,12.89,12.89,4.78,4.78,-4.78,-4.82,-5.29,8.12,8.12,8.11
40.54,12.84,12.84,4.74,4.74,-4.74,-4.80,-5.19,8.11,8.11,8.11
40.94,12.79,12.80,4.69,4.70,-4.70,-4.79,-5.09,8.10,8.10,8.10
41.35,12.75,12.75,4.66,4.66,-4.66,-4.78,-5.00,8.09,8.09,8.09
41.76,12.70,12.70,4.62,4.62,-4.62,-4.77,-4.90,8.08,8.08,8.08
42.18,12.65,12.65,4.58,4.58,-4.58,-4.76,-4.81,8.07,8.07,8.07
42.60,12.60,12.61,4.54,4.54,-4.54,-4.74,-4.72,8.06,8.06,8.06
43.03,12.56,12.56,4.51,4.51,-4.51,-4.73,-4.64,8.06,8.05,8.05
43.46,12.51,12.51,4.47,4.47,-4.47,-4.71,-4.56,8.04,8.04,8.04
43.90,12.46,12.47,4.43,4.43,-4.43,-4.70,-4.48,8.03,8.03,8.03
44.33,12.41,12.42,4.39,4.40,-4.40,-4.68,-4.41,8.02,8.02,8.02
44.78,12.37,12.37,4.36,4.36,-4.36,-4.66,-4.34,8.01,8.01,8.01
45.23,12.32,12.32,4.33,4.32,-4.32,-4.64,-4.27,8.00,8.00,8.00
45.68,12.27,12.27,4.29,4.29,-4.29,-4.63,-4.20,7.99,7.99,7.99
46.13,12.22,12.22,4.25,4.25,-4.25,-4.60,-4.14,7.97,7.97,7.97
46.60,12.17,12.17,4.21,4.21,-4.21,-4.58,-4.08,7.96,7.96,7.96
47.06,12.12,12.12,4.18,4.18,-4.18,-4.56,-4.03,7.95,7.95,7.95
47.53,12.07,12.07,4.14,4.14,-4.14,-4.53,-3.98,7.93,7.93,7.93
48.01,12.02,12.02,4.10,4.10,-4.10,-4.51,-3.93,7.92,7.92,7.92
48.49,11.97,11.97,4.07,4.07,-4.07,-4.48,-3.88,7.91,7.91,7.91
48.97,11.92,11.92,4.03,4.03,-4.03,-4.45,-3.84,7.89,7.89,7.89
49.46,11.87,11.87,4.00,4.00,-4.00,-4.42,-3.80,7.88,7.87,7.87
49.96,11.81,11.82,3.96,3.96,-3.96,-4.39,-3.76,7.85,7.86,7.86
50.46,11.76,11.77,3.92,3.92,-3.92,-4.35,-3.72,7.84,7.84,7.84
50.96,11.71,11.71,3.89,3.89,-3.89,-4.32,-3.69,7.82,7.82,7.82
51.47,11.66,11.66,3.86,3.86,-3.85,-4.28,-3.66,7.81,7.81,7.81
51.99,11.60,11.61,3.82,3.82,-3.82,-4.23,-3.63,7.79,7.79,7.79
52.51,11.55,11.55,3.79,3.78,-3.78,-4.19,-3.61,7.77,7.77,7.77
53.03,11.49,11.50,3.75,3.75,-3.75,-4.14,-3.58,7.74,7.75,7.75
53.56,11.44,11.44,3.72,3.72,-3.72,-4.09,-3.56,7.73,7.73,7.73
54.10,11.39,11.39,3.69,3.68,-3.68,-4.04,-3.53,7.71,7.71,7.71
54.64,11.33,11.34,3.65,3.65,-3.65,-3.98,-3.51,7.68,7.68,7.68
55.18,11.28,11.28,3.62,3.62,-3.62,-3.93,-3.49,7.66,7.66,7.66
55.74,11.22,11.23,3.59,3.59,-3.59,-3.86,-3.47,7.64,7.64,7.64
56.29,11.17,11.17,3.56,3.56,-3.56,-3.80,-3.46,7.62,7.61,7.61
56.86,11.11,11.11,3.53,3.52,-3.53,-3.73,-3.44,7.59,7.59,7.59
57.42,11.05,11.06,3.49,3.49,-3.50,-3.66,-3.42,7.56,7.56,7.56
58.00,11.00,11.00,3.47,3.46,-3.47,-3.59,-3.40,7.54,7.53,7.54
58.58,10.94,10.95,3.43,3.44,-3.44,-3.52,-3.39,7.51,7.51,7.51
59.16,10.89,10.89,3.41,3.41,-3.41,-3.44,-3.37,7.48,7.48,7.48
59.76,10.83,10.84,3.38,3.38,-3.38,-3.37,-3.35,7.45,7.45,7.45
60.35,10.78,10.78,3.36,3.36,-3.36,-3.30,-3.33,7.43,7.42,7.42
60.96,10.72,10.72,3.33,3.33,-3.33,-3.23,-3.32,7.39,7.39,7.39
61.57,10.66,10.67,3.30,3.31,-3.31,-3.16,-3.30,7.36,7.36,7.36
62.18,10.61,10.61,3.29,3.28,-3.28,-3.10,-3.28,7.33,7.33,7.33
62.80,10.55,10.55,3.26,3.26,-3.26,-3.04,-3.26,7.29,7.29,7.30
63.43,10.49,10.50,3.23,3.24,-3.24,-3.00,-3.24,7.26,7.26,7.26
64.07,10.44,10.44,3.22,3.21,-3.21,-2.96,-3.21,7.23,7.23,7.23
64.71,10.38,10.38,3.19,3.19,-3.19,-2.93,-3.19,7.19,7.19,7.19
65.35,10.32,10.32,3.17,3.17,-3.17,-2.91,-3.17,7.15,7.15,7.15
66.01,10.26,10.26,3.15,3.15,-3.15,-2.90,-3.15,7.11,7.11,7.11
66.67,10.20,10.21,3.13,3.13,-3.13,-2.90,-3.12,7.07,7.07,7.08
67.33,10.15,10.15,3.12,3.12,-3.11,-2.91,-3.10,7.04,7.04,7.04
68.01,10.09,10.09,3.10,3.10,-3.10,-2.92,-3.08,7.00,7.00,6.99
68.69,10.03,10.03,3.08,3.08,-3.08,-2.94,-3.05,6.95,6.95,6.95
69.37,9.97,9.97,3.06,3.06,-3.06,-2.97,-3.03,6.91,6.91,6.91
70.07,9.91,9.91,3.05,3.05,-3.05,-3.00,-3.00,6.86,6.86,6.87
70.77,9.85,9.85,3.03,3.03,-3.03,-3.03,-2.98,6.82,6.82,6.82
71.48,9.79,9.79,3.02,3.02,-3.02,-3.07,-2.95,6.78,6.78,6.77
72.19,9.73,9.73,3.01,3.01,-3.00,-3.10,-2.93,6.73,6.73,6.73
72.91,9.67,9.67,2.99,2.99,-2.99,-3.13,-2.91,6.68,6.68,6.68
73.64,9.60,9.61,2.97,2.98,-2.98,-3.16,-2.89,6.63,6.63,6.63
74.38,9.54,9.54,2.96,2.96,-2.97,-3.19,-2.87,6.58,6.58,6.58
75.12,9.48,9.48,2.96,2.95,-2.96,-3.22,-2.85,6.53,6.52,6.53
75.87,9.42,9.42,2.95,2.95,-2.95,-3.24,-2.83,6.47,6.47,6.48
76.63,9.36,9.36,2.94,2.94,-2.94,-3.26,-2.81,6.42,6.42,6.42
77.40,9.30,9.30,2.94,2.94,-2.94,-3.28,-2.80,6.37,6.37,6.37
78.17,9.24,9.24,2.93,2.93,-2.93,-3.29,-2.78,6.31,6.31,6.31
78.95,9.18,9.18,2.93,2.93,-2.93,-3.30,-2.77,6.26,6.26,6.26
79.74,9.12,9.12,2.92,2.92,-2.92,-3.31,-2.76,6.20,6.20,6.20
80.54,9.06,9.06,2.92,2.92,-2.92,-3.32,-2.75,6.14,6.14,6.14
81.35,8.99,9.00,2.91,2.92,-2.92,-3.32,-2.74,6.08,6.08,6.08
82.16,8.93,8.93,2.91,2.91,-2.92,-3.32,-2.74,6.02,6.02,6.02
82.98,8.87,8.87,2.91,2.91,-2.92,-3.32,-2.73,5.96,5.96,5.96
83.81,8.81,8.81,2.92,2.92,-2.91,-3.31,-2.73,5.90,5.90,5.90
84.65,8.75,8.75,2.92,2.92,-2.92,-3.30,-2.73,5.84,5.84,5.84
85.50,8.69,8.69,2.92,2.92,-2.92,-3.29,-2.74,5.78,5.77,5.77
86.35,8.62,8.63,2.92,2.92,-2.92,-3.28,-2.74,5.70,5.71,5.71
87.22,8.56,8.56,2.92,2.92,-2.92,-3.27,-2.75,5.64,5.64,5.64
88.09,8.50,8.50,2.93,2.92,-2.92,-3.26,-2.76,5.58,5.57,5.58
88.97,8.43,8.44,2.92,2.93,-2.93,-3.24,-2.77,5.51,5.51,5.51
89.86,8.37,8.37,2.93,2.93,-2.93,-3.22,-2.78,5.44,5.44,5.44
90.76,8.31,8.31,2.94,2.94,-2.94,-3.20,-2.80,5.38,5.37,5.37
91.66,8.24,8.25,2.94,2.94,-2.94,-3.18,-2.81,5.30,5.31,5.31
92.58,8.18,8.18,2.95,2.94,-2.95,-3.16,-2.83,5.24,5.24,5.24
93.51,8.11,8.12,2.95,2.95,-2.95,-3.14,-2.85,5.16,5.17,5.17
94.44,8.05,8.05,2.96,2.96,-2.96,-3.12,-2.88,5.10,5.10,5.10
95.39,7.99,7.99,2.97,2.96,-2.96,-3.09,-2.90,5.03,5.03,5.03
96.34,7.92,7.93,2.97,2.97,-2.97,-3.07,-2.93,4.95,4.96,4.95
97.30,7.86,7.86,2.98,2.98,-2.98,-3.04,-2.95,4.89,4.88,4.88
98.28,7.79,7.80,2.98,2.98,-2.99,-3.02,-2.98,4.81,4.81,4.81
99.26,7.73,7.73,2.99,2.99,-2.99,-2.99,-3.01,4.74,4.74,4.74
100.25,7.66,7.67,3.00,3.00,-3.00,-2.97,-3.04,4.66,4.67,4.67
101.25,7.60,7.60,3.01,3.01,-3.01,-2.94,-3.08,4.60,4.59,4.59
102.27,7.53,7.54,3.01,3.01,-3.02,-2.91,-3.11,4.52,4.52,4.52
103.29,7.47,7.47,3.03,3.02,-3.02,-2.89,-3.15,4.45,4.45,4.45
104.32,7.40,7.41,3.03,3.03,-3.03,-2.86,-3.18,4.37,4.37,4.37
105.37,7.34,7.34,3.04,3.04,-3.04,-2.84,-3.22,4.30,4.30,4.30
106.42,7.27,7.28,3.04,3.05,-3.05,-2.81,-3.25,4.23,4.23,4.23
107.48,7.21,7.21,3.06,3.06,-3.06,-2.79,-3.28,4.16,4.16,4.16
108.56,7.14,7.15,3.06,3.06,-3.06,-2.76,-3.32,4.08,4.08,4.08
109.64,7.08,7.08,3.07,3.07,-3.07,-2.74,-3.35,4.01,4.01,4.01
110.74,7.01,7.02,3.08,3.08,-3.08,-2.71,-3.38,3.93,3.94,3.94
111.85,6.95,6.95,3.09,3.09,-3.09,-2.69,-3.42,3.87,3.87,3.87
112.97,6.88,6.89,3.09,3.09,-3.09,-2.67,-3.44,3.79,3.80,3.79
114.10,6.82,6.82,3.10,3.10,-3.10,-2.65,-3.47,3.73,3.73,3.72
115.24,6.75,6.75,3.10,3.10,-3.10,-2.63,-3.49,3.65,3.65,3.65
116.39,6.68,6.68,3.10,3.10,-3.10,-2.61,-3.52,3.58,3.58,3.58
117.55,6.61,6.61,3.10,3.11,-3.11,-2.59,-3.54,3.51,3.51,3.51
118.73,6.54,6.55,3.10,3.11,-3.11,-2.57,-3.55,3.43,3.44,3.44
119.92,6.48,6.48,3.11,3.11,-3.11,-2.56,-3.56,3.37,3.37,3.37
121.12,6.41,6.42,3.11,3.12,-3.12,-2.55,-3.57,3.30,3.30,3.30
122.33,6.35,6.35,3.12,3.12,-3.12,-2.53,-3.58,3.23,3.23,3.23
123.55,6.29,6.29,3.13,3.12,-3.12,-2.52,-3.58,3.17,3.16,3.17
124.79,6.22,6.23,3.13,3.13,-3.13,-2.51,-3.58,3.10,3.10,3.10
126.03,6.16,6.17,3.13,3.13,-3.13,-2.50,-3.57,3.03,3.03,3.03
127.29,6.10,6.10,3.14,3.14,-3.13,-2.50,-3.56,2.97,2.97,2.97
128.57,6.04,6.04,3.14,3.14,-3.14,-2.49,-3.55,2.91,2.90,2.90
129.85,5.97,5.98,3.14,3.14,-3.14,-2.49,-3.53,2.84,2.84,2.84
131.15,5.91,5.91,3.14,3.14,-3.14,-2.49,-3.51,2.78,2.77,2.78
132.46,5.84,5.85,3.13,3.13,-3.13,-2.49,-3.48,2.71,2.71,2.71
133.79,5.78,5.78,3.13,3.13,-3.13,-2.49,-3.45,2.65,2.65,2.65
135.12,5.72,5.72,3.13,3.13,-3.13,-2.50,-3.42,2.59,2.59,2.59
136.48,5.65,5.66,3.12,3.13,-3.13,-2.51,-3.39,2.53,2.53,2.53
137.84,5.59,5.60,3.12,3.12,-3.12,-2.52,-3.35,2.47,2.47,2.47
139.22,5.53,5.53,3.12,3.12,-3.12,-2.53,-3.31,2.42,2.42,2.42
140.61,5.47,5.47,3.11,3.11,-3.11,-2.54,-3.27,2.36,2.36,2.36
142.02,5.40,5.41,3.10,3.10,-3.10,-2.56,-3.23,2.30,2.30,2.30
143.44,5.34,5.34,3.09,3.10,-3.10,-2.58,-3.19,2.25,2.25,2.25
144.87,5.28,5.28,3.09,3.09,-3.09,-2.59,-3.14,2.20,2.20,2.20
146.32,5.22,5.22,3.08,3.08,-3.07,-2.62,-3.10,2.15,2.15,2.14
147.78,5.16,5.16,3.06,3.06,-3.06,-2.64,-3.05,2.10,2.10,2.10
149.26,5.09,5.10,3.04,3.05,-3.05,-2.66,-3.01,2.05,2.05,2.05
150.75,5.03,5.03,3.03,3.03,-3.03,-2.69,-2.96,2.00,2.00,2.00
152.26,4.97,4.97,3.02,3.02,-3.02,-2.71,-2.91,1.96,1.95,1.95
153.78,4.90,4.91,3.00,3.00,-3.00,-2.74,-2.87,1.90,1.91,1.90
155.32,4.84,4.84,2.99,2.99,-2.99,-2.77,-2.83,1.86,1.86,1.86
156.88,4.78,4.78,2.97,2.97,-2.97,-2.80,-2.78,1.82,1.81,1.81
158.44,4.71,4.72,2.94,2.95,-2.95,-2.83,-2.74,1.76,1.77,1.77
160.03,4.65,4.65,2.93,2.93,-2.93,-2.85,-2.70,1.72,1.72,1.73
161.63,4.59,4.59,2.92,2.91,-2.91,-2.88,-2.66,1.68,1.68,1.67
163.24,4.52,4.52,2.89,2.89,-2.89,-2.91,-2.62,1.63,1.64,1.63
164.88,4.45,4.46,2.86,2.87,-2.87,-2.93,-2.59,1.59,1.59,1.59
166.53,4.39,4.39,2.84,2.84,-2.84,-2.95,-2.55,1.55,1.55,1.55
168.19,4.32,4.33,2.81,2.81,-2.82,-2.97,-2.52,1.51,1.51,1.51
169.87,4.26,4.26,2.79,2.79,-2.79,-2.98,-2.49,1.47,1.47,1.48
171.57,4.20,4.20,2.76,2.76,-2.76,-2.99,-2.46,1.44,1.44,1.44
173.29,4.13,4.14,2.73,2.73,-2.73,-3.00,-2.43,1.40,1.41,1.40
175.02,4.07,4.07,2.70,2.70,-2.70,-3.00,-2.40,1.37,1.37,1.37
176.77,4.01,4.01,2.68,2.67,-2.67,-3.00,-2.38,1.34,1.34,1.34
178.54,3.94,3.95,2.64,2.64,-2.64,-2.99,-2.36,1.30,1.30,1.30
180.32,3.88,3.88,2.61,2.61,-2.61,-2.98,-2.34,1.27,1.27,1.27
182.13,3.81,3.82,2.57,2.57,-2.57,-2.96,-2.32,1.24,1.24,1.24
183.95,3.75,3.75,2.54,2.54,-2.54,-2.93,-2.30,1.21,1.21,1.21
185.79,3.68,3.69,2.50,2.50,-2.50,-2.90,-2.29,1.18,1.18,1.18
187.65,3.62,3.62,2.47,2.47,-2.47,-2.87,-2.27,1.16,1.15,1.15
189.52,3.55,3.56,2.43,2.43,-2.43,-2.82,-2.26,1.12,1.12,1.13
191.42,3.49,3.49,2.39,2.39,-2.40,-2.78,-2.25,1.10,1.10,1.10
193.33,3.43,3.43,2.36,2.36,-2.36,-2.72,-2.24,1.07,1.07,1.07
195.27,3.37,3.37,2.33,2.32,-2.32,-2.67,-2.24,1.05,1.05,1.05
197.22,3.31,3.31,2.29,2.29,-2.29,-2.61,-2.23,1.02,1.02,1.02
199.19,3.25,3.26,2.25,2.26,-2.26,-2.55,-2.23,1.00,1.00,1.00
201.18,3.20,3.20,2.23,2.22,-2.22,-2.48,-2.22,0.98,0.98,0.98
203.19,3.14,3.15,2.19,2.19,-2.19,-2.41,-2.22,0.95,0.96,0.96
205.23,3.09,3.09,2.16,2.16,-2.16,-2.34,-2.22,0.94,0.93,0.93
207.28,3.03,3.04,2.12,2.12,-2.12,-2.27,-2.22,0.91,0.91,0.91
209.35,2.98,2.98,2.09,2.09,-2.09,-2.20,-2.21,0.89,0.89,0.89
211.44,2.93,2.93,2.06,2.06,-2.06,-2.12,-2.21,0.87,0.87,0.87
213.56,2.88,2.88,2.03,2.03,-2.03,-2.05,-2.21,0.85,0.85,0.85
215.69,2.83,2.83,2.00,2.00,-2.00,-1.97,-2.21,0.84,0.84,0.84
217.85,2.78,2.78,1.96,1.96,-1.96,-1.90,-2.21,0.82,0.82,0.82
220.03,2.73,2.73,1.93,1.93,-1.93,-1.83,-2.20,0.80,0.81,0.80
222.23,2.68,2.68,1.90,1.90,-1.89,-1.75,-2.20,0.79,0.79,0.79
224.45,2.63,2.63,1.86,1.86,-1.86,-1.68,-2.20,0.77,0.77,0.77
226.70,2.57,2.58,1.82,1.82,-1.83,-1.61,-2.19,0.75,0.75,0.75
228.96,2.52,2.52,1.78,1.78,-1.79,-1.54,-2.18,0.73,0.73,0.74
231.25,2.47,2.47,1.75,1.75,-1.75,-1.47,-2.17,0.72,0.72,0.72
233.57,2.42,2.42,1.71,1.72,-1.72,-1.41,-2.16,0.71,0.71,0.71
235.90,2.37,2.37,1.69,1.68,-1.68,-1.34,-2.14,0.69,0.69,0.69
238.26,2.32,2.32,1.65,1.65,-1.65,-1.28,-2.12,0.68,0.68,0.67
240.64,2.27,2.27,1.61,1.61,-1.61,-1.22,-2.10,0.67,0.66,0.66
243.05,2.21,2.22,1.56,1.57,-1.57,-1.16,-2.08,0.65,0.65,0.65
245.48,2.16,2.16,1.53,1.53,-1.53,-1.10,-2.05,0.64,0.64,0.64
247.93,2.11,2.11,1.49,1.49,-1.48,-1.04,-2.02,0.63,0.63,0.63
250.41,2.05,2.06,1.44,1.44,-1.44,-0.98,-1.99,0.61,0.62,0.62
252.92,2.00,2.00,1.40,1.39,-1.39,-0.93,-1.95,0.61,0.61,0.60
255.45,1.94,1.95,1.34,1.34,-1.35,-0.88,-1.91,0.60,0.60,0.60
258.00,1.89,1.89,1.30,1.30,-1.30,-0.82,-1.86,0.59,0.59,0.59
260.58,1.83,1.84,1.25,1.25,-1.25,-0.77,-1.82,0.58,0.58,0.59
263.19,1.78,1.78,1.21,1.21,-1.20,-0.73,-1.77,0.58,0.58,0.58
265.82,1.72,1.72,1.16,1.16,-1.16,-0.68,-1.71,0.57,0.57,0.57
268.48,1.66,1.66,1.11,1.11,-1.11,-0.63,-1.66,0.56,0.56,0.56
271.16,1.60,1.60,1.05,1.05,-1.06,-0.59,-1.59,0.55,0.55,0.55
273.87,1.54,1.55,1.00,1.00,-1.01,-0.54,-1.53,0.54,0.54,0.54
276.61,1.49,1.49,0.96,0.96,-0.95,-0.50,-1.47,0.54,0.54,0.53
279.38,1.43,1.43,0.91,0.91,-0.90,-0.46,-1.40,0.53,0.53,0.53
282.17,1.37,1.37,0.85,0.85,-0.85,-0.41,-1.33,0.53,0.53,0.52
284.99,1.31,1.31,0.79,0.79,-0.79,-0.37,-1.26,0.52,0.52,0.52
287.84,1.25,1.25,0.73,0.73,-0.73,-0.33,-1.18,0.52,0.52,0.53
290.72,1.19,1.19,0.67,0.67,-0.68,-0.30,-1.11,0.52,0.52,0.52
293.63,1.13,1.14,0.62,0.62,-0.62,-0.26,-1.03,0.51,0.52,0.51
296.57,1.08,1.08,0.57,0.56,-0.56,-0.22,-0.95,0.52,0.52,0.52
299.53,1.02,1.02,0.50,0.50,-0.50,-0.18,-0.87,0.52,0.52,0.52
302.53,0.96,0.97,0.45,0.45,-0.45,-0.15,-0.79,0.52,0.52,0.52
305.55,0.90,0.91,0.38,0.39,-0.39,-0.11,-0.71,0.51,0.52,0.52
308.61,0.85,0.85,0.34,0.33,-0.33,-0.08,-0.62,0.52,0.52,0.52
311.69,0.79,0.79,0.27,0.27,-0.27,-0.04,-0.54,0.52,0.52,0.52
314.81,0.73,0.74,0.22,0.22,-0.22,-0.01,-0.45,0.52,0.52,0.52
317.96,0.68,0.68,0.16,0.16,-0.16,0.03,-0.37,0.52,0.52,0.52
321.14,0.62,0.63,0.11,0.10,-0.10,0.06,-0.28,0.52,0.52,0.52
324.35,0.57,0.57,0.05,0.04,-0.04,0.10,-0.19,0.53,0.53,0.52
327.59,0.51,0.52,-0.03,-0.02,0.01,0.13,-0.10,0.53,0.53,0.54
330.87,0.46,0.46,-0.07,-0.07,0.07,0.17,-0.02,0.53,0.53,0.54
334.18,0.41,0.41,-0.13,-0.13,0.13,0.20,0.07,0.54,0.54,0.54
337.52,0.35,0.36,-0.18,-0.18,0.19,0.23,0.16,0.54,0.54,0.54
340.90,0.30,0.30,-0.24,-0.24,0.25,0.27,0.25,0.55,0.55,0.54
344.30,0.24,0.25,-0.31,-0.30,0.30,0.30,0.34,0.55,0.55,0.55
347.75,0.19,0.20,-0.36,-0.36,0.36,0.34,0.43,0.55,0.56,0.56
351.23,0.14,0.14,-0.41,-0.42,0.42,0.37,0.52,0.56,0.56,0.55
354.74,0.09,0.09,-0.48,-0.47,0.48,0.40,0.62,0.57,0.57,0.57
358.28,0.03,0.04,-0.53,-0.53,0.53,0.44,0.71,0.57,0.57,0.57
361.87,-0.02,-0.02,-0.59,-0.59,0.59,0.47,0.80,0.57,0.57,0.58
365.49,-0.07,-0.07,-0.65,-0.65,0.64,0.51,0.89,0.58,0.58,0.58
369.14,-0.12,-0.12,-0.70,-0.70,0.70,0.54,0.99,0.58,0.58,0.58
372.83,-0.17,-0.17,-0.76,-0.76,0.76,0.58,1.08,0.59,0.59,0.60
376.56,-0.22,-0.22,-0.81,-0.81,0.82,0.62,1.18,0.60,0.60,0.60
380.33,-0.27,-0.27,-0.87,-0.87,0.87,0.65,1.27,0.61,0.61,0.60
384.13,-0.32,-0.32,-0.92,-0.93,0.93,0.69,1.37,0.62,0.61,0.60
387.97,-0.38,-0.37,-0.99,-0.99,0.99,0.73,1.46,0.61,0.62,0.62
391.85,-0.43,-0.43,-1.06,-1.05,1.05,0.77,1.56,0.62,0.62,0.64
395.77,-0.48,-0.48,-1.11,-1.12,1.11,0.81,1.65,0.63,0.63,0.63
399.73,-0.53,-0.53,-1.17,-1.17,1.17,0.85,1.75,0.64,0.64,0.64
403.72,-0.58,-0.58,-1.23,-1.22,1.22,0.89,1.84,0.65,0.65,0.65
407.76,-0.63,-0.63,-1.27,-1.28,1.28,0.93,1.94,0.65,0.65,0.65
411.84,-0.68,-0.68,-1.33,-1.33,1.33,0.98,2.03,0.66,0.66,0.66
415.96,-0.73,-0.73,-1.39,-1.39,1.39,1.02,2.13,0.66,0.66,0.66
420.12,-0.78,-0.78,-1.44,-1.44,1.44,1.06,2.22,0.66,0.67,0.66
424.32,-0.83,-0.82,-1.50,-1.50,1.50,1.11,2.31,0.67,0.67,0.67
428.56,-0.87,-0.87,-1.55,-1.55,1.55,1.16,2.40,0.69,0.68,0.68
432.85,-0.92,-0.92,-1.61,-1.61,1.61,1.21,2.49,0.69,0.69,0.69
437.18,-0.97,-0.97,-1.66,-1.66,1.67,1.26,2.57,0.70,0.70,0.70
441.55,-1.02,-1.02,-1.72,-1.72,1.72,1.31,2.66,0.71,0.71,0.71
445.96,-1.07,-1.06,-1.78,-1.78,1.78,1.36,2.74,0.71,0.72,0.71
450.42,-1.11,-1.11,-1.84,-1.84,1.84,1.41,2.81,0.73,0.73,0.73
454.93,-1.16,-1.16,-1.90,-1.90,1.89,1.47,2.89,0.74,0.74,0.74
459.48,-1.21,-1.20,-1.96,-1.95,1.95,1.52,2.96,0.74,0.75,0.75
464.07,-1.26,-1.25,-2.01,-2.01,2.01,1.58,3.03,0.75,0.75,0.75
468.71,-1.30,-1.30,-2.06,-2.06,2.06,1.64,3.09,0.77,0.76,0.76
473.40,-1.35,-1.35,-2.11,-2.11,2.12,1.70,3.14,0.77,0.77,0.77
478.13,-1.40,-1.39,-2.17,-2.17,2.17,1.76,3.20,0.78,0.78,0.78
482.91,-1.44,-1.44,-2.23,-2.23,2.23,1.83,3.24,0.79,0.79,0.80
487.74,-1.49,-1.49,-2.29,-2.29,2.29,1.89,3.29,0.80,0.80,0.80
492.62,-1.54,-1.53,-2.35,-2.35,2.35,1.96,3.32,0.81,0.81,0.81
497.55,-1.58,-1.58,-2.40,-2.40,2.40,2.03,3.35,0.83,0.82,0.82
502.52,-1.63,-1.62,-2.46,-2.46,2.46,2.10,3.38,0.83,0.84,0.83
507.55,-1.67,-1.67,-2.52,-2.52,2.52,2.17,3.40,0.85,0.85,0.85
512.62,-1.72,-1.71,-2.58,-2.57,2.57,2.25,3.41,0.86,0.86,0.86
517.75,-1.76,-1.76,-2.63,-2.63,2.63,2.32,3.42,0.87,0.87,0.87
522.93,-1.80,-1.80,-2.69,-2.69,2.68,2.40,3.43,0.89,0.88,0.89
