frequency,raw,error,smoothed,error_smoothed,equalization,parametric_eq,equalized_raw,equalized_smoothed,target
20,9.55,9.42,9.69,9.59,-9.59,-3.19,-0.04,0.10,0.13
21,9.41,9.28,9.41,9.31,-9.31,-3.65,0.10,0.10,0.12
22,9.21,9.09,9.14,9.04,-9.04,-4.15,0.17,0.10,0.12
23,8.95,8.83,8.87,8.78,-8.78,-4.70,0.17,0.10,0.11
24,8.68,8.57,8.62,8.52,-8.52,-5.27,0.15,0.09,0.11
25,8.42,8.32,8.37,8.28,-8.28,-5.87,0.14,0.09,0.10
26,8.15,8.05,8.13,8.04,-8.04,-6.47,0.11,0.09,0.10
27,7.89,7.80,7.90,7.81,-7.81,-7.05,0.07,0.08,0.09
28,7.66,7.57,7.67,7.59,-7.59,-7.57,0.06,0.08,0.08
29,7.44,7.36,7.45,7.38,-7.38,-8.00,0.05,0.07,0.07
30,7.22,7.15,7.24,7.18,-7.18,-8.30,0.04,0.06,0.07
31,7.01,6.95,7.03,6.98,-6.98,-8.46,0.02,0.05,0.06
32,6.82,6.77,6.83,6.80,-6.80,-8.47,0.02,0.04,0.05
33,6.65,6.61,6.65,6.62,-6.62,-8.35,0.03,0.03,0.04
34,6.48,6.45,6.47,6.45,-6.45,-8.13,0.03,0.02,0.03
35,6.32,6.30,6.31,6.29,-6.29,-7.85,0.03,0.01,0.02
36,6.16,6.15,6.15,6.14,-6.14,-7.53,0.01,0.00,0.01
37,6.00,6.00,6.00,6.01,-6.01,-7.20,-0.01,-0.01,-0.00
38,5.87,5.88,5.85,5.87,-5.87,-6.88,-0.01,-0.02,-0.02
39,5.74,5.77,5.72,5.75,-5.75,-6.57,-0.01,-0.03,-0.03
40,5.60,5.64,5.59,5.64,-5.64,-6.29,-0.04,-0.05,-0.04
41,5.47,5.53,5.47,5.53,-5.53,-6.03,-0.06,-0.06,-0.06
42,5.34,5.41,5.36,5.43,-5.43,-5.80,-0.10,-0.08,-0.07
43,5.24,5.33,5.25,5.34,-5.34,-5.60,-0.11,-0.09,-0.09
44,5.15,5.25,5.15,5.26,-5.26,-5.42,-0.11,-0.11,-0.11
45,5.05,5.17,5.06,5.18,-5.18,-5.27,-0.14,-0.13,-0.12
46,4.98,5.12,4.97,5.12,-5.12,-5.14,-0.14,-0.15,-0.14
47,4.89,5.05,4.89,5.06,-5.06,-5.04,-0.17,-0.16,-0.16
48,4.83,5.01,4.82,5.00,-5.00,-4.95,-0.18,-0.19,-0.18
49,4.76,4.96,4.75,4.96,-4.96,-4.88,-0.20,-0.21,-0.20
50,4.70,4.92,4.69,4.92,-4.92,-4.82,-0.22,-0.23,-0.22
51,4.63,4.87,4.64,4.88,-4.88,-4.78,-0.26,-0.25,-0.24
52,4.58,4.84,4.59,4.85,-4.85,-4.74,-0.28,-0.27,-0.26
53,4.53,4.81,4.54,4.83,-4.83,-4.72,-0.30,-0.29,-0.29
54,4.48,4.79,4.49,4.80,-4.80,-4.70,-0.32,-0.31,-0.31
55,4.43,4.76,4.44,4.77,-4.77,-4.68,-0.35,-0.33,-0.33
56,4.40,4.76,4.39,4.75,-4.75,-4.67,-0.35,-0.36,-0.36
57,4.35,4.73,4.33,4.72,-4.72,-4.66,-0.37,-0.38,-0.39
58,4.30,4.71,4.27,4.68,-4.68,-4.64,-0.39,-0.41,-0.41
59,4.24,4.68,4.21,4.65,-4.65,-4.63,-0.41,-0.44,-0.44
60,4.18,4.64,4.14,4.61,-4.61,-4.61,-0.44,-0.47,-0.47
61,4.10,4.59,4.07,4.57,-4.57,-4.58,-0.48,-0.50,-0.50
62,4.03,4.55,4.00,4.53,-4.53,-4.55,-0.50,-0.53,-0.52
63,3.92,4.47,3.92,4.49,-4.49,-4.52,-0.57,-0.57,-0.55
64,3.83,4.41,3.85,4.45,-4.45,-4.48,-0.62,-0.60,-0.58
65,3.75,4.36,3.78,4.41,-4.41,-4.44,-0.66,-0.63,-0.62
66,3.67,4.31,3.71,4.37,-4.37,-4.39,-0.70,-0.66,-0.65
67,3.62,4.30,3.64,4.34,-4.34,-4.34,-0.72,-0.70,-0.68
68,3.55,4.26,3.58,4.31,-4.31,-4.29,-0.76,-0.73,-0.71
69,3.51,4.25,3.52,4.28,-4.28,-4.24,-0.77,-0.76,-0.74
70,3.46,4.23,3.46,4.25,-4.25,-4.18,-0.80,-0.79,-0.78
71,3.42,4.23,3.41,4.23,-4.23,-4.13,-0.81,-0.82,-0.81
72,3.38,4.22,3.35,4.21,-4.21,-4.08,-0.83,-0.85,-0.84
73,3.32,4.20,3.30,4.18,-4.18,-4.03,-0.86,-0.88,-0.88
74,3.27,4.18,3.24,4.15,-4.15,-3.98,-0.88,-0.91,-0.91
75,3.19,4.14,3.17,4.12,-4.12,-3.93,-0.93,-0.95,-0.95
76,3.14,4.12,3.10,4.08,-4.08,-3.89,-0.95,-0.98,-0.98
77,3.05,4.07,3.03,4.04,-4.04,-3.85,-1.00,-1.02,-1.02
78,2.96,4.01,2.95,4.00,-4.00,-3.81,-1.05,-1.06,-1.06
79,2.87,3.96,2.86,3.96,-3.96,-3.78,-1.09,-1.10,-1.09
80,2.79,3.91,2.78,3.91,-3.91,-3.75,-1.13,-1.13,-1.13
81,2.70,3.86,2.70,3.87,-3.87,-3.72,-1.17,-1.17,-1.16
82,2.61,3.81,2.62,3.83,-3.83,-3.70,-1.22,-1.21,-1.20
83,2.53,3.76,2.55,3.79,-3.79,-3.68,-1.27,-1.25,-1.24
84,2.45,3.72,2.48,3.76,-3.76,-3.67,-1.32,-1.29,-1.27
85,2.41,3.72,2.42,3.74,-3.74,-3.66,-1.34,-1.32,-1.31
86,2.36,3.70,2.37,3.73,-3.73,-3.66,-1.37,-1.36,-1.35
87,2.33,3.71,2.33,3.73,-3.73,-3.66,-1.40,-1.40,-1.38
88,2.29,3.70,2.30,3.73,-3.73,-3.66,-1.45,-1.43,-1.42
89,2.29,3.74,2.28,3.75,-3.75,-3.66,-1.46,-1.47,-1.45
90,2.25,3.74,2.27,3.77,-3.77,-3.67,-1.53,-1.50,-1.49
91,2.25,3.77,2.27,3.80,-3.80,-3.69,-1.56,-1.53,-1.53
92,2.27,3.83,2.27,3.84,-3.84,-3.70,-1.57,-1.57,-1.56
93,2.29,3.88,2.28,3.88,-3.88,-3.72,-1.59,-1.60,-1.60
94,2.29,3.92,2.29,3.93,-3.93,-3.74,-1.64,-1.63,-1.63
95,2.29,3.95,2.30,3.97,-3.97,-3.77,-1.68,-1.67,-1.67
96,2.34,4.04,2.31,4.01,-4.01,-3.79,-1.68,-1.70,-1.70
97,2.34,4.07,2.32,4.06,-4.06,-3.82,-1.72,-1.74,-1.74
98,2.34,4.11,2.32,4.09,-4.09,-3.85,-1.76,-1.77,-1.77
99,2.34,4.14,2.32,4.12,-4.12,-3.88,-1.79,-1.81,-1.80
100,2.34,4.17,2.31,4.15,-4.15,-3.92,-1.81,-1.84,-1.84
101,2.33,4.20,2.29,4.17,-4.17,-3.95,-1.85,-1.88,-1.87
102,2.29,4.19,2.27,4.19,-4.19,-3.99,-1.90,-1.92,-1.90
104,2.25,4.22,2.24,4.20,-4.20,-4.06,-1.95,-1.96,-1.97
105,2.20,4.20,2.21,4.21,-4.21,-4.09,-2.01,-1.99,-2.00
106,2.17,4.20,2.18,4.21,-4.21,-4.13,-2.04,-2.03,-2.03
107,2.12,4.18,2.14,4.21,-4.21,-4.16,-2.09,-2.06,-2.06
108,2.10,4.19,2.11,4.20,-4.20,-4.20,-2.11,-2.10,-2.09
109,2.06,4.18,2.07,4.20,-4.20,-4.23,-2.14,-2.13,-2.12
110,2.02,4.17,2.03,4.20,-4.20,-4.26,-2.18,-2.16,-2.15
111,2.00,4.18,2.00,4.19,-4.19,-4.29,-2.19,-2.19,-2.18
112,1.97,4.18,1.97,4.19,-4.19,-4.32,-2.22,-2.22,-2.21
113,1.95,4.19,1.93,4.18,-4.18,-4.34,-2.24,-2.25,-2.24
114,1.90,4.16,1.90,4.18,-4.18,-4.36,-2.28,-2.28,-2.27
115,1.88,4.17,1.86,4.17,-4.17,-4.38,-2.30,-2.31,-2.29
117,1.82,4.17,1.83,4.16,-4.16,-4.40,-2.35,-2.34,-2.35
118,1.79,4.16,1.79,4.15,-4.15,-4.41,-2.37,-2.37,-2.38
119,1.75,4.15,1.74,4.14,-4.14,-4.42,-2.40,-2.40,-2.40
120,1.71,4.13,1.70,4.13,-4.13,-4.42,-2.42,-2.43,-2.43
121,1.67,4.12,1.65,4.11,-4.11,-4.41,-2.44,-2.46,-2.45
123,1.58,4.08,1.59,4.09,-4.09,-4.39,-2.51,-2.49,-2.50
124,1.54,4.06,1.54,4.06,-4.06,-4.38,-2.52,-2.52,-2.52
125,1.49,4.03,1.48,4.03,-4.03,-4.36,-2.54,-2.55,-2.55
126,1.45,4.02,1.42,4.00,-4.00,-4.33,-2.55,-2.58,-2.57
128,1.33,3.94,1.35,3.96,-3.96,-4.28,-2.63,-2.61,-2.61
129,1.28,3.91,1.29,3.92,-3.92,-4.24,-2.64,-2.63,-2.64
130,1.22,3.87,1.21,3.88,-3.88,-4.20,-2.66,-2.66,-2.66
131,1.16,3.84,1.14,3.83,-3.83,-4.16,-2.67,-2.69,-2.68
133,1.04,3.76,1.07,3.78,-3.78,-4.07,-2.74,-2.71,-2.72
134,1.00,3.74,0.99,3.73,-3.73,-4.02,-2.73,-2.74,-2.74
135,0.93,3.69,0.91,3.67,-3.67,-3.97,-2.75,-2.76,-2.76
137,0.82,3.61,0.82,3.61,-3.61,-3.86,-2.80,-2.79,-2.80
138,0.74,3.55,0.74,3.55,-3.55,-3.80,-2.82,-2.82,-2.81
140,0.64,3.49,0.65,3.49,-3.49,-3.68,-2.85,-2.84,-2.85
141,0.57,3.43,0.56,3.42,-3.42,-3.61,-2.86,-2.87,-2.87
142,0.49,3.37,0.46,3.36,-3.36,-3.55,-2.87,-2.90,-2.88
144,0.37,3.28,0.37,3.29,-3.29,-3.42,-2.92,-2.92,-2.92
145,0.30,3.23,0.27,3.22,-3.22,-3.36,-2.92,-2.95,-2.93
147,0.16,3.12,0.18,3.15,-3.15,-3.22,-2.99,-2.97,-2.96
148,0.08,3.06,0.09,3.08,-3.08,-3.16,-3.00,-2.99,-2.98
150,-0.03,2.97,0.00,3.01,-3.01,-3.02,-3.05,-3.01,-3.01
151,-0.10,2.92,-0.09,2.94,-2.94,-2.96,-3.05,-3.03,-3.02
153,-0.19,2.86,-0.18,2.87,-2.87,-2.82,-3.07,-3.05,-3.05
154,-0.26,2.80,-0.27,2.80,-2.80,-2.76,-3.06,-3.07,-3.06
156,-0.35,2.73,-0.36,2.73,-2.73,-2.63,-3.08,-3.09,-3.09
157,-0.42,2.68,-0.45,2.66,-2.66,-2.56,-3.08,-3.11,-3.10
159,-0.55,2.57,-0.55,2.58,-2.58,-2.43,-3.13,-3.13,-3.12
160,-0.59,2.54,-0.64,2.50,-2.50,-2.37,-3.10,-3.14,-3.14
162,-0.72,2.44,-0.73,2.42,-2.42,-2.25,-3.15,-3.16,-3.16
164,-0.85,2.33,-0.83,2.34,-2.34,-2.13,-3.20,-3.18,-3.18
165,-0.91,2.28,-0.93,2.26,-2.26,-2.07,-3.18,-3.19,-3.19
167,-1.04,2.17,-1.04,2.18,-2.18,-1.95,-3.22,-3.21,-3.21
169,-1.16,2.07,-1.14,2.10,-2.10,-1.83,-3.26,-3.23,-3.23
170,-1.22,2.02,-1.24,2.01,-2.01,-1.78,-3.24,-3.25,-3.24
172,-1.34,1.92,-1.34,1.93,-1.93,-1.67,-3.27,-3.27,-3.26
174,-1.46,1.81,-1.43,1.85,-1.85,-1.56,-3.31,-3.28,-3.28
175,-1.51,1.77,-1.52,1.77,-1.77,-1.51,-3.28,-3.29,-3.29
177,-1.62,1.68,-1.62,1.69,-1.69,-1.40,-3.31,-3.31,-3.30
179,-1.71,1.61,-1.71,1.61,-1.61,-1.30,-3.33,-3.32,-3.32
181,-1.81,1.52,-1.80,1.54,-1.54,-1.20,-3.35,-3.33,-3.33
183,-1.91,1.44,-1.89,1.46,-1.46,-1.11,-3.37,-3.35,-3.35
184,-1.93,1.42,-1.98,1.38,-1.38,-1.06,-3.32,-3.36,-3.36
186,-2.05,1.32,-2.07,1.31,-1.31,-0.97,-3.36,-3.38,-3.37
188,-2.13,1.25,-2.15,1.24,-1.24,-0.88,-3.37,-3.39,-3.38
190,-2.22,1.17,-2.24,1.16,-1.16,-0.79,-3.39,-3.40,-3.40
192,-2.33,1.08,-2.32,1.09,-1.09,-0.70,-3.42,-3.41,-3.41
194,-2.43,0.99,-2.41,1.02,-1.02,-0.62,-3.45,-3.43,-3.42
196,-2.50,0.93,-2.49,0.95,-0.95,-0.53,-3.45,-3.44,-3.43
198,-2.58,0.86,-2.57,0.88,-0.88,-0.45,-3.46,-3.45,-3.44
200,-2.66,0.79,-2.65,0.81,-0.81,-0.37,-3.47,-3.46,-3.46
202,-2.73,0.73,-2.73,0.74,-0.74,-0.30,-3.47,-3.47,-3.47
204,-2.80,0.67,-2.81,0.68,-0.68,-0.22,-3.48,-3.48,-3.48
206,-2.87,0.61,-2.88,0.61,-0.61,-0.15,-3.48,-3.49,-3.49
208,-2.94,0.55,-2.95,0.55,-0.55,-0.07,-3.49,-3.50,-3.50
210,-3.02,0.48,-3.03,0.48,-0.48,-0.00,-3.51,-3.51,-3.50
212,-3.10,0.41,-3.10,0.42,-0.42,0.07,-3.52,-3.52,-3.51
214,-3.16,0.36,-3.17,0.36,-0.36,0.13,-3.52,-3.53,-3.52
216,-3.23,0.30,-3.24,0.29,-0.29,0.20,-3.53,-3.53,-3.53
218,-3.30,0.24,-3.31,0.23,-0.23,0.26,-3.53,-3.54,-3.54
221,-3.40,0.15,-3.39,0.16,-0.16,0.36,-3.56,-3.55,-3.55
223,-3.48,0.07,-3.46,0.09,-0.09,0.42,-3.57,-3.55,-3.56
225,-3.54,0.02,-3.54,0.02,-0.02,0.48,-3.56,-3.56,-3.56
227,-3.62,-0.06,-3.62,-0.06,0.06,0.53,-3.56,-3.56,-3.56
229,-3.68,-0.12,-3.70,-0.14,0.14,0.59,-3.55,-3.57,-3.56
232,-3.77,-0.21,-3.78,-0.22,0.22,0.67,-3.56,-3.57,-3.57
234,-3.86,-0.30,-3.86,-0.30,0.30,0.72,-3.57,-3.57,-3.57
236,-3.91,-0.35,-3.95,-0.38,0.38,0.77,-3.53,-3.56,-3.56
239,-4.04,-0.49,-4.03,-0.47,0.47,0.84,-3.58,-3.56,-3.56
241,-4.12,-0.57,-4.11,-0.55,0.55,0.89,-3.57,-3.55,-3.55
244,-4.21,-0.67,-4.19,-0.64,0.64,0.95,-3.57,-3.54,-3.54
246,-4.29,-0.76,-4.27,-0.74,0.74,1.00,-3.56,-3.53,-3.53
248,-4.33,-0.81,-4.36,-0.83,0.83,1.04,-3.50,-3.53,-3.52
251,-4.46,-0.95,-4.44,-0.92,0.92,1.10,-3.54,-3.52,-3.52
253,-4.50,-1.00,-4.53,-1.02,1.02,1.13,-3.49,-3.52,-3.50
256,-4.59,-1.10,-4.62,-1.11,1.11,1.19,-3.48,-3.51,-3.50
259,-4.70,-1.22,-4.70,-1.21,1.21,1.24,-3.49,-3.50,-3.49
261,-4.77,-1.30,-4.79,-1.30,1.30,1.27,-3.47,-3.49,-3.48
264,-4.87,-1.40,-4.87,-1.40,1.40,1.32,-3.48,-3.48,-3.47
266,-4.95,-1.49,-4.96,-1.49,1.49,1.35,-3.46,-3.47,-3.46
269,-5.07,-1.62,-5.04,-1.59,1.59,1.40,-3.49,-3.45,-3.45
272,-5.16,-1.72,-5.12,-1.68,1.68,1.44,-3.48,-3.44,-3.44
274,-5.22,-1.79,-5.21,-1.77,1.77,1.47,-3.45,-3.43,-3.43
277,-5.28,-1.87,-5.28,-1.87,1.87,1.51,-3.42,-3.42,-3.42
280,-5.35,-1.95,-5.36,-1.96,1.96,1.55,-3.39,-3.40,-3.40
283,-5.42,-2.04,-5.44,-2.05,2.05,1.59,-3.37,-3.39,-3.38
286,-5.51,-2.15,-5.51,-2.14,2.14,1.63,-3.37,-3.37,-3.37
288,-5.54,-2.20,-5.58,-2.23,2.23,1.66,-3.31,-3.35,-3.34
291,-5.64,-2.32,-5.65,-2.32,2.32,1.70,-3.32,-3.33,-3.32
294,-5.71,-2.41,-5.72,-2.41,2.41,1.74,-3.30,-3.31,-3.30
297,-5.79,-2.51,-5.78,-2.50,2.50,1.78,-3.30,-3.29,-3.28
300,-5.86,-2.60,-5.85,-2.58,2.58,1.82,-3.28,-3.27,-3.26
303,-5.92,-2.68,-5.91,-2.66,2.66,1.86,-3.26,-3.25,-3.24
306,-5.97,-2.75,-5.97,-2.74,2.74,1.90,-3.24,-3.24,-3.23
309,-6.01,-2.80,-6.03,-2.81,2.81,1.94,-3.21,-3.22,-3.21
312,-6.06,-2.87,-6.07,-2.87,2.87,1.98,-3.19,-3.20,-3.19
316,-6.13,-2.96,-6.12,-2.94,2.94,2.04,-3.20,-3.18,-3.18
319,-6.16,-3.00,-6.15,-2.99,2.99,2.09,-3.17,-3.16,-3.16
322,-6.20,-3.06,-6.19,-3.04,3.04,2.13,-3.16,-3.14,-3.14
325,-6.23,-3.11,-6.21,-3.09,3.09,2.18,-3.15,-3.13,-3.12
328,-6.24,-3.14,-6.23,-3.13,3.13,2.23,-3.11,-3.11,-3.11
332,-6.24,-3.16,-6.25,-3.16,3.16,2.30,-3.08,-3.09,-3.09
335,-6.24,-3.18,-6.26,-3.20,3.20,2.35,-3.05,-3.07,-3.07
338,-6.24,-3.20,-6.27,-3.22,3.22,2.40,-3.02,-3.05,-3.04
342,-6.28,-3.26,-6.27,-3.25,3.25,2.47,-3.04,-3.02,-3.02
345,-6.28,-3.28,-6.27,-3.27,3.27,2.53,-3.01,-3.00,-3.00
349,-6.28,-3.30,-6.27,-3.29,3.29,2.60,-3.00,-2.98,-2.98
352,-6.28,-3.32,-6.27,-3.30,3.30,2.66,-2.98,-2.96,-2.96
356,-6.24,-3.30,-6.26,-3.32,3.32,2.74,-2.92,-2.94,-2.94
359,-6.24,-3.32,-6.26,-3.33,3.33,2.80,-2.91,-2.93,-2.92
363,-6.24,-3.33,-6.25,-3.34,3.34,2.88,-2.90,-2.91,-2.91
366,-6.24,-3.35,-6.25,-3.35,3.35,2.94,-2.89,-2.90,-2.90
370,-6.24,-3.36,-6.25,-3.36,3.36,3.03,-2.88,-2.89,-2.88
374,-6.24,-3.37,-6.24,-3.37,3.37,3.11,-2.88,-2.87,-2.87
377,-6.24,-3.39,-6.23,-3.37,3.37,3.18,-2.87,-2.86,-2.86
381,-6.24,-3.40,-6.22,-3.37,3.37,3.26,-2.87,-2.85,-2.85
385,-6.20,-3.37,-6.21,-3.37,3.37,3.35,-2.83,-2.84,-2.83
389,-6.20,-3.38,-6.20,-3.37,3.37,3.44,-2.83,-2.83,-2.82
393,-6.20,-3.39,-6.19,-3.37,3.37,3.54,-2.83,-2.82,-2.81
397,-6.20,-3.40,-6.18,-3.37,3.37,3.63,-2.83,-2.82,-2.81
401,-6.20,-3.40,-6.17,-3.37,3.37,3.72,-2.84,-2.81,-2.80
405,-6.15,-3.36,-6.17,-3.36,3.36,3.81,-2.79,-2.80,-2.79
409,-6.15,-3.36,-6.16,-3.36,3.36,3.90,-2.79,-2.80,-2.79
413,-6.15,-3.37,-6.16,-3.37,3.37,3.99,-2.79,-2.79,-2.79
417,-6.15,-3.37,-6.16,-3.38,3.38,4.08,-2.78,-2.78,-2.78
421,-6.15,-3.37,-6.17,-3.39,3.39,4.16,-2.76,-2.78,-2.78
425,-6.17,-3.40,-6.18,-3.41,3.41,4.25,-2.76,-2.78,-2.78
430,-6.20,-3.43,-6.21,-3.44,3.44,4.35,-2.76,-2.77,-2.77
434,-6.24,-3.48,-6.24,-3.48,3.48,4.43,-2.76,-2.75,-2.77
438,-6.26,-3.50,-6.27,-3.54,3.54,4.51,-2.73,-2.74,-2.76
443,-6.31,-3.56,-6.33,-3.60,3.60,4.60,-2.71,-2.73,-2.75
447,-6.37,-3.63,-6.40,-3.67,3.67,4.66,-2.70,-2.72,-2.74
451,-6.44,-3.71,-6.48,-3.76,3.76,4.73,-2.69,-2.72,-2.73
456,-6.51,-3.79,-6.56,-3.84,3.84,4.80,-2.67,-2.72,-2.72
460,-6.58,-3.88,-6.65,-3.93,3.93,4.85,-2.66,-2.73,-2.71
465,-6.67,-3.98,-6.74,-4.01,4.01,4.91,-2.66,-2.73,-2.69
470,-6.78,-4.11,-6.81,-4.09,4.09,4.96,-2.70,-2.72,-2.68
474,-6.87,-4.21,-6.87,-4.15,4.15,4.99,-2.72,-2.72,-2.66
479,-6.97,-4.32,-6.91,-4.20,4.20,5.02,-2.77,-2.71,-2.65
484,-7.06,-4.43,-6.93,-4.23,4.23,5.04,-2.83,-2.70,-2.64
489,-7.10,-4.48,-6.93,-4.24,4.24,5.05,-2.86,-2.69,-2.62
494,-7.03,-4.42,-6.90,-4.23,4.23,5.05,-2.80,-2.67,-2.61
499,-6.94,-4.34,-6.85,-4.20,4.20,5.04,-2.74,-2.65,-2.60
504,-6.81,-4.23,-6.79,-4.16,4.16,5.02,-2.65,-2.63,-2.59
509,-6.68,-4.11,-6.71,-4.11,4.11,4.98,-2.57,-2.60,-2.57
514,-6.54,-3.99,-6.63,-4.05,4.05,4.95,-2.49,-2.58,-2.56
519,-6.44,-3.90,-6.54,-3.98,3.98,4.90,-2.46,-2.55,-2.54
524,-6.35,-3.83,-6.44,-3.92,3.92,4.84,-2.43,-2.52,-2.52
529,-6.28,-3.78,-6.35,-3.86,3.86,4.78,-2.42,-2.49,-2.50
535,-6.22,-3.74,-6.27,-3.81,3.81,4.69,-2.41,-2.46,-2.48
540,-6.17,-3.72,-6.20,-3.76,3.76,4.61,-2.41,-2.44,-2.46
545,-6.15,-3.72,-6.15,-3.73,3.73,4.52,-2.43,-2.43,-2.43
551,-6.11,-3.70,-6.11,-3.70,3.70,4.42,-2.42,-2.41,-2.41
556,-6.11,-3.73,-6.07,-3.67,3.67,4.32,-2.44,-2.40,-2.39
562,-6.07,-3.71,-6.04,-3.66,3.66,4.20,-2.42,-2.38,-2.36
568,-6.02,-3.68,-6.00,-3.65,3.65,4.08,-2.38,-2.36,-2.34
573,-5.99,-3.67,-5.97,-3.64,3.64,3.97,-2.36,-2.33,-2.32
579,-5.94,-3.64,-5.94,-3.63,3.63,3.84,-2.32,-2.31,-2.30
585,-5.91,-3.63,-5.91,-3.61,3.61,3.71,-2.30,-2.29,-2.28
591,-5.86,-3.60,-5.87,-3.60,3.60,3.58,-2.26,-2.27,-2.26
596,-5.81,-3.57,-5.84,-3.58,3.58,3.47,-2.23,-2.26,-2.25
602,-5.76,-3.53,-5.81,-3.56,3.56,3.33,-2.20,-2.24,-2.23
608,-5.73,-3.51,-5.77,-3.54,3.54,3.20,-2.19,-2.22,-2.22
615,-5.72,-3.52,-5.73,-3.52,3.52,3.04,-2.20,-2.21,-2.21
621,-5.69,-3.50,-5.69,-3.49,3.49,2.91,-2.20,-2.20,-2.19
627,-5.68,-3.50,-5.65,-3.46,3.46,2.77,-2.22,-2.19,-2.18
633,-5.63,-3.47,-5.60,-3.43,3.43,2.64,-2.21,-2.17,-2.17
639,-5.57,-3.42,-5.54,-3.39,3.39,2.51,-2.19,-2.16,-2.15
646,-5.50,-3.36,-5.48,-3.34,3.34,2.36,-2.16,-2.14,-2.14
652,-5.44,-3.32,-5.42,-3.29,3.29,2.24,-2.15,-2.13,-2.12
659,-5.34,-3.23,-5.35,-3.23,3.23,2.09,-2.11,-2.12,-2.11
665,-5.27,-3.18,-5.27,-3.17,3.17,1.97,-2.11,-2.11,-2.10
672,-5.18,-3.10,-5.19,-3.10,3.10,1.82,-2.09,-2.09,-2.08
679,-5.08,-3.01,-5.10,-3.02,3.02,1.68,-2.06,-2.08,-2.07
686,-4.97,-2.92,-5.01,-2.94,2.94,1.55,-2.03,-2.07,-2.06
692,-4.90,-2.85,-4.91,-2.86,2.86,1.43,-2.05,-2.06,-2.05
699,-4.82,-2.78,-4.81,-2.77,2.77,1.30,-2.06,-2.05,-2.04
706,-4.72,-2.69,-4.71,-2.67,2.67,1.17,-2.05,-2.04,-2.04
713,-4.63,-2.60,-4.61,-2.58,2.58,1.04,-2.05,-2.03,-2.03
721,-4.52,-2.50,-4.51,-2.48,2.48,0.89,-2.04,-2.03,-2.03
728,-4.41,-2.39,-4.41,-2.38,2.38,0.77,-2.03,-2.02,-2.02
735,-4.28,-2.26,-4.30,-2.28,2.28,0.65,-2.00,-2.02,-2.02
742,-4.18,-2.17,-4.20,-2.19,2.19,0.52,-2.00,-2.01,-2.01
750,-4.07,-2.06,-4.09,-2.09,2.09,0.39,-1.99,-2.00,-2.01
757,-3.97,-1.97,-3.98,-1.99,1.99,0.27,-1.99,-2.00,-2.00
765,-3.86,-1.87,-3.87,-1.88,1.88,0.14,-1.98,-1.99,-1.99
773,-3.75,-1.77,-3.76,-1.78,1.78,0.01,-1.97,-1.98,-1.99
780,-3.66,-1.69,-3.65,-1.68,1.68,-0.10,-1.98,-1.97,-1.98
788,-3.54,-1.58,-3.54,-1.57,1.57,-0.22,-1.97,-1.97,-1.97
796,-3.43,-1.48,-3.43,-1.47,1.47,-0.34,-1.97,-1.96,-1.96
804,-3.30,-1.36,-3.31,-1.36,1.36,-0.46,-1.95,-1.96,-1.95
812,-3.18,-1.24,-3.19,-1.24,1.24,-0.58,-1.94,-1.95,-1.94
820,-3.08,-1.15,-3.07,-1.12,1.12,-0.69,-1.96,-1.95,-1.93
828,-2.95,-1.03,-2.94,-0.99,0.99,-0.80,-1.96,-1.94,-1.93
837,-2.82,-0.90,-2.80,-0.86,0.86,-0.92,-1.96,-1.94,-1.92
845,-2.68,-0.76,-2.66,-0.73,0.73,-1.02,-1.96,-1.94,-1.92
853,-2.53,-0.61,-2.52,-0.59,0.59,-1.13,-1.95,-1.94,-1.92
862,-2.37,-0.45,-2.37,-0.44,0.44,-1.24,-1.93,-1.93,-1.93
871,-2.20,-0.28,-2.22,-0.29,0.29,-1.34,-1.91,-1.93,-1.93
879,-2.06,-0.13,-2.07,-0.14,0.14,-1.43,-1.93,-1.93,-1.93
888,-1.90,0.03,-1.91,0.02,-0.02,-1.53,-1.92,-1.93,-1.93
897,-1.75,0.18,-1.75,0.17,-0.17,-1.62,-1.93,-1.93,-1.93
906,-1.59,0.34,-1.60,0.33,-0.33,-1.71,-1.92,-1.92,-1.93
915,-1.44,0.48,-1.44,0.48,-0.48,-1.79,-1.93,-1.92,-1.93
924,-1.26,0.66,-1.28,0.64,-0.64,-1.87,-1.90,-1.92,-1.92
933,-1.11,0.80,-1.12,0.79,-0.79,-1.94,-1.90,-1.91,-1.92
943,-0.95,0.95,-0.96,0.94,-0.94,-2.01,-1.90,-1.90,-1.91
952,-0.80,1.09,-0.80,1.09,-1.09,-2.07,-1.90,-1.89,-1.90
962,-0.64,1.24,-0.64,1.24,-1.24,-2.13,-1.89,-1.88,-1.88
971,-0.49,1.38,-0.48,1.39,-1.39,-2.17,-1.88,-1.87,-1.87
981,-0.33,1.52,-0.32,1.54,-1.54,-2.22,-1.87,-1.85,-1.85
991,-0.15,1.68,-0.15,1.68,-1.68,-2.26,-1.83,-1.83,-1.83
1001,0.02,1.83,0.01,1.82,-1.82,-2.29,-1.81,-1.81,-1.81
1011,0.18,1.96,0.18,1.97,-1.97,-2.32,-1.79,-1.79,-1.79
1021,0.34,2.10,0.34,2.11,-2.11,-2.34,-1.77,-1.77,-1.76
1031,0.50,2.23,0.51,2.25,-2.25,-2.35,-1.75,-1.74,-1.74
1041,0.66,2.37,0.67,2.39,-2.39,-2.36,-1.73,-1.71,-1.71
1052,0.84,2.52,0.84,2.52,-2.52,-2.36,-1.69,-1.69,-1.68
1062,0.99,2.64,1.00,2.65,-2.65,-2.36,-1.67,-1.66,-1.66
1073,1.17,2.79,1.15,2.78,-2.78,-2.35,-1.61,-1.63,-1.63
1084,1.31,2.91,1.30,2.90,-2.90,-2.33,-1.60,-1.60,-1.60
1094,1.45,3.01,1.45,3.02,-3.02,-2.32,-1.57,-1.57,-1.57
1105,1.59,3.12,1.58,3.12,-3.12,-2.30,-1.54,-1.54,-1.54
1116,1.72,3.22,1.71,3.22,-3.22,-2.27,-1.51,-1.51,-1.51
1128,1.85,3.32,1.84,3.31,-3.31,-2.24,-1.46,-1.47,-1.47
1139,1.95,3.39,1.95,3.39,-3.39,-2.21,-1.44,-1.44,-1.44
1150,2.05,3.45,2.05,3.45,-3.45,-2.18,-1.40,-1.40,-1.41
1162,2.14,3.51,2.14,3.50,-3.50,-2.14,-1.36,-1.36,-1.37
1173,2.22,3.55,2.21,3.53,-3.53,-2.10,-1.31,-1.32,-1.33
1185,2.28,3.57,2.27,3.54,-3.54,-2.06,-1.27,-1.27,-1.29
1197,2.34,3.58,2.32,3.54,-3.54,-2.02,-1.21,-1.22,-1.25
1209,2.40,3.60,2.36,3.53,-3.53,-1.98,-1.13,-1.17,-1.20
1221,2.42,3.57,2.37,3.50,-3.50,-1.94,-1.08,-1.13,-1.15
1233,2.42,3.52,2.38,3.46,-3.46,-1.89,-1.05,-1.08,-1.10
1246,2.42,3.47,2.38,3.42,-3.42,-1.85,-1.01,-1.04,-1.05
1258,2.42,3.41,2.37,3.38,-3.38,-1.81,-0.96,-1.01,-1.00
1271,2.42,3.36,2.36,3.34,-3.34,-1.76,-0.92,-0.97,-0.94
1283,2.38,3.26,2.36,3.30,-3.30,-1.72,-0.93,-0.94,-0.88
1296,2.38,3.20,2.38,3.28,-3.28,-1.68,-0.90,-0.90,-0.82
1309,2.38,3.14,2.42,3.27,-3.27,-1.63,-0.90,-0.85,-0.76
1322,2.39,3.08,2.49,3.29,-3.29,-1.59,-0.90,-0.80,-0.69
1335,2.46,3.08,2.59,3.33,-3.33,-1.55,-0.87,-0.73,-0.63
1349,2.58,3.14,2.72,3.39,-3.39,-1.51,-0.81,-0.66,-0.56
1362,2.74,3.23,2.88,3.47,-3.47,-1.48,-0.73,-0.59,-0.49
1376,2.95,3.37,3.07,3.57,-3.57,-1.44,-0.62,-0.51,-0.42
1390,3.21,3.56,3.27,3.69,-3.69,-1.40,-0.48,-0.42,-0.35
1404,3.48,3.76,3.48,3.80,-3.80,-1.37,-0.33,-0.33,-0.28
1418,3.75,3.96,3.69,3.92,-3.92,-1.33,-0.17,-0.23,-0.21
1432,3.99,4.12,3.90,4.03,-4.03,-1.30,-0.04,-0.13,-0.14
1446,4.20,4.26,4.08,4.12,-4.12,-1.27,0.08,-0.04,-0.06
1461,4.36,4.35,4.24,4.18,-4.18,-1.24,0.17,0.06,0.01
1475,4.48,4.39,4.36,4.22,-4.22,-1.21,0.26,0.14,0.08
1490,4.54,4.38,4.44,4.23,-4.23,-1.18,0.31,0.21,0.16
1505,4.58,4.35,4.48,4.20,-4.20,-1.15,0.38,0.28,0.23
1520,4.53,4.22,4.49,4.14,-4.14,-1.13,0.39,0.35,0.31
1535,4.48,4.09,4.46,4.04,-4.04,-1.10,0.43,0.41,0.39
1550,4.41,3.94,4.40,3.92,-3.92,-1.08,0.48,0.48,0.47
1566,4.30,3.74,4.33,3.77,-3.77,-1.05,0.52,0.55,0.55
1582,4.19,3.55,4.23,3.60,-3.60,-1.03,0.58,0.63,0.64
1597,4.07,3.34,4.13,3.42,-3.42,-1.01,0.65,0.71,0.73
1613,3.97,3.15,4.03,3.23,-3.23,-0.99,0.74,0.80,0.82
1629,3.89,2.98,3.92,3.03,-3.03,-0.97,0.85,0.89,0.91
1646,3.82,2.82,3.82,2.84,-2.84,-0.95,0.98,0.98,1.00
1662,3.73,2.63,3.72,2.64,-2.64,-0.94,1.08,1.08,1.10
