frequency,raw,error,smoothed,error_smoothed,equalization,parametric_eq,equalized_raw,equalized_smoothed,target
20,12.44,8.20,12.42,8.19,-8.19,-8.32,4.25,4.24,4.24
21,12.46,8.23,12.47,8.24,-8.24,-8.32,4.21,4.23,4.23
22,12.51,8.29,12.51,8.30,-8.30,-8.33,4.21,4.22,4.22
23,12.55,8.34,12.55,8.34,-8.34,-8.32,4.21,4.21,4.21
24,12.59,8.39,12.57,8.37,-8.37,-8.32,4.21,4.20,4.20
25,12.59,8.40,12.59,8.40,-8.40,-8.32,4.18,4.18,4.18
26,12.59,8.42,12.59,8.42,-8.42,-8.31,4.17,4.17,4.17
27,12.59,8.43,12.59,8.43,-8.43,-8.30,4.16,4.16,4.16
28,12.59,8.45,12.57,8.43,-8.43,-8.29,4.15,4.14,4.14
29,12.55,8.42,12.55,8.43,-8.43,-8.28,4.12,4.12,4.12
30,12.52,8.41,12.52,8.42,-8.42,-8.26,4.10,4.11,4.11
31,12.51,8.42,12.49,8.40,-8.40,-8.25,4.11,4.09,4.09
32,12.45,8.38,12.44,8.38,-8.38,-8.23,4.07,4.07,4.07
33,12.39,8.34,12.40,8.35,-8.35,-8.22,4.04,4.05,4.05
34,12.33,8.30,12.34,8.32,-8.32,-8.20,4.01,4.03,4.03
35,12.29,8.28,12.28,8.28,-8.28,-8.18,4.00,4.00,4.00
36,12.24,8.26,12.22,8.24,-8.24,-8.16,3.99,3.98,3.98
37,12.16,8.20,12.16,8.20,-8.20,-8.14,3.95,3.95,3.95
38,12.09,8.16,12.09,8.16,-8.16,-8.12,3.92,3.92,3.92
39,12.02,8.12,12.02,8.12,-8.12,-8.10,3.90,3.90,3.90
40,11.94,8.07,11.94,8.08,-8.08,-8.07,3.86,3.87,3.87
41,11.87,8.03,11.87,8.04,-8.04,-8.05,3.83,3.84,3.84
42,11.81,8.00,11.80,7.99,-7.99,-8.03,3.81,3.81,3.81
43,11.73,7.95,11.73,7.95,-7.95,-8.00,3.77,3.77,3.77
44,11.65,7.91,11.65,7.91,-7.91,-7.98,3.73,3.74,3.74
45,11.58,7.87,11.58,7.88,-7.88,-7.95,3.70,3.70,3.70
46,11.51,7.84,11.51,7.84,-7.84,-7.93,3.67,3.67,3.67
47,11.44,7.81,11.43,7.80,-7.80,-7.90,3.63,3.63,3.63
48,11.38,7.79,11.36,7.77,-7.77,-7.87,3.61,3.59,3.59
49,11.29,7.73,11.28,7.73,-7.73,-7.85,3.55,3.55,3.55
50,11.21,7.70,11.21,7.70,-7.70,-7.82,3.51,3.51,3.51
51,11.13,7.66,11.13,7.67,-7.67,-7.79,3.46,3.47,3.47
52,11.05,7.62,11.06,7.64,-7.64,-7.76,3.41,3.43,3.43
53,10.99,7.60,10.99,7.61,-7.61,-7.73,3.38,3.38,3.38
54,10.92,7.58,10.92,7.58,-7.58,-7.70,3.33,3.34,3.34
55,10.86,7.56,10.85,7.56,-7.56,-7.68,3.30,3.29,3.29
56,10.79,7.54,10.78,7.53,-7.53,-7.65,3.26,3.25,3.25
57,10.71,7.51,10.70,7.51,-7.51,-7.62,3.20,3.20,3.20
58,10.63,7.48,10.63,7.48,-7.48,-7.58,3.15,3.15,3.15
59,10.57,7.46,10.56,7.45,-7.45,-7.55,3.11,3.10,3.10
60,10.49,7.43,10.48,7.43,-7.43,-7.52,3.06,3.05,3.05
61,10.40,7.39,10.40,7.40,-7.40,-7.49,3.00,3.00,3.00
62,10.32,7.36,10.32,7.37,-7.37,-7.46,2.95,2.95,2.95
63,10.23,7.32,10.24,7.34,-7.34,-7.43,2.88,2.90,2.90
64,10.17,7.32,10.16,7.31,-7.31,-7.40,2.85,2.85,2.85
65,10.10,7.30,10.08,7.29,-7.29,-7.37,2.81,2.80,2.80
66,10.01,7.26,10.00,7.26,-7.26,-7.33,2.75,2.74,2.74
67,9.93,7.23,9.92,7.23,-7.23,-7.30,2.70,2.69,2.69
68,9.85,7.21,9.84,7.20,-7.20,-7.27,2.64,2.64,2.64
69,9.76,7.17,9.76,7.17,-7.17,-7.24,2.58,2.59,2.59
70,9.68,7.14,9.67,7.14,-7.14,-7.20,2.53,2.53,2.53
71,9.59,7.11,9.59,7.11,-7.11,-7.17,2.47,2.48,2.48
72,9.51,7.08,9.51,7.09,-7.09,-7.14,2.42,2.42,2.42
73,9.43,7.06,9.43,7.06,-7.06,-7.10,2.36,2.37,2.37
74,9.36,7.04,9.35,7.04,-7.04,-7.07,2.32,2.31,2.31
75,9.28,7.02,9.28,7.02,-7.02,-7.04,2.26,2.26,2.26
76,9.19,6.98,9.20,7.00,-7.00,-7.00,2.19,2.21,2.21
77,9.14,6.98,9.13,6.98,-6.98,-6.97,2.16,2.15,2.15
78,9.06,6.96,9.05,6.96,-6.96,-6.94,2.10,2.10,2.10
79,8.99,6.94,8.98,6.94,-6.94,-6.90,2.05,2.04,2.04
80,8.92,6.93,8.90,6.91,-6.91,-6.87,2.00,1.99,1.99
81,8.83,6.89,8.83,6.89,-6.89,-6.84,1.94,1.94,1.94
82,8.75,6.86,8.75,6.86,-6.86,-6.80,1.88,1.88,1.88
83,8.67,6.84,8.67,6.84,-6.84,-6.77,1.83,1.83,1.83
84,8.58,6.80,8.59,6.81,-6.81,-6.73,1.77,1.78,1.78
85,8.50,6.77,8.50,6.78,-6.78,-6.70,1.72,1.72,1.72
86,8.43,6.75,8.42,6.75,-6.75,-6.67,1.68,1.67,1.67
87,8.35,6.73,8.34,6.72,-6.72,-6.63,1.63,1.62,1.62
88,8.26,6.69,8.26,6.69,-6.69,-6.60,1.57,1.57,1.57
89,8.18,6.66,8.18,6.66,-6.66,-6.57,1.52,1.52,1.52
90,8.10,6.63,8.09,6.63,-6.63,-6.53,1.47,1.47,1.47
91,8.02,6.60,8.01,6.59,-6.59,-6.50,1.42,1.42,1.42
92,7.92,6.55,7.93,6.56,-6.56,-6.46,1.36,1.37,1.37
93,7.85,6.53,7.84,6.53,-6.53,-6.43,1.32,1.32,1.32
94,7.76,6.49,7.76,6.49,-6.49,-6.40,1.26,1.27,1.27
95,7.68,6.45,7.68,6.46,-6.46,-6.36,1.22,1.22,1.22
96,7.61,6.43,7.60,6.42,-6.42,-6.33,1.18,1.18,1.17
97,7.51,6.38,7.52,6.39,-6.39,-6.30,1.12,1.13,1.13
98,7.44,6.36,7.43,6.35,-6.35,-6.26,1.08,1.08,1.08
99,7.35,6.31,7.35,6.31,-6.31,-6.23,1.03,1.03,1.03
100,7.27,6.28,7.26,6.27,-6.27,-6.20,0.99,0.98,0.99
101,7.20,6.25,7.17,6.23,-6.23,-6.16,0.96,0.93,0.94
102,7.11,6.21,7.07,6.19,-6.19,-6.13,0.92,0.88,0.90
104,6.95,6.13,6.98,6.14,-6.14,-6.07,0.80,0.83,0.81
105,6.86,6.08,6.88,6.10,-6.10,-6.03,0.76,0.78,0.77
106,6.78,6.05,6.79,6.05,-6.05,-6.00,0.72,0.74,0.73
107,6.70,6.01,6.70,6.01,-6.01,-5.97,0.69,0.69,0.69
108,6.61,5.96,6.61,5.96,-5.96,-5.93,0.65,0.65,0.65
109,6.53,5.92,6.52,5.91,-5.91,-5.90,0.62,0.61,0.61
110,6.44,5.87,6.43,5.86,-5.86,-5.87,0.57,0.57,0.57
111,6.34,5.81,6.34,5.81,-5.81,-5.84,0.52,0.53,0.53
112,6.27,5.77,6.25,5.76,-5.76,-5.81,0.50,0.49,0.49
113,6.18,5.72,6.16,5.71,-5.71,-5.77,0.46,0.45,0.46
114,6.09,5.67,6.07,5.66,-5.66,-5.74,0.42,0.41,0.42
115,6.02,5.63,5.99,5.62,-5.62,-5.71,0.40,0.37,0.38
117,5.86,5.54,5.90,5.57,-5.57,-5.65,0.28,0.33,0.31
118,5.80,5.52,5.82,5.54,-5.54,-5.62,0.26,0.29,0.28
119,5.74,5.49,5.75,5.51,-5.51,-5.58,0.23,0.25,0.24
120,5.70,5.49,5.69,5.48,-5.48,-5.55,0.21,0.20,0.21
121,5.64,5.46,5.63,5.47,-5.47,-5.52,0.17,0.16,0.18
123,5.57,5.45,5.58,5.45,-5.45,-5.46,0.11,0.13,0.11
124,5.53,5.44,5.53,5.45,-5.45,-5.43,0.08,0.09,0.08
125,5.51,5.45,5.49,5.44,-5.44,-5.40,0.07,0.05,0.05
126,5.46,5.43,5.45,5.43,-5.43,-5.37,0.02,0.01,0.02
128,5.40,5.43,5.40,5.43,-5.43,-5.31,-0.03,-0.02,-0.04
129,5.36,5.42,5.36,5.42,-5.42,-5.28,-0.06,-0.06,-0.06
130,5.32,5.41,5.31,5.41,-5.41,-5.25,-0.09,-0.09,-0.09
131,5.28,5.39,5.26,5.39,-5.39,-5.22,-0.12,-0.13,-0.12
133,5.21,5.38,5.21,5.38,-5.38,-5.16,-0.17,-0.16,-0.17
134,5.16,5.35,5.16,5.35,-5.35,-5.13,-0.20,-0.20,-0.20
135,5.11,5.33,5.10,5.33,-5.33,-5.10,-0.22,-0.23,-0.22
137,5.03,5.30,5.03,5.30,-5.30,-5.05,-0.27,-0.27,-0.27
138,4.97,5.26,4.97,5.27,-5.27,-5.02,-0.30,-0.30,-0.30
140,4.88,5.22,4.89,5.23,-5.23,-4.96,-0.35,-0.33,-0.34
141,4.82,5.18,4.82,5.18,-5.18,-4.93,-0.37,-0.36,-0.37
142,4.77,5.15,4.74,5.13,-5.13,-4.90,-0.37,-0.40,-0.39
144,4.66,5.09,4.65,5.08,-5.08,-4.85,-0.42,-0.43,-0.43
145,4.59,5.04,4.56,5.02,-5.02,-4.82,-0.44,-0.46,-0.45
147,4.45,4.94,4.47,4.96,-4.96,-4.77,-0.51,-0.49,-0.49
148,4.40,4.91,4.38,4.89,-4.89,-4.74,-0.50,-0.52,-0.51
150,4.26,4.81,4.28,4.82,-4.82,-4.69,-0.57,-0.55,-0.55
151,4.20,4.77,4.18,4.75,-4.75,-4.66,-0.56,-0.57,-0.57
153,4.06,4.66,4.08,4.68,-4.68,-4.61,-0.63,-0.60,-0.61
154,4.01,4.63,3.99,4.61,-4.61,-4.58,-0.61,-0.63,-0.62
156,3.88,4.53,3.89,4.55,-4.55,-4.53,-0.67,-0.65,-0.66
157,3.81,4.48,3.80,4.48,-4.48,-4.50,-0.67,-0.68,-0.67
159,3.70,4.40,3.71,4.41,-4.41,-4.45,-0.71,-0.70,-0.71
160,3.64,4.36,3.61,4.34,-4.34,-4.43,-0.71,-0.73,-0.72
162,3.53,4.28,3.52,4.28,-4.28,-4.38,-0.75,-0.75,-0.75
164,3.41,4.19,3.43,4.21,-4.21,-4.33,-0.81,-0.78,-0.78
165,3.37,4.16,3.35,4.15,-4.15,-4.30,-0.78,-0.80,-0.80
167,3.26,4.08,3.26,4.08,-4.08,-4.25,-0.83,-0.82,-0.82
169,3.16,4.01,3.18,4.02,-4.02,-4.20,-0.87,-0.85,-0.85
170,3.12,3.98,3.09,3.96,-3.96,-4.18,-0.85,-0.87,-0.86
172,3.01,3.90,3.01,3.90,-3.90,-4.13,-0.90,-0.89,-0.89
174,2.92,3.83,2.93,3.84,-3.84,-4.09,-0.93,-0.91,-0.91
175,2.87,3.79,2.85,3.78,-3.78,-4.06,-0.92,-0.93,-0.93
177,2.79,3.74,2.78,3.73,-3.73,-4.02,-0.94,-0.95,-0.95
179,2.71,3.68,2.70,3.67,-3.67,-3.97,-0.97,-0.97,-0.97
181,2.61,3.60,2.63,3.62,-3.62,-3.93,-1.01,-0.99,-0.99
183,2.53,3.54,2.55,3.56,-3.56,-3.88,-1.04,-1.01,-1.01
184,2.51,3.53,2.48,3.51,-3.51,-3.86,-1.00,-1.03,-1.02
186,2.42,3.46,2.41,3.45,-3.45,-3.82,-1.04,-1.05,-1.04
188,2.35,3.41,2.34,3.40,-3.40,-3.78,-1.05,-1.06,-1.06
190,2.27,3.35,2.27,3.35,-3.35,-3.73,-1.08,-1.08,-1.08
192,2.20,3.29,2.20,3.29,-3.29,-3.69,-1.10,-1.10,-1.10
194,2.12,3.23,2.13,3.24,-3.24,-3.65,-1.13,-1.12,-1.12
196,2.07,3.20,2.06,3.19,-3.19,-3.61,-1.13,-1.13,-1.13
198,2.00,3.14,2.00,3.15,-3.15,-3.57,-1.15,-1.15,-1.15
200,1.94,3.10,1.94,3.10,-3.10,-3.53,-1.16,-1.16,-1.16
202,1.87,3.04,1.88,3.06,-3.06,-3.49,-1.19,-1.18,-1.18
204,1.83,3.02,1.82,3.01,-3.01,-3.45,-1.19,-1.19,-1.19
206,1.78,2.98,1.77,2.97,-2.97,-3.41,-1.20,-1.21,-1.21
208,1.72,2.94,1.72,2.94,-2.94,-3.38,-1.22,-1.22,-1.22
210,1.67,2.90,1.66,2.90,-2.90,-3.34,-1.23,-1.23,-1.23
212,1.62,2.86,1.61,2.86,-2.86,-3.30,-1.24,-1.24,-1.24
214,1.57,2.82,1.56,2.82,-2.82,-3.27,-1.26,-1.26,-1.26
216,1.52,2.78,1.52,2.78,-2.78,-3.23,-1.27,-1.27,-1.27
218,1.48,2.75,1.47,2.75,-2.75,-3.19,-1.27,-1.28,-1.28
221,1.42,2.71,1.42,2.71,-2.71,-3.14,-1.30,-1.29,-1.29
223,1.37,2.67,1.37,2.68,-2.68,-3.11,-1.31,-1.30,-1.30
225,1.33,2.64,1.33,2.64,-2.64,-3.07,-1.32,-1.31,-1.31
227,1.29,2.61,1.29,2.61,-2.61,-3.04,-1.33,-1.33,-1.32
229,1.26,2.59,1.24,2.58,-2.58,-3.01,-1.32,-1.34,-1.33
232,1.20,2.54,1.20,2.55,-2.55,-2.96,-1.35,-1.35,-1.35
234,1.17,2.52,1.16,2.52,-2.52,-2.93,-1.35,-1.36,-1.36
236,1.13,2.49,1.12,2.49,-2.49,-2.90,-1.36,-1.37,-1.37
239,1.09,2.46,1.08,2.45,-2.45,-2.85,-1.37,-1.38,-1.38
241,1.04,2.42,1.04,2.43,-2.43,-2.82,-1.39,-1.39,-1.39
244,1.00,2.39,1.00,2.40,-2.40,-2.77,-1.40,-1.40,-1.40
246,0.98,2.38,0.97,2.38,-2.38,-2.74,-1.40,-1.41,-1.41
248,0.94,2.35,0.94,2.36,-2.36,-2.72,-1.42,-1.42,-1.42
251,0.90,2.32,0.92,2.35,-2.35,-2.67,-1.45,-1.43,-1.43
253,0.89,2.32,0.90,2.34,-2.34,-2.64,-1.45,-1.44,-1.43
256,0.89,2.33,0.89,2.33,-2.33,-2.60,-1.45,-1.44,-1.44
259,0.89,2.34,0.88,2.33,-2.33,-2.56,-1.45,-1.45,-1.46
261,0.89,2.35,0.87,2.34,-2.34,-2.53,-1.45,-1.46,-1.46
264,0.89,2.36,0.87,2.34,-2.34,-2.49,-1.45,-1.47,-1.47
266,0.87,2.34,0.86,2.34,-2.34,-2.47,-1.47,-1.48,-1.48
269,0.85,2.33,0.85,2.34,-2.34,-2.43,-1.49,-1.48,-1.48
272,0.85,2.34,0.84,2.34,-2.34,-2.39,-1.49,-1.49,-1.49
274,0.85,2.34,0.83,2.33,-2.33,-2.37,-1.49,-1.50,-1.50
277,0.81,2.31,0.82,2.33,-2.33,-2.33,-1.52,-1.50,-1.50
280,0.81,2.31,0.81,2.32,-2.32,-2.30,-1.51,-1.50,-1.50
283,0.81,2.31,0.80,2.31,-2.31,-2.26,-1.51,-1.51,-1.51
286,0.81,2.31,0.80,2.30,-2.30,-2.23,-1.50,-1.51,-1.51
288,0.81,2.31,0.79,2.29,-2.29,-2.20,-1.49,-1.51,-1.51
291,0.76,2.26,0.78,2.28,-2.28,-2.17,-1.53,-1.50,-1.50
294,0.76,2.26,0.77,2.27,-2.27,-2.14,-1.51,-1.50,-1.50
297,0.76,2.25,0.76,2.26,-2.26,-2.10,-1.50,-1.50,-1.50
300,0.76,2.25,0.75,2.24,-2.24,-2.07,-1.48,-1.49,-1.49
303,0.76,2.24,0.74,2.22,-2.22,-2.04,-1.46,-1.48,-1.48
306,0.72,2.19,0.72,2.20,-2.20,-2.01,-1.48,-1.48,-1.48
309,0.72,2.18,0.70,2.17,-2.17,-1.98,-1.45,-1.47,-1.47
312,0.68,2.13,0.69,2.14,-2.14,-1.95,-1.47,-1.46,-1.46
316,0.68,2.12,0.67,2.11,-2.11,-1.91,-1.43,-1.45,-1.45
319,0.63,2.06,0.64,2.08,-2.08,-1.88,-1.45,-1.43,-1.43
322,0.63,2.05,0.62,2.04,-2.04,-1.86,-1.42,-1.42,-1.42
325,0.60,2.01,0.60,2.01,-2.01,-1.83,-1.41,-1.41,-1.41
328,0.59,1.98,0.58,1.98,-1.98,-1.80,-1.39,-1.40,-1.40
332,0.55,1.93,0.55,1.94,-1.94,-1.77,-1.40,-1.39,-1.39
335,0.55,1.92,0.53,1.91,-1.91,-1.74,-1.36,-1.38,-1.38
338,0.50,1.86,0.51,1.88,-1.88,-1.72,-1.38,-1.37,-1.37
342,0.50,1.85,0.49,1.84,-1.84,-1.68,-1.35,-1.36,-1.36
345,0.46,1.80,0.47,1.82,-1.82,-1.66,-1.36,-1.35,-1.35
349,0.46,1.80,0.45,1.79,-1.79,-1.63,-1.33,-1.34,-1.34
352,0.42,1.75,0.43,1.76,-1.76,-1.60,-1.34,-1.33,-1.33
356,0.42,1.74,0.41,1.74,-1.74,-1.57,-1.32,-1.33,-1.33
359,0.39,1.71,0.39,1.71,-1.71,-1.55,-1.33,-1.32,-1.32
363,0.37,1.69,0.37,1.69,-1.69,-1.52,-1.32,-1.32,-1.32
366,0.35,1.66,0.35,1.67,-1.67,-1.50,-1.32,-1.32,-1.32
370,0.33,1.64,0.33,1.65,-1.65,-1.47,-1.32,-1.32,-1.32
374,0.32,1.63,0.31,1.63,-1.63,-1.44,-1.31,-1.32,-1.32
377,0.29,1.60,0.29,1.61,-1.61,-1.42,-1.32,-1.32,-1.32
381,0.29,1.60,0.27,1.59,-1.59,-1.39,-1.30,-1.32,-1.32
385,0.24,1.56,0.25,1.57,-1.57,-1.37,-1.33,-1.32,-1.32
389,0.24,1.56,0.23,1.55,-1.55,-1.34,-1.31,-1.32,-1.32
393,0.20,1.52,0.21,1.53,-1.53,-1.32,-1.33,-1.32,-1.32
397,0.20,1.52,0.19,1.51,-1.51,-1.29,-1.31,-1.33,-1.33
401,0.16,1.48,0.16,1.49,-1.49,-1.27,-1.33,-1.33,-1.33
405,0.16,1.48,0.14,1.47,-1.47,-1.24,-1.31,-1.33,-1.33
409,0.11,1.43,0.12,1.45,-1.45,-1.22,-1.34,-1.33,-1.33
413,0.11,1.44,0.10,1.43,-1.43,-1.20,-1.32,-1.33,-1.33
417,0.07,1.40,0.08,1.41,-1.41,-1.17,-1.34,-1.33,-1.33
421,0.07,1.39,0.06,1.39,-1.39,-1.15,-1.32,-1.33,-1.33
425,0.04,1.36,0.04,1.36,-1.36,-1.13,-1.33,-1.33,-1.33
430,0.03,1.35,0.02,1.34,-1.34,-1.10,-1.32,-1.33,-1.33
434,-0.01,1.31,-0.01,1.32,-1.32,-1.08,-1.33,-1.32,-1.32
438,-0.02,1.30,-0.03,1.29,-1.29,-1.06,-1.32,-1.32,-1.32
443,-0.05,1.26,-0.05,1.27,-1.27,-1.04,-1.32,-1.32,-1.32
447,-0.06,1.25,-0.07,1.24,-1.24,-1.02,-1.31,-1.31,-1.31
451,-0.10,1.21,-0.09,1.22,-1.22,-1.00,-1.32,-1.31,-1.31
456,-0.10,1.20,-0.12,1.19,-1.19,-0.97,-1.29,-1.30,-1.30
460,-0.14,1.15,-0.14,1.16,-1.16,-0.96,-1.31,-1.30,-1.30
465,-0.15,1.14,-0.16,1.13,-1.13,-0.93,-1.29,-1.29,-1.29
470,-0.19,1.09,-0.18,1.10,-1.10,-0.91,-1.30,-1.29,-1.29
474,-0.19,1.09,-0.20,1.08,-1.08,-0.89,-1.27,-1.28,-1.28
479,-0.23,1.04,-0.23,1.05,-1.05,-0.87,-1.28,-1.27,-1.27
484,-0.23,1.03,-0.25,1.02,-1.02,-0.85,-1.25,-1.27,-1.27
489,-0.28,0.97,-0.27,0.99,-0.99,-0.83,-1.27,-1.26,-1.26
494,-0.28,0.96,-0.29,0.96,-0.96,-0.81,-1.24,-1.25,-1.25
499,-0.32,0.92,-0.31,0.93,-0.93,-0.79,-1.25,-1.24,-1.24
504,-0.32,0.91,-0.34,0.90,-0.90,-0.77,-1.22,-1.23,-1.23
509,-0.36,0.86,-0.36,0.86,-0.86,-0.75,-1.23,-1.22,-1.22
514,-0.36,0.85,-0.38,0.83,-0.83,-0.73,-1.20,-1.21,-1.21
519,-0.41,0.79,-0.40,0.80,-0.80,-0.71,-1.21,-1.20,-1.20
524,-0.41,0.78,-0.42,0.77,-0.77,-0.69,-1.18,-1.19,-1.19
529,-0.45,0.73,-0.44,0.74,-0.74,-0.68,-1.19,-1.18,-1.18
535,-0.45,0.71,-0.46,0.70,-0.70,-0.65,-1.16,-1.17,-1.17
540,-0.49,0.66,-0.49,0.67,-0.67,-0.64,-1.17,-1.16,-1.16
545,-0.49,0.65,-0.51,0.64,-0.64,-0.62,-1.13,-1.15,-1.15
551,-0.53,0.60,-0.53,0.61,-0.61,-0.60,-1.14,-1.14,-1.14
556,-0.54,0.58,-0.55,0.58,-0.58,-0.58,-1.12,-1.12,-1.12
562,-0.57,0.54,-0.57,0.55,-0.55,-0.56,-1.12,-1.11,-1.11
568,-0.58,0.52,-0.58,0.52,-0.52,-0.54,-1.10,-1.10,-1.10
573,-0.59,0.50,-0.60,0.49,-0.49,-0.52,-1.08,-1.09,-1.09
579,-0.62,0.46,-0.62,0.46,-0.46,-0.50,-1.08,-1.08,-1.08
585,-0.63,0.44,-0.64,0.43,-0.43,-0.48,-1.06,-1.07,-1.07
591,-0.67,0.39,-0.66,0.40,-0.40,-0.46,-1.07,-1.06,-1.06
596,-0.67,0.38,-0.68,0.37,-0.37,-0.45,-1.04,-1.05,-1.05
602,-0.71,0.33,-0.70,0.34,-0.34,-0.43,-1.06,-1.04,-1.04
608,-0.71,0.32,-0.72,0.32,-0.32,-0.41,-1.03,-1.03,-1.03
615,-0.72,0.30,-0.73,0.29,-0.29,-0.38,-1.01,-1.02,-1.02
621,-0.75,0.25,-0.75,0.26,-0.26,-0.36,-1.02,-1.01,-1.01
627,-0.75,0.24,-0.76,0.23,-0.23,-0.34,-0.99,-1.00,-1.00
633,-0.76,0.22,-0.78,0.21,-0.21,-0.32,-0.97,-0.98,-0.98
639,-0.80,0.17,-0.79,0.18,-0.18,-0.30,-0.98,-0.97,-0.97
646,-0.80,0.15,-0.80,0.15,-0.15,-0.28,-0.96,-0.96,-0.96
652,-0.80,0.14,-0.82,0.13,-0.13,-0.26,-0.93,-0.94,-0.94
659,-0.84,0.08,-0.83,0.10,-0.10,-0.23,-0.94,-0.93,-0.93
665,-0.84,0.06,-0.84,0.07,-0.07,-0.21,-0.91,-0.91,-0.91
672,-0.84,0.05,-0.85,0.04,-0.04,-0.18,-0.89,-0.89,-0.89
679,-0.84,0.03,-0.86,0.01,-0.01,-0.15,-0.86,-0.87,-0.87
686,-0.85,-0.00,-0.86,-0.02,0.02,-0.12,-0.84,-0.85,-0.85
692,-0.88,-0.06,-0.87,-0.04,0.04,-0.10,-0.84,-0.83,-0.83
699,-0.88,-0.08,-0.88,-0.07,0.07,-0.07,-0.81,-0.80,-0.80
706,-0.88,-0.10,-0.88,-0.10,0.10,-0.04,-0.78,-0.78,-0.78
713,-0.88,-0.13,-0.88,-0.13,0.13,-0.01,-0.76,-0.76,-0.76
721,-0.88,-0.15,-0.89,-0.16,0.16,0.02,-0.73,-0.73,-0.73
728,-0.88,-0.18,-0.89,-0.18,0.18,0.04,-0.70,-0.70,-0.70
735,-0.88,-0.21,-0.89,-0.21,0.21,0.06,-0.67,-0.68,-0.68
742,-0.88,-0.23,-0.89,-0.24,0.24,0.07,-0.65,-0.65,-0.65
750,-0.88,-0.26,-0.88,-0.26,0.26,0.09,-0.62,-0.63,-0.62
757,-0.88,-0.29,-0.88,-0.28,0.28,0.09,-0.60,-0.60,-0.60
765,-0.88,-0.31,-0.88,-0.31,0.31,0.10,-0.58,-0.57,-0.57
773,-0.88,-0.34,-0.87,-0.33,0.33,0.10,-0.56,-0.54,-0.54
780,-0.84,-0.33,-0.86,-0.34,0.34,0.09,-0.50,-0.52,-0.52
788,-0.84,-0.35,-0.85,-0.36,0.36,0.09,-0.48,-0.49,-0.49
796,-0.84,-0.38,-0.84,-0.37,0.37,0.08,-0.47,-0.47,-0.47
804,-0.83,-0.39,-0.83,-0.38,0.38,0.08,-0.45,-0.44,-0.44
812,-0.80,-0.39,-0.81,-0.39,0.39,0.07,-0.41,-0.42,-0.42
820,-0.80,-0.41,-0.79,-0.40,0.40,0.06,-0.41,-0.39,-0.39
828,-0.77,-0.40,-0.77,-0.40,0.40,0.06,-0.37,-0.37,-0.37
837,-0.75,-0.41,-0.75,-0.40,0.40,0.05,-0.35,-0.35,-0.35
845,-0.71,-0.39,-0.73,-0.40,0.40,0.05,-0.31,-0.33,-0.33
853,-0.70,-0.40,-0.70,-0.40,0.40,0.05,-0.31,-0.31,-0.31
862,-0.67,-0.39,-0.67,-0.39,0.39,0.04,-0.29,-0.28,-0.28
871,-0.63,-0.37,-0.64,-0.38,0.38,0.04,-0.25,-0.26,-0.26
879,-0.61,-0.37,-0.61,-0.37,0.37,0.04,-0.25,-0.24,-0.24
888,-0.58,-0.36,-0.58,-0.36,0.36,0.04,-0.23,-0.22,-0.22
897,-0.54,-0.34,-0.54,-0.34,0.34,0.03,-0.20,-0.20,-0.20
906,-0.50,-0.32,-0.50,-0.32,0.32,0.03,-0.18,-0.18,-0.18
915,-0.47,-0.31,-0.46,-0.30,0.30,0.03,-0.18,-0.17,-0.17
924,-0.42,-0.28,-0.42,-0.27,0.27,0.03,-0.15,-0.15,-0.15
933,-0.36,-0.24,-0.37,-0.25,0.25,0.03,-0.12,-0.13,-0.13
943,-0.32,-0.22,-0.33,-0.22,0.22,0.03,-0.11,-0.11,-0.11
952,-0.27,-0.19,-0.28,-0.19,0.19,0.02,-0.09,-0.09,-0.09
962,-0.21,-0.15,-0.22,-0.15,0.15,0.02,-0.06,-0.07,-0.07
971,-0.17,-0.13,-0.17,-0.12,0.12,0.02,-0.05,-0.05,-0.05
981,-0.12,-0.10,-0.12,-0.09,0.09,0.01,-0.04,-0.03,-0.03
991,-0.05,-0.05,-0.06,-0.05,0.05,0.01,-0.00,-0.01,-0.01
1001,0.01,-0.01,-0.00,-0.02,0.02,0.00,0.02,0.02,0.02
1011,0.05,0.01,0.06,0.02,-0.02,-0.00,0.02,0.04,0.04
1021,0.12,0.05,0.12,0.06,-0.06,-0.01,0.06,0.06,0.06
1031,0.20,0.11,0.19,0.10,-0.10,-0.02,0.10,0.09,0.09
1041,0.25,0.13,0.25,0.14,-0.14,-0.03,0.11,0.11,0.11
1052,0.32,0.17,0.31,0.17,-0.17,-0.04,0.14,0.14,0.14
1062,0.39,0.21,0.38,0.21,-0.21,-0.05,0.18,0.17,0.17
1073,0.45,0.24,0.44,0.24,-0.24,-0.07,0.21,0.20,0.20
1084,0.52,0.28,0.51,0.27,-0.27,-0.08,0.24,0.24,0.24
1094,0.57,0.29,0.57,0.30,-0.30,-0.10,0.27,0.27,0.27
1105,0.64,0.33,0.64,0.33,-0.33,-0.12,0.31,0.31,0.31
1116,0.70,0.35,0.70,0.35,-0.35,-0.14,0.34,0.35,0.35
1128,0.77,0.37,0.77,0.37,-0.37,-0.16,0.39,0.39,0.39
1139,0.84,0.40,0.83,0.39,-0.39,-0.19,0.44,0.44,0.44
1150,0.89,0.40,0.89,0.41,-0.41,-0.21,0.48,0.48,0.48
1162,0.97,0.43,0.96,0.43,-0.43,-0.24,0.54,0.53,0.53
1173,1.03,0.44,1.02,0.44,-0.44,-0.27,0.59,0.58,0.58
1185,1.09,0.45,1.09,0.45,-0.45,-0.30,0.63,0.64,0.64
1197,1.15,0.45,1.15,0.46,-0.46,-0.33,0.68,0.69,0.69
1209,1.22,0.47,1.22,0.47,-0.47,-0.36,0.75,0.75,0.75
1221,1.29,0.48,1.29,0.48,-0.48,-0.39,0.81,0.81,0.81
1233,1.36,0.48,1.35,0.48,-0.48,-0.42,0.88,0.87,0.87
1246,1.42,0.48,1.42,0.48,-0.48,-0.45,0.94,0.94,0.94
1258,1.49,0.48,1.48,0.48,-0.48,-0.48,1.01,1.00,1.00
1271,1.56,0.48,1.55,0.48,-0.48,-0.50,1.08,1.07,1.07
1283,1.61,0.46,1.61,0.47,-0.47,-0.52,1.14,1.14,1.14
1296,1.67,0.45,1.68,0.46,-0.46,-0.53,1.21,1.21,1.21
1309,1.74,0.45,1.74,0.45,-0.45,-0.54,1.29,1.29,1.29
1322,1.81,0.44,1.80,0.44,-0.44,-0.54,1.37,1.37,1.37
1335,1.87,0.42,1.86,0.42,-0.42,-0.53,1.45,1.44,1.44
1349,1.94,0.41,1.93,0.40,-0.40,-0.52,1.54,1.53,1.53
1362,2.00,0.39,1.99,0.38,-0.38,-0.50,1.62,1.61,1.61
1376,2.04,0.34,2.05,0.36,-0.36,-0.47,1.68,1.69,1.69
1390,2.11,0.33,2.11,0.33,-0.33,-0.44,1.77,1.78,1.78
1404,2.17,0.30,2.17,0.31,-0.31,-0.40,1.86,1.86,1.86
1418,2.24,0.28,2.23,0.28,-0.28,-0.36,1.96,1.95,1.95
1432,2.30,0.25,2.29,0.25,-0.25,-0.32,2.05,2.04,2.04
1446,2.36,0.22,2.36,0.22,-0.22,-0.27,2.13,2.14,2.14
1461,2.44,0.21,2.42,0.19,-0.19,-0.22,2.24,2.23,2.23
1475,2.48,0.15,2.48,0.16,-0.16,-0.18,2.31,2.32,2.32
1490,2.56,0.14,2.55,0.13,-0.13,-0.13,2.42,2.42,2.42
1505,2.62,0.10,2.62,0.10,-0.10,-0.08,2.51,2.51,2.51
1520,2.68,0.06,2.69,0.07,-0.07,-0.04,2.60,2.61,2.61
1535,2.76,0.05,2.76,0.05,-0.05,0.01,2.71,2.71,2.71
1550,2.83,0.02,2.83,0.02,-0.02,0.05,2.80,2.81,2.81
1566,2.92,0.01,2.91,-0.00,0.00,0.09,2.92,2.91,2.91
1582,2.98,-0.03,2.98,-0.02,0.02,0.13,3.00,3.01,3.01
1597,3.08,-0.03,3.06,-0.05,0.05,0.16,3.12,3.11,3.11
1613,3.14,-0.08,3.15,-0.06,0.06,0.19,3.20,3.21,3.21
1629,3.24,-0.08,3.23,-0.08,0.08,0.22,3.32,3.32,3.32
1646,3.33,-0.09,3.32,-0.10,0.10,0.24,3.43,3.42,3.42
1662,3.41,-0.12,3.41,-0.12,0.12,0.27,3.52,3.53,3.53
1679,3.51,-0.13,3.50,-0.13,0.13,0.29,3.64,3.63,3.63
1696,3.60,-0.14,3.60,-0.14,0.14,0.30,3.74,3.74,3.74
1713,3.70,-0.15,3.69,-0.16,0.16,0.32,3.85,3.85,3.85
1730,3.80,-0.17,3.80,-0.17,0.17,0.33,3.96,3.96,3.96
1747,3.90,-0.18,3.90,-0.17,0.17,0.34,4.07,4.07,4.07
1764,4.00,-0.19,4.01,-0.18,0.18,0.34,4.18,4.19,4.19
1782,4.13,-0.18,4.12,-0.19,0.19,0.35,4.31,4.31,4.31
1800,4.25,-0.18,4.24,-0.19,0.19,0.34,4.44,4.43,4.43
1818,4.36,-0.20,4.36,-0.20,0.20,0.34,4.55,4.55,4.55
