frequency,raw,error,smoothed,error_smoothed,equalization,parametric_eq,equalized_raw,equalized_smoothed,target
20.00,18.84,10.82,18.85,10.82,-10.82,-4.56,8.02,8.03,8.03
20.20,18.82,10.80,18.83,10.80,-10.80,-4.67,8.03,8.03,8.03
20.40,18.80,10.77,18.80,10.77,-10.77,-4.80,8.03,8.03,8.03
20.61,18.79,10.75,18.78,10.75,-10.75,-4.92,8.03,8.03,8.03
20.81,18.76,10.73,18.76,10.73,-10.73,-5.05,8.04,8.04,8.04
21.02,18.74,10.71,18.74,10.70,-10.70,-5.18,8.04,8.04,8.04
21.23,18.71,10.67,18.72,10.68,-10.68,-5.32,8.04,8.04,8.04
21.44,18.69,10.65,18.70,10.65,-10.65,-5.46,8.04,8.04,8.04
21.66,18.67,10.63,18.67,10.63,-10.63,-5.60,8.05,8.04,8.04
21.87,18.64,10.60,18.65,10.60,-10.60,-5.75,8.04,8.05,8.05
22.09,18.62,10.58,18.63,10.58,-10.58,-5.90,8.04,8.05,8.05
22.31,18.60,10.55,18.60,10.55,-10.55,-6.06,8.05,8.05,8.05
22.54,18.58,10.53,18.58,10.53,-10.53,-6.21,8.06,8.05,8.05
22.76,18.55,10.50,18.56,10.50,-10.50,-6.38,8.05,8.05,8.05
22.99,18.53,10.48,18.53,10.48,-10.48,-6.55,8.06,8.06,8.06
23.22,18.51,10.46,18.51,10.45,-10.45,-6.72,8.06,8.06,8.06
23.45,18.48,10.42,18.48,10.42,-10.42,-6.89,8.06,8.06,8.06
23.69,18.46,10.39,18.46,10.40,-10.40,-7.07,8.06,8.06,8.06
23.92,18.43,10.37,18.43,10.37,-10.37,-7.26,8.06,8.06,8.06
24.16,18.40,10.34,18.41,10.34,-10.34,-7.44,8.06,8.07,8.07
24.40,18.38,10.31,18.38,10.31,-10.31,-7.64,8.07,8.07,8.07
24.65,18.35,10.28,18.36,10.29,-10.29,-7.83,8.07,8.07,8.07
24.89,18.33,10.26,18.33,10.26,-10.26,-8.03,8.08,8.07,8.07
25.14,18.30,10.23,18.31,10.23,-10.23,-8.23,8.07,8.08,8.08
25.39,18.28,10.21,18.28,10.20,-10.20,-8.44,8.08,8.08,8.08
25.65,18.25,10.17,18.25,10.17,-10.17,-8.64,8.08,8.08,8.08
25.91,18.23,10.14,18.23,10.14,-10.14,-8.85,8.08,8.08,8.08
26.16,18.19,10.11,18.20,10.11,-10.11,-9.06,8.08,8.08,8.08
26.43,18.17,10.09,18.17,10.08,-10.08,-9.27,8.09,8.09,8.09
26.69,18.14,10.06,18.14,10.05,-10.05,-9.49,8.09,8.09,8.09
26.96,18.11,10.02,18.11,10.02,-10.02,-9.70,8.09,8.09,8.09
27.23,18.09,9.99,18.08,9.99,-9.99,-9.90,8.09,8.09,8.09
27.50,18.05,9.96,18.06,9.96,-9.96,-10.11,8.09,8.09,8.09
27.77,18.02,9.93,18.03,9.93,-9.93,-10.31,8.09,8.09,8.10
28.05,17.99,9.90,18.00,9.90,-9.90,-10.51,8.09,8.10,8.10
28.33,17.96,9.87,17.97,9.87,-9.87,-10.69,8.10,8.10,8.10
28.62,17.94,9.84,17.94,9.84,-9.84,-10.87,8.10,8.10,8.10
28.90,17.90,9.80,17.91,9.81,-9.81,-11.04,8.10,8.10,8.10
29.19,17.87,9.77,17.88,9.78,-9.78,-11.20,8.10,8.10,8.10
29.48,17.84,9.74,17.84,9.74,-9.74,-11.34,8.10,8.10,8.10
29.78,17.81,9.71,17.81,9.71,-9.71,-11.46,8.10,8.10,8.10
30.08,17.79,9.68,17.78,9.68,-9.68,-11.57,8.11,8.10,8.10
30.38,17.76,9.65,17.75,9.65,-9.65,-11.66,8.11,8.10,8.10
30.68,17.71,9.61,17.72,9.61,-9.61,-11.73,8.10,8.10,8.10
30.99,17.69,9.58,17.69,9.58,-9.58,-11.78,8.10,8.10,8.10
31.30,17.66,9.55,17.65,9.55,-9.55,-11.81,8.11,8.10,8.10
31.61,17.61,9.51,17.62,9.51,-9.51,-11.82,8.10,8.10,8.10
31.93,17.59,9.48,17.58,9.48,-9.48,-11.81,8.11,8.10,8.10
32.24,17.54,9.44,17.55,9.45,-9.45,-11.78,8.10,8.10,8.10
32.57,17.51,9.41,17.51,9.41,-9.41,-11.72,8.10,8.10,8.10
32.89,17.47,9.37,17.48,9.38,-9.38,-11.66,8.10,8.10,8.10
33.22,17.44,9.34,17.44,9.34,-9.34,-11.57,8.10,8.10,8.10
33.55,17.40,9.30,17.40,9.31,-9.31,-11.47,8.10,8.10,8.10
33.89,17.36,9.27,17.37,9.27,-9.27,-11.36,8.10,8.10,8.10
34.23,17.32,9.23,17.33,9.23,-9.23,-11.23,8.09,8.10,8.10
34.57,17.29,9.20,17.29,9.20,-9.20,-11.10,8.10,8.09,8.10
34.92,17.26,9.16,17.26,9.16,-9.16,-10.96,8.09,8.09,8.09
35.27,17.22,9.12,17.22,9.13,-9.13,-10.81,8.09,8.09,8.09
35.62,17.18,9.09,17.18,9.09,-9.09,-10.66,8.09,8.09,8.09
35.97,17.14,9.06,17.14,9.05,-9.05,-10.51,8.09,8.09,8.09
36.33,17.10,9.02,17.10,9.02,-9.02,-10.35,8.09,8.09,8.09
36.70,17.06,8.98,17.06,8.98,-8.98,-10.19,8.08,8.08,8.08
37.06,17.02,8.94,17.02,8.94,-8.94,-10.04,8.08,8.08,8.08
37.43,16.98,8.90,16.98,8.91,-8.91,-9.88,8.08,8.08,8.08
37.81,16.94,8.87,16.94,8.87,-8.87,-9.73,8.08,8.08,8.08
38.19,16.90,8.83,16.90,8.83,-8.83,-9.58,8.08,8.07,8.07
38.57,16.86,8.80,16.86,8.79,-8.79,-9.43,8.07,8.07,8.07
38.95,16.81,8.75,16.82,8.75,-8.75,-9.29,8.06,8.07,8.07
39.34,16.77,8.71,16.77,8.71,-8.71,-9.15,8.06,8.06,8.06
39.74,16.72,8.67,16.73,8.67,-8.67,-9.01,8.05,8.06,8.06
40.14,16.68,8.62,16.68,8.63,-8.63,-8.88,8.05,8.05,8.05
40.54,16.63,8.59,16.64,8.59,-8.59,-8.76,8.05,8.05,8.05
40.94,16.59,8.55,16.59,8.55,-8.55,-8.64,8.05,8.04,8.04
41.35,16.54,8.51,16.54,8.51,-8.51,-8.52,8.04,8.04,8.04
41.76,16.50,8.47,16.50,8.46,-8.46,-8.41,8.04,8.03,8.03
42.18,16.45,8.43,16.45,8.42,-8.42,-8.31,8.03,8.03,8.03
42.60,16.40,8.38,16.40,8.38,-8.38,-8.21,8.02,8.02,8.02
43.03,16.35,8.34,16.36,8.34,-8.34,-8.12,8.01,8.02,8.02
43.46,16.30,8.29,16.31,8.30,-8.30,-8.03,8.01,8.01,8.01
43.90,16.26,8.25,16.26,8.26,-8.26,-7.95,8.00,8.01,8.01
44.33,16.21,8.21,16.22,8.22,-8.22,-7.87,8.00,8.00,8.00
44.78,16.16,8.17,16.17,8.17,-8.17,-7.80,7.99,7.99,7.99
45.23,16.12,8.13,16.12,8.13,-8.13,-7.74,7.98,7.98,7.99
45.68,16.07,8.10,16.07,8.09,-8.09,-7.68,7.98,7.98,7.98
46.13,16.02,8.05,16.02,8.05,-8.05,-7.63,7.97,7.97,7.97
46.60,15.98,8.02,15.97,8.01,-8.01,-7.58,7.96,7.96,7.96
47.06,15.92,7.97,15.92,7.97,-7.97,-7.54,7.95,7.95,7.95
47.53,15.87,7.94,15.87,7.93,-7.93,-7.50,7.94,7.94,7.94
48.01,15.81,7.89,15.82,7.89,-7.89,-7.46,7.92,7.93,7.93
48.49,15.76,7.85,15.77,7.85,-7.85,-7.44,7.91,7.92,7.92
48.97,15.71,7.81,15.72,7.81,-7.81,-7.41,7.90,7.90,7.90
49.46,15.66,7.77,15.67,7.78,-7.78,-7.39,7.89,7.89,7.89
49.96,15.61,7.74,15.61,7.74,-7.74,-7.38,7.88,7.88,7.88
50.46,15.56,7.70,15.56,7.70,-7.70,-7.36,7.87,7.86,7.86
50.96,15.50,7.66,15.51,7.66,-7.66,-7.36,7.84,7.85,7.85
51.47,15.45,7.62,15.46,7.62,-7.62,-7.35,7.83,7.83,7.84
51.99,15.41,7.58,15.40,7.58,-7.58,-7.35,7.82,7.82,7.82
52.51,15.36,7.55,15.35,7.55,-7.55,-7.35,7.81,7.80,7.81
53.03,15.30,7.51,15.30,7.51,-7.51,-7.35,7.80,7.79,7.79
53.56,15.24,7.47,15.24,7.47,-7.47,-7.35,7.78,7.77,7.78
54.10,15.19,7.44,15.19,7.43,-7.43,-7.35,7.76,7.76,7.76
54.64,15.13,7.39,15.14,7.39,-7.39,-7.36,7.74,7.74,7.74
55.18,15.07,7.35,15.08,7.36,-7.36,-7.36,7.72,7.73,7.73
55.74,15.03,7.32,15.03,7.32,-7.32,-7.37,7.71,7.71,7.71
56.29,14.97,7.28,14.97,7.28,-7.28,-7.37,7.69,7.69,7.69
56.86,14.92,7.24,14.92,7.25,-7.25,-7.38,7.67,7.67,7.67
57.42,14.86,7.21,14.87,7.21,-7.21,-7.38,7.65,7.66,7.66
58.00,14.81,7.18,14.81,7.17,-7.17,-7.37,7.64,7.64,7.64
58.58,14.76,7.15,14.76,7.14,-7.14,-7.37,7.63,7.62,7.62
59.16,14.70,7.10,14.70,7.10,-7.10,-7.36,7.60,7.60,7.60
59.76,14.65,7.07,14.65,7.07,-7.07,-7.35,7.58,7.58,7.58
60.35,14.59,7.04,14.59,7.04,-7.04,-7.34,7.56,7.56,7.56
60.96,14.53,7.00,14.54,7.00,-7.00,-7.32,7.53,7.54,7.54
61.57,14.48,6.97,14.49,6.97,-6.97,-7.29,7.51,7.51,7.51
62.18,14.42,6.93,14.43,6.94,-6.94,-7.26,7.48,7.49,7.49
62.80,14.37,6.91,14.38,6.91,-6.91,-7.23,7.46,7.47,7.47
63.43,14.32,6.88,14.32,6.88,-6.88,-7.19,7.44,7.44,7.44
64.07,14.26,6.85,14.27,6.85,-6.85,-7.15,7.41,7.42,7.42
64.71,14.21,6.82,14.21,6.82,-6.82,-7.10,7.39,7.39,7.39
65.35,14.16,6.80,14.16,6.80,-6.80,-7.05,7.37,7.37,7.37
66.01,14.10,6.76,14.11,6.77,-6.77,-7.00,7.34,7.34,7.34
66.67,14.05,6.74,14.05,6.74,-6.74,-6.94,7.31,7.31,7.31
67.33,13.99,6.71,14.00,6.72,-6.72,-6.87,7.28,7.28,7.28
68.01,13.94,6.69,13.94,6.69,-6.69,-6.81,7.26,7.25,7.25
68.69,13.88,6.66,13.89,6.66,-6.66,-6.74,7.22,7.22,7.22
69.37,13.83,6.64,13.83,6.63,-6.63,-6.67,7.20,7.19,7.19
70.07,13.76,6.60,13.77,6.61,-6.61,-6.59,7.16,7.16,7.16
70.77,13.71,6.58,13.71,6.58,-6.58,-6.52,7.14,7.13,7.13
71.48,13.65,6.56,13.65,6.55,-6.55,-6.44,7.11,7.10,7.10
72.19,13.59,6.53,13.58,6.52,-6.52,-6.37,7.08,7.06,7.06
72.91,13.52,6.49,13.52,6.49,-6.49,-6.29,7.04,7.03,7.03
73.64,13.45,6.46,13.45,6.46,-6.46,-6.22,7.00,6.99,7.00
74.38,13.38,6.42,13.39,6.43,-6.43,-6.14,6.96,6.96,6.96
75.12,13.31,6.39,13.32,6.40,-6.40,-6.07,6.92,6.92,6.93
75.87,13.25,6.36,13.25,6.37,-6.37,-6.00,6.89,6.89,6.89
76.63,13.18,6.33,13.19,6.34,-6.34,-5.93,6.85,6.85,6.85
77.40,13.11,6.30,13.12,6.30,-6.30,-5.86,6.81,6.81,6.82
78.17,13.04,6.26,13.05,6.28,-6.28,-5.79,6.77,6.78,6.78
78.95,12.97,6.23,12.99,6.25,-6.25,-5.73,6.73,6.74,6.74
79.74,12.92,6.22,12.92,6.22,-6.22,-5.67,6.71,6.70,6.71
80.54,12.86,6.20,12.86,6.19,-6.19,-5.61,6.67,6.66,6.67
81.35,12.79,6.17,12.79,6.17,-6.17,-5.56,6.63,6.63,6.63
82.16,12.73,6.14,12.73,6.14,-6.14,-5.51,6.59,6.59,6.59
82.98,12.66,6.11,12.67,6.12,-6.12,-5.46,6.55,6.55,6.55
83.81,12.60,6.09,12.61,6.09,-6.09,-5.42,6.51,6.51,6.51
84.65,12.54,6.07,12.54,6.07,-6.07,-5.38,6.48,6.48,6.48
85.50,12.48,6.05,12.48,6.05,-6.05,-5.34,6.44,6.44,6.44
86.35,12.42,6.02,12.42,6.02,-6.02,-5.31,6.40,6.40,6.40
87.22,12.36,5.99,12.36,6.00,-6.00,-5.28,6.35,6.36,6.36
88.09,12.29,5.97,12.30,5.98,-5.98,-5.26,6.32,6.33,6.33
88.97,12.23,5.95,12.24,5.95,-5.95,-5.24,6.28,6.29,6.29
89.86,12.18,5.94,12.18,5.93,-5.93,-5.22,6.25,6.25,6.25
90.76,12.12,5.91,12.12,5.91,-5.91,-5.21,6.22,6.21,6.21
91.66,12.05,5.88,12.05,5.88,-5.88,-5.20,6.17,6.17,6.17
92.58,11.99,5.86,11.99,5.86,-5.86,-5.20,6.14,6.13,6.13
93.51,11.92,5.83,11.92,5.83,-5.83,-5.19,6.10,6.09,6.09
94.44,11.86,5.81,11.85,5.80,-5.80,-5.20,6.06,6.05,6.05
95.39,11.79,5.78,11.78,5.77,-5.77,-5.20,6.02,6.01,6.01
96.34,11.71,5.74,11.71,5.75,-5.75,-5.21,5.97,5.97,5.97
97.30,11.64,5.71,11.65,5.72,-5.72,-5.22,5.93,5.93,5.93
98.28,11.57,5.69,11.58,5.69,-5.69,-5.23,5.88,5.88,5.89
99.26,11.50,5.66,11.51,5.66,-5.66,-5.25,5.84,5.84,5.85
100.25,11.42,5.62,11.44,5.64,-5.64,-5.27,5.79,5.80,5.80
101.25,11.33,5.57,11.37,5.61,-5.61,-5.29,5.73,5.76,5.76
102.27,11.26,5.55,11.30,5.58,-5.58,-5.32,5.69,5.72,5.72
103.29,11.22,5.55,11.23,5.55,-5.55,-5.34,5.67,5.67,5.68
104.32,11.17,5.54,11.15,5.52,-5.52,-5.37,5.65,5.63,5.63
105.37,11.09,5.50,11.08,5.49,-5.49,-5.40,5.60,5.58,5.59
106.42,11.02,5.48,11.01,5.47,-5.47,-5.42,5.56,5.54,5.55
107.48,10.95,5.45,10.94,5.44,-5.44,-5.45,5.52,5.50,5.51
108.56,10.87,5.41,10.87,5.41,-5.41,-5.48,5.47,5.46,5.46
109.64,10.79,5.38,10.79,5.38,-5.38,-5.51,5.42,5.41,5.42
110.74,10.72,5.35,10.72,5.35,-5.35,-5.53,5.38,5.37,5.38
111.85,10.63,5.30,10.65,5.32,-5.32,-5.56,5.32,5.33,5.33
112.97,10.55,5.27,10.58,5.29,-5.29,-5.58,5.27,5.29,5.29
114.10,10.48,5.24,10.50,5.26,-5.26,-5.60,5.23,5.24,5.25
115.24,10.40,5.20,10.42,5.23,-5.23,-5.61,5.18,5.20,5.20
116.39,10.36,5.20,10.35,5.20,-5.20,-5.62,5.17,5.15,5.16
117.55,10.30,5.19,10.28,5.16,-5.16,-5.63,5.14,5.11,5.12
118.73,10.21,5.14,10.20,5.13,-5.13,-5.63,5.08,5.07,5.08
119.92,10.13,5.10,10.13,5.10,-5.10,-5.63,5.03,5.03,5.03
121.12,10.05,5.05,10.06,5.07,-5.07,-5.62,4.98,4.99,4.99
122.33,9.99,5.04,9.99,5.04,-5.04,-5.61,4.96,4.95,4.95
123.55,9.92,5.01,9.92,5.00,-5.00,-5.59,4.92,4.91,4.91
124.79,9.83,4.95,9.85,4.97,-4.97,-5.56,4.86,4.88,4.87
126.03,9.75,4.92,9.77,4.93,-4.93,-5.53,4.82,4.84,4.84
127.29,9.70,4.90,9.70,4.90,-4.90,-5.49,4.81,4.80,4.80
128.57,9.64,4.88,9.63,4.86,-4.86,-5.45,4.78,4.76,4.76
129.85,9.56,4.83,9.55,4.82,-4.82,-5.40,4.74,4.73,4.73
131.15,9.46,4.77,9.48,4.78,-4.78,-5.34,4.68,4.69,4.70
132.46,9.41,4.75,9.40,4.74,-4.74,-5.28,4.67,4.66,4.66
133.79,9.33,4.70,9.33,4.70,-4.70,-5.21,4.63,4.63,4.63
135.12,9.24,4.65,9.26,4.66,-4.66,-5.14,4.59,4.60,4.60
136.48,9.19,4.63,9.18,4.62,-4.62,-5.07,4.58,4.57,4.57
137.84,9.09,4.56,9.11,4.57,-4.57,-4.99,4.52,4.54,4.54
139.22,9.03,4.52,9.04,4.53,-4.53,-4.91,4.51,4.51,4.51
140.61,8.96,4.48,8.96,4.48,-4.48,-4.82,4.48,4.48,4.48
142.02,8.87,4.42,8.89,4.44,-4.44,-4.73,4.44,4.45,4.46
143.44,8.82,4.40,8.82,4.39,-4.39,-4.64,4.43,4.43,4.43
144.87,8.73,4.33,8.75,4.35,-4.35,-4.55,4.39,4.40,4.40
146.32,8.67,4.30,8.67,4.30,-4.30,-4.45,4.38,4.38,4.38
147.78,8.60,4.25,8.60,4.25,-4.25,-4.36,4.35,4.35,4.35
149.26,8.54,4.22,8.53,4.20,-4.20,-4.26,4.34,4.33,4.33
150.75,8.45,4.15,8.46,4.16,-4.16,-4.17,4.30,4.30,4.30
152.26,8.39,4.12,8.39,4.11,-4.11,-4.07,4.29,4.28,4.28
153.78,8.31,4.06,8.31,4.06,-4.06,-3.98,4.25,4.25,4.25
155.32,8.24,4.02,8.24,4.01,-4.01,-3.88,4.23,4.22,4.23
156.88,8.15,3.95,8.16,3.96,-3.96,-3.79,4.19,4.20,4.20
158.44,8.09,3.92,8.09,3.91,-3.91,-3.70,4.18,4.18,4.18
160.03,7.99,3.84,8.01,3.86,-3.86,-3.61,4.13,4.15,4.15
161.63,7.93,3.81,7.94,3.81,-3.81,-3.52,4.12,4.12,4.13
163.24,7.87,3.77,7.86,3.76,-3.76,-3.43,4.12,4.10,4.10
164.88,7.77,3.70,7.78,3.71,-3.71,-3.35,4.07,4.08,4.08
166.53,7.70,3.65,7.71,3.65,-3.65,-3.26,4.05,4.05,4.05
168.19,7.63,3.60,7.63,3.60,-3.60,-3.18,4.04,4.03,4.03
169.87,7.53,3.53,7.55,3.54,-3.54,-3.10,3.99,4.01,4.01
171.57,7.47,3.49,7.47,3.49,-3.49,-3.02,3.99,3.99,3.99
173.29,7.41,3.45,7.39,3.43,-3.43,-2.94,3.99,3.97,3.97
175.02,7.30,3.36,7.32,3.37,-3.37,-2.87,3.94,3.95,3.95
176.77,7.23,3.31,7.23,3.31,-3.31,-2.80,3.93,3.93,3.93
178.54,7.16,3.25,7.16,3.24,-3.24,-2.73,3.92,3.91,3.91
180.32,7.09,3.20,7.07,3.18,-3.18,-2.66,3.91,3.89,3.90
182.13,7.01,3.13,6.99,3.11,-3.11,-2.60,3.90,3.88,3.88
183.95,6.89,3.03,6.92,3.05,-3.05,-2.53,3.85,3.87,3.87
185.79,6.82,2.97,6.84,2.98,-2.98,-2.47,3.84,3.85,3.86
187.65,6.74,2.90,6.76,2.92,-2.92,-2.41,3.83,3.84,3.84
189.52,6.67,2.84,6.68,2.85,-2.85,-2.35,3.82,3.83,3.83
191.42,6.59,2.77,6.60,2.78,-2.78,-2.30,3.81,3.82,3.82
193.33,6.52,2.71,6.53,2.72,-2.72,-2.24,3.81,3.81,3.81
195.27,6.45,2.65,6.45,2.65,-2.65,-2.19,3.80,3.80,3.80
197.22,6.38,2.59,6.38,2.59,-2.59,-2.14,3.80,3.79,3.80
199.19,6.30,2.52,6.30,2.52,-2.52,-2.09,3.78,3.78,3.79
201.18,6.23,2.46,6.23,2.46,-2.46,-2.04,3.78,3.77,3.78
203.19,6.15,2.39,6.16,2.39,-2.39,-2.00,3.76,3.76,3.77
205.23,6.08,2.33,6.09,2.33,-2.33,-1.95,3.75,3.76,3.76
207.28,6.01,2.26,6.01,2.26,-2.26,-1.91,3.75,3.75,3.75
209.35,5.94,2.20,5.94,2.20,-2.20,-1.87,3.75,3.74,3.74
211.44,5.86,2.13,5.86,2.13,-2.13,-1.83,3.73,3.73,3.73
213.56,5.78,2.06,5.78,2.06,-2.06,-1.79,3.72,3.72,3.72
215.69,5.69,1.98,5.70,1.99,-1.99,-1.75,3.70,3.71,3.71
217.85,5.62,1.92,5.62,1.92,-1.92,-1.71,3.70,3.70,3.70
220.03,5.56,1.87,5.54,1.85,-1.85,-1.67,3.71,3.69,3.69
222.23,5.47,1.79,5.46,1.78,-1.78,-1.63,3.70,3.68,3.68
224.45,5.37,1.70,5.38,1.70,-1.70,-1.60,3.67,3.67,3.67
226.70,5.28,1.62,5.29,1.63,-1.63,-1.56,3.66,3.67,3.67
228.96,5.18,1.53,5.21,1.55,-1.55,-1.52,3.64,3.66,3.66
231.25,5.11,1.46,5.12,1.47,-1.47,-1.49,3.65,3.65,3.65
233.57,5.02,1.38,5.03,1.38,-1.38,-1.45,3.64,3.64,3.64
235.90,4.92,1.29,4.94,1.30,-1.30,-1.41,3.62,3.64,3.64
238.26,4.86,1.23,4.85,1.21,-1.21,-1.38,3.65,3.64,3.63
240.64,4.76,1.13,4.76,1.13,-1.13,-1.34,3.64,3.63,3.63
243.05,4.68,1.06,4.67,1.04,-1.04,-1.30,3.65,3.63,3.63
245.48,4.58,0.96,4.57,0.95,-0.95,-1.27,3.64,3.62,3.62
247.93,4.47,0.85,4.48,0.85,-0.85,-1.23,3.62,3.62,3.62
250.41,4.39,0.78,4.38,0.76,-0.76,-1.19,3.63,3.62,3.62
252.92,4.27,0.66,4.28,0.67,-0.67,-1.15,3.61,3.61,3.61
255.45,4.20,0.60,4.18,0.58,-0.58,-1.11,3.63,3.61,3.61
258.00,4.11,0.51,4.08,0.49,-0.49,-1.07,3.63,3.60,3.60
260.58,4.00,0.41,3.99,0.40,-0.40,-1.03,3.61,3.59,3.60
263.19,3.91,0.32,3.90,0.32,-0.32,-0.99,3.60,3.58,3.59
265.82,3.79,0.21,3.81,0.24,-0.24,-0.95,3.56,3.57,3.58
268.48,3.71,0.14,3.73,0.17,-0.17,-0.91,3.55,3.57,3.58
271.16,3.64,0.07,3.66,0.10,-0.10,-0.86,3.54,3.56,3.57
273.87,3.56,0.00,3.60,0.05,-0.05,-0.82,3.52,3.55,3.56
276.61,3.52,-0.03,3.55,0.00,-0.00,-0.78,3.52,3.54,3.56
279.38,3.49,-0.06,3.51,-0.03,0.03,-0.73,3.52,3.54,3.55
282.17,3.46,-0.08,3.48,-0.05,0.05,-0.69,3.52,3.53,3.55
284.99,3.44,-0.10,3.46,-0.07,0.07,-0.64,3.51,3.53,3.54
287.84,3.44,-0.10,3.46,-0.07,0.07,-0.59,3.51,3.53,3.54
290.72,3.44,-0.09,3.47,-0.06,0.06,-0.55,3.51,3.53,3.54
293.63,3.46,-0.07,3.48,-0.04,0.04,-0.50,3.51,3.53,3.54
296.57,3.49,-0.04,3.51,-0.02,0.02,-0.45,3.52,3.53,3.54
299.53,3.53,-0.00,3.54,0.01,-0.01,-0.41,3.53,3.53,3.54
302.53,3.57,0.04,3.58,0.04,-0.04,-0.36,3.53,3.53,3.54
305.55,3.62,0.09,3.62,0.08,-0.08,-0.31,3.54,3.53,3.54
308.61,3.67,0.14,3.66,0.12,-0.12,-0.26,3.55,3.54,3.54
311.69,3.72,0.18,3.70,0.16,-0.16,-0.21,3.56,3.54,3.54
314.81,3.76,0.22,3.75,0.20,-0.20,-0.17,3.56,3.54,3.54
317.96,3.79,0.25,3.79,0.24,-0.24,-0.12,3.55,3.55,3.54
321.14,3.81,0.27,3.83,0.28,-0.28,-0.07,3.54,3.55,3.55
324.35,3.84,0.30,3.86,0.31,-0.31,-0.02,3.54,3.55,3.55
327.59,3.88,0.33,3.89,0.33,-0.33,0.03,3.55,3.55,3.55
330.87,3.91,0.36,3.91,0.35,-0.35,0.08,3.56,3.56,3.55
334.18,3.93,0.38,3.92,0.36,-0.36,0.13,3.57,3.56,3.56
337.52,3.94,0.39,3.93,0.37,-0.37,0.18,3.58,3.56,3.56
340.90,3.94,0.38,3.92,0.36,-0.36,0.23,3.58,3.56,3.56
344.30,3.93,0.37,3.91,0.35,-0.35,0.29,3.59,3.56,3.56
347.75,3.91,0.35,3.89,0.33,-0.33,0.34,3.59,3.57,3.57
351.23,3.86,0.30,3.87,0.30,-0.30,0.39,3.57,3.57,3.57
354.74,3.82,0.25,3.83,0.26,-0.26,0.44,3.57,3.57,3.57
358.28,3.79,0.22,3.78,0.21,-0.21,0.50,3.59,3.58,3.57
361.87,3.74,0.17,3.73,0.15,-0.15,0.55,3.59,3.58,3.58
365.49,3.67,0.10,3.67,0.09,-0.09,0.60,3.58,3.58,3.58
369.14,3.60,0.02,3.60,0.02,-0.02,0.66,3.58,3.58,3.58
372.83,3.54,-0.04,3.53,-0.05,0.05,0.71,3.60,3.58,3.58
376.56,3.45,-0.13,3.46,-0.13,0.13,0.77,3.58,3.58,3.59
380.33,3.37,-0.22,3.38,-0.21,0.21,0.82,3.58,3.59,3.59
384.13,3.28,-0.31,3.30,-0.29,0.29,0.88,3.58,3.59,3.59
387.97,3.20,-0.39,3.22,-0.37,0.37,0.93,3.58,3.60,3.60
391.85,3.12,-0.48,3.14,-0.46,0.46,0.99,3.58,3.60,3.60
395.77,3.05,-0.55,3.06,-0.54,0.54,1.05,3.60,3.60,3.61
399.73,2.99,-0.62,2.99,-0.62,0.62,1.10,3.62,3.61,3.61
403.72,2.91,-0.71,2.91,-0.70,0.70,1.16,3.62,3.61,3.62
407.76,2.82,-0.80,2.84,-0.78,0.78,1.22,3.61,3.62,3.63
411.84,2.75,-0.88,2.77,-0.86,0.86,1.27,3.61,3.62,3.63
415.96,2.69,-0.94,2.70,-0.93,0.93,1.33,3.63,3.63,3.64
420.12,2.63,-1.01,2.63,-1.00,1.00,1.38,3.64,3.64,3.64
424.32,2.56,-1.08,2.57,-1.07,1.07,1.44,3.64,3.64,3.65
428.56,2.50,-1.15,2.51,-1.14,1.14,1.50,3.64,3.65,3.65
432.85,2.44,-1.21,2.44,-1.20,1.20,1.55,3.65,3.65,3.65
437.18,2.38,-1.27,2.38,-1.27,1.27,1.60,3.65,3.65,3.65
441.55,2.33,-1.32,2.32,-1.33,1.33,1.66,3.66,3.65,3.65
445.96,2.27,-1.38,2.26,-1.39,1.39,1.71,3.66,3.65,3.66
450.42,2.21,-1.44,2.21,-1.45,1.45,1.76,3.66,3.65,3.66
454.93,2.16,-1.49,2.15,-1.50,1.50,1.81,3.67,3.66,3.66
459.48,2.09,-1.56,2.10,-1.56,1.56,1.85,3.66,3.66,3.66
464.07,2.03,-1.62,2.04,-1.62,1.62,1.90,3.65,3.66,3.66
468.71,1.98,-1.68,1.99,-1.67,1.67,1.94,3.66,3.66,3.66
473.40,1.92,-1.74,1.94,-1.73,1.73,1.98,3.65,3.66,3.66
478.13,1.88,-1.78,1.89,-1.78,1.78,2.02,3.66,3.67,3.67
482.91,1.84,-1.83,1.84,-1.83,1.83,2.06,3.67,3.67,3.67
487.74,1.79,-1.88,1.80,-1.88,1.88,2.09,3.68,3.68,3.68
492.62,1.74,-1.94,1.75,-1.93,1.93,2.13,3.68,3.68,3.68
497.55,1.70,-1.99,1.71,-1.98,1.98,2.16,3.68,3.69,3.69
502.52,1.66,-2.04,1.67,-2.03,2.03,2.19,3.69,3.70,3.70
507.55,1.62,-2.09,1.63,-2.08,2.08,2.21,3.70,3.71,3.71
512.62,1.59,-2.13,1.59,-2.13,2.13,2.23,3.72,3.72,3.72
517.75,1.55,-2.18,1.55,-2.18,2.18,2.26,3.73,3.73,3.73
522.93,1.51,-2.23,1.51,-2.23,2.23,2.27,3.74,3.74,3.74
528.16,1.48,-2.27,1.47,-2.28,2.28,2.29,3.76,3.74,3.75
533.44,1.44,-2.31,1.42,-2.33,2.33,2.31,3.77,3.75,3.76
538.77,1.40,-2.36,1.38,-2.38,2.38,2.32,3.79,3.76,3.77
544.16,1.35,-2.42,1.34,-2.43,2.43,2.33,3.79,3.78,3.78
549.60,1.29,-2.49,1.30,-2.49,2.49,2.34,3.78,3.79,3.79
555.10,1.24,-2.55,1.26,-2.54,2.54,2.35,3.79,3.80,3.80
560.65,1.19,-2.61,1.22,-2.59,2.59,2.36,3.79,3.81,3.81
566.25,1.15,-2.67,1.18,-2.65,2.65,2.37,3.80,3.82,3.82
571.92,1.12,-2.71,1.14,-2.70,2.70,2.38,3.82,3.84,3.84
577.64,1.09,-2.76,1.10,-2.75,2.75,2.39,3.84,3.85,3.85
583.41,1.07,-2.79,1.06,-2.80,2.80,2.40,3.87,3.86,3.87
589.25,1.04,-2.84,1.03,-2.84,2.84,2.40,3.89,3.87,3.88
595.14,1.00,-2.89,0.99,-2.89,2.89,2.41,3.90,3.89,3.89
601.09,0.96,-2.94,0.96,-2.93,2.93,2.42,3.90,3.90,3.90
607.10,0.92,-2.99,0.93,-2.98,2.98,2.43,3.90,3.91,3.92
613.17,0.89,-3.03,0.90,-3.02,3.02,2.44,3.91,3.92,3.92
619.30,0.86,-3.07,0.87,-3.05,3.05,2.45,3.92,3.93,3.93
625.50,0.83,-3.10,0.84,-3.09,3.09,2.47,3.92,3.93,3.94
631.75,0.81,-3.13,0.81,-3.13,3.13,2.48,3.94,3.93,3.94
638.07,0.79,-3.15,0.78,-3.16,3.16,2.50,3.95,3.94,3.94
644.45,0.76,-3.18,0.74,-3.19,3.19,2.51,3.96,3.94,3.94
650.89,0.72,-3.22,0.71,-3.22,3.22,2.53,3.95,3.94,3.94
657.40,0.68,-3.26,0.68,-3.26,3.26,2.55,3.94,3.94,3.94
663.98,0.64,-3.29,0.65,-3.29,3.29,2.58,3.93,3.94,3.94
670.62,0.60,-3.33,0.62,-3.32,3.32,2.60,3.92,3.94,3.94
677.32,0.57,-3.36,0.59,-3.35,3.35,2.63,3.92,3.94,3.93
684.10,0.54,-3.39,0.56,-3.38,3.38,2.66,3.93,3.94,3.93
690.94,0.51,-3.42,0.53,-3.41,3.41,2.69,3.93,3.94,3.93
697.85,0.49,-3.44,0.49,-3.45,3.45,2.72,3.94,3.94,3.93
704.83,0.47,-3.46,0.46,-3.48,3.48,2.76,3.95,3.94,3.94
711.87,0.44,-3.50,0.42,-3.51,3.51,2.80,3.96,3.94,3.94
718.99,0.41,-3.53,0.39,-3.55,3.55,2.84,3.96,3.94,3.94
726.18,0.36,-3.58,0.36,-3.58,3.58,2.88,3.95,3.94,3.94
