frequency,raw,error,smoothed,error_smoothed,equalization,parametric_eq,fixed_band_eq,equalized_raw,equalized_smoothed,target
20.00,1.09,-2.42,1.11,-2.43,2.43,2.20,0.65,3.51,3.53,3.51
20.20,1.13,-2.42,1.15,-2.41,2.41,2.21,0.68,3.54,3.56,3.55
20.40,1.18,-2.40,1.19,-2.40,2.40,2.23,0.70,3.58,3.59,3.58
20.61,1.22,-2.39,1.23,-2.39,2.39,2.24,0.72,3.61,3.62,3.61
20.81,1.27,-2.38,1.27,-2.37,2.37,2.25,0.74,3.64,3.64,3.65
21.02,1.31,-2.38,1.31,-2.36,2.36,2.26,0.77,3.67,3.67,3.69
21.23,1.36,-2.34,1.35,-2.34,2.34,2.27,0.79,3.70,3.69,3.70
21.44,1.41,-2.31,1.39,-2.32,2.32,2.27,0.82,3.73,3.71,3.72
21.66,1.46,-2.28,1.42,-2.30,2.30,2.28,0.84,3.76,3.73,3.74
21.87,1.51,-2.24,1.46,-2.28,2.28,2.28,0.87,3.79,3.75,3.75
22.09,1.54,-2.23,1.50,-2.26,2.26,2.28,0.90,3.80,3.76,3.77
22.31,1.56,-2.21,1.53,-2.24,2.24,2.27,0.93,3.80,3.78,3.77
22.54,1.57,-2.21,1.57,-2.22,2.22,2.27,0.96,3.79,3.79,3.78
22.76,1.58,-2.21,1.60,-2.20,2.20,2.26,0.99,3.78,3.80,3.79
22.99,1.59,-2.20,1.63,-2.17,2.17,2.26,1.02,3.76,3.80,3.79
23.22,1.63,-2.17,1.67,-2.14,2.14,2.25,1.05,3.77,3.81,3.80
23.45,1.67,-2.14,1.70,-2.11,2.11,2.24,1.08,3.78,3.81,3.81
23.69,1.71,-2.11,1.73,-2.09,2.09,2.22,1.11,3.80,3.82,3.82
23.92,1.76,-2.07,1.76,-2.06,2.06,2.21,1.14,3.82,3.82,3.83
24.16,1.80,-2.04,1.79,-2.03,2.03,2.19,1.18,3.83,3.83,3.84
24.40,1.85,-2.00,1.83,-2.00,2.00,2.17,1.21,3.85,3.83,3.85
24.65,1.89,-1.95,1.86,-1.97,1.97,2.15,1.25,3.86,3.83,3.84
24.89,1.94,-1.90,1.90,-1.94,1.94,2.13,1.28,3.88,3.84,3.84
25.14,1.97,-1.87,1.94,-1.90,1.90,2.11,1.32,3.87,3.84,3.84
25.39,1.98,-1.86,1.97,-1.86,1.86,2.08,1.35,3.84,3.84,3.84
25.65,1.99,-1.85,2.01,-1.83,1.83,2.06,1.39,3.82,3.84,3.83
25.91,2.00,-1.83,2.04,-1.80,1.80,2.03,1.42,3.80,3.84,3.82
26.16,2.03,-1.80,2.07,-1.77,1.77,2.01,1.46,3.80,3.84,3.83
26.43,2.07,-1.76,2.09,-1.74,1.74,1.98,1.49,3.81,3.83,3.83
26.69,2.12,-1.71,2.11,-1.72,1.72,1.95,1.52,3.84,3.83,3.83
26.96,2.16,-1.67,2.13,-1.70,1.70,1.92,1.56,3.86,3.83,3.83
27.23,2.18,-1.65,2.15,-1.68,1.68,1.89,1.59,3.86,3.83,3.83
27.50,2.20,-1.63,2.17,-1.65,1.65,1.86,1.62,3.85,3.82,3.83
27.77,2.22,-1.60,2.20,-1.63,1.63,1.82,1.65,3.85,3.82,3.82
28.05,2.23,-1.59,2.22,-1.60,1.60,1.79,1.67,3.83,3.82,3.82
28.33,2.23,-1.58,2.25,-1.57,1.57,1.76,1.70,3.80,3.82,3.81
28.62,2.23,-1.59,2.28,-1.54,1.54,1.72,1.72,3.77,3.82,3.82
28.90,2.23,-1.59,2.30,-1.51,1.51,1.69,1.74,3.74,3.82,3.82
29.19,2.27,-1.54,2.33,-1.49,1.49,1.66,1.76,3.76,3.81,3.81
29.48,2.34,-1.47,2.35,-1.46,1.46,1.62,1.78,3.80,3.81,3.81
29.78,2.40,-1.41,2.36,-1.44,1.44,1.59,1.79,3.84,3.81,3.81
30.08,2.45,-1.36,2.38,-1.43,1.43,1.56,1.80,3.87,3.80,3.81
30.38,2.45,-1.35,2.39,-1.41,1.41,1.52,1.81,3.86,3.80,3.80
30.68,2.45,-1.35,2.40,-1.39,1.39,1.49,1.81,3.84,3.80,3.80
30.99,2.45,-1.34,2.42,-1.37,1.37,1.45,1.82,3.82,3.79,3.79
31.30,2.45,-1.34,2.44,-1.35,1.35,1.42,1.81,3.80,3.79,3.79
31.61,2.45,-1.34,2.46,-1.32,1.32,1.39,1.81,3.77,3.78,3.79
31.93,2.45,-1.33,2.48,-1.30,1.30,1.35,1.80,3.75,3.78,3.78
32.24,2.45,-1.31,2.50,-1.27,1.27,1.32,1.79,3.72,3.77,3.76
32.57,2.45,-1.31,2.52,-1.25,1.25,1.29,1.77,3.70,3.77,3.76
32.89,2.45,-1.31,2.53,-1.23,1.23,1.25,1.75,3.68,3.76,3.76
33.22,2.50,-1.26,2.55,-1.21,1.21,1.22,1.73,3.71,3.76,3.76
33.55,2.58,-1.18,2.56,-1.19,1.19,1.19,1.71,3.77,3.76,3.76
33.89,2.65,-1.11,2.58,-1.17,1.17,1.16,1.68,3.82,3.75,3.76
34.23,2.68,-1.08,2.59,-1.15,1.15,1.13,1.65,3.83,3.75,3.75
34.57,2.68,-1.06,2.62,-1.13,1.13,1.10,1.62,3.81,3.74,3.74
34.92,2.68,-1.06,2.64,-1.10,1.10,1.06,1.58,3.78,3.74,3.74
35.27,2.68,-1.06,2.67,-1.07,1.07,1.03,1.54,3.75,3.74,3.74
35.62,2.68,-1.05,2.69,-1.04,1.04,1.00,1.51,3.72,3.73,3.73
35.97,2.68,-1.05,2.72,-1.01,1.01,0.97,1.47,3.69,3.73,3.72
36.33,2.68,-1.04,2.74,-0.98,0.98,0.95,1.43,3.66,3.72,3.72
36.70,2.68,-1.04,2.76,-0.95,0.95,0.92,1.38,3.63,3.72,3.72
37.06,2.69,-1.02,2.78,-0.93,0.93,0.89,1.34,3.62,3.71,3.71
37.43,2.78,-0.93,2.80,-0.91,0.91,0.86,1.30,3.69,3.70,3.71
37.81,2.87,-0.83,2.81,-0.89,0.89,0.83,1.25,3.75,3.70,3.70
38.19,2.91,-0.78,2.83,-0.86,0.86,0.81,1.20,3.77,3.70,3.69
38.57,2.91,-0.78,2.86,-0.84,0.84,0.78,1.16,3.74,3.69,3.69
38.95,2.91,-0.78,2.87,-0.81,0.81,0.75,1.11,3.72,3.69,3.68
39.34,2.91,-0.76,2.89,-0.79,0.79,0.73,1.07,3.70,3.68,3.67
39.74,2.91,-0.75,2.90,-0.77,0.77,0.70,1.02,3.68,3.68,3.66
40.14,2.91,-0.76,2.91,-0.76,0.76,0.67,0.97,3.67,3.67,3.67
40.54,2.91,-0.75,2.91,-0.75,0.75,0.65,0.93,3.66,3.66,3.66
40.94,2.91,-0.75,2.91,-0.74,0.74,0.63,0.88,3.65,3.65,3.66
41.35,2.91,-0.74,2.91,-0.72,0.72,0.60,0.83,3.63,3.64,3.64
41.76,2.91,-0.72,2.91,-0.71,0.71,0.58,0.79,3.62,3.62,3.63
42.18,2.91,-0.71,2.92,-0.68,0.68,0.55,0.74,3.59,3.60,3.62
42.60,2.91,-0.68,2.93,-0.65,0.65,0.53,0.70,3.56,3.58,3.59
43.03,2.91,-0.67,2.95,-0.61,0.61,0.51,0.65,3.52,3.56,3.58
43.46,2.91,-0.65,2.97,-0.56,0.56,0.48,0.61,3.47,3.54,3.55
43.90,2.91,-0.60,2.99,-0.52,0.52,0.46,0.56,3.43,3.51,3.51
44.33,2.99,-0.49,3.02,-0.47,0.47,0.44,0.52,3.46,3.49,3.49
44.78,3.09,-0.36,3.04,-0.43,0.43,0.42,0.48,3.51,3.46,3.45
45.23,3.14,-0.29,3.06,-0.38,0.38,0.40,0.43,3.52,3.44,3.43
45.68,3.14,-0.26,3.08,-0.34,0.34,0.37,0.39,3.48,3.42,3.40
46.13,3.14,-0.25,3.10,-0.30,0.30,0.35,0.35,3.44,3.40,3.38
46.60,3.14,-0.24,3.12,-0.27,0.27,0.33,0.31,3.41,3.38,3.38
47.06,3.14,-0.22,3.13,-0.24,0.24,0.31,0.27,3.38,3.37,3.36
47.53,3.14,-0.22,3.15,-0.22,0.22,0.29,0.23,3.36,3.36,3.36
48.01,3.14,-0.22,3.15,-0.21,0.21,0.27,0.19,3.34,3.36,3.36
48.49,3.14,-0.21,3.16,-0.20,0.20,0.25,0.15,3.34,3.36,3.35
48.97,3.14,-0.21,3.16,-0.20,0.20,0.23,0.11,3.34,3.36,3.35
49.46,3.14,-0.20,3.15,-0.21,0.21,0.21,0.07,3.35,3.36,3.34
49.96,3.14,-0.20,3.14,-0.22,0.22,0.19,0.03,3.36,3.36,3.34
50.46,3.14,-0.22,3.14,-0.22,0.22,0.17,-0.01,3.36,3.36,3.36
50.96,3.14,-0.23,3.14,-0.21,0.21,0.15,-0.05,3.35,3.35,3.37
51.47,3.14,-0.22,3.14,-0.21,0.21,0.13,-0.08,3.35,3.35,3.36
51.99,3.14,-0.21,3.14,-0.20,0.20,0.11,-0.12,3.34,3.34,3.35
52.51,3.14,-0.20,3.14,-0.18,0.18,0.09,-0.16,3.32,3.32,3.34
53.03,3.14,-0.18,3.14,-0.16,0.16,0.07,-0.19,3.30,3.30,3.32
53.56,3.14,-0.15,3.14,-0.14,0.14,0.06,-0.23,3.27,3.27,3.29
54.10,3.14,-0.11,3.14,-0.11,0.11,0.04,-0.26,3.25,3.25,3.25
54.64,3.14,-0.07,3.13,-0.09,0.09,0.02,-0.29,3.22,3.21,3.21
55.18,3.14,-0.03,3.12,-0.05,0.05,-0.00,-0.33,3.19,3.17,3.17
55.74,3.14,0.02,3.12,-0.01,0.01,-0.02,-0.36,3.15,3.13,3.12
56.29,3.14,0.06,3.13,0.05,-0.05,-0.04,-0.39,3.09,3.08,3.08
56.86,3.14,0.11,3.14,0.11,-0.11,-0.06,-0.42,3.03,3.03,3.03
57.42,3.14,0.17,3.15,0.17,-0.17,-0.07,-0.45,2.96,2.98,2.97
58.00,3.14,0.22,3.17,0.25,-0.25,-0.09,-0.48,2.89,2.92,2.92
58.58,3.14,0.28,3.19,0.32,-0.32,-0.11,-0.51,2.82,2.87,2.86
59.16,3.14,0.32,3.21,0.39,-0.39,-0.13,-0.54,2.74,2.81,2.82
59.76,3.14,0.37,3.23,0.47,-0.47,-0.15,-0.56,2.67,2.76,2.77
60.35,3.22,0.52,3.25,0.55,-0.55,-0.17,-0.59,2.67,2.70,2.70
60.96,3.36,0.70,3.27,0.62,-0.62,-0.19,-0.61,2.74,2.65,2.66
61.57,3.37,0.78,3.29,0.70,-0.70,-0.20,-0.63,2.67,2.60,2.59
62.18,3.37,0.83,3.32,0.76,-0.76,-0.22,-0.65,2.60,2.55,2.54
62.80,3.37,0.87,3.33,0.83,-0.83,-0.24,-0.67,2.54,2.50,2.50
63.43,3.37,0.92,3.35,0.89,-0.89,-0.26,-0.69,2.48,2.46,2.45
64.07,3.37,0.95,3.37,0.95,-0.95,-0.28,-0.71,2.42,2.42,2.42
64.71,3.37,0.99,3.39,1.01,-1.01,-0.30,-0.73,2.36,2.38,2.38
65.35,3.37,1.03,3.40,1.05,-1.05,-0.32,-0.75,2.32,2.35,2.34
66.01,3.37,1.06,3.40,1.09,-1.09,-0.34,-0.76,2.28,2.32,2.31
66.67,3.37,1.09,3.40,1.11,-1.11,-0.35,-0.78,2.26,2.29,2.28
67.33,3.37,1.10,3.38,1.11,-1.11,-0.37,-0.79,2.26,2.27,2.26
68.01,3.37,1.12,3.36,1.11,-1.11,-0.39,-0.81,2.26,2.24,2.24
68.69,3.37,1.15,3.34,1.12,-1.12,-0.41,-0.82,2.25,2.22,2.22
69.37,3.37,1.17,3.32,1.12,-1.12,-0.43,-0.83,2.25,2.20,2.20
70.07,3.37,1.19,3.30,1.12,-1.12,-0.45,-0.84,2.25,2.18,2.18
70.77,3.37,1.19,3.28,1.11,-1.11,-0.47,-0.85,2.26,2.17,2.18
71.48,3.26,1.10,3.25,1.11,-1.11,-0.49,-0.87,2.15,2.15,2.15
72.19,3.14,1.00,3.23,1.10,-1.10,-0.51,-0.88,2.04,2.13,2.14
72.91,3.14,1.02,3.21,1.10,-1.10,-0.53,-0.89,2.04,2.11,2.12
73.64,3.14,1.04,3.19,1.09,-1.09,-0.55,-0.90,2.04,2.10,2.10
74.38,3.14,1.05,3.17,1.09,-1.09,-0.57,-0.91,2.05,2.08,2.09
75.12,3.14,1.08,3.15,1.09,-1.09,-0.59,-0.92,2.05,2.06,2.06
75.87,3.14,1.09,3.14,1.09,-1.09,-0.61,-0.94,2.05,2.05,2.04
76.63,3.14,1.11,3.13,1.10,-1.10,-0.63,-0.95,2.04,2.03,2.03
77.40,3.14,1.12,3.12,1.10,-1.10,-0.66,-0.96,2.04,2.02,2.02
78.17,3.14,1.14,3.12,1.11,-1.11,-0.68,-0.97,2.03,2.01,2.00
78.95,3.14,1.14,3.12,1.12,-1.12,-0.70,-0.99,2.02,2.00,2.00
79.74,3.14,1.14,3.13,1.13,-1.13,-0.72,-1.00,2.01,2.00,2.00
80.54,3.14,1.15,3.14,1.14,-1.14,-0.74,-1.02,2.00,2.00,1.99
81.35,3.14,1.15,3.14,1.14,-1.14,-0.77,-1.03,2.00,2.00,1.99
82.16,3.14,1.14,3.14,1.13,-1.13,-0.79,-1.05,2.01,2.01,2.00
82.98,3.14,1.12,3.14,1.12,-1.12,-0.81,-1.07,2.02,2.02,2.02
83.81,3.14,1.11,3.14,1.11,-1.11,-0.83,-1.09,2.03,2.03,2.03
84.65,3.14,1.11,3.14,1.10,-1.10,-0.86,-1.10,2.04,2.04,2.03
85.50,3.14,1.08,3.14,1.08,-1.08,-0.88,-1.12,2.06,2.06,2.06
86.35,3.14,1.06,3.14,1.06,-1.06,-0.91,-1.15,2.08,2.08,2.08
87.22,3.14,1.05,3.14,1.04,-1.04,-0.93,-1.17,2.10,2.10,2.09
88.09,3.14,1.03,3.14,1.03,-1.03,-0.95,-1.19,2.11,2.11,2.11
88.97,3.14,1.00,3.14,1.01,-1.01,-0.98,-1.21,2.13,2.13,2.14
89.86,3.14,0.98,3.14,0.99,-0.99,-1.00,-1.24,2.15,2.15,2.16
90.76,3.14,0.98,3.14,0.98,-0.98,-1.03,-1.26,2.16,2.16,2.16
91.66,3.14,0.96,3.14,0.97,-0.97,-1.06,-1.29,2.17,2.17,2.18
92.58,3.14,0.96,3.14,0.96,-0.96,-1.08,-1.32,2.18,2.18,2.18
93.51,3.14,0.94,3.14,0.95,-0.95,-1.11,-1.34,2.19,2.19,2.20
94.44,3.14,0.94,3.14,0.94,-0.94,-1.13,-1.37,2.20,2.19,2.20
95.39,3.14,0.94,3.13,0.93,-0.93,-1.16,-1.40,2.21,2.20,2.20
96.34,3.14,0.95,3.12,0.93,-0.93,-1.19,-1.43,2.21,2.20,2.19
97.30,3.14,0.95,3.12,0.93,-0.93,-1.22,-1.46,2.21,2.19,2.19
98.28,3.14,0.96,3.13,0.94,-0.94,-1.24,-1.50,2.20,2.18,2.18
99.26,3.14,0.97,3.14,0.96,-0.96,-1.27,-1.53,2.18,2.17,2.17
100.25,3.14,0.98,3.15,0.99,-0.99,-1.30,-1.56,2.15,2.16,2.16
101.25,3.14,1.00,3.16,1.02,-1.02,-1.33,-1.60,2.12,2.14,2.14
102.27,3.14,1.02,3.18,1.06,-1.06,-1.36,-1.63,2.08,2.12,2.12
103.29,3.14,1.05,3.20,1.11,-1.11,-1.39,-1.67,2.03,2.09,2.09
104.32,3.14,1.07,3.22,1.16,-1.16,-1.42,-1.70,1.98,2.06,2.07
105.37,3.20,1.16,3.24,1.22,-1.22,-1.45,-1.73,1.98,2.03,2.04
106.42,3.33,1.33,3.27,1.28,-1.28,-1.48,-1.77,2.05,1.99,2.00
107.48,3.37,1.41,3.29,1.35,-1.35,-1.51,-1.80,2.02,1.94,1.95
108.56,3.37,1.47,3.31,1.41,-1.41,-1.54,-1.84,1.95,1.90,1.90
109.64,3.37,1.52,3.33,1.49,-1.49,-1.57,-1.87,1.88,1.85,1.85
110.74,3.37,1.57,3.35,1.56,-1.56,-1.60,-1.90,1.81,1.79,1.80
111.85,3.37,1.62,3.36,1.63,-1.63,-1.63,-1.94,1.74,1.74,1.75
112.97,3.37,1.69,3.38,1.69,-1.69,-1.67,-1.97,1.68,1.68,1.68
114.10,3.37,1.74,3.38,1.75,-1.75,-1.70,-2.00,1.62,1.63,1.63
115.24,3.37,1.80,3.39,1.81,-1.81,-1.73,-2.02,1.56,1.58,1.57
116.39,3.37,1.85,3.39,1.86,-1.86,-1.76,-2.05,1.51,1.53,1.51
117.55,3.37,1.90,3.38,1.89,-1.89,-1.80,-2.08,1.47,1.48,1.47
118.73,3.37,1.95,3.37,1.93,-1.93,-1.83,-2.10,1.44,1.44,1.42
119.92,3.37,1.98,3.37,1.96,-1.96,-1.86,-2.12,1.41,1.41,1.39
121.12,3.37,2.01,3.37,1.99,-1.99,-1.90,-2.14,1.37,1.37,1.36
122.33,3.37,2.04,3.37,2.02,-2.02,-1.93,-2.16,1.34,1.34,1.33
123.55,3.37,2.05,3.37,2.05,-2.05,-1.97,-2.18,1.32,1.32,1.32
124.79,3.37,2.07,3.37,2.07,-2.07,-2.00,-2.19,1.30,1.30,1.30
126.03,3.37,2.09,3.37,2.09,-2.09,-2.03,-2.20,1.28,1.28,1.28
127.29,3.37,2.10,3.37,2.11,-2.11,-2.07,-2.21,1.26,1.26,1.27
128.57,3.37,2.12,3.37,2.13,-2.13,-2.10,-2.22,1.24,1.24,1.24
129.85,3.37,2.14,3.37,2.14,-2.14,-2.14,-2.22,1.23,1.23,1.23
131.15,3.37,2.15,3.37,2.16,-2.16,-2.17,-2.23,1.21,1.21,1.22
132.46,3.37,2.17,3.37,2.18,-2.18,-2.20,-2.23,1.19,1.19,1.20
133.79,3.37,2.19,3.37,2.19,-2.19,-2.24,-2.23,1.18,1.18,1.18
135.12,3.37,2.22,3.37,2.21,-2.21,-2.27,-2.23,1.16,1.16,1.15
136.48,3.37,2.23,3.37,2.23,-2.23,-2.31,-2.23,1.14,1.14,1.14
137.84,3.37,2.25,3.37,2.25,-2.25,-2.34,-2.22,1.12,1.12,1.12
139.22,3.37,2.29,3.37,2.27,-2.27,-2.37,-2.22,1.10,1.10,1.08
140.61,3.37,2.32,3.37,2.30,-2.30,-2.41,-2.21,1.07,1.07,1.05
142.02,3.37,2.33,3.37,2.32,-2.32,-2.44,-2.21,1.05,1.05,1.04
143.44,3.37,2.35,3.37,2.36,-2.36,-2.47,-2.20,1.01,1.01,1.02
144.87,3.37,2.38,3.37,2.39,-2.39,-2.51,-2.19,0.98,0.98,0.99
146.32,3.37,2.42,3.38,2.44,-2.44,-2.54,-2.19,0.93,0.93,0.95
147.78,3.37,2.44,3.38,2.50,-2.50,-2.57,-2.18,0.87,0.89,0.93
149.26,3.37,2.50,3.39,2.55,-2.55,-2.60,-2.18,0.82,0.84,0.87
150.75,3.37,2.56,3.39,2.60,-2.60,-2.63,-2.17,0.77,0.79,0.80
152.26,3.37,2.62,3.38,2.65,-2.65,-2.66,-2.17,0.72,0.73,0.75
153.78,3.37,2.68,3.37,2.70,-2.70,-2.69,-2.16,0.67,0.67,0.69
155.32,3.37,2.77,3.35,2.74,-2.74,-2.72,-2.16,0.63,0.61,0.60
156.88,3.37,2.83,3.34,2.79,-2.79,-2.74,-2.16,0.58,0.55,0.54
158.44,3.37,2.89,3.32,2.83,-2.83,-2.77,-2.16,0.54,0.49,0.48
160.03,3.37,2.95,3.30,2.86,-2.86,-2.80,-2.16,0.51,0.44,0.42
161.63,3.37,3.00,3.27,2.88,-2.88,-2.82,-2.16,0.49,0.39,0.37
163.24,3.23,2.90,3.25,2.90,-2.90,-2.85,-2.16,0.33,0.35,0.33
164.88,3.14,2.84,3.23,2.92,-2.92,-2.87,-2.16,0.22,0.31,0.30
166.53,3.14,2.87,3.21,2.92,-2.92,-2.89,-2.17,0.22,0.29,0.27
168.19,3.14,2.89,3.19,2.91,-2.91,-2.91,-2.18,0.23,0.27,0.25
169.87,3.14,2.90,3.17,2.90,-2.90,-2.93,-2.19,0.24,0.26,0.24
171.57,3.14,2.90,3.15,2.89,-2.89,-2.95,-2.20,0.25,0.26,0.24
173.29,3.14,2.88,3.14,2.87,-2.87,-2.97,-2.21,0.27,0.26,0.26
175.02,3.14,2.86,3.13,2.86,-2.86,-2.98,-2.23,0.28,0.27,0.28
176.77,3.14,2.86,3.12,2.85,-2.85,-3.00,-2.24,0.29,0.28,0.28
178.54,3.14,2.84,3.12,2.84,-2.84,-3.01,-2.26,0.30,0.29,0.30
180.32,3.14,2.83,3.12,2.83,-2.83,-3.03,-2.28,0.31,0.29,0.31
182.13,3.14,2.81,3.13,2.83,-2.83,-3.04,-2.30,0.31,0.30,0.33
183.95,3.14,2.81,3.14,2.83,-2.83,-3.05,-2.33,0.31,0.31,0.33
185.79,3.14,2.81,3.14,2.83,-2.83,-3.05,-2.35,0.31,0.31,0.33
187.65,3.14,2.82,3.14,2.83,-2.83,-3.06,-2.38,0.31,0.31,0.32
189.52,3.14,2.84,3.14,2.83,-2.83,-3.07,-2.41,0.30,0.30,0.30
191.42,3.14,2.85,3.14,2.84,-2.84,-3.07,-2.44,0.30,0.30,0.29
193.33,3.14,2.86,3.14,2.85,-2.85,-3.07,-2.47,0.29,0.29,0.28
195.27,3.14,2.86,3.14,2.86,-2.86,-3.07,-2.50,0.28,0.28,0.28
197.22,3.14,2.87,3.14,2.88,-2.88,-3.07,-2.53,0.26,0.26,0.27
199.19,3.14,2.90,3.14,2.89,-2.89,-3.07,-2.57,0.25,0.25,0.23
201.18,3.14,2.90,3.14,2.90,-2.90,-3.06,-2.60,0.24,0.24,0.23
203.19,3.14,2.92,3.14,2.92,-2.92,-3.06,-2.64,0.22,0.22,0.22
205.23,3.14,2.93,3.14,2.93,-2.93,-3.05,-2.68,0.21,0.21,0.20
207.28,3.14,2.93,3.14,2.94,-2.94,-3.04,-2.72,0.20,0.20,0.20
209.35,3.14,2.95,3.14,2.95,-2.95,-3.03,-2.75,0.19,0.19,0.19
211.44,3.14,2.97,3.14,2.96,-2.96,-3.02,-2.79,0.18,0.18,0.17
213.56,3.14,2.97,3.15,2.98,-2.98,-3.01,-2.83,0.16,0.17,0.17
215.69,3.14,2.97,3.15,2.99,-2.99,-3.00,-2.86,0.15,0.16,0.17
217.85,3.14,2.99,3.16,3.01,-3.01,-2.98,-2.90,0.13,0.15,0.15
220.03,3.14,3.00,3.16,3.01,-3.01,-2.96,-2.93,0.13,0.14,0.14
222.23,3.14,3.01,3.15,3.01,-3.01,-2.95,-2.97,0.13,0.14,0.13
224.45,3.14,3.01,3.14,3.01,-3.01,-2.93,-3.00,0.13,0.13,0.13
226.70,3.14,3.01,3.13,3.00,-3.00,-2.91,-3.03,0.14,0.13,0.13
228.96,3.14,3.01,3.11,2.99,-2.99,-2.89,-3.05,0.15,0.12,0.13
231.25,3.14,3.01,3.09,2.97,-2.97,-2.86,-3.08,0.17,0.12,0.13
233.57,3.14,3.02,3.07,2.95,-2.95,-2.84,-3.10,0.19,0.12,0.12
235.90,3.14,3.02,3.05,2.92,-2.92,-2.82,-3.12,0.22,0.13,0.12
238.26,3.03,2.91,3.03,2.90,-2.90,-2.79,-3.13,0.13,0.13,0.12
240.64,2.93,2.80,3.00,2.87,-2.87,-2.77,-3.14,0.06,0.13,0.13
243.05,2.91,2.77,2.98,2.84,-2.84,-2.74,-3.15,0.07,0.14,0.14
245.48,2.91,2.76,2.96,2.82,-2.82,-2.71,-3.15,0.09,0.15,0.15
247.93,2.91,2.75,2.94,2.79,-2.79,-2.68,-3.15,0.12,0.15,0.16
250.41,2.91,2.75,2.93,2.76,-2.76,-2.65,-3.14,0.15,0.16,0.16
252.92,2.91,2.74,2.91,2.74,-2.74,-2.62,-3.13,0.17,0.17,0.17
255.45,2.91,2.71,2.90,2.72,-2.72,-2.59,-3.12,0.19,0.18,0.20
258.00,2.91,2.71,2.91,2.71,-2.71,-2.56,-3.10,0.20,0.20,0.20
260.58,2.91,2.70,2.91,2.70,-2.70,-2.53,-3.08,0.21,0.21,0.21
263.19,2.91,2.68,2.91,2.69,-2.69,-2.50,-3.05,0.22,0.22,0.22
265.82,2.91,2.68,2.92,2.67,-2.67,-2.47,-3.02,0.24,0.24,0.23
268.48,2.91,2.65,2.91,2.65,-2.65,-2.43,-2.99,0.26,0.26,0.26
271.16,2.91,2.64,2.90,2.62,-2.62,-2.40,-2.95,0.29,0.28,0.27
273.87,2.91,2.62,2.88,2.58,-2.58,-2.37,-2.91,0.33,0.30,0.29
276.61,2.91,2.58,2.87,2.54,-2.54,-2.33,-2.87,0.37,0.32,0.33
279.38,2.91,2.57,2.85,2.50,-2.50,-2.30,-2.82,0.41,0.35,0.34
282.17,2.91,2.54,2.82,2.45,-2.45,-2.27,-2.77,0.46,0.37,0.37
284.99,2.86,2.46,2.80,2.40,-2.40,-2.23,-2.72,0.46,0.40,0.40
287.84,2.69,2.26,2.78,2.35,-2.35,-2.20,-2.67,0.34,0.43,0.43
290.72,2.68,2.22,2.76,2.30,-2.30,-2.16,-2.62,0.38,0.46,0.46
293.63,2.68,2.19,2.74,2.25,-2.25,-2.13,-2.57,0.43,0.49,0.49
296.57,2.68,2.16,2.72,2.20,-2.20,-2.10,-2.51,0.48,0.52,0.52
299.53,2.68,2.13,2.70,2.16,-2.16,-2.06,-2.46,0.52,0.54,0.55
302.53,2.68,2.12,2.68,2.12,-2.12,-2.03,-2.40,0.56,0.57,0.56
305.55,2.68,2.08,2.67,2.09,-2.09,-1.99,-2.35,0.59,0.59,0.60
308.61,2.68,2.06,2.67,2.07,-2.07,-1.96,-2.29,0.61,0.61,0.62
311.69,2.68,2.04,2.68,2.05,-2.05,-1.93,-2.24,0.63,0.62,0.64
314.81,2.68,2.01,2.68,2.04,-2.04,-1.89,-2.18,0.64,0.64,0.66
317.96,2.68,2.02,2.68,2.03,-2.03,-1.86,-2.13,0.65,0.65,0.66
321.14,2.68,2.02,2.69,2.02,-2.02,-1.82,-2.08,0.66,0.66,0.66
324.35,2.68,2.01,2.68,2.00,-2.00,-1.79,-2.03,0.68,0.67,0.67
327.59,2.68,2.00,2.66,1.98,-1.98,-1.76,-1.97,0.70,0.68,0.68
330.87,2.68,1.99,2.64,1.95,-1.95,-1.73,-1.93,0.73,0.70,0.69
334.18,2.68,1.99,2.62,1.92,-1.92,-1.69,-1.88,0.76,0.71,0.69
337.52,2.68,1.98,2.60,1.88,-1.88,-1.66,-1.83,0.80,0.72,0.70
340.90,2.68,1.95,2.58,1.85,-1.85,-1.63,-1.78,0.83,0.73,0.73
344.30,2.50,1.76,2.56,1.81,-1.81,-1.60,-1.74,0.69,0.75,0.74
347.75,2.45,1.69,2.54,1.77,-1.77,-1.56,-1.69,0.68,0.77,0.76
351.23,2.45,1.66,2.51,1.73,-1.73,-1.53,-1.65,0.72,0.79,0.79
354.74,2.45,1.64,2.49,1.68,-1.68,-1.50,-1.61,0.77,0.81,0.81
358.28,2.45,1.61,2.48,1.64,-1.64,-1.47,-1.57,0.81,0.83,0.83
361.87,2.45,1.60,2.46,1.61,-1.61,-1.44,-1.53,0.84,0.86,0.85
365.49,2.45,1.57,2.46,1.58,-1.58,-1.41,-1.49,0.87,0.88,0.88
369.14,2.45,1.55,2.45,1.55,-1.55,-1.38,-1.46,0.90,0.90,0.90
372.83,2.45,1.52,2.45,1.52,-1.52,-1.35,-1.42,0.93,0.93,0.93
376.56,2.45,1.50,2.44,1.50,-1.50,-1.32,-1.39,0.95,0.95,0.95
380.33,2.45,1.47,2.44,1.47,-1.47,-1.29,-1.36,0.98,0.97,0.98
384.13,2.45,1.45,2.44,1.45,-1.45,-1.27,-1.33,1.00,0.99,1.00
387.97,2.45,1.44,2.42,1.42,-1.42,-1.24,-1.30,1.03,1.00,1.01
391.85,2.45,1.43,2.41,1.39,-1.39,-1.21,-1.27,1.06,1.02,1.02
395.77,2.45,1.42,2.39,1.36,-1.36,-1.18,-1.24,1.09,1.03,1.03
399.73,2.45,1.41,2.37,1.33,-1.33,-1.15,-1.21,1.12,1.04,1.03
403.72,2.37,1.33,2.35,1.30,-1.30,-1.13,-1.18,1.07,1.05,1.04
407.76,2.26,1.21,2.32,1.27,-1.27,-1.10,-1.16,0.99,1.05,1.05
411.84,2.23,1.17,2.31,1.25,-1.25,-1.07,-1.13,0.98,1.06,1.06
415.96,2.23,1.16,2.29,1.23,-1.23,-1.05,-1.11,1.00,1.06,1.07
420.12,2.23,1.16,2.28,1.22,-1.22,-1.02,-1.09,1.01,1.07,1.07
424.32,2.23,1.16,2.26,1.20,-1.20,-1.00,-1.06,1.03,1.07,1.07
428.56,2.23,1.16,2.25,1.17,-1.17,-0.97,-1.04,1.06,1.07,1.07
432.85,2.23,1.16,2.23,1.15,-1.15,-0.95,-1.02,1.08,1.08,1.07
437.18,2.23,1.15,2.21,1.13,-1.13,-0.92,-1.00,1.10,1.08,1.08
441.55,2.23,1.14,2.19,1.10,-1.10,-0.90,-0.97,1.13,1.09,1.09
445.96,2.23,1.14,2.17,1.08,-1.08,-0.87,-0.95,1.15,1.09,1.09
450.42,2.23,1.13,2.16,1.06,-1.06,-0.85,-0.93,1.17,1.10,1.10
454.93,2.23,1.12,2.14,1.03,-1.03,-0.83,-0.91,1.20,1.11,1.11
459.48,2.18,1.06,2.13,1.01,-1.01,-0.80,-0.88,1.17,1.12,1.12
464.07,2.03,0.89,2.12,0.98,-0.98,-0.78,-0.86,1.05,1.14,1.14
468.71,2.00,0.84,2.10,0.94,-0.94,-0.76,-0.84,1.06,1.16,1.16
473.40,2.00,0.83,2.07,0.90,-0.90,-0.73,-0.82,1.10,1.18,1.17
478.13,2.00,0.80,2.05,0.85,-0.85,-0.71,-0.79,1.15,1.20,1.20
482.91,2.00,0.78,2.02,0.80,-0.80,-0.69,-0.77,1.20,1.22,1.22
487.74,2.00,0.75,1.99,0.74,-0.74,-0.67,-0.74,1.26,1.24,1.24
492.62,2.00,0.72,1.96,0.69,-0.69,-0.64,-0.72,1.31,1.27,1.27
497.55,2.00,0.71,1.93,0.64,-0.64,-0.62,-0.69,1.36,1.29,1.29
502.52,2.00,0.68,1.91,0.59,-0.59,-0.60,-0.66,1.41,1.32,1.32
507.55,2.00,0.66,1.88,0.54,-0.54,-0.58,-0.63,1.46,1.34,1.34
512.62,1.83,0.46,1.87,0.50,-0.50,-0.56,-0.61,1.33,1.37,1.37
517.75,1.77,0.38,1.85,0.46,-0.46,-0.54,-0.58,1.31,1.39,1.39
522.93,1.77,0.35,1.83,0.42,-0.42,-0.52,-0.54,1.35,1.41,1.42
528.16,1.77,0.34,1.82,0.39,-0.39,-0.50,-0.51,1.38,1.43,1.43
533.44,1.77,0.32,1.81,0.36,-0.36,-0.47,-0.48,1.41,1.45,1.45
538.77,1.77,0.30,1.80,0.33,-0.33,-0.45,-0.45,1.43,1.46,1.47
544.16,1.77,0.29,1.78,0.31,-0.31,-0.43,-0.41,1.46,1.48,1.48
549.60,1.77,0.27,1.77,0.28,-0.28,-0.41,-0.38,1.49,1.49,1.50
555.10,1.77,0.27,1.75,0.25,-0.25,-0.39,-0.34,1.52,1.50,1.50
