frequency,raw,error,smoothed,error_smoothed,equalization,parametric_eq,fixed_band_eq,equalized_raw,equalized_smoothed,target
20.00,-2.16,-8.30,-2.16,-8.30,6.00,6.33,2.45,3.84,3.84,6.14
20.20,-2.09,-8.22,-2.10,-8.23,6.00,6.30,2.53,3.91,3.90,6.13
20.40,-2.03,-8.15,-2.03,-8.15,6.00,6.28,2.60,3.97,3.97,6.12
20.61,-1.97,-8.08,-1.96,-8.07,6.00,6.26,2.67,4.03,4.04,6.11
20.81,-1.89,-7.98,-1.90,-7.99,6.00,6.23,2.75,4.11,4.10,6.09
21.02,-1.82,-7.90,-1.82,-7.91,6.00,6.21,2.83,4.18,4.18,6.08
21.23,-1.75,-7.82,-1.75,-7.83,6.00,6.18,2.92,4.25,4.25,6.07
21.44,-1.68,-7.76,-1.68,-7.75,6.00,6.16,3.00,4.32,4.32,6.08
21.66,-1.62,-7.67,-1.61,-7.68,6.00,6.14,3.09,4.38,4.39,6.06
21.87,-1.54,-7.60,-1.54,-7.60,6.00,6.12,3.18,4.46,4.46,6.06
22.09,-1.47,-7.51,-1.47,-7.52,6.00,6.10,3.27,4.53,4.53,6.04
22.31,-1.40,-7.44,-1.40,-7.44,6.00,6.08,3.37,4.60,4.60,6.04
22.54,-1.34,-7.36,-1.33,-7.36,6.00,6.06,3.46,4.66,4.67,6.03
22.76,-1.25,-7.28,-1.26,-7.28,6.00,6.04,3.57,4.75,4.74,6.02
22.99,-1.18,-7.20,-1.18,-7.20,6.00,6.03,3.67,4.82,4.82,6.01
23.22,-1.11,-7.12,-1.11,-7.13,6.00,6.01,3.77,4.89,4.89,6.00
23.45,-1.04,-7.06,-1.04,-7.05,6.00,6.00,3.88,4.96,4.96,6.01
23.69,-0.98,-6.98,-0.97,-6.97,6.00,5.98,3.99,5.02,5.03,6.00
23.92,-0.89,-6.89,-0.90,-6.90,6.00,5.97,4.10,5.11,5.10,5.99
24.16,-0.82,-6.83,-0.82,-6.82,6.00,5.96,4.22,5.18,5.18,6.00
24.40,-0.75,-6.75,-0.75,-6.75,6.00,5.95,4.33,5.25,5.25,6.00
24.65,-0.68,-6.68,-0.68,-6.68,6.00,5.94,4.45,5.32,5.32,6.00
24.89,-0.60,-6.60,-0.60,-6.60,6.00,5.93,4.57,5.40,5.40,6.00
25.14,-0.53,-6.52,-0.53,-6.52,6.00,5.92,4.69,5.47,5.47,5.99
25.39,-0.46,-6.45,-0.46,-6.45,6.00,5.91,4.81,5.54,5.54,5.99
25.65,-0.39,-6.38,-0.39,-6.38,6.01,5.90,4.93,5.61,5.62,5.99
25.91,-0.33,-6.31,-0.32,-6.31,6.01,5.89,5.05,5.69,5.69,5.99
26.16,-0.24,-6.24,-0.25,-6.24,6.01,5.88,5.17,5.77,5.76,6.00
26.43,-0.18,-6.17,-0.17,-6.17,6.00,5.87,5.29,5.83,5.83,5.99
26.69,-0.10,-6.10,-0.10,-6.10,5.98,5.86,5.41,5.88,5.88,5.99
26.96,-0.03,-6.02,-0.03,-6.02,5.96,5.84,5.53,5.93,5.93,5.99
27.23,0.04,-5.95,0.05,-5.94,5.92,5.82,5.64,5.96,5.97,5.99
27.50,0.13,-5.86,0.12,-5.87,5.87,5.79,5.75,6.00,5.99,5.99
27.77,0.20,-5.80,0.20,-5.80,5.81,5.76,5.86,6.01,6.01,6.00
28.05,0.27,-5.73,0.27,-5.73,5.75,5.73,5.96,6.01,6.02,6.00
28.33,0.35,-5.66,0.34,-5.66,5.67,5.69,6.05,6.02,6.02,6.01
28.62,0.41,-5.59,0.42,-5.59,5.60,5.64,6.14,6.01,6.01,6.01
28.90,0.49,-5.53,0.49,-5.52,5.52,5.59,6.22,6.01,6.01,6.01
29.19,0.57,-5.45,0.56,-5.45,5.45,5.53,6.29,6.01,6.01,6.01
29.48,0.64,-5.37,0.64,-5.37,5.37,5.47,6.35,6.01,6.01,6.01
29.78,0.71,-5.29,0.71,-5.30,5.30,5.40,6.40,6.01,6.01,6.01
30.08,0.78,-5.22,0.78,-5.22,5.22,5.33,6.44,6.00,6.00,6.01
30.38,0.85,-5.14,0.86,-5.14,5.14,5.25,6.47,6.00,6.00,6.00
30.68,0.94,-5.06,0.93,-5.06,5.07,5.17,6.49,6.00,6.00,5.99
30.99,1.01,-4.98,1.01,-4.98,4.99,5.08,6.50,6.00,6.00,5.99
31.30,1.07,-4.92,1.08,-4.91,4.91,5.00,6.49,5.99,5.99,5.99
31.61,1.15,-4.84,1.14,-4.84,4.84,4.91,6.47,5.98,5.98,5.99
31.93,1.20,-4.76,1.21,-4.77,4.76,4.82,6.43,5.97,5.97,5.97
32.24,1.28,-4.70,1.28,-4.69,4.69,4.73,6.39,5.97,5.97,5.97
32.57,1.35,-4.61,1.35,-4.61,4.62,4.64,6.33,5.97,5.97,5.96
32.89,1.43,-4.53,1.42,-4.54,4.54,4.55,6.27,5.97,5.97,5.96
33.22,1.49,-4.47,1.49,-4.47,4.47,4.46,6.19,5.95,5.96,5.96
33.55,1.56,-4.40,1.55,-4.40,4.40,4.37,6.10,5.95,5.95,5.96
33.89,1.62,-4.33,1.62,-4.33,4.32,4.29,6.00,5.94,5.94,5.94
34.23,1.69,-4.24,1.68,-4.25,4.25,4.20,5.90,5.94,5.93,5.93
34.57,1.75,-4.18,1.75,-4.18,4.18,4.11,5.78,5.93,5.93,5.93
34.92,1.81,-4.10,1.82,-4.11,4.11,4.03,5.66,5.92,5.92,5.91
35.27,1.88,-4.05,1.88,-4.03,4.03,3.94,5.53,5.92,5.92,5.93
35.62,1.96,-3.95,1.95,-3.96,3.96,3.86,5.40,5.91,5.91,5.91
35.97,2.03,-3.88,2.02,-3.88,3.88,3.78,5.26,5.90,5.90,5.90
36.33,2.09,-3.80,2.09,-3.80,3.80,3.70,5.12,5.88,5.89,5.89
36.70,2.15,-3.71,2.15,-3.72,3.72,3.62,4.98,5.87,5.87,5.87
37.06,2.22,-3.64,2.22,-3.64,3.64,3.54,4.83,5.85,5.86,5.85
37.43,2.29,-3.55,2.29,-3.55,3.55,3.46,4.69,5.84,5.84,5.84
37.81,2.36,-3.47,2.35,-3.47,3.47,3.38,4.54,5.83,5.82,5.83
38.19,2.42,-3.39,2.42,-3.39,3.39,3.30,4.39,5.80,5.81,5.80
38.57,2.49,-3.30,2.48,-3.31,3.31,3.22,4.24,5.79,5.79,5.79
38.95,2.55,-3.23,2.55,-3.22,3.22,3.15,4.09,5.77,5.77,5.77
39.34,2.61,-3.14,2.61,-3.14,3.14,3.07,3.94,5.75,5.75,5.75
39.74,2.67,-3.06,2.67,-3.06,3.06,3.00,3.79,5.72,5.73,5.72
40.14,2.72,-2.98,2.73,-2.98,2.98,2.92,3.65,5.70,5.71,5.71
40.54,2.79,-2.90,2.79,-2.90,2.90,2.85,3.50,5.69,5.69,5.69
40.94,2.86,-2.81,2.86,-2.81,2.82,2.77,3.35,5.67,5.67,5.67
41.35,2.92,-2.74,2.92,-2.73,2.74,2.70,3.21,5.65,5.66,5.65
41.76,2.99,-2.64,2.98,-2.65,2.66,2.62,3.07,5.64,5.64,5.63
42.18,3.04,-2.58,3.04,-2.58,2.58,2.55,2.93,5.61,5.62,5.62
42.60,3.10,-2.50,3.09,-2.50,2.50,2.47,2.79,5.60,5.59,5.59
43.03,3.15,-2.43,3.15,-2.43,2.42,2.40,2.65,5.57,5.57,5.58
43.46,3.21,-2.35,3.21,-2.34,2.34,2.32,2.52,5.55,5.55,5.55
43.90,3.27,-2.26,3.27,-2.26,2.26,2.25,2.38,5.54,5.53,5.53
44.33,3.33,-2.18,3.33,-2.18,2.19,2.17,2.25,5.51,5.51,5.51
44.78,3.39,-2.10,3.39,-2.10,2.10,2.09,2.12,5.49,5.49,5.49
45.23,3.44,-2.03,3.44,-2.02,2.02,2.02,1.99,5.47,5.46,5.47
45.68,3.50,-1.94,3.50,-1.94,1.94,1.94,1.87,5.43,5.43,5.43
46.13,3.56,-1.85,3.56,-1.85,1.85,1.86,1.74,5.41,5.41,5.40
46.60,3.61,-1.76,3.61,-1.76,1.76,1.79,1.62,5.38,5.38,5.38
47.06,3.68,-1.67,3.67,-1.67,1.67,1.71,1.50,5.35,5.34,5.35
47.53,3.73,-1.59,3.73,-1.58,1.58,1.63,1.38,5.30,5.31,5.32
48.01,3.79,-1.48,3.79,-1.49,1.48,1.55,1.26,5.27,5.27,5.27
48.49,3.85,-1.39,3.84,-1.39,1.39,1.47,1.15,5.24,5.23,5.24
48.97,3.91,-1.29,3.90,-1.29,1.30,1.39,1.03,5.20,5.20,5.20
49.46,3.96,-1.21,3.96,-1.20,1.20,1.31,0.92,5.16,5.16,5.17
49.96,4.02,-1.10,4.01,-1.11,1.11,1.22,0.81,5.13,5.13,5.11
50.46,4.07,-1.03,4.07,-1.02,1.03,1.14,0.70,5.09,5.09,5.09
50.96,4.13,-0.93,4.12,-0.94,0.94,1.06,0.59,5.07,5.06,5.06
51.47,4.17,-0.86,4.17,-0.86,0.86,0.97,0.48,5.02,5.02,5.03
51.99,4.22,-0.77,4.22,-0.77,0.77,0.89,0.38,4.99,4.99,4.98
52.51,4.27,-0.70,4.27,-0.70,0.69,0.80,0.27,4.96,4.96,4.96
53.03,4.32,-0.62,4.31,-0.62,0.61,0.71,0.17,4.93,4.93,4.94
53.56,4.37,-0.54,4.36,-0.54,0.53,0.63,0.07,4.90,4.90,4.90
54.10,4.41,-0.45,4.41,-0.46,0.45,0.54,-0.03,4.86,4.86,4.86
54.64,4.46,-0.38,4.46,-0.37,0.37,0.45,-0.12,4.83,4.83,4.83
55.18,4.51,-0.29,4.50,-0.29,0.29,0.36,-0.22,4.80,4.79,4.80
55.74,4.56,-0.20,4.56,-0.21,0.21,0.27,-0.31,4.77,4.77,4.76
56.29,4.61,-0.14,4.61,-0.13,0.13,0.18,-0.40,4.74,4.74,4.74
56.86,4.66,-0.06,4.66,-0.05,0.06,0.09,-0.48,4.71,4.71,4.71
57.42,4.71,0.03,4.71,0.03,-0.02,-0.00,-0.57,4.69,4.69,4.68
58.00,4.76,0.11,4.75,0.10,-0.09,-0.10,-0.65,4.66,4.66,4.65
58.58,4.80,0.17,4.80,0.17,-0.17,-0.19,-0.73,4.63,4.63,4.63
59.16,4.84,0.23,4.84,0.24,-0.25,-0.28,-0.81,4.59,4.59,4.61
59.76,4.89,0.31,4.89,0.31,-0.33,-0.37,-0.88,4.56,4.56,4.58
60.35,4.94,0.40,4.93,0.40,-0.41,-0.46,-0.95,4.53,4.52,4.53
60.96,4.99,0.49,4.98,0.49,-0.50,-0.56,-1.02,4.49,4.48,4.49
61.57,5.03,0.59,5.03,0.59,-0.59,-0.65,-1.09,4.44,4.44,4.44
62.18,5.08,0.68,5.08,0.68,-0.68,-0.74,-1.15,4.40,4.40,4.40
62.80,5.13,0.77,5.13,0.78,-0.77,-0.83,-1.21,4.36,4.36,4.35
63.43,5.18,0.87,5.18,0.87,-0.86,-0.91,-1.27,4.32,4.32,4.31
64.07,5.23,0.96,5.22,0.95,-0.94,-1.00,-1.32,4.28,4.28,4.27
64.71,5.27,1.03,5.26,1.03,-1.03,-1.09,-1.37,4.24,4.24,4.23
65.35,5.31,1.11,5.30,1.11,-1.11,-1.17,-1.42,4.20,4.19,4.20
66.01,5.34,1.18,5.34,1.18,-1.19,-1.26,-1.47,4.15,4.16,4.16
66.67,5.39,1.26,5.38,1.26,-1.26,-1.34,-1.52,4.12,4.12,4.13
67.33,5.43,1.35,5.42,1.34,-1.34,-1.42,-1.56,4.08,4.08,4.08
68.01,5.47,1.42,5.47,1.42,-1.42,-1.50,-1.61,4.05,4.05,4.05
68.69,5.51,1.50,5.51,1.50,-1.50,-1.57,-1.65,4.01,4.01,4.01
69.37,5.55,1.57,5.55,1.57,-1.58,-1.65,-1.69,3.97,3.97,3.98
70.07,5.59,1.65,5.59,1.65,-1.66,-1.72,-1.72,3.93,3.93,3.93
70.77,5.63,1.74,5.63,1.73,-1.74,-1.79,-1.76,3.89,3.89,3.89
71.48,5.67,1.81,5.67,1.82,-1.81,-1.86,-1.80,3.85,3.85,3.85
72.19,5.71,1.90,5.70,1.89,-1.89,-1.92,-1.84,3.82,3.81,3.81
72.91,5.73,1.96,5.73,1.97,-1.96,-1.99,-1.87,3.77,3.77,3.76
73.64,5.76,2.03,5.76,2.03,-2.03,-2.05,-1.91,3.73,3.73,3.72
74.38,5.79,2.10,5.78,2.09,-2.09,-2.11,-1.95,3.69,3.69,3.69
75.12,5.81,2.15,5.81,2.15,-2.16,-2.17,-1.98,3.65,3.65,3.66
75.87,5.84,2.21,5.84,2.21,-2.22,-2.23,-2.02,3.62,3.62,3.63
76.63,5.88,2.29,5.87,2.28,-2.28,-2.29,-2.06,3.59,3.59,3.59
77.40,5.91,2.34,5.90,2.34,-2.34,-2.35,-2.10,3.56,3.56,3.57
78.17,5.94,2.41,5.94,2.41,-2.41,-2.40,-2.14,3.53,3.53,3.52
78.95,5.97,2.46,5.97,2.46,-2.47,-2.46,-2.18,3.50,3.50,3.51
79.74,6.01,2.53,6.00,2.53,-2.53,-2.52,-2.22,3.47,3.47,3.48
80.54,6.05,2.59,6.04,2.59,-2.60,-2.57,-2.27,3.45,3.45,3.45
81.35,6.08,2.66,6.08,2.66,-2.66,-2.63,-2.31,3.42,3.42,3.42
82.16,6.12,2.72,6.11,2.72,-2.71,-2.68,-2.36,3.40,3.40,3.40
82.98,6.15,2.78,6.14,2.78,-2.77,-2.74,-2.41,3.38,3.37,3.36
83.81,6.17,2.83,6.16,2.83,-2.82,-2.79,-2.46,3.34,3.34,3.33
84.65,6.18,2.88,6.18,2.88,-2.88,-2.85,-2.51,3.30,3.30,3.29
85.50,6.19,2.92,6.19,2.92,-2.93,-2.91,-2.57,3.26,3.26,3.26
86.35,6.21,2.97,6.21,2.97,-2.98,-2.96,-2.62,3.22,3.22,3.23
87.22,6.24,3.03,6.23,3.03,-3.04,-3.02,-2.68,3.20,3.19,3.20
88.09,6.27,3.09,6.26,3.09,-3.10,-3.08,-2.75,3.17,3.17,3.17
88.97,6.30,3.16,6.30,3.15,-3.16,-3.14,-2.81,3.14,3.14,3.14
89.86,6.33,3.22,6.33,3.22,-3.22,-3.19,-2.87,3.11,3.11,3.11
90.76,6.37,3.29,6.36,3.29,-3.28,-3.25,-2.94,3.08,3.08,3.07
91.66,6.40,3.37,6.39,3.36,-3.35,-3.31,-3.01,3.05,3.05,3.03
92.58,6.42,3.41,6.42,3.42,-3.41,-3.37,-3.08,3.00,3.01,3.01
93.51,6.45,3.47,6.44,3.47,-3.48,-3.43,-3.16,2.97,2.96,2.97
94.44,6.47,3.53,6.47,3.53,-3.55,-3.49,-3.23,2.92,2.92,2.94
95.39,6.50,3.61,6.50,3.60,-3.61,-3.55,-3.31,2.88,2.88,2.89
96.34,6.53,3.67,6.52,3.67,-3.68,-3.61,-3.39,2.84,2.84,2.85
97.30,6.56,3.74,6.56,3.74,-3.75,-3.67,-3.47,2.81,2.81,2.82
98.28,6.59,3.82,6.59,3.81,-3.81,-3.73,-3.56,2.78,2.78,2.77
99.26,6.62,3.88,6.61,3.88,-3.86,-3.79,-3.64,2.75,2.75,2.73
100.25,6.63,3.93,6.63,3.93,-3.91,-3.85,-3.73,2.71,2.72,2.70
101.25,6.64,3.97,6.63,3.97,-3.95,-3.91,-3.82,2.68,2.68,2.67
102.27,6.64,4.00,6.63,4.00,-3.99,-3.97,-3.91,2.65,2.64,2.64
103.29,6.63,4.02,6.63,4.02,-4.02,-4.02,-4.00,2.61,2.61,2.60
104.32,6.63,4.05,6.62,4.05,-4.05,-4.08,-4.08,2.58,2.57,2.57
105.37,6.62,4.07,6.62,4.07,-4.08,-4.14,-4.17,2.53,2.53,2.55
106.42,6.62,4.10,6.62,4.10,-4.12,-4.20,-4.26,2.50,2.50,2.52
107.48,6.63,4.14,6.63,4.14,-4.16,-4.25,-4.35,2.47,2.47,2.48
108.56,6.66,4.20,6.65,4.20,-4.21,-4.31,-4.44,2.45,2.44,2.45
109.64,6.69,4.26,6.68,4.26,-4.26,-4.37,-4.53,2.42,2.42,2.43
110.74,6.72,4.33,6.72,4.33,-4.33,-4.42,-4.61,2.39,2.39,2.39
111.85,6.76,4.40,6.75,4.40,-4.40,-4.47,-4.69,2.36,2.36,2.35
112.97,6.79,4.46,6.79,4.47,-4.47,-4.52,-4.77,2.32,2.32,2.32
114.10,6.83,4.54,6.82,4.54,-4.54,-4.58,-4.85,2.29,2.28,2.29
115.24,6.86,4.61,6.85,4.61,-4.61,-4.63,-4.92,2.25,2.25,2.24
116.39,6.88,4.67,6.88,4.67,-4.67,-4.67,-4.99,2.20,2.21,2.21
117.55,6.91,4.74,6.90,4.74,-4.73,-4.72,-5.06,2.17,2.17,2.17
118.73,6.93,4.79,6.93,4.79,-4.78,-4.77,-5.12,2.14,2.15,2.13
119.92,6.96,4.85,6.95,4.84,-4.83,-4.81,-5.17,2.12,2.12,2.11
121.12,6.97,4.88,6.96,4.88,-4.87,-4.86,-5.22,2.09,2.09,2.09
122.33,6.97,4.91,6.97,4.91,-4.91,-4.90,-5.27,2.06,2.06,2.05
123.55,6.97,4.94,6.96,4.94,-4.94,-4.94,-5.31,2.03,2.03,2.03
124.79,6.96,4.96,6.96,4.96,-4.97,-4.97,-5.34,1.99,1.99,2.00
126.03,6.96,4.99,6.95,4.99,-5.00,-5.01,-5.37,1.96,1.96,1.97
127.29,6.95,5.01,6.95,5.02,-5.02,-5.05,-5.39,1.92,1.92,1.93
128.57,6.95,5.05,6.95,5.05,-5.05,-5.08,-5.41,1.89,1.89,1.89
129.85,6.95,5.08,6.94,5.08,-5.08,-5.11,-5.41,1.86,1.86,1.86
131.15,6.95,5.12,6.95,5.12,-5.11,-5.14,-5.42,1.83,1.83,1.83
132.46,6.95,5.15,6.95,5.15,-5.15,-5.17,-5.42,1.80,1.80,1.80
133.79,6.95,5.19,6.95,5.18,-5.18,-5.20,-5.42,1.76,1.76,1.76
135.12,6.95,5.21,6.95,5.21,-5.21,-5.23,-5.41,1.73,1.73,1.73
136.48,6.95,5.24,6.95,5.24,-5.24,-5.25,-5.40,1.70,1.70,1.71
137.84,6.95,5.27,6.95,5.27,-5.27,-5.28,-5.38,1.67,1.67,1.67
139.22,6.95,5.31,6.95,5.30,-5.30,-5.30,-5.37,1.64,1.64,1.64
140.61,6.95,5.33,6.95,5.34,-5.33,-5.32,-5.35,1.61,1.61,1.61
142.02,6.95,5.36,6.95,5.36,-5.36,-5.34,-5.33,1.59,1.59,1.58
143.44,6.95,5.39,6.95,5.39,-5.39,-5.36,-5.30,1.56,1.56,1.56
144.87,6.95,5.41,6.95,5.41,-5.41,-5.39,-5.28,1.53,1.53,1.54
146.32,6.95,5.44,6.95,5.43,-5.44,-5.41,-5.25,1.51,1.51,1.51
147.78,6.95,5.46,6.95,5.46,-5.46,-5.43,-5.23,1.49,1.49,1.49
149.26,6.95,5.48,6.95,5.48,-5.48,-5.45,-5.21,1.46,1.46,1.46
150.75,6.95,5.51,6.95,5.51,-5.51,-5.47,-5.19,1.44,1.44,1.43
152.26,6.95,5.53,6.95,5.53,-5.53,-5.49,-5.17,1.41,1.41,1.42
153.78,6.95,5.55,6.95,5.55,-5.56,-5.51,-5.15,1.39,1.39,1.39
155.32,6.95,5.58,6.95,5.58,-5.58,-5.53,-5.13,1.37,1.37,1.37
156.88,6.95,5.60,6.95,5.61,-5.61,-5.55,-5.11,1.34,1.34,1.34
158.44,6.95,5.64,6.95,5.63,-5.63,-5.57,-5.10,1.31,1.31,1.31
160.03,6.95,5.66,6.95,5.66,-5.66,-5.60,-5.09,1.28,1.28,1.29
161.63,6.95,5.69,6.94,5.69,-5.69,-5.62,-5.09,1.25,1.25,1.25
163.24,6.95,5.72,6.95,5.72,-5.73,-5.65,-5.08,1.22,1.22,1.22
164.88,6.95,5.75,6.95,5.76,-5.76,-5.67,-5.08,1.18,1.19,1.19
166.53,6.96,5.80,6.95,5.79,-5.80,-5.70,-5.08,1.16,1.16,1.15
168.19,6.96,5.82,6.96,5.83,-5.83,-5.73,-5.09,1.13,1.13,1.14
169.87,6.97,5.87,6.96,5.87,-5.86,-5.75,-5.10,1.10,1.10,1.10
171.57,6.97,5.90,6.96,5.90,-5.89,-5.78,-5.12,1.07,1.07,1.06
173.29,6.96,5.92,6.96,5.92,-5.92,-5.81,-5.13,1.04,1.04,1.04
175.02,6.95,5.95,6.94,5.94,-5.94,-5.84,-5.16,1.00,1.00,1.00
176.77,6.93,5.96,6.93,5.96,-5.96,-5.87,-5.18,0.97,0.97,0.97
178.54,6.91,5.97,6.90,5.98,-5.97,-5.90,-5.22,0.94,0.94,0.93
180.32,6.88,5.99,6.88,5.98,-5.98,-5.93,-5.25,0.90,0.90,0.89
182.13,6.85,5.98,6.84,5.98,-5.98,-5.95,-5.29,0.87,0.86,0.87
183.95,6.81,5.97,6.81,5.98,-5.98,-5.98,-5.33,0.83,0.83,0.83
185.79,6.77,5.97,6.77,5.97,-5.98,-6.01,-5.38,0.79,0.79,0.79
187.65,6.75,5.98,6.74,5.98,-5.98,-6.04,-5.42,0.77,0.76,0.76
189.52,6.72,5.98,6.71,5.98,-5.98,-6.06,-5.48,0.74,0.73,0.73
191.42,6.69,5.98,6.69,5.98,-5.98,-6.08,-5.54,0.70,0.70,0.70
193.33,6.66,5.98,6.66,5.99,-5.99,-6.11,-5.60,0.67,0.67,0.68
195.27,6.64,6.00,6.63,6.00,-6.00,-6.13,-5.66,0.64,0.64,0.64
197.22,6.62,6.02,6.62,6.01,-6.01,-6.15,-5.73,0.60,0.60,0.60
199.19,6.61,6.02,6.60,6.03,-6.03,-6.17,-5.80,0.57,0.57,0.58
201.18,6.60,6.05,6.60,6.05,-6.05,-6.18,-5.87,0.54,0.55,0.55
203.19,6.61,6.07,6.61,6.07,-6.08,-6.20,-5.94,0.53,0.53,0.53
205.23,6.62,6.10,6.61,6.10,-6.10,-6.21,-6.02,0.52,0.51,0.52
207.28,6.63,6.13,6.62,6.13,-6.13,-6.23,-6.10,0.50,0.50,0.49
209.35,6.63,6.16,6.63,6.16,-6.15,-6.24,-6.18,0.47,0.48,0.47
211.44,6.63,6.18,6.63,6.18,-6.18,-6.25,-6.25,0.45,0.45,0.44
213.56,6.63,6.19,6.63,6.20,-6.20,-6.26,-6.33,0.43,0.43,0.43
215.69,6.63,6.22,6.63,6.22,-6.22,-6.26,-6.41,0.40,0.40,0.41
217.85,6.63,6.24,6.63,6.24,-6.24,-6.27,-6.49,0.38,0.38,0.39
220.03,6.63,6.26,6.63,6.26,-6.26,-6.27,-6.57,0.37,0.37,0.36
222.23,6.63,6.28,6.63,6.28,-6.28,-6.27,-6.64,0.35,0.35,0.34
224.45,6.63,6.29,6.63,6.30,-6.29,-6.27,-6.71,0.33,0.33,0.33
226.70,6.63,6.32,6.62,6.31,-6.31,-6.27,-6.78,0.31,0.31,0.31
228.96,6.63,6.32,6.63,6.32,-6.33,-6.27,-6.84,0.30,0.30,0.31
231.25,6.63,6.34,6.63,6.34,-6.34,-6.26,-6.90,0.28,0.28,0.29
233.57,6.64,6.36,6.63,6.35,-6.36,-6.26,-6.95,0.28,0.28,0.28
235.90,6.64,6.36,6.64,6.37,-6.37,-6.25,-6.99,0.27,0.27,0.27
238.26,6.65,6.39,6.64,6.38,-6.38,-6.24,-7.03,0.27,0.27,0.25
240.64,6.64,6.37,6.64,6.38,-6.38,-6.23,-7.06,0.26,0.26,0.26
243.05,6.64,6.38,6.63,6.38,-6.37,-6.22,-7.08,0.26,0.26,0.26
245.48,6.63,6.38,6.62,6.37,-6.36,-6.21,-7.09,0.26,0.26,0.25
247.93,6.60,6.36,6.60,6.35,-6.35,-6.20,-7.10,0.25,0.25,0.24
250.41,6.58,6.32,6.57,6.32,-6.33,-6.18,-7.09,0.25,0.24,0.25
252.92,6.54,6.28,6.54,6.29,-6.30,-6.17,-7.08,0.23,0.24,0.26
255.45,6.52,6.27,6.52,6.26,-6.27,-6.15,-7.06,0.24,0.24,0.25
258.00,6.50,6.24,6.49,6.24,-6.24,-6.13,-7.03,0.25,0.25,0.25
260.58,6.47,6.21,6.47,6.21,-6.21,-6.11,-6.99,0.26,0.26,0.26
263.19,6.44,6.18,6.43,6.18,-6.17,-6.10,-6.94,0.27,0.26,0.26
265.82,6.39,6.13,6.39,6.14,-6.13,-6.07,-6.88,0.25,0.26,0.25
268.48,6.36,6.10,6.35,6.09,-6.09,-6.05,-6.82,0.26,0.26,0.26
271.16,6.32,6.05,6.31,6.05,-6.05,-6.03,-6.75,0.26,0.25,0.26
273.87,6.26,6.00,6.27,6.01,-6.01,-6.01,-6.68,0.24,0.25,0.26
276.61,6.23,5.96,6.22,5.97,-5.97,-5.99,-6.60,0.25,0.25,0.26
279.38,6.19,5.94,6.19,5.93,-5.93,-5.96,-6.52,0.25,0.25,0.25
282.17,6.16,5.90,6.16,5.90,-5.89,-5.94,-6.43,0.26,0.26,0.25
284.99,6.13,5.86,6.12,5.86,-5.85,-5.91,-6.34,0.27,0.27,0.27
287.84,6.09,5.81,6.09,5.82,-5.82,-5.89,-6.24,0.27,0.27,0.27
290.72,6.06,5.79,6.06,5.78,-5.78,-5.86,-6.15,0.27,0.28,0.27
293.63,6.04,5.75,6.03,5.75,-5.75,-5.83,-6.05,0.28,0.28,0.28
296.57,6.01,5.71,6.01,5.72,-5.72,-5.81,-5.96,0.28,0.28,0.29
299.53,5.99,5.69,5.99,5.69,-5.70,-5.78,-5.86,0.29,0.29,0.30
302.53,5.98,5.66,5.98,5.67,-5.68,-5.75,-5.77,0.29,0.30,0.31
305.55,5.98,5.67,5.98,5.66,-5.66,-5.72,-5.67,0.31,0.31,0.31
308.61,5.98,5.65,5.98,5.65,-5.65,-5.69,-5.58,0.33,0.33,0.33
311.69,5.98,5.64,5.97,5.64,-5.63,-5.66,-5.49,0.34,0.34,0.33
314.81,5.97,5.62,5.97,5.62,-5.61,-5.63,-5.40,0.35,0.35,0.34
317.96,5.96,5.61,5.96,5.61,-5.59,-5.60,-5.31,0.36,0.36,0.35
321.14,5.94,5.57,5.93,5.57,-5.56,-5.57,-5.22,0.37,0.37,0.36
324.35,5.91,5.54,5.91,5.53,-5.53,-5.54,-5.14,0.37,0.37,0.36
327.59,5.87,5.48,5.87,5.49,-5.49,-5.51,-5.06,0.37,0.38,0.39
330.87,5.85,5.46,5.84,5.45,-5.45,-5.48,-4.98,0.39,0.39,0.39
334.18,5.81,5.41,5.80,5.41,-5.41,-5.44,-4.91,0.40,0.39,0.39
337.52,5.77,5.36,5.77,5.37,-5.37,-5.41,-4.84,0.40,0.40,0.40
340.90,5.75,5.33,5.74,5.32,-5.33,-5.38,-4.77,0.41,0.41,0.42
344.30,5.72,5.29,5.72,5.29,-5.30,-5.35,-4.71,0.42,0.42,0.43
347.75,5.70,5.26,5.70,5.26,-5.26,-5.31,-4.65,0.43,0.43,0.44
351.23,5.68,5.24,5.68,5.23,-5.24,-5.28,-4.60,0.44,0.44,0.43
354.74,5.67,5.20,5.66,5.21,-5.21,-5.24,-4.54,0.45,0.45,0.46
358.28,5.65,5.19,5.65,5.19,-5.19,-5.21,-4.49,0.46,0.46,0.46
361.87,5.64,5.17,5.64,5.16,-5.16,-5.17,-4.45,0.47,0.47,0.47
365.49,5.63,5.15,5.62,5.14,-5.14,-5.14,-4.41,0.48,0.48,0.48
369.14,5.61,5.11,5.61,5.12,-5.12,-5.10,-4.37,0.49,0.49,0.50
372.83,5.60,5.09,5.59,5.09,-5.09,-5.06,-4.33,0.50,0.50,0.50
376.56,5.57,5.06,5.57,5.06,-5.06,-5.02,-4.30,0.51,0.51,0.50
380.33,5.55,5.03,5.55,5.03,-5.03,-4.99,-4.27,0.52,0.52,0.51
384.13,5.52,4.99,5.52,4.99,-4.99,-4.95,-4.24,0.53,0.53,0.53
387.97,5.49,4.95,5.48,4.95,-4.94,-4.90,-4.22,0.54,0.54,0.54
391.85,5.45,4.90,5.45,4.90,-4.89,-4.86,-4.20,0.55,0.55,0.55
395.77,5.41,4.85,5.41,4.85,-4.84,-4.82,-4.18,0.56,0.56,0.56
399.73,5.37,4.80,5.36,4.79,-4.79,-4.78,-4.17,0.57,0.57,0.56
403.72,5.32,4.72,5.32,4.73,-4.74,-4.73,-4.15,0.58,0.58,0.59
407.76,5.27,4.67,5.27,4.68,-4.69,-4.68,-4.14,0.58,0.58,0.59
411.84,5.24,4.63,5.23,4.63,-4.64,-4.64,-4.13,0.60,0.60,0.60
415.96,5.20,4.58,5.20,4.59,-4.59,-4.59,-4.12,0.61,0.61,0.62
420.12,5.17,4.55,5.16,4.54,-4.54,-4.54,-4.11,0.63,0.63,0.62
424.32,5.13,4.50,5.12,4.49,-4.49,-4.48,-4.11,0.64,0.64,0.63
428.56,5.09,4.44,5.08,4.44,-4.44,-4.43,-4.10,0.65,0.65,0.65
432.85,5.04,4.38,5.04,4.39,-4.39,-4.38,-4.09,0.65,0.65,0.66
437.18,5.00,4.34,4.99,4.33,-4.33,-4.32,-4.09,0.66,0.66,0.66
441.55,4.95,4.28,4.95,4.28,-4.28,-4.27,-4.08,0.67,0.67,0.66
445.96,4.90,4.22,4.90,4.22,-4.22,-4.21,-4.07,0.68,0.68,0.67
450.42,4.85,4.16,4.84,4.16,-4.16,-4.15,-4.06,0.68,0.68,0.68
454.93,4.79,4.09,4.79,4.10,-4.10,-4.09,-4.05,0.68,0.69,0.69
459.48,4.75,4.04,4.74,4.04,-4.04,-4.03,-4.04,0.70,0.70,0.70
464.07,4.70,3.97,4.70,3.98,-3.98,-3.97,-4.03,0.71,0.72,0.72
468.71,4.66,3.92,4.66,3.93,-3.92,-3.90,-4.01,0.73,0.73,0.73
473.40,4.62,3.88,4.61,3.87,-3.86,-3.84,-3.99,0.75,0.74,0.74
478.13,4.56,3.81,4.56,3.81,-3.81,-3.78,-3.96,0.75,0.75,0.75
482.91,4.51,3.75,4.50,3.75,-3.75,-3.71,-3.93,0.75,0.75,0.76
487.74,4.46,3.69,4.45,3.69,-3.70,-3.65,-3.90,0.76,0.76,0.77
492.62,4.41,3.63,4.41,3.64,-3.64,-3.58,-3.87,0.77,0.77,0.78
497.55,4.38,3.59,4.37,3.58,-3.58,-3.52,-3.83,0.80,0.79,0.79
502.52,4.34,3.54,4.33,3.53,-3.52,-3.45,-3.78,0.82,0.81,0.80
507.55,4.29,3.47,4.29,3.47,-3.46,-3.38,-3.73,0.83,0.83,0.82
512.62,4.24,3.41,4.23,3.40,-3.40,-3.32,-3.68,0.83,0.83,0.83
517.75,4.17,3.32,4.17,3.33,-3.34,-3.25,-3.62,0.83,0.83,0.85
522.93,4.12,3.26,4.12,3.26,-3.28,-3.18,-3.56,0.84,0.84,0.86
528.16,4.07,3.20,4.07,3.21,-3.21,-3.12,-3.50,0.86,0.86,0.87
533.44,4.04,3.16,4.03,3.15,-3.14,-3.05,-3.43,0.89,0.89,0.87
538.77,3.98,3.09,3.98,3.09,-3.07,-2.98,-3.36,0.90,0.90,0.88
544.16,3.92,3.01,3.92,3.02,-3.01,-2.92,-3.28,0.91,0.91,0.90
549.60,3.86,2.94,3.86,2.94,-2.95,-2.85,-3.20,0.91,0.91,0.91
