frequency,raw,error,smoothed,error_smoothed,equalization,parametric_eq,fixed_band_eq,equalized_raw,equalized_smoothed,target
20.00,-6.03,-7.94,-6.03,-7.94,6.00,6.31,2.80,-0.03,-0.03,1.91
20.20,-5.99,-7.95,-5.99,-7.95,6.00,6.30,2.89,0.01,0.01,1.96
20.40,-5.95,-7.96,-5.96,-7.96,6.00,6.29,2.97,0.05,0.04,2.01
20.61,-5.91,-7.95,-5.91,-7.96,6.00,6.29,3.05,0.09,0.09,2.03
20.81,-5.87,-7.96,-5.87,-7.96,6.00,6.28,3.14,0.13,0.13,2.08
21.02,-5.83,-7.96,-5.83,-7.95,6.00,6.28,3.23,0.17,0.17,2.12
21.23,-5.78,-7.93,-5.79,-7.93,6.00,6.27,3.32,0.22,0.21,2.14
21.44,-5.74,-7.91,-5.74,-7.91,6.00,6.26,3.42,0.26,0.26,2.16
21.66,-5.70,-7.89,-5.70,-7.88,6.00,6.26,3.51,0.30,0.30,2.18
21.87,-5.65,-7.84,-5.66,-7.85,6.00,6.25,3.61,0.35,0.34,2.19
22.09,-5.61,-7.82,-5.61,-7.82,6.00,6.24,3.72,0.39,0.39,2.21
22.31,-5.57,-7.79,-5.57,-7.79,6.00,6.24,3.82,0.43,0.43,2.22
22.54,-5.52,-7.74,-5.53,-7.75,6.00,6.23,3.93,0.48,0.47,2.22
22.76,-5.48,-7.70,-5.48,-7.70,6.00,6.22,4.04,0.52,0.52,2.22
22.99,-5.43,-7.64,-5.44,-7.65,6.00,6.21,4.16,0.57,0.56,2.21
23.22,-5.39,-7.60,-5.39,-7.60,6.00,6.21,4.27,0.61,0.61,2.21
23.45,-5.34,-7.55,-5.34,-7.55,6.00,6.20,4.39,0.66,0.66,2.21
23.69,-5.29,-7.51,-5.30,-7.51,6.00,6.19,4.52,0.71,0.70,2.22
23.92,-5.25,-7.47,-5.25,-7.47,6.00,6.18,4.64,0.75,0.75,2.21
24.16,-5.20,-7.43,-5.21,-7.43,6.00,6.17,4.77,0.80,0.79,2.22
24.40,-5.16,-7.40,-5.17,-7.39,6.00,6.17,4.90,0.84,0.83,2.23
24.65,-5.13,-7.36,-5.13,-7.35,6.00,6.16,5.03,0.87,0.87,2.22
24.89,-5.09,-7.31,-5.10,-7.32,6.00,6.15,5.16,0.91,0.90,2.22
25.14,-5.06,-7.28,-5.07,-7.29,6.00,6.14,5.29,0.94,0.93,2.22
25.39,-5.05,-7.28,-5.05,-7.28,6.00,6.13,5.43,0.95,0.95,2.23
25.65,-5.04,-7.27,-5.04,-7.27,6.00,6.12,5.57,0.96,0.96,2.23
25.91,-5.03,-7.25,-5.03,-7.25,6.00,6.11,5.70,0.97,0.97,2.22
26.16,-5.01,-7.23,-5.01,-7.23,6.00,6.10,5.84,0.99,0.99,2.22
26.43,-4.98,-7.20,-4.99,-7.20,6.00,6.09,5.98,1.02,1.01,2.22
26.69,-4.95,-7.17,-4.95,-7.17,6.00,6.08,6.11,1.05,1.05,2.21
26.96,-4.92,-7.15,-4.92,-7.14,6.00,6.07,6.24,1.08,1.08,2.22
27.23,-4.89,-7.12,-4.89,-7.11,6.00,6.06,6.37,1.11,1.11,2.22
27.50,-4.86,-7.08,-4.87,-7.08,6.00,6.04,6.50,1.14,1.13,2.22
27.77,-4.84,-7.05,-4.84,-7.05,6.00,6.03,6.62,1.16,1.16,2.21
28.05,-4.81,-7.02,-4.82,-7.02,6.00,6.02,6.74,1.19,1.18,2.21
28.33,-4.79,-6.99,-4.79,-6.99,6.00,6.01,6.85,1.21,1.21,2.20
28.62,-4.76,-6.96,-4.76,-6.96,6.00,6.00,6.96,1.24,1.24,2.19
28.90,-4.73,-6.94,-4.73,-6.93,6.00,5.98,7.06,1.27,1.27,2.20
29.19,-4.70,-6.89,-4.70,-6.90,6.00,5.97,7.15,1.30,1.30,2.19
29.48,-4.67,-6.88,-4.67,-6.88,6.00,5.96,7.23,1.33,1.33,2.21
29.78,-4.64,-6.84,-4.64,-6.85,6.00,5.94,7.30,1.36,1.36,2.20
30.08,-4.61,-6.82,-4.61,-6.82,6.00,5.93,7.36,1.39,1.39,2.21
30.38,-4.58,-6.78,-4.58,-6.78,6.00,5.91,7.41,1.42,1.42,2.19
30.68,-4.55,-6.75,-4.55,-6.75,6.00,5.90,7.45,1.45,1.45,2.19
30.99,-4.52,-6.71,-4.52,-6.71,6.00,5.88,7.47,1.48,1.48,2.19
31.30,-4.49,-6.68,-4.49,-6.68,6.00,5.87,7.48,1.51,1.51,2.19
31.61,-4.46,-6.65,-4.46,-6.65,6.00,5.85,7.49,1.54,1.54,2.18
31.93,-4.43,-6.62,-4.43,-6.61,6.00,5.83,7.47,1.57,1.57,2.18
32.24,-4.40,-6.57,-4.40,-6.58,6.00,5.82,7.45,1.60,1.60,2.17
32.57,-4.36,-6.54,-4.37,-6.54,6.00,5.80,7.41,1.64,1.63,2.18
32.89,-4.33,-6.51,-4.33,-6.50,6.00,5.78,7.36,1.67,1.67,2.18
33.22,-4.30,-6.47,-4.30,-6.47,6.00,5.76,7.30,1.70,1.70,2.16
33.55,-4.26,-6.42,-4.27,-6.43,6.00,5.74,7.24,1.74,1.73,2.16
33.89,-4.23,-6.38,-4.23,-6.38,6.00,5.72,7.16,1.77,1.78,2.15
34.23,-4.17,-6.33,-4.17,-6.32,6.00,5.70,7.08,1.83,1.83,2.15
34.57,-4.11,-6.25,-4.11,-6.26,6.01,5.68,6.98,1.89,1.89,2.14
34.92,-4.04,-6.18,-4.04,-6.18,6.01,5.66,6.89,1.96,1.96,2.14
35.27,-3.97,-6.11,-3.97,-6.11,6.01,5.64,6.78,2.03,2.03,2.13
35.62,-3.91,-6.04,-3.91,-6.04,6.00,5.62,6.68,2.08,2.09,2.13
35.97,-3.85,-5.98,-3.87,-6.00,5.98,5.60,6.57,2.13,2.11,2.13
36.33,-3.84,-5.98,-3.85,-5.97,5.96,5.57,6.45,2.11,2.11,2.13
36.70,-3.83,-5.95,-3.83,-5.95,5.93,5.55,6.34,2.09,2.10,2.12
37.06,-3.81,-5.93,-3.79,-5.92,5.89,5.53,6.22,2.08,2.10,2.12
37.43,-3.73,-5.86,-3.73,-5.86,5.86,5.50,6.10,2.13,2.12,2.13
37.81,-3.66,-5.79,-3.68,-5.80,5.83,5.48,5.98,2.16,2.15,2.13
38.19,-3.62,-5.75,-3.63,-5.76,5.80,5.45,5.87,2.17,2.16,2.12
38.57,-3.62,-5.75,-3.62,-5.75,5.77,5.42,5.75,2.15,2.15,2.13
38.95,-3.62,-5.76,-3.62,-5.75,5.75,5.39,5.63,2.13,2.13,2.13
39.34,-3.62,-5.75,-3.62,-5.75,5.74,5.37,5.52,2.12,2.12,2.13
39.74,-3.62,-5.75,-3.62,-5.75,5.74,5.34,5.41,2.12,2.12,2.12
40.14,-3.62,-5.75,-3.62,-5.75,5.75,5.31,5.30,2.13,2.13,2.13
40.54,-3.62,-5.75,-3.62,-5.74,5.76,5.28,5.19,2.13,2.13,2.12
40.94,-3.62,-5.74,-3.63,-5.74,5.76,5.24,5.09,2.13,2.13,2.12
41.35,-3.62,-5.73,-3.63,-5.74,5.74,5.21,4.99,2.12,2.11,2.11
41.76,-3.62,-5.73,-3.62,-5.73,5.71,5.18,4.89,2.09,2.09,2.10
42.18,-3.60,-5.71,-3.60,-5.70,5.67,5.14,4.80,2.06,2.07,2.11
42.60,-3.54,-5.63,-3.55,-5.64,5.60,5.11,4.70,2.06,2.05,2.09
43.03,-3.48,-5.57,-3.47,-5.55,5.52,5.07,4.62,2.04,2.05,2.08
43.46,-3.36,-5.44,-3.37,-5.44,5.43,5.04,4.53,2.07,2.06,2.08
43.90,-3.25,-5.30,-3.26,-5.31,5.32,5.00,4.45,2.07,2.06,2.05
44.33,-3.15,-5.18,-3.15,-5.18,5.21,4.96,4.37,2.06,2.06,2.03
44.78,-3.05,-5.07,-3.06,-5.07,5.09,4.92,4.30,2.04,2.04,2.01
45.23,-2.96,-4.97,-2.97,-4.97,4.98,4.88,4.22,2.01,2.01,2.00
45.68,-2.88,-4.87,-2.88,-4.87,4.87,4.84,4.16,1.98,1.99,1.99
46.13,-2.80,-4.77,-2.80,-4.77,4.77,4.79,4.09,1.97,1.97,1.97
46.60,-2.71,-4.68,-2.72,-4.68,4.68,4.75,4.03,1.96,1.96,1.97
47.06,-2.63,-4.58,-2.64,-4.59,4.59,4.70,3.97,1.96,1.95,1.95
47.53,-2.57,-4.51,-2.57,-4.51,4.51,4.66,3.91,1.94,1.94,1.94
48.01,-2.51,-4.45,-2.51,-4.44,4.44,4.61,3.86,1.93,1.93,1.94
48.49,-2.46,-4.38,-2.46,-4.38,4.38,4.56,3.81,1.92,1.92,1.92
48.97,-2.41,-4.31,-2.42,-4.31,4.32,4.51,3.76,1.91,1.91,1.90
49.46,-2.38,-4.26,-2.38,-4.25,4.27,4.46,3.72,1.89,1.89,1.87
49.96,-2.34,-4.20,-2.35,-4.21,4.22,4.41,3.68,1.88,1.87,1.85
50.46,-2.33,-4.18,-2.33,-4.18,4.17,4.36,3.64,1.84,1.84,1.85
50.96,-2.31,-4.15,-2.31,-4.14,4.12,4.30,3.60,1.81,1.82,1.84
51.47,-2.27,-4.09,-2.27,-4.09,4.07,4.25,3.56,1.80,1.80,1.81
51.99,-2.22,-4.03,-2.22,-4.03,4.02,4.19,3.53,1.80,1.80,1.80
52.51,-2.16,-3.96,-2.17,-3.96,3.96,4.14,3.50,1.80,1.79,1.80
53.03,-2.11,-3.91,-2.11,-3.90,3.90,4.08,3.46,1.79,1.79,1.79
53.56,-2.05,-3.83,-2.06,-3.83,3.84,4.02,3.43,1.79,1.78,1.78
54.10,-2.00,-3.77,-2.00,-3.77,3.78,3.96,3.40,1.77,1.77,1.76
54.64,-1.95,-3.70,-1.95,-3.70,3.71,3.89,3.38,1.76,1.76,1.75
55.18,-1.89,-3.63,-1.89,-3.63,3.65,3.83,3.35,1.75,1.75,1.74
55.74,-1.84,-3.57,-1.85,-3.58,3.57,3.77,3.32,1.73,1.72,1.72
56.29,-1.80,-3.52,-1.81,-3.53,3.50,3.70,3.29,1.69,1.68,1.72
56.86,-1.78,-3.48,-1.76,-3.45,3.42,3.64,3.26,1.63,1.66,1.70
57.42,-1.69,-3.36,-1.68,-3.36,3.34,3.57,3.24,1.65,1.66,1.67
58.00,-1.57,-3.23,-1.59,-3.25,3.26,3.50,3.21,1.69,1.67,1.66
58.58,-1.50,-3.15,-1.50,-3.15,3.19,3.43,3.18,1.69,1.69,1.65
59.16,-1.44,-3.07,-1.45,-3.08,3.12,3.36,3.15,1.67,1.67,1.63
59.76,-1.42,-3.03,-1.43,-3.03,3.05,3.29,3.12,1.62,1.62,1.61
60.35,-1.41,-2.98,-1.41,-2.98,2.98,3.22,3.08,1.56,1.56,1.57
60.96,-1.41,-2.95,-1.41,-2.94,2.91,3.15,3.05,1.50,1.50,1.53
61.57,-1.39,-2.88,-1.39,-2.88,2.85,3.08,3.01,1.46,1.46,1.49
62.18,-1.37,-2.82,-1.36,-2.81,2.80,3.01,2.97,1.42,1.43,1.45
62.80,-1.32,-2.73,-1.33,-2.73,2.74,2.94,2.93,1.42,1.41,1.40
63.43,-1.30,-2.66,-1.31,-2.67,2.69,2.87,2.89,1.38,1.38,1.36
64.07,-1.30,-2.61,-1.30,-2.61,2.63,2.80,2.85,1.33,1.33,1.31
64.71,-1.30,-2.57,-1.30,-2.57,2.57,2.72,2.81,1.27,1.27,1.26
65.35,-1.30,-2.53,-1.30,-2.53,2.52,2.65,2.76,1.22,1.22,1.23
66.01,-1.30,-2.48,-1.30,-2.48,2.47,2.58,2.71,1.17,1.17,1.18
66.67,-1.30,-2.43,-1.30,-2.44,2.43,2.51,2.66,1.13,1.13,1.13
67.33,-1.30,-2.38,-1.30,-2.39,2.39,2.44,2.61,1.08,1.08,1.08
68.01,-1.30,-2.34,-1.30,-2.34,2.34,2.37,2.56,1.04,1.04,1.04
68.69,-1.30,-2.29,-1.30,-2.29,2.29,2.31,2.50,0.99,0.99,0.99
69.37,-1.30,-2.24,-1.30,-2.24,2.24,2.24,2.45,0.93,0.93,0.94
70.07,-1.30,-2.19,-1.30,-2.19,2.18,2.17,2.39,0.88,0.88,0.88
70.77,-1.30,-2.14,-1.30,-2.14,2.13,2.11,2.33,0.83,0.83,0.84
71.48,-1.30,-2.09,-1.30,-2.09,2.08,2.04,2.27,0.78,0.78,0.79
72.19,-1.30,-2.02,-1.30,-2.02,2.03,1.98,2.22,0.73,0.73,0.72
72.91,-1.30,-1.97,-1.30,-1.96,1.99,1.92,2.16,0.69,0.69,0.66
73.64,-1.30,-1.91,-1.32,-1.93,1.95,1.86,2.10,0.64,0.63,0.61
74.38,-1.34,-1.89,-1.35,-1.90,1.91,1.80,2.04,0.56,0.55,0.55
75.12,-1.41,-1.90,-1.39,-1.88,1.87,1.75,1.98,0.45,0.48,0.49
75.87,-1.41,-1.85,-1.41,-1.85,1.83,1.69,1.92,0.41,0.41,0.43
76.63,-1.41,-1.80,-1.42,-1.80,1.78,1.64,1.86,0.37,0.36,0.38
77.40,-1.41,-1.74,-1.41,-1.74,1.74,1.59,1.80,0.33,0.33,0.33
78.17,-1.41,-1.68,-1.41,-1.69,1.70,1.54,1.74,0.29,0.29,0.27
78.95,-1.41,-1.65,-1.41,-1.64,1.65,1.49,1.69,0.24,0.24,0.24
79.74,-1.41,-1.60,-1.41,-1.60,1.60,1.45,1.63,0.19,0.19,0.18
80.54,-1.41,-1.55,-1.41,-1.55,1.55,1.40,1.57,0.14,0.14,0.14
81.35,-1.41,-1.50,-1.41,-1.50,1.50,1.36,1.52,0.09,0.09,0.08
82.16,-1.41,-1.45,-1.41,-1.46,1.46,1.32,1.46,0.04,0.04,0.04
82.98,-1.41,-1.42,-1.41,-1.41,1.41,1.28,1.41,-0.00,-0.00,0.00
83.81,-1.41,-1.36,-1.41,-1.36,1.36,1.24,1.35,-0.05,-0.05,-0.06
84.65,-1.41,-1.31,-1.41,-1.32,1.31,1.20,1.30,-0.10,-0.10,-0.10
85.50,-1.41,-1.27,-1.41,-1.27,1.27,1.16,1.25,-0.15,-0.15,-0.14
86.35,-1.41,-1.22,-1.41,-1.22,1.22,1.12,1.20,-0.20,-0.19,-0.19
87.22,-1.40,-1.16,-1.41,-1.17,1.17,1.09,1.15,-0.24,-0.24,-0.24
88.09,-1.40,-1.11,-1.40,-1.11,1.11,1.05,1.10,-0.29,-0.29,-0.29
88.97,-1.40,-1.06,-1.40,-1.06,1.06,1.02,1.05,-0.34,-0.34,-0.34
89.86,-1.40,-1.01,-1.40,-1.01,1.01,0.99,1.00,-0.39,-0.39,-0.39
90.76,-1.40,-0.96,-1.40,-0.96,0.96,0.95,0.95,-0.44,-0.44,-0.45
91.66,-1.40,-0.92,-1.40,-0.91,0.91,0.92,0.90,-0.49,-0.49,-0.49
92.58,-1.40,-0.85,-1.40,-0.86,0.86,0.89,0.86,-0.55,-0.55,-0.55
93.51,-1.40,-0.81,-1.40,-0.81,0.81,0.85,0.81,-0.60,-0.60,-0.59
94.44,-1.40,-0.77,-1.40,-0.76,0.76,0.82,0.77,-0.65,-0.65,-0.64
95.39,-1.40,-0.72,-1.40,-0.72,0.71,0.79,0.72,-0.69,-0.69,-0.68
96.34,-1.40,-0.67,-1.41,-0.67,0.67,0.76,0.68,-0.73,-0.74,-0.74
97.30,-1.41,-0.63,-1.41,-0.63,0.64,0.72,0.64,-0.78,-0.77,-0.78
98.28,-1.42,-0.60,-1.42,-0.59,0.61,0.69,0.60,-0.81,-0.81,-0.83
99.26,-1.43,-0.56,-1.44,-0.57,0.59,0.66,0.55,-0.85,-0.85,-0.87
100.25,-1.46,-0.54,-1.48,-0.56,0.57,0.62,0.51,-0.90,-0.91,-0.92
101.25,-1.53,-0.57,-1.53,-0.56,0.55,0.59,0.47,-0.98,-0.97,-0.97
102.27,-1.58,-0.57,-1.57,-0.55,0.54,0.55,0.43,-1.05,-1.03,-1.01
103.29,-1.59,-0.53,-1.60,-0.54,0.52,0.52,0.39,-1.07,-1.08,-1.07
104.32,-1.61,-0.51,-1.62,-0.51,0.51,0.48,0.36,-1.11,-1.11,-1.10
105.37,-1.64,-0.49,-1.64,-0.49,0.49,0.45,0.32,-1.15,-1.15,-1.15
106.42,-1.66,-0.47,-1.67,-0.47,0.47,0.41,0.28,-1.19,-1.19,-1.20
107.48,-1.69,-0.44,-1.69,-0.44,0.45,0.37,0.24,-1.24,-1.24,-1.25
108.56,-1.71,-0.40,-1.71,-0.41,0.42,0.34,0.21,-1.30,-1.30,-1.31
109.64,-1.73,-0.38,-1.74,-0.38,0.38,0.30,0.17,-1.36,-1.36,-1.36
110.74,-1.75,-0.34,-1.76,-0.36,0.33,0.26,0.14,-1.43,-1.44,-1.41
111.85,-1.77,-0.33,-1.77,-0.31,0.27,0.23,0.10,-1.50,-1.49,-1.45
112.97,-1.78,-0.27,-1.75,-0.24,0.22,0.19,0.07,-1.57,-1.53,-1.51
114.10,-1.68,-0.13,-1.72,-0.16,0.16,0.15,0.04,-1.52,-1.55,-1.56
115.24,-1.68,-0.08,-1.69,-0.08,0.11,0.11,0.01,-1.57,-1.57,-1.60
116.39,-1.68,-0.03,-1.67,-0.02,0.07,0.07,-0.03,-1.62,-1.60,-1.66
117.55,-1.68,0.01,-1.69,0.00,0.02,0.03,-0.06,-1.66,-1.67,-1.69
118.73,-1.69,0.04,-1.71,0.02,-0.01,-0.01,-0.09,-1.71,-1.73,-1.74
119.92,-1.76,-0.00,-1.74,0.03,-0.04,-0.05,-0.12,-1.81,-1.78,-1.76
121.12,-1.76,0.04,-1.76,0.04,-0.07,-0.09,-0.14,-1.83,-1.82,-1.80
122.33,-1.75,0.08,-1.76,0.07,-0.09,-0.13,-0.17,-1.84,-1.85,-1.83
123.55,-1.74,0.11,-1.75,0.11,-0.11,-0.17,-0.20,-1.86,-1.86,-1.86
124.79,-1.74,0.14,-1.74,0.15,-0.14,-0.21,-0.23,-1.89,-1.88,-1.89
126.03,-1.73,0.18,-1.73,0.18,-0.18,-0.25,-0.25,-1.91,-1.91,-1.92
127.29,-1.72,0.21,-1.73,0.22,-0.21,-0.29,-0.28,-1.94,-1.94,-1.94
128.57,-1.72,0.25,-1.72,0.25,-0.25,-0.33,-0.30,-1.97,-1.97,-1.98
129.85,-1.71,0.29,-1.72,0.29,-0.29,-0.37,-0.33,-2.00,-2.00,-2.01
131.15,-1.71,0.32,-1.71,0.32,-0.32,-0.41,-0.35,-2.04,-2.03,-2.03
132.46,-1.70,0.36,-1.71,0.36,-0.35,-0.45,-0.37,-2.06,-2.06,-2.06
133.79,-1.70,0.38,-1.70,0.39,-0.39,-0.49,-0.40,-2.09,-2.09,-2.09
135.12,-1.69,0.43,-1.70,0.42,-0.42,-0.53,-0.42,-2.11,-2.12,-2.12
136.48,-1.69,0.44,-1.70,0.45,-0.45,-0.57,-0.44,-2.14,-2.15,-2.14
137.84,-1.69,0.48,-1.69,0.48,-0.48,-0.61,-0.46,-2.17,-2.17,-2.17
139.22,-1.69,0.51,-1.69,0.51,-0.51,-0.65,-0.48,-2.20,-2.20,-2.21
140.61,-1.68,0.56,-1.69,0.54,-0.54,-0.69,-0.51,-2.22,-2.23,-2.24
142.02,-1.68,0.57,-1.68,0.57,-0.57,-0.72,-0.53,-2.25,-2.25,-2.25
143.44,-1.68,0.60,-1.68,0.60,-0.60,-0.76,-0.55,-2.28,-2.28,-2.28
144.87,-1.68,0.64,-1.68,0.63,-0.64,-0.80,-0.57,-2.32,-2.32,-2.32
146.32,-1.68,0.68,-1.68,0.67,-0.68,-0.84,-0.59,-2.36,-2.36,-2.36
147.78,-1.68,0.71,-1.68,0.71,-0.72,-0.88,-0.62,-2.41,-2.41,-2.39
149.26,-1.68,0.76,-1.68,0.76,-0.77,-0.91,-0.64,-2.46,-2.46,-2.44
150.75,-1.68,0.82,-1.68,0.82,-0.83,-0.95,-0.66,-2.52,-2.52,-2.51
152.26,-1.68,0.89,-1.68,0.89,-0.89,-0.99,-0.68,-2.57,-2.57,-2.57
153.78,-1.68,0.95,-1.68,0.96,-0.95,-1.02,-0.71,-2.63,-2.63,-2.64
155.32,-1.68,1.03,-1.68,1.03,-1.01,-1.06,-0.73,-2.69,-2.69,-2.71
156.88,-1.68,1.10,-1.70,1.09,-1.07,-1.09,-0.76,-2.75,-2.77,-2.79
158.44,-1.72,1.15,-1.73,1.14,-1.13,-1.13,-0.78,-2.86,-2.86,-2.87
160.03,-1.78,1.17,-1.76,1.19,-1.20,-1.16,-0.81,-2.98,-2.96,-2.95
161.63,-1.78,1.24,-1.79,1.23,-1.26,-1.20,-0.83,-3.05,-3.06,-3.02
163.24,-1.79,1.29,-1.79,1.29,-1.32,-1.23,-0.86,-3.12,-3.11,-3.08
164.88,-1.78,1.35,-1.76,1.37,-1.38,-1.27,-0.89,-3.16,-3.14,-3.13
166.53,-1.71,1.47,-1.74,1.45,-1.43,-1.30,-0.92,-3.15,-3.17,-3.18
168.19,-1.70,1.52,-1.71,1.51,-1.48,-1.33,-0.95,-3.18,-3.19,-3.22
169.87,-1.71,1.55,-1.70,1.55,-1.52,-1.36,-0.98,-3.23,-3.22,-3.26
171.57,-1.71,1.56,-1.71,1.56,-1.55,-1.40,-1.01,-3.26,-3.26,-3.28
173.29,-1.72,1.57,-1.72,1.57,-1.57,-1.43,-1.04,-3.29,-3.29,-3.29
175.02,-1.72,1.57,-1.73,1.57,-1.58,-1.46,-1.08,-3.30,-3.31,-3.30
176.77,-1.73,1.58,-1.73,1.58,-1.58,-1.49,-1.11,-3.32,-3.31,-3.31
178.54,-1.73,1.58,-1.73,1.58,-1.58,-1.52,-1.15,-3.32,-3.31,-3.32
180.32,-1.72,1.59,-1.73,1.58,-1.59,-1.56,-1.18,-3.31,-3.31,-3.31
182.13,-1.72,1.58,-1.72,1.58,-1.59,-1.59,-1.22,-3.32,-3.32,-3.30
183.95,-1.71,1.60,-1.71,1.60,-1.61,-1.62,-1.26,-3.32,-3.32,-3.31
185.79,-1.70,1.61,-1.70,1.62,-1.62,-1.65,-1.29,-3.33,-3.33,-3.32
187.65,-1.68,1.65,-1.69,1.64,-1.65,-1.68,-1.33,-3.33,-3.34,-3.34
189.52,-1.67,1.67,-1.67,1.67,-1.68,-1.71,-1.37,-3.35,-3.35,-3.35
191.42,-1.66,1.70,-1.66,1.71,-1.71,-1.73,-1.41,-3.37,-3.37,-3.37
193.33,-1.64,1.74,-1.64,1.74,-1.74,-1.76,-1.46,-3.38,-3.38,-3.38
195.27,-1.62,1.78,-1.63,1.78,-1.77,-1.79,-1.50,-3.40,-3.40,-3.40
197.22,-1.61,1.81,-1.61,1.81,-1.80,-1.81,-1.54,-3.42,-3.42,-3.42
199.19,-1.60,1.84,-1.60,1.84,-1.83,-1.84,-1.59,-3.44,-3.44,-3.45
201.18,-1.59,1.87,-1.60,1.87,-1.86,-1.87,-1.63,-3.46,-3.46,-3.46
203.19,-1.59,1.89,-1.59,1.89,-1.89,-1.89,-1.67,-3.48,-3.48,-3.48
205.23,-1.59,1.91,-1.59,1.90,-1.91,-1.91,-1.72,-3.50,-3.50,-3.51
207.28,-1.59,1.92,-1.59,1.93,-1.93,-1.93,-1.76,-3.52,-3.52,-3.51
209.35,-1.59,1.94,-1.59,1.95,-1.95,-1.95,-1.81,-3.54,-3.54,-3.54
211.44,-1.59,1.98,-1.59,1.96,-1.96,-1.97,-1.85,-3.56,-3.56,-3.57
213.56,-1.59,1.98,-1.60,1.98,-1.98,-1.99,-1.89,-3.57,-3.57,-3.57
215.69,-1.60,1.98,-1.60,1.99,-1.99,-2.00,-1.94,-3.59,-3.59,-3.59
217.85,-1.60,2.00,-1.60,2.00,-2.00,-2.02,-1.98,-3.60,-3.60,-3.60
220.03,-1.60,2.01,-1.61,2.01,-2.01,-2.03,-2.02,-3.61,-3.61,-3.61
222.23,-1.61,2.02,-1.61,2.01,-2.01,-2.04,-2.06,-3.62,-3.62,-3.63
224.45,-1.61,2.01,-1.61,2.02,-2.01,-2.05,-2.10,-3.62,-3.62,-3.63
226.70,-1.61,2.01,-1.61,2.01,-2.01,-2.05,-2.13,-3.62,-3.62,-3.63
228.96,-1.60,2.01,-1.61,2.01,-2.01,-2.05,-2.17,-3.61,-3.62,-3.62
231.25,-1.60,2.00,-1.60,2.01,-2.01,-2.06,-2.20,-3.61,-3.61,-3.61
233.57,-1.59,2.00,-1.59,2.01,-2.01,-2.06,-2.23,-3.61,-3.60,-3.60
235.90,-1.57,2.01,-1.58,2.00,-2.02,-2.05,-2.25,-3.59,-3.60,-3.59
238.26,-1.56,2.01,-1.56,2.01,-2.03,-2.05,-2.28,-3.59,-3.59,-3.58
240.64,-1.54,2.01,-1.52,2.03,-2.04,-2.05,-2.30,-3.59,-3.56,-3.56
243.05,-1.46,2.06,-1.47,2.05,-2.05,-2.04,-2.32,-3.52,-3.53,-3.52
245.48,-1.41,2.09,-1.42,2.08,-2.07,-2.03,-2.33,-3.48,-3.49,-3.50
247.93,-1.38,2.09,-1.38,2.09,-2.08,-2.02,-2.35,-3.46,-3.46,-3.47
250.41,-1.36,2.09,-1.36,2.09,-2.08,-2.01,-2.36,-3.44,-3.44,-3.46
252.92,-1.34,2.08,-1.34,2.08,-2.08,-2.00,-2.36,-3.42,-3.42,-3.43
255.45,-1.33,2.07,-1.33,2.07,-2.07,-1.99,-2.37,-3.41,-3.41,-3.40
258.00,-1.32,2.06,-1.33,2.06,-2.06,-1.98,-2.37,-3.38,-3.39,-3.38
260.58,-1.32,2.04,-1.32,2.04,-2.04,-1.96,-2.36,-3.36,-3.36,-3.37
263.19,-1.32,2.01,-1.32,2.02,-2.02,-1.95,-2.36,-3.34,-3.34,-3.33
265.82,-1.32,2.00,-1.32,1.99,-1.99,-1.94,-2.35,-3.32,-3.32,-3.32
268.48,-1.32,1.97,-1.32,1.97,-1.97,-1.92,-2.34,-3.29,-3.29,-3.30
271.16,-1.32,1.94,-1.33,1.94,-1.94,-1.91,-2.33,-3.26,-3.27,-3.26
273.87,-1.33,1.91,-1.33,1.91,-1.91,-1.89,-2.31,-3.25,-3.24,-3.25
276.61,-1.33,1.88,-1.33,1.88,-1.89,-1.88,-2.29,-3.22,-3.22,-3.21
279.38,-1.33,1.85,-1.34,1.85,-1.86,-1.86,-2.27,-3.19,-3.19,-3.19
282.17,-1.33,1.83,-1.33,1.83,-1.83,-1.85,-2.25,-3.17,-3.17,-3.16
284.99,-1.32,1.80,-1.32,1.81,-1.81,-1.83,-2.23,-3.14,-3.14,-3.13
287.84,-1.31,1.80,-1.31,1.79,-1.79,-1.82,-2.21,-3.11,-3.11,-3.11
290.72,-1.30,1.77,-1.30,1.77,-1.77,-1.81,-2.19,-3.08,-3.08,-3.08
293.63,-1.29,1.76,-1.29,1.76,-1.76,-1.79,-2.16,-3.05,-3.05,-3.05
296.57,-1.28,1.73,-1.28,1.74,-1.74,-1.78,-2.14,-3.02,-3.02,-3.02
299.53,-1.26,1.73,-1.27,1.73,-1.72,-1.77,-2.11,-2.99,-2.99,-2.99
302.53,-1.25,1.72,-1.25,1.71,-1.70,-1.76,-2.09,-2.96,-2.96,-2.97
305.55,-1.24,1.68,-1.24,1.69,-1.68,-1.75,-2.06,-2.93,-2.93,-2.93
308.61,-1.23,1.68,-1.24,1.67,-1.67,-1.73,-2.04,-2.90,-2.90,-2.91
311.69,-1.23,1.65,-1.23,1.65,-1.65,-1.73,-2.01,-2.89,-2.88,-2.89
314.81,-1.22,1.64,-1.23,1.64,-1.64,-1.72,-1.99,-2.87,-2.87,-2.86
317.96,-1.22,1.62,-1.23,1.61,-1.64,-1.71,-1.97,-2.86,-2.87,-2.84
321.14,-1.22,1.61,-1.22,1.61,-1.63,-1.70,-1.95,-2.86,-2.85,-2.84
324.35,-1.22,1.59,-1.20,1.62,-1.63,-1.69,-1.93,-2.85,-2.83,-2.82
327.59,-1.14,1.66,-1.16,1.64,-1.63,-1.69,-1.91,-2.77,-2.79,-2.80
330.87,-1.12,1.67,-1.14,1.65,-1.63,-1.68,-1.89,-2.75,-2.77,-2.79
334.18,-1.13,1.64,-1.12,1.66,-1.63,-1.68,-1.87,-2.76,-2.75,-2.78
337.52,-1.13,1.64,-1.13,1.63,-1.63,-1.67,-1.86,-2.76,-2.76,-2.77
340.90,-1.13,1.62,-1.13,1.62,-1.63,-1.67,-1.84,-2.76,-2.76,-2.75
344.30,-1.13,1.61,-1.13,1.61,-1.62,-1.67,-1.83,-2.76,-2.76,-2.74
347.75,-1.13,1.61,-1.13,1.61,-1.62,-1.67,-1.82,-2.75,-2.75,-2.75
351.23,-1.13,1.61,-1.13,1.61,-1.61,-1.67,-1.81,-2.74,-2.74,-2.74
354.74,-1.13,1.61,-1.13,1.61,-1.61,-1.67,-1.80,-2.74,-2.74,-2.74
358.28,-1.12,1.61,-1.13,1.61,-1.61,-1.67,-1.79,-2.73,-2.74,-2.73
361.87,-1.12,1.61,-1.12,1.61,-1.61,-1.67,-1.78,-2.74,-2.74,-2.74
365.49,-1.11,1.61,-1.11,1.62,-1.62,-1.68,-1.78,-2.73,-2.73,-2.73
369.14,-1.10,1.64,-1.11,1.63,-1.62,-1.68,-1.78,-2.73,-2.73,-2.74
372.83,-1.09,1.65,-1.10,1.64,-1.63,-1.68,-1.77,-2.73,-2.73,-2.74
376.56,-1.09,1.65,-1.09,1.65,-1.65,-1.69,-1.77,-2.74,-2.74,-2.74
380.33,-1.08,1.65,-1.09,1.65,-1.67,-1.69,-1.77,-2.75,-2.75,-2.73
384.13,-1.07,1.66,-1.08,1.66,-1.69,-1.70,-1.78,-2.76,-2.77,-2.74
387.97,-1.07,1.67,-1.05,1.69,-1.71,-1.70,-1.78,-2.79,-2.77,-2.75
391.85,-1.01,1.75,-1.02,1.73,-1.74,-1.71,-1.78,-2.75,-2.76,-2.76
395.77,-0.97,1.78,-0.99,1.77,-1.76,-1.71,-1.79,-2.73,-2.74,-2.75
399.73,-0.96,1.80,-0.96,1.80,-1.77,-1.72,-1.79,-2.74,-2.74,-2.76
403.72,-0.96,1.80,-0.96,1.80,-1.78,-1.73,-1.80,-2.75,-2.74,-2.76
407.76,-0.97,1.80,-0.97,1.81,-1.78,-1.73,-1.81,-2.76,-2.75,-2.77
411.84,-0.97,1.80,-0.99,1.79,-1.78,-1.74,-1.82,-2.75,-2.76,-2.78
415.96,-1.00,1.77,-1.02,1.76,-1.76,-1.75,-1.83,-2.77,-2.78,-2.78
420.12,-1.06,1.71,-1.05,1.73,-1.75,-1.75,-1.84,-2.81,-2.80,-2.78
424.32,-1.07,1.71,-1.07,1.71,-1.74,-1.76,-1.85,-2.81,-2.80,-2.78
428.56,-1.06,1.71,-1.07,1.71,-1.73,-1.77,-1.86,-2.79,-2.79,-2.77
432.85,-1.04,1.72,-1.04,1.72,-1.72,-1.77,-1.87,-2.77,-2.77,-2.76
437.18,-1.01,1.74,-1.02,1.73,-1.72,-1.78,-1.88,-2.74,-2.74,-2.75
441.55,-0.98,1.73,-0.98,1.74,-1.73,-1.79,-1.90,-2.72,-2.71,-2.71
445.96,-0.94,1.74,-0.94,1.75,-1.75,-1.79,-1.91,-2.69,-2.69,-2.68
450.42,-0.88,1.77,-0.89,1.76,-1.76,-1.80,-1.92,-2.64,-2.65,-2.66
454.93,-0.83,1.77,-0.83,1.78,-1.78,-1.80,-1.93,-2.61,-2.60,-2.61
459.48,-0.76,1.79,-0.77,1.79,-1.79,-1.81,-1.94,-2.55,-2.56,-2.56
464.07,-0.70,1.80,-0.71,1.80,-1.80,-1.82,-1.95,-2.51,-2.51,-2.51
