frequency,raw,smoothed,error,error_smoothed,equalization,parametric_eq,fixed_band_eq,equalized_raw,equalized_smoothed,target
20.00,7.44,7.44,-1.76,-1.76,1.75,1.40,0.56,9.19,9.19,9.20
20.20,7.45,7.46,-1.75,-1.74,1.74,1.39,0.57,9.19,9.20,9.20
20.40,7.47,7.47,-1.72,-1.72,1.73,1.39,0.59,9.20,9.20,9.20
20.61,7.49,7.49,-1.70,-1.71,1.71,1.39,0.61,9.20,9.20,9.20
20.81,7.50,7.51,-1.69,-1.69,1.70,1.39,0.63,9.20,9.20,9.19
21.02,7.52,7.52,-1.67,-1.68,1.68,1.38,0.65,9.20,9.20,9.19
21.23,7.53,7.53,-1.66,-1.66,1.66,1.38,0.67,9.19,9.19,9.19
21.44,7.54,7.55,-1.65,-1.65,1.64,1.38,0.69,9.19,9.19,9.19
21.66,7.56,7.56,-1.63,-1.63,1.62,1.38,0.71,9.19,9.18,9.19
21.87,7.58,7.58,-1.61,-1.61,1.60,1.37,0.73,9.19,9.19,9.19
22.09,7.60,7.60,-1.59,-1.58,1.58,1.37,0.75,9.19,9.19,9.19
22.31,7.63,7.63,-1.56,-1.56,1.56,1.37,0.78,9.19,9.19,9.19
22.54,7.65,7.65,-1.54,-1.54,1.54,1.37,0.80,9.19,9.19,9.19
22.76,7.67,7.67,-1.52,-1.52,1.52,1.36,0.82,9.19,9.19,9.19
22.99,7.69,7.69,-1.49,-1.50,1.50,1.36,0.85,9.19,9.19,9.19
23.22,7.70,7.71,-1.48,-1.48,1.48,1.36,0.87,9.18,9.19,9.19
23.45,7.72,7.72,-1.46,-1.47,1.47,1.35,0.90,9.19,9.19,9.18
23.69,7.73,7.73,-1.45,-1.45,1.45,1.35,0.92,9.18,9.18,9.18
23.92,7.74,7.74,-1.44,-1.44,1.44,1.35,0.95,9.18,9.18,9.18
24.16,7.75,7.75,-1.43,-1.43,1.42,1.34,0.98,9.17,9.18,9.18
24.40,7.77,7.77,-1.41,-1.41,1.41,1.34,1.01,9.18,9.18,9.18
24.65,7.78,7.78,-1.40,-1.39,1.39,1.34,1.03,9.18,9.18,9.18
24.89,7.80,7.80,-1.38,-1.38,1.38,1.33,1.06,9.18,9.18,9.18
25.14,7.81,7.81,-1.36,-1.36,1.37,1.33,1.09,9.18,9.18,9.18
25.39,7.82,7.82,-1.35,-1.35,1.35,1.33,1.12,9.18,9.18,9.17
25.65,7.83,7.83,-1.34,-1.34,1.34,1.32,1.15,9.17,9.17,9.17
25.91,7.84,7.84,-1.33,-1.33,1.33,1.32,1.18,9.17,9.17,9.17
26.16,7.85,7.85,-1.32,-1.32,1.32,1.31,1.20,9.17,9.17,9.17
26.43,7.86,7.86,-1.31,-1.31,1.30,1.31,1.23,9.17,9.16,9.17
26.69,7.87,7.87,-1.30,-1.29,1.29,1.31,1.26,9.16,9.16,9.17
26.96,7.88,7.88,-1.28,-1.28,1.28,1.30,1.29,9.16,9.16,9.16
27.23,7.90,7.90,-1.26,-1.26,1.27,1.30,1.31,9.17,9.16,9.16
27.50,7.91,7.91,-1.25,-1.25,1.25,1.29,1.34,9.16,9.17,9.16
27.77,7.92,7.92,-1.24,-1.24,1.24,1.29,1.36,9.16,9.16,9.16
28.05,7.93,7.93,-1.23,-1.23,1.23,1.29,1.38,9.16,9.16,9.16
28.33,7.93,7.93,-1.22,-1.22,1.22,1.28,1.40,9.15,9.16,9.15
28.62,7.94,7.94,-1.21,-1.21,1.21,1.28,1.43,9.15,9.15,9.15
28.90,7.94,7.94,-1.21,-1.21,1.20,1.27,1.44,9.14,9.15,9.15
29.19,7.95,7.95,-1.20,-1.20,1.19,1.27,1.46,9.14,9.14,9.15
29.48,7.96,7.96,-1.18,-1.19,1.18,1.26,1.48,9.14,9.14,9.15
29.78,7.97,7.97,-1.17,-1.17,1.17,1.26,1.49,9.14,9.14,9.14
30.08,7.98,7.98,-1.16,-1.16,1.16,1.25,1.50,9.14,9.14,9.14
30.38,7.99,7.99,-1.15,-1.15,1.15,1.25,1.51,9.14,9.14,9.14
30.68,8.00,8.00,-1.13,-1.13,1.14,1.24,1.51,9.14,9.14,9.14
30.99,8.01,8.01,-1.12,-1.12,1.13,1.24,1.52,9.14,9.14,9.13
31.30,8.01,8.01,-1.12,-1.12,1.12,1.23,1.52,9.13,9.13,9.13
31.61,8.01,8.01,-1.11,-1.11,1.12,1.22,1.52,9.13,9.13,9.13
31.93,8.01,8.01,-1.11,-1.11,1.11,1.22,1.52,9.12,9.12,9.12
32.24,8.01,8.01,-1.11,-1.11,1.10,1.21,1.51,9.11,9.11,9.12
32.57,8.01,8.01,-1.10,-1.10,1.09,1.21,1.50,9.10,9.11,9.12
32.89,8.02,8.02,-1.09,-1.09,1.08,1.20,1.49,9.10,9.10,9.11
33.22,8.03,8.03,-1.08,-1.08,1.07,1.19,1.48,9.10,9.10,9.11
33.55,8.05,8.05,-1.05,-1.05,1.05,1.19,1.47,9.11,9.10,9.10
33.89,8.06,8.06,-1.04,-1.04,1.04,1.18,1.45,9.10,9.11,9.10
34.23,8.08,8.08,-1.01,-1.02,1.03,1.17,1.44,9.11,9.11,9.10
34.57,8.08,8.08,-1.01,-1.01,1.02,1.17,1.42,9.10,9.10,9.09
34.92,8.08,8.08,-1.01,-1.01,1.02,1.16,1.40,9.10,9.10,9.09
35.27,8.07,8.07,-1.01,-1.01,1.02,1.15,1.38,9.09,9.09,9.08
35.62,8.06,8.06,-1.02,-1.02,1.01,1.15,1.35,9.08,9.07,9.08
35.97,8.04,8.05,-1.03,-1.03,1.01,1.14,1.33,9.05,9.06,9.07
36.33,8.04,8.04,-1.03,-1.03,1.01,1.13,1.31,9.05,9.05,9.07
36.70,8.04,8.04,-1.02,-1.02,1.01,1.12,1.28,9.05,9.05,9.06
37.06,8.05,8.05,-1.00,-1.00,1.00,1.11,1.26,9.06,9.06,9.06
37.43,8.06,8.06,-0.99,-0.99,1.00,1.11,1.23,9.06,9.06,9.05
37.81,8.06,8.06,-0.98,-0.98,1.00,1.10,1.21,9.06,9.06,9.04
38.19,8.06,8.06,-0.98,-0.98,0.99,1.09,1.18,9.05,9.05,9.04
38.57,8.05,8.05,-0.98,-0.98,0.99,1.08,1.16,9.04,9.04,9.03
38.95,8.04,8.04,-0.98,-0.99,0.98,1.07,1.13,9.02,9.02,9.02
39.34,8.02,8.03,-1.00,-0.99,0.98,1.06,1.11,9.00,9.00,9.02
39.74,8.02,8.02,-0.99,-0.99,0.97,1.05,1.08,8.99,8.99,9.01
40.14,8.03,8.03,-0.97,-0.97,0.96,1.04,1.06,8.99,8.99,9.00
40.54,8.04,8.04,-0.95,-0.95,0.95,1.03,1.03,8.99,9.00,8.99
40.94,8.06,8.06,-0.93,-0.93,0.94,1.02,1.01,9.00,9.00,8.99
41.35,8.06,8.06,-0.92,-0.92,0.93,1.01,0.99,8.99,8.99,8.98
41.76,8.06,8.06,-0.91,-0.91,0.92,1.00,0.96,8.98,8.98,8.97
42.18,8.05,8.05,-0.91,-0.91,0.90,0.99,0.94,8.96,8.96,8.96
42.60,8.05,8.05,-0.90,-0.90,0.89,0.98,0.92,8.94,8.94,8.95
43.03,8.05,8.05,-0.89,-0.89,0.88,0.97,0.90,8.93,8.93,8.94
43.46,8.05,8.06,-0.88,-0.88,0.87,0.96,0.88,8.93,8.93,8.93
43.90,8.06,8.06,-0.86,-0.86,0.86,0.95,0.86,8.93,8.92,8.92
44.33,8.06,8.06,-0.85,-0.85,0.86,0.94,0.84,8.92,8.91,8.91
44.78,8.05,8.06,-0.85,-0.84,0.85,0.92,0.82,8.90,8.90,8.90
45.23,8.05,8.05,-0.84,-0.83,0.84,0.91,0.81,8.89,8.89,8.89
45.68,8.05,8.05,-0.82,-0.83,0.83,0.90,0.79,8.88,8.87,8.87
46.13,8.04,8.04,-0.82,-0.82,0.82,0.89,0.78,8.86,8.86,8.86
46.60,8.03,8.03,-0.82,-0.81,0.81,0.87,0.76,8.84,8.85,8.85
47.06,8.03,8.03,-0.80,-0.81,0.80,0.86,0.75,8.84,8.83,8.84
47.53,8.02,8.02,-0.80,-0.80,0.80,0.85,0.73,8.82,8.82,8.82
48.01,8.02,8.02,-0.79,-0.79,0.79,0.83,0.72,8.81,8.81,8.81
48.49,8.02,8.02,-0.77,-0.78,0.78,0.82,0.71,8.80,8.80,8.79
48.97,8.01,8.01,-0.77,-0.77,0.77,0.80,0.70,8.78,8.78,8.78
49.46,8.00,8.00,-0.76,-0.76,0.76,0.79,0.68,8.76,8.76,8.76
49.96,7.99,7.99,-0.75,-0.75,0.75,0.77,0.67,8.74,8.74,8.75
50.46,7.99,7.99,-0.74,-0.74,0.74,0.76,0.66,8.73,8.73,8.73
50.96,7.98,7.98,-0.73,-0.73,0.73,0.74,0.65,8.71,8.71,8.71
51.47,7.98,7.98,-0.71,-0.72,0.72,0.72,0.64,8.70,8.69,8.69
51.99,7.97,7.97,-0.70,-0.70,0.70,0.71,0.63,8.67,8.67,8.67
52.51,7.96,7.97,-0.69,-0.69,0.69,0.69,0.62,8.65,8.66,8.66
53.03,7.96,7.96,-0.67,-0.68,0.68,0.67,0.61,8.64,8.64,8.64
53.56,7.95,7.95,-0.66,-0.66,0.67,0.66,0.60,8.62,8.62,8.61
54.10,7.94,7.94,-0.65,-0.65,0.65,0.64,0.59,8.59,8.60,8.59
54.64,7.93,7.93,-0.64,-0.64,0.64,0.62,0.58,8.57,8.57,8.57
55.18,7.92,7.92,-0.63,-0.63,0.63,0.60,0.57,8.55,8.55,8.55
55.74,7.91,7.91,-0.61,-0.61,0.61,0.58,0.56,8.53,8.53,8.53
56.29,7.90,7.90,-0.60,-0.60,0.60,0.56,0.55,8.50,8.50,8.50
56.86,7.89,7.89,-0.59,-0.58,0.58,0.54,0.54,8.47,8.47,8.48
57.42,7.88,7.88,-0.57,-0.57,0.56,0.52,0.52,8.45,8.45,8.45
58.00,7.88,7.88,-0.54,-0.55,0.54,0.50,0.51,8.43,8.42,8.42
58.58,7.87,7.87,-0.53,-0.52,0.52,0.48,0.50,8.39,8.40,8.40
59.16,7.87,7.87,-0.50,-0.50,0.50,0.46,0.48,8.37,8.37,8.37
59.76,7.86,7.86,-0.48,-0.48,0.48,0.44,0.47,8.34,8.34,8.34
60.35,7.86,7.86,-0.45,-0.45,0.45,0.41,0.45,8.32,8.31,8.31
60.96,7.85,7.85,-0.43,-0.43,0.43,0.39,0.43,8.28,8.28,8.28
61.57,7.84,7.84,-0.41,-0.41,0.41,0.37,0.41,8.25,8.25,8.25
62.18,7.83,7.83,-0.38,-0.38,0.38,0.34,0.39,8.22,8.22,8.22
62.80,7.82,7.82,-0.36,-0.36,0.36,0.32,0.37,8.18,8.18,8.18
63.43,7.81,7.81,-0.34,-0.34,0.34,0.29,0.35,8.15,8.15,8.15
64.07,7.80,7.80,-0.31,-0.32,0.31,0.27,0.32,8.12,8.11,8.11
64.71,7.78,7.78,-0.30,-0.29,0.29,0.24,0.30,8.07,8.08,8.08
65.35,7.77,7.77,-0.27,-0.27,0.27,0.21,0.27,8.04,8.04,8.04
66.01,7.76,7.76,-0.24,-0.24,0.24,0.19,0.25,8.00,8.00,8.00
66.67,7.75,7.75,-0.21,-0.21,0.21,0.16,0.22,7.97,7.97,7.96
67.33,7.74,7.74,-0.18,-0.18,0.19,0.13,0.19,7.93,7.93,7.92
68.01,7.72,7.72,-0.16,-0.16,0.16,0.10,0.16,7.88,7.88,7.88
68.69,7.71,7.71,-0.13,-0.13,0.13,0.07,0.12,7.84,7.84,7.84
69.37,7.69,7.69,-0.11,-0.10,0.10,0.04,0.09,7.79,7.79,7.80
70.07,7.68,7.68,-0.07,-0.07,0.07,0.01,0.06,7.75,7.75,7.75
70.77,7.67,7.67,-0.04,-0.04,0.04,-0.02,0.02,7.71,7.71,7.71
71.48,7.65,7.66,-0.01,-0.01,0.01,-0.05,-0.01,7.66,7.66,7.66
72.19,7.64,7.64,0.03,0.03,-0.03,-0.08,-0.05,7.62,7.62,7.61
72.91,7.63,7.63,0.06,0.06,-0.06,-0.11,-0.09,7.57,7.57,7.57
73.64,7.61,7.61,0.09,0.09,-0.09,-0.15,-0.13,7.52,7.52,7.52
74.38,7.59,7.59,0.12,0.13,-0.12,-0.18,-0.17,7.47,7.47,7.47
75.12,7.57,7.57,0.16,0.15,-0.16,-0.21,-0.21,7.41,7.41,7.42
75.87,7.55,7.55,0.19,0.19,-0.19,-0.25,-0.25,7.36,7.36,7.36
76.63,7.53,7.53,0.22,0.22,-0.23,-0.28,-0.29,7.30,7.31,7.31
77.40,7.52,7.52,0.27,0.26,-0.26,-0.32,-0.33,7.26,7.25,7.26
78.17,7.50,7.50,0.30,0.30,-0.30,-0.36,-0.38,7.20,7.20,7.20
78.95,7.48,7.49,0.34,0.34,-0.34,-0.39,-0.42,7.14,7.15,7.14
79.74,7.47,7.47,0.38,0.38,-0.38,-0.43,-0.47,7.09,7.09,7.09
80.54,7.45,7.45,0.42,0.42,-0.42,-0.47,-0.51,7.03,7.03,7.03
81.35,7.43,7.43,0.46,0.46,-0.46,-0.51,-0.56,6.97,6.97,6.97
82.16,7.41,7.41,0.50,0.51,-0.51,-0.54,-0.61,6.90,6.91,6.91
82.98,7.40,7.40,0.55,0.55,-0.55,-0.58,-0.65,6.85,6.85,6.85
83.81,7.38,7.38,0.60,0.59,-0.59,-0.62,-0.70,6.79,6.79,6.79
84.65,7.36,7.36,0.64,0.64,-0.64,-0.66,-0.75,6.72,6.72,6.72
85.50,7.34,7.34,0.68,0.68,-0.68,-0.71,-0.80,6.66,6.66,6.66
86.35,7.32,7.32,0.73,0.73,-0.73,-0.75,-0.85,6.60,6.60,6.60
87.22,7.30,7.30,0.77,0.77,-0.77,-0.79,-0.90,6.53,6.53,6.53
88.09,7.28,7.28,0.82,0.82,-0.81,-0.83,-0.96,6.47,6.47,6.46
88.97,7.26,7.26,0.86,0.86,-0.86,-0.87,-1.01,6.40,6.40,6.40
89.86,7.23,7.23,0.90,0.90,-0.91,-0.92,-1.06,6.33,6.33,6.33
90.76,7.21,7.21,0.95,0.95,-0.95,-0.96,-1.12,6.26,6.26,6.26
91.66,7.19,7.19,1.00,1.00,-1.00,-1.00,-1.17,6.19,6.19,6.19
92.58,7.17,7.17,1.05,1.05,-1.05,-1.05,-1.23,6.12,6.12,6.12
93.51,7.15,7.15,1.10,1.10,-1.10,-1.09,-1.29,6.06,6.06,6.05
94.44,7.13,7.13,1.15,1.15,-1.14,-1.14,-1.34,5.99,5.99,5.98
95.39,7.11,7.11,1.20,1.20,-1.19,-1.18,-1.40,5.92,5.92,5.91
96.34,7.08,7.08,1.24,1.24,-1.24,-1.23,-1.46,5.84,5.84,5.84
97.30,7.06,7.06,1.29,1.29,-1.29,-1.27,-1.52,5.77,5.77,5.77
98.28,7.03,7.03,1.33,1.34,-1.34,-1.32,-1.58,5.69,5.70,5.70
99.26,7.01,7.01,1.38,1.38,-1.39,-1.37,-1.64,5.63,5.63,5.63
100.25,6.99,6.99,1.44,1.43,-1.43,-1.41,-1.70,5.56,5.56,5.55
101.25,6.96,6.97,1.48,1.48,-1.48,-1.46,-1.76,5.48,5.49,5.48
102.27,6.94,6.94,1.53,1.53,-1.53,-1.50,-1.82,5.41,5.41,5.41
103.29,6.91,6.91,1.58,1.57,-1.57,-1.55,-1.88,5.34,5.34,5.34
104.32,6.88,6.88,1.62,1.62,-1.62,-1.60,-1.94,5.26,5.26,5.26
105.37,6.85,6.85,1.66,1.66,-1.67,-1.64,-2.00,5.18,5.18,5.19
106.42,6.83,6.83,1.71,1.72,-1.72,-1.69,-2.06,5.11,5.11,5.12
107.48,6.81,6.81,1.77,1.77,-1.77,-1.73,-2.12,5.05,5.05,5.04
108.56,6.79,6.79,1.82,1.82,-1.81,-1.78,-2.17,4.98,4.98,4.97
109.64,6.76,6.76,1.86,1.86,-1.86,-1.83,-2.23,4.90,4.90,4.90
110.74,6.73,6.73,1.91,1.91,-1.91,-1.87,-2.28,4.82,4.83,4.83
111.85,6.70,6.70,1.95,1.95,-1.95,-1.92,-2.33,4.75,4.75,4.75
112.97,6.68,6.68,2.00,2.00,-2.00,-1.96,-2.38,4.68,4.68,4.68
114.10,6.65,6.65,2.04,2.04,-2.04,-2.00,-2.43,4.61,4.61,4.61
115.24,6.62,6.62,2.08,2.08,-2.08,-2.05,-2.47,4.54,4.54,4.54
116.39,6.59,6.59,2.12,2.12,-2.13,-2.09,-2.52,4.46,4.46,4.47
117.55,6.56,6.56,2.16,2.17,-2.17,-2.13,-2.56,4.39,4.39,4.40
118.73,6.54,6.54,2.21,2.21,-2.21,-2.18,-2.59,4.33,4.33,4.33
119.92,6.51,6.51,2.25,2.25,-2.25,-2.22,-2.62,4.26,4.26,4.26
121.12,6.48,6.48,2.29,2.29,-2.29,-2.26,-2.65,4.20,4.19,4.19
122.33,6.44,6.44,2.32,2.32,-2.32,-2.30,-2.68,4.12,4.12,4.12
123.55,6.41,6.41,2.36,2.36,-2.36,-2.34,-2.70,4.06,4.05,4.05
124.79,6.37,6.37,2.39,2.39,-2.39,-2.38,-2.72,3.98,3.98,3.99
126.03,6.34,6.34,2.42,2.42,-2.42,-2.42,-2.73,3.92,3.92,3.92
127.29,6.30,6.30,2.45,2.45,-2.45,-2.45,-2.74,3.85,3.85,3.85
128.57,6.27,6.27,2.48,2.48,-2.48,-2.49,-2.75,3.79,3.79,3.79
129.85,6.24,6.24,2.52,2.51,-2.52,-2.52,-2.75,3.72,3.72,3.73
131.15,6.21,6.21,2.55,2.55,-2.55,-2.56,-2.75,3.66,3.66,3.66
132.46,6.18,6.18,2.58,2.58,-2.58,-2.59,-2.75,3.60,3.60,3.60
133.79,6.15,6.15,2.61,2.61,-2.61,-2.62,-2.74,3.54,3.54,3.54
135.12,6.12,6.12,2.64,2.64,-2.64,-2.65,-2.73,3.48,3.48,3.48
136.48,6.08,6.08,2.66,2.66,-2.66,-2.68,-2.72,3.42,3.42,3.42
137.84,6.05,6.05,2.69,2.69,-2.69,-2.71,-2.71,3.36,3.36,3.36
139.22,6.01,6.01,2.71,2.71,-2.71,-2.74,-2.69,3.30,3.30,3.30
140.61,5.98,5.98,2.73,2.73,-2.73,-2.76,-2.67,3.25,3.24,3.25
142.02,5.94,5.94,2.75,2.75,-2.76,-2.79,-2.66,3.19,3.19,3.19
143.44,5.91,5.91,2.77,2.77,-2.78,-2.81,-2.63,3.14,3.14,3.14
144.87,5.88,5.88,2.80,2.79,-2.79,-2.83,-2.61,3.09,3.08,3.08
146.32,5.84,5.85,2.81,2.81,-2.81,-2.85,-2.59,3.03,3.03,3.03
147.78,5.81,5.81,2.83,2.83,-2.83,-2.87,-2.57,2.98,2.98,2.98
149.26,5.77,5.77,2.84,2.84,-2.84,-2.89,-2.55,2.93,2.93,2.93
150.75,5.73,5.73,2.85,2.85,-2.85,-2.90,-2.52,2.88,2.88,2.88
152.26,5.69,5.69,2.86,2.86,-2.87,-2.91,-2.50,2.83,2.83,2.83
153.78,5.65,5.65,2.87,2.87,-2.87,-2.93,-2.48,2.78,2.78,2.78
155.32,5.62,5.62,2.89,2.88,-2.88,-2.94,-2.46,2.74,2.74,2.74
156.88,5.58,5.58,2.89,2.89,-2.89,-2.95,-2.44,2.70,2.69,2.69
158.44,5.54,5.54,2.89,2.89,-2.89,-2.95,-2.42,2.65,2.65,2.65
160.03,5.49,5.49,2.89,2.89,-2.89,-2.96,-2.40,2.60,2.60,2.60
161.63,5.45,5.45,2.90,2.89,-2.89,-2.96,-2.38,2.56,2.55,2.55
163.24,5.40,5.40,2.89,2.89,-2.90,-2.97,-2.37,2.51,2.51,2.51
164.88,5.36,5.36,2.89,2.89,-2.89,-2.97,-2.35,2.47,2.47,2.47
166.53,5.32,5.32,2.89,2.89,-2.89,-2.97,-2.34,2.43,2.43,2.43
168.19,5.28,5.28,2.89,2.89,-2.89,-2.97,-2.33,2.39,2.39,2.39
169.87,5.24,5.24,2.89,2.89,-2.89,-2.96,-2.32,2.35,2.35,2.35
171.57,5.21,5.21,2.89,2.89,-2.89,-2.96,-2.32,2.32,2.32,2.32
173.29,5.17,5.17,2.89,2.89,-2.89,-2.95,-2.31,2.28,2.28,2.28
175.02,5.13,5.13,2.88,2.88,-2.88,-2.94,-2.31,2.25,2.25,2.25
176.77,5.09,5.09,2.88,2.88,-2.88,-2.93,-2.30,2.22,2.22,2.21
178.54,5.05,5.05,2.87,2.87,-2.87,-2.92,-2.31,2.18,2.18,2.18
180.32,5.01,5.01,2.86,2.86,-2.86,-2.91,-2.31,2.15,2.15,2.15
182.13,4.96,4.96,2.84,2.85,-2.85,-2.89,-2.31,2.12,2.12,2.12
183.95,4.92,4.92,2.83,2.83,-2.83,-2.88,-2.32,2.09,2.08,2.09
185.79,4.87,4.88,2.81,2.82,-2.82,-2.86,-2.32,2.05,2.06,2.06
187.65,4.83,4.83,2.80,2.80,-2.81,-2.84,-2.33,2.03,2.03,2.03
189.52,4.80,4.79,2.80,2.79,-2.79,-2.82,-2.35,2.01,2.01,2.00
191.42,4.75,4.75,2.77,2.78,-2.77,-2.80,-2.36,1.98,1.98,1.98
193.33,4.71,4.71,2.76,2.76,-2.76,-2.78,-2.37,1.96,1.96,1.95
195.27,4.66,4.66,2.74,2.74,-2.74,-2.76,-2.39,1.92,1.93,1.93
197.22,4.62,4.62,2.72,2.72,-2.72,-2.74,-2.40,1.90,1.90,1.90
199.19,4.57,4.57,2.69,2.69,-2.70,-2.71,-2.42,1.87,1.88,1.88
201.18,4.53,4.53,2.68,2.67,-2.68,-2.69,-2.44,1.86,1.85,1.86
203.19,4.48,4.48,2.65,2.65,-2.65,-2.66,-2.46,1.83,1.83,1.83
205.23,4.44,4.44,2.63,2.63,-2.63,-2.63,-2.48,1.81,1.81,1.81
207.28,4.40,4.40,2.61,2.61,-2.60,-2.60,-2.50,1.80,1.79,1.79
209.35,4.35,4.35,2.58,2.58,-2.58,-2.57,-2.52,1.77,1.77,1.77
211.44,4.30,4.30,2.55,2.55,-2.55,-2.54,-2.54,1.75,1.75,1.75
213.56,4.25,4.25,2.52,2.52,-2.52,-2.51,-2.56,1.73,1.73,1.73
215.69,4.21,4.21,2.50,2.49,-2.49,-2.48,-2.58,1.72,1.71,1.71
217.85,4.16,4.16,2.46,2.46,-2.46,-2.45,-2.60,1.70,1.70,1.70
220.03,4.11,4.11,2.43,2.43,-2.43,-2.41,-2.62,1.68,1.68,1.68
222.23,4.06,4.06,2.40,2.40,-2.40,-2.38,-2.63,1.66,1.66,1.66
224.45,4.02,4.02,2.37,2.37,-2.37,-2.34,-2.65,1.65,1.65,1.65
226.70,3.97,3.97,2.34,2.34,-2.34,-2.31,-2.66,1.63,1.63,1.63
228.96,3.93,3.93,2.31,2.31,-2.31,-2.27,-2.67,1.62,1.62,1.62
231.25,3.88,3.88,2.28,2.28,-2.28,-2.24,-2.68,1.60,1.60,1.60
233.57,3.83,3.83,2.24,2.25,-2.25,-2.20,-2.68,1.58,1.58,1.59
235.90,3.78,3.78,2.22,2.22,-2.22,-2.16,-2.69,1.56,1.57,1.56
238.26,3.74,3.74,2.19,2.18,-2.19,-2.13,-2.68,1.56,1.55,1.55
240.64,3.69,3.69,2.15,2.15,-2.15,-2.09,-2.68,1.54,1.54,1.54
243.05,3.64,3.65,2.11,2.12,-2.12,-2.05,-2.67,1.52,1.53,1.53
245.48,3.60,3.60,2.09,2.08,-2.08,-2.01,-2.66,1.52,1.52,1.52
247.93,3.55,3.55,2.05,2.05,-2.05,-1.97,-2.64,1.51,1.51,1.50
250.41,3.50,3.50,2.01,2.01,-2.01,-1.93,-2.62,1.49,1.49,1.49
252.92,3.45,3.45,1.97,1.97,-1.97,-1.90,-2.59,1.48,1.48,1.48
255.45,3.40,3.40,1.93,1.93,-1.93,-1.86,-2.56,1.47,1.47,1.47
258.00,3.35,3.35,1.89,1.89,-1.89,-1.82,-2.53,1.46,1.46,1.46
260.58,3.31,3.31,1.86,1.86,-1.85,-1.78,-2.49,1.46,1.45,1.45
263.19,3.26,3.26,1.82,1.82,-1.82,-1.74,-2.45,1.44,1.44,1.44
265.82,3.21,3.21,1.78,1.78,-1.78,-1.70,-2.41,1.43,1.43,1.43
268.48,3.16,3.16,1.74,1.74,-1.74,-1.66,-2.36,1.42,1.42,1.43
271.16,3.12,3.12,1.70,1.70,-1.70,-1.62,-2.30,1.42,1.42,1.42
273.87,3.07,3.07,1.66,1.66,-1.66,-1.58,-2.25,1.41,1.41,1.41
276.61,3.02,3.02,1.62,1.62,-1.62,-1.53,-2.19,1.40,1.40,1.40
279.38,2.97,2.97,1.58,1.58,-1.57,-1.49,-2.13,1.40,1.40,1.40
282.17,2.92,2.92,1.53,1.53,-1.53,-1.45,-2.06,1.39,1.40,1.39
284.99,2.88,2.87,1.49,1.48,-1.48,-1.41,-2.00,1.40,1.39,1.39
287.84,2.82,2.82,1.43,1.43,-1.43,-1.37,-1.93,1.39,1.39,1.39
290.72,2.77,2.77,1.38,1.38,-1.39,-1.33,-1.86,1.38,1.38,1.39
293.63,2.72,2.72,1.34,1.33,-1.34,-1.29,-1.79,1.38,1.38,1.38
296.57,2.67,2.67,1.29,1.29,-1.29,-1.25,-1.72,1.38,1.38,1.39
299.53,2.63,2.63,1.24,1.24,-1.24,-1.21,-1.64,1.39,1.38,1.39
302.53,2.58,2.58,1.20,1.20,-1.20,-1.16,-1.57,1.39,1.39,1.38
305.55,2.54,2.54,1.15,1.15,-1.15,-1.12,-1.49,1.39,1.39,1.39
308.61,2.49,2.49,1.11,1.10,-1.10,-1.08,-1.42,1.39,1.39,1.38
311.69,2.44,2.44,1.05,1.05,-1.05,-1.04,-1.34,1.39,1.39,1.39
314.81,2.39,2.39,1.01,1.00,-1.00,-1.00,-1.27,1.39,1.39,1.38
317.96,2.34,2.34,0.95,0.95,-0.95,-0.96,-1.19,1.39,1.39,1.39
321.14,2.29,2.29,0.91,0.90,-0.90,-0.92,-1.11,1.39,1.39,1.39
324.35,2.24,2.24,0.85,0.85,-0.85,-0.87,-1.04,1.39,1.39,1.39
327.59,2.19,2.19,0.79,0.80,-0.80,-0.83,-0.96,1.39,1.39,1.40
330.87,2.15,2.15,0.76,0.75,-0.76,-0.79,-0.88,1.40,1.39,1.39
334.18,2.10,2.10,0.70,0.71,-0.71,-0.75,-0.81,1.39,1.40,1.40
337.52,2.06,2.06,0.67,0.66,-0.66,-0.70,-0.73,1.40,1.40,1.40
340.90,2.01,2.01,0.61,0.61,-0.61,-0.66,-0.65,1.40,1.40,1.40
344.30,1.97,1.97,0.56,0.56,-0.56,-0.62,-0.58,1.41,1.41,1.41
347.75,1.92,1.92,0.51,0.51,-0.51,-0.58,-0.50,1.41,1.41,1.42
351.23,1.88,1.88,0.47,0.46,-0.46,-0.53,-0.43,1.42,1.42,1.41
354.74,1.83,1.83,0.40,0.41,-0.41,-0.49,-0.35,1.42,1.42,1.43
358.28,1.78,1.78,0.36,0.36,-0.36,-0.45,-0.28,1.42,1.43,1.43
361.87,1.74,1.74,0.31,0.31,-0.31,-0.40,-0.21,1.44,1.43,1.43
365.49,1.69,1.70,0.25,0.26,-0.25,-0.36,-0.13,1.44,1.44,1.44
369.14,1.65,1.65,0.21,0.20,-0.20,-0.32,-0.06,1.45,1.45,1.44
372.83,1.60,1.60,0.15,0.15,-0.15,-0.27,0.02,1.46,1.45,1.46
376.56,1.54,1.54,0.09,0.09,-0.09,-0.23,0.09,1.45,1.45,1.45
380.33,1.49,1.49,0.03,0.03,-0.04,-0.18,0.16,1.45,1.45,1.46
384.13,1.44,1.44,-0.02,-0.02,0.01,-0.14,0.23,1.46,1.46,1.46
387.97,1.40,1.40,-0.06,-0.07,0.07,-0.09,0.30,1.47,1.47,1.47
391.85,1.36,1.36,-0.12,-0.12,0.12,-0.04,0.38,1.48,1.48,1.48
395.77,1.31,1.31,-0.17,-0.17,0.17,0.00,0.45,1.48,1.49,1.48
399.73,1.27,1.27,-0.22,-0.22,0.22,0.05,0.52,1.49,1.49,1.49
403.72,1.22,1.22,-0.28,-0.27,0.27,0.10,0.59,1.49,1.50,1.50
407.76,1.18,1.18,-0.31,-0.32,0.32,0.14,0.66,1.50,1.50,1.50
411.84,1.13,1.13,-0.37,-0.37,0.37,0.19,0.72,1.51,1.50,1.50
415.96,1.08,1.08,-0.43,-0.43,0.43,0.24,0.79,1.51,1.51,1.51
420.12,1.03,1.03,-0.48,-0.48,0.48,0.29,0.86,1.51,1.51,1.51
424.32,0.99,0.99,-0.53,-0.53,0.53,0.34,0.92,1.52,1.52,1.52
428.56,0.94,0.94,-0.59,-0.58,0.58,0.39,0.99,1.52,1.53,1.53
432.85,0.90,0.90,-0.64,-0.64,0.64,0.44,1.05,1.54,1.53,1.54
437.18,0.85,0.85,-0.68,-0.69,0.69,0.49,1.11,1.54,1.54,1.54
441.55,0.80,0.80,-0.74,-0.74,0.74,0.54,1.17,1.55,1.55,1.54
445.96,0.76,0.76,-0.79,-0.80,0.80,0.60,1.23,1.56,1.56,1.55
450.42,0.71,0.71,-0.86,-0.86,0.85,0.65,1.29,1.56,1.57,1.57
454.93,0.67,0.67,-0.91,-0.91,0.91,0.70,1.34,1.58,1.58,1.58
459.48,0.62,0.62,-0.97,-0.96,0.96,0.76,1.40,1.58,1.59,1.59
464.07,0.58,0.58,-1.01,-1.01,1.01,0.81,1.45,1.60,1.59,1.59
468.71,0.53,0.53,-1.07,-1.07,1.07,0.87,1.49,1.60,1.60,1.60
473.40,0.48,0.49,-1.12,-1.12,1.12,0.92,1.54,1.60,1.60,1.61
478.13,0.44,0.44,-1.17,-1.17,1.17,0.98,1.58,1.61,1.61,1.61
482.91,0.40,0.40,-1.22,-1.22,1.22,1.04,1.62,1.62,1.62,1.62
487.74,0.36,0.36,-1.27,-1.27,1.27,1.10,1.66,1.63,1.63,1.63
492.62,0.32,0.32,-1.32,-1.32,1.32,1.16,1.69,1.65,1.65,1.64
497.55,0.28,0.28,-1.37,-1.37,1.38,1.22,1.72,1.66,1.66,1.65
502.52,0.24,0.24,-1.42,-1.43,1.43,1.28,1.75,1.67,1.67,1.66
507.55,0.19,0.19,-1.49,-1.48,1.48,1.34,1.77,1.67,1.67,1.68
512.62,0.15,0.15,-1.54,-1.54,1.53,1.40,1.79,1.68,1.68,1.69
517.75,0.11,0.11,-1.59,-1.59,1.58,1.46,1.81,1.69,1.69,1.70
522.93,0.07,0.07,-1.64,-1.64,1.63,1.53,1.83,1.70,1.70,1.71
528.16,0.03,0.03,-1.68,-1.68,1.68,1.59,1.84,1.72,1.72,1.72
533.44,-0.01,-0.01,-1.73,-1.73,1.74,1.66,1.86,1.73,1.73,1.73
538.77,-0.05,-0.05,-1.77,-1.78,1.79,1.72,1.87,1.74,1.74,1.72
544.16,-0.09,-0.09,-1.83,-1.83,1.84,1.79,1.87,1.75,1.75,1.74
549.60,-0.13,-0.13,-1.88,-1.89,1.88,1.86,1.88,1.76,1.76,1.75
555.10,-0.17,-0.17,-1.94,-1.94,1.93,1.92,1.88,1.77,1.77,1.77
560.65,-0.21,-0.21,-1.99,-1.99,1.98,1.99,1.88,1.77,1.78,1.78
