frequency,raw,smoothed,error,error_smoothed,equalization,parametric_eq,fixed_band_eq,equalized_raw,equalized_smoothed,target
20.00,-2.88,-2.88,-10.28,-10.29,6.00,6.09,2.69,3.12,3.12,7.41
20.20,-2.87,-2.85,-10.27,-10.26,6.00,6.09,2.76,3.13,3.15,7.40
20.40,-2.81,-2.82,-10.22,-10.22,6.00,6.08,2.84,3.19,3.18,7.40
20.61,-2.78,-2.78,-10.18,-10.18,6.00,6.08,2.92,3.22,3.22,7.40
20.81,-2.72,-2.72,-10.13,-10.12,6.00,6.08,3.01,3.28,3.28,7.40
21.02,-2.67,-2.66,-10.07,-10.06,6.00,6.08,3.09,3.33,3.34,7.40
21.23,-2.60,-2.60,-10.00,-10.00,6.00,6.08,3.18,3.40,3.40,7.40
21.44,-2.53,-2.54,-9.93,-9.94,6.00,6.08,3.27,3.47,3.46,7.40
21.66,-2.50,-2.49,-9.89,-9.89,6.00,6.07,3.36,3.50,3.51,7.40
21.87,-2.44,-2.44,-9.84,-9.84,6.00,6.07,3.46,3.56,3.56,7.40
22.09,-2.39,-2.40,-9.79,-9.79,6.00,6.07,3.56,3.61,3.60,7.40
22.31,-2.34,-2.34,-9.74,-9.74,6.00,6.07,3.66,3.66,3.66,7.40
22.54,-2.29,-2.29,-9.68,-9.68,6.00,6.07,3.76,3.71,3.71,7.39
22.76,-2.24,-2.24,-9.63,-9.63,6.00,6.06,3.87,3.76,3.76,7.39
22.99,-2.20,-2.19,-9.59,-9.58,6.00,6.06,3.98,3.80,3.81,7.39
23.22,-2.14,-2.14,-9.53,-9.53,6.00,6.06,4.09,3.86,3.86,7.39
23.45,-2.08,-2.09,-9.46,-9.48,6.00,6.06,4.21,3.92,3.91,7.39
23.69,-2.05,-2.03,-9.43,-9.42,6.00,6.06,4.32,3.95,3.97,7.39
23.92,-1.98,-1.99,-9.37,-9.37,6.00,6.05,4.44,4.02,4.01,7.39
24.16,-1.93,-1.94,-9.32,-9.32,6.00,6.05,4.56,4.07,4.06,7.38
24.40,-1.88,-1.89,-9.27,-9.27,6.00,6.05,4.69,4.12,4.11,7.38
24.65,-1.85,-1.84,-9.23,-9.22,6.00,6.05,4.81,4.15,4.16,7.38
24.89,-1.79,-1.79,-9.17,-9.18,6.00,6.04,4.94,4.21,4.21,7.38
25.14,-1.74,-1.75,-9.12,-9.13,6.00,6.04,5.07,4.26,4.25,7.38
25.39,-1.70,-1.70,-9.08,-9.08,6.00,6.04,5.20,4.30,4.30,7.38
25.65,-1.66,-1.66,-9.03,-9.03,6.00,6.04,5.33,4.34,4.34,7.38
25.91,-1.61,-1.61,-8.98,-8.98,6.00,6.03,5.46,4.39,4.39,7.37
26.16,-1.56,-1.56,-8.94,-8.94,6.00,6.03,5.59,4.44,4.44,7.37
26.43,-1.52,-1.52,-8.89,-8.89,6.00,6.03,5.72,4.48,4.48,7.37
26.69,-1.49,-1.48,-8.85,-8.84,6.00,6.03,5.85,4.51,4.52,7.37
26.96,-1.43,-1.43,-8.79,-8.80,6.00,6.02,5.98,4.57,4.57,7.36
27.23,-1.40,-1.39,-8.76,-8.76,6.00,6.02,6.10,4.60,4.61,7.36
27.50,-1.35,-1.35,-8.71,-8.71,6.00,6.02,6.23,4.65,4.65,7.36
27.77,-1.31,-1.31,-8.67,-8.67,6.00,6.02,6.35,4.69,4.69,7.36
28.05,-1.26,-1.26,-8.61,-8.62,6.00,6.01,6.46,4.74,4.74,7.36
28.33,-1.22,-1.22,-8.58,-8.57,6.00,6.01,6.57,4.78,4.78,7.35
28.62,-1.18,-1.18,-8.53,-8.53,6.00,6.01,6.68,4.82,4.82,7.35
28.90,-1.14,-1.14,-8.48,-8.48,6.00,6.01,6.78,4.86,4.86,7.35
29.19,-1.10,-1.10,-8.44,-8.44,6.00,6.00,6.87,4.90,4.90,7.34
29.48,-1.06,-1.06,-8.40,-8.40,6.00,6.00,6.95,4.94,4.94,7.34
29.78,-1.03,-1.02,-8.36,-8.35,6.00,6.00,7.03,4.97,4.98,7.34
30.08,-0.97,-0.98,-8.30,-8.31,6.00,5.99,7.10,5.03,5.02,7.33
30.38,-0.94,-0.94,-8.27,-8.27,6.00,5.99,7.16,5.06,5.06,7.33
30.68,-0.91,-0.90,-8.23,-8.22,6.00,5.99,7.20,5.09,5.10,7.33
30.99,-0.86,-0.86,-8.18,-8.19,6.00,5.98,7.24,5.14,5.14,7.32
31.30,-0.83,-0.83,-8.15,-8.15,6.00,5.98,7.26,5.17,5.17,7.32
31.61,-0.80,-0.79,-8.11,-8.10,6.00,5.98,7.28,5.20,5.21,7.32
31.93,-0.75,-0.75,-8.06,-8.06,6.00,5.98,7.29,5.25,5.25,7.31
32.24,-0.70,-0.71,-8.01,-8.02,6.00,5.97,7.29,5.30,5.29,7.31
32.57,-0.68,-0.67,-7.98,-7.98,6.00,5.97,7.27,5.32,5.33,7.30
32.89,-0.65,-0.64,-7.94,-7.94,6.00,5.97,7.25,5.35,5.36,7.30
33.22,-0.61,-0.60,-7.90,-7.90,6.00,5.96,7.22,5.39,5.40,7.29
33.55,-0.56,-0.57,-7.85,-7.86,6.00,5.96,7.18,5.44,5.43,7.29
33.89,-0.53,-0.53,-7.81,-7.81,6.00,5.96,7.14,5.47,5.47,7.28
34.23,-0.50,-0.49,-7.78,-7.77,6.00,5.96,7.09,5.50,5.51,7.28
34.57,-0.47,-0.46,-7.74,-7.74,6.00,5.95,7.03,5.53,5.54,7.27
34.92,-0.44,-0.44,-7.70,-7.71,6.00,5.95,6.96,5.56,5.56,7.27
35.27,-0.41,-0.40,-7.67,-7.67,6.00,5.95,6.90,5.59,5.60,7.26
35.62,-0.38,-0.37,-7.63,-7.63,6.00,5.95,6.83,5.62,5.63,7.26
35.97,-0.33,-0.34,-7.58,-7.59,6.00,5.94,6.75,5.67,5.66,7.25
36.33,-0.31,-0.30,-7.55,-7.55,6.00,5.94,6.68,5.69,5.70,7.24
36.70,-0.28,-0.27,-7.51,-7.51,6.00,5.94,6.61,5.72,5.73,7.24
37.06,-0.24,-0.24,-7.46,-7.47,6.00,5.94,6.53,5.76,5.76,7.23
37.43,-0.21,-0.21,-7.44,-7.43,6.00,5.93,6.45,5.79,5.79,7.22
37.81,-0.19,-0.18,-7.40,-7.40,6.00,5.93,6.38,5.81,5.82,7.21
38.19,-0.15,-0.15,-7.35,-7.36,6.00,5.93,6.31,5.85,5.85,7.21
38.57,-0.13,-0.12,-7.32,-7.32,6.00,5.93,6.23,5.87,5.88,7.20
38.95,-0.09,-0.09,-7.29,-7.28,6.00,5.93,6.16,5.91,5.91,7.19
39.34,-0.06,-0.06,-7.24,-7.24,6.00,5.93,6.10,5.94,5.94,7.18
39.74,-0.03,-0.03,-7.20,-7.20,6.00,5.93,6.03,5.97,5.97,7.17
40.14,-0.01,-0.00,-7.17,-7.16,6.00,5.93,5.97,5.99,6.00,7.16
40.54,0.03,0.03,-7.12,-7.12,6.00,5.93,5.91,6.03,6.03,7.15
40.94,0.04,0.05,-7.10,-7.09,6.00,5.93,5.85,6.04,6.05,7.14
41.35,0.09,0.08,-7.04,-7.05,6.00,5.93,5.80,6.09,6.08,7.13
41.76,0.10,0.10,-7.03,-7.02,6.00,5.93,5.76,6.10,6.10,7.12
42.18,0.13,0.13,-6.98,-6.98,6.00,5.93,5.71,6.13,6.13,7.11
42.60,0.15,0.15,-6.95,-6.95,6.00,5.94,5.67,6.15,6.15,7.10
43.03,0.18,0.18,-6.90,-6.91,6.00,5.94,5.64,6.18,6.18,7.09
43.46,0.18,0.20,-6.89,-6.88,6.00,5.94,5.61,6.18,6.20,7.07
43.90,0.23,0.23,-6.83,-6.84,6.00,5.95,5.58,6.23,6.23,7.06
44.33,0.24,0.25,-6.80,-6.80,6.00,5.95,5.56,6.24,6.25,7.05
44.78,0.27,0.27,-6.76,-6.76,6.00,5.95,5.54,6.27,6.27,7.03
45.23,0.28,0.29,-6.74,-6.73,6.00,5.96,5.53,6.28,6.29,7.02
45.68,0.32,0.32,-6.68,-6.68,6.00,5.97,5.52,6.32,6.32,7.01
46.13,0.34,0.34,-6.65,-6.65,6.00,5.97,5.51,6.34,6.34,6.99
46.60,0.37,0.37,-6.60,-6.60,6.00,5.98,5.51,6.37,6.37,6.97
47.06,0.38,0.39,-6.57,-6.57,6.00,5.99,5.51,6.38,6.39,6.96
47.53,0.41,0.41,-6.53,-6.53,6.00,5.99,5.52,6.41,6.41,6.94
48.01,0.42,0.43,-6.50,-6.49,6.00,6.00,5.53,6.42,6.43,6.92
48.49,0.46,0.46,-6.44,-6.45,6.00,6.01,5.54,6.46,6.46,6.90
48.97,0.46,0.48,-6.42,-6.41,6.00,6.01,5.56,6.46,6.48,6.89
49.46,0.51,0.50,-6.35,-6.37,6.00,6.02,5.58,6.51,6.50,6.87
49.96,0.51,0.52,-6.33,-6.33,6.00,6.02,5.60,6.51,6.52,6.85
50.46,0.53,0.53,-6.29,-6.29,6.00,6.03,5.62,6.54,6.54,6.83
50.96,0.55,0.55,-6.25,-6.25,6.00,6.03,5.65,6.56,6.55,6.80
51.47,0.55,0.57,-6.23,-6.21,6.01,6.03,5.68,6.56,6.58,6.78
51.99,0.60,0.59,-6.15,-6.17,6.01,6.03,5.71,6.61,6.60,6.76
52.51,0.60,0.61,-6.13,-6.13,6.01,6.03,5.74,6.61,6.62,6.74
53.03,0.62,0.63,-6.09,-6.08,6.00,6.02,5.78,6.62,6.63,6.71
53.56,0.65,0.65,-6.03,-6.04,5.99,6.01,5.81,6.64,6.63,6.69
54.10,0.65,0.67,-6.01,-5.99,5.97,5.99,5.84,6.62,6.63,6.66
54.64,0.69,0.68,-5.94,-5.95,5.94,5.97,5.87,6.64,6.62,6.63
55.18,0.69,0.70,-5.91,-5.91,5.91,5.95,5.90,6.60,6.61,6.61
55.74,0.70,0.72,-5.87,-5.86,5.87,5.92,5.93,6.57,6.59,6.58
56.29,0.74,0.73,-5.80,-5.82,5.83,5.89,5.95,6.57,6.55,6.55
56.86,0.74,0.75,-5.77,-5.77,5.78,5.85,5.98,6.52,6.53,6.52
57.42,0.75,0.76,-5.73,-5.72,5.73,5.81,5.99,6.48,6.49,6.49
58.00,0.78,0.77,-5.67,-5.68,5.68,5.77,6.01,6.46,6.45,6.45
58.58,0.78,0.79,-5.64,-5.63,5.63,5.72,6.02,6.41,6.42,6.42
59.16,0.80,0.81,-5.58,-5.58,5.58,5.66,6.02,6.38,6.39,6.39
59.76,0.83,0.82,-5.52,-5.53,5.53,5.61,6.02,6.36,6.35,6.35
60.35,0.83,0.84,-5.48,-5.48,5.48,5.55,6.01,6.31,6.32,6.32
60.96,0.84,0.86,-5.43,-5.42,5.42,5.49,5.99,6.27,6.28,6.28
61.57,0.88,0.87,-5.36,-5.37,5.37,5.42,5.97,6.25,6.24,6.24
62.18,0.88,0.89,-5.32,-5.31,5.32,5.36,5.94,6.20,6.20,6.20
62.80,0.89,0.91,-5.27,-5.26,5.26,5.29,5.90,6.16,6.17,6.16
63.43,0.92,0.91,-5.20,-5.21,5.21,5.22,5.86,6.13,6.11,6.12
64.07,0.92,0.93,-5.15,-5.15,5.15,5.16,5.81,6.07,6.08,6.08
64.71,0.92,0.94,-5.11,-5.09,5.09,5.09,5.75,6.02,6.04,6.03
65.35,0.97,0.96,-5.01,-5.03,5.03,5.02,5.68,6.01,5.99,5.99
66.01,0.97,0.97,-4.97,-4.98,4.97,4.95,5.61,5.95,5.94,5.94
66.67,0.97,0.98,-4.92,-4.91,4.92,4.87,5.53,5.89,5.90,5.90
67.33,0.97,0.99,-4.87,-4.86,4.86,4.80,5.44,5.83,5.85,5.85
68.01,1.02,1.01,-4.78,-4.79,4.79,4.73,5.35,5.82,5.80,5.80
68.69,1.02,1.02,-4.72,-4.73,4.73,4.66,5.25,5.76,5.75,5.75
69.37,1.02,1.03,-4.67,-4.67,4.67,4.59,5.15,5.69,5.70,5.70
70.07,1.02,1.04,-4.62,-4.61,4.61,4.52,5.05,5.63,5.64,5.65
70.77,1.06,1.05,-4.53,-4.54,4.54,4.45,4.94,5.60,5.59,5.59
71.48,1.06,1.06,-4.47,-4.48,4.47,4.38,4.83,5.54,5.53,5.54
72.19,1.06,1.07,-4.42,-4.41,4.41,4.30,4.71,5.47,5.48,5.48
72.91,1.07,1.08,-4.35,-4.34,4.34,4.23,4.60,5.41,5.42,5.42
73.64,1.11,1.10,-4.25,-4.26,4.27,4.16,4.48,5.38,5.37,5.36
74.38,1.11,1.11,-4.19,-4.20,4.19,4.09,4.36,5.31,5.30,5.31
75.12,1.11,1.12,-4.13,-4.12,4.12,4.02,4.24,5.24,5.24,5.24
75.87,1.11,1.13,-4.07,-4.05,4.05,3.94,4.12,5.16,5.18,5.18
76.63,1.16,1.15,-3.95,-3.97,3.97,3.87,4.00,5.14,5.12,5.12
77.40,1.16,1.16,-3.89,-3.89,3.90,3.80,3.88,5.06,5.06,5.06
78.17,1.16,1.17,-3.83,-3.82,3.83,3.72,3.76,4.99,4.99,4.99
78.95,1.16,1.17,-3.76,-3.76,3.75,3.65,3.65,4.92,4.92,4.92
79.74,1.16,1.18,-3.69,-3.68,3.68,3.58,3.53,4.84,4.85,4.86
80.54,1.20,1.19,-3.58,-3.60,3.60,3.50,3.41,4.80,4.79,4.79
81.35,1.20,1.20,-3.51,-3.52,3.52,3.42,3.30,4.72,4.72,4.72
82.16,1.20,1.20,-3.44,-3.44,3.44,3.35,3.19,4.64,4.64,4.65
82.98,1.20,1.21,-3.37,-3.37,3.36,3.27,3.07,4.56,4.57,4.58
83.81,1.20,1.22,-3.30,-3.28,3.28,3.20,2.96,4.48,4.50,4.50
84.65,1.25,1.24,-3.18,-3.19,3.20,3.12,2.86,4.45,4.44,4.43
85.50,1.25,1.25,-3.10,-3.10,3.12,3.04,2.75,4.37,4.37,4.36
86.35,1.25,1.26,-3.03,-3.02,3.03,2.96,2.65,4.29,4.29,4.28
87.22,1.25,1.25,-2.95,-2.95,2.95,2.88,2.54,4.20,4.20,4.20
88.09,1.25,1.25,-2.87,-2.87,2.86,2.80,2.44,4.11,4.11,4.13
88.97,1.25,1.27,-2.80,-2.78,2.77,2.72,2.34,4.03,4.04,4.05
89.86,1.28,1.28,-2.69,-2.69,2.69,2.64,2.24,3.98,3.97,3.97
90.76,1.30,1.30,-2.59,-2.60,2.61,2.56,2.15,3.91,3.90,3.89
91.66,1.30,1.31,-2.51,-2.51,2.52,2.48,2.05,3.82,3.82,3.81
92.58,1.30,1.31,-2.43,-2.43,2.43,2.40,1.96,3.73,3.73,3.73
93.51,1.30,1.30,-2.35,-2.35,2.34,2.32,1.87,3.64,3.64,3.65
94.44,1.30,1.31,-2.26,-2.26,2.25,2.24,1.78,3.55,3.56,3.57
95.39,1.31,1.32,-2.17,-2.17,2.16,2.16,1.70,3.48,3.48,3.49
96.34,1.34,1.33,-2.06,-2.07,2.07,2.07,1.61,3.42,3.41,3.40
97.30,1.34,1.34,-1.98,-1.98,1.99,1.99,1.53,3.33,3.33,3.32
98.28,1.34,1.35,-1.89,-1.89,1.90,1.91,1.44,3.25,3.25,3.24
99.26,1.34,1.34,-1.81,-1.81,1.81,1.82,1.36,3.16,3.16,3.15
100.25,1.34,1.34,-1.73,-1.73,1.72,1.74,1.28,3.07,3.07,3.07
101.25,1.34,1.34,-1.64,-1.64,1.63,1.65,1.21,2.98,2.98,2.99
102.27,1.34,1.34,-1.56,-1.56,1.54,1.57,1.13,2.89,2.89,2.90
103.29,1.34,1.36,-1.47,-1.46,1.45,1.49,1.05,2.80,2.81,2.82
104.32,1.37,1.37,-1.36,-1.36,1.36,1.40,0.98,2.74,2.73,2.73
105.37,1.39,1.39,-1.25,-1.26,1.27,1.32,0.91,2.66,2.66,2.65
106.42,1.39,1.40,-1.17,-1.17,1.18,1.23,0.84,2.57,2.58,2.56
107.48,1.39,1.40,-1.08,-1.08,1.09,1.15,0.77,2.48,2.49,2.48
108.56,1.39,1.39,-1.00,-1.00,1.00,1.06,0.70,2.40,2.40,2.39
109.64,1.39,1.39,-0.92,-0.92,0.92,0.98,0.63,2.31,2.31,2.31
110.74,1.39,1.39,-0.83,-0.83,0.83,0.90,0.57,2.23,2.23,2.23
111.85,1.39,1.39,-0.75,-0.75,0.75,0.81,0.50,2.14,2.14,2.14
112.97,1.39,1.39,-0.66,-0.67,0.66,0.73,0.44,2.05,2.05,2.06
114.10,1.39,1.39,-0.58,-0.58,0.57,0.65,0.38,1.97,1.96,1.98
115.24,1.39,1.40,-0.50,-0.49,0.48,0.56,0.32,1.88,1.88,1.89
116.39,1.41,1.42,-0.40,-0.39,0.39,0.48,0.26,1.81,1.81,1.81
117.55,1.44,1.43,-0.28,-0.30,0.30,0.40,0.21,1.75,1.74,1.73
118.73,1.44,1.45,-0.20,-0.20,0.21,0.32,0.15,1.66,1.66,1.65
119.92,1.44,1.45,-0.12,-0.12,0.13,0.24,0.10,1.57,1.58,1.57
121.12,1.44,1.44,-0.04,-0.04,0.04,0.16,0.05,1.49,1.49,1.49
122.33,1.44,1.44,0.04,0.04,-0.04,0.08,-0.00,1.41,1.41,1.41
123.55,1.44,1.44,0.12,0.12,-0.12,-0.00,-0.05,1.33,1.33,1.33
124.79,1.44,1.44,0.19,0.19,-0.20,-0.08,-0.10,1.25,1.25,1.25
126.03,1.44,1.44,0.27,0.27,-0.27,-0.16,-0.15,1.17,1.17,1.17
127.29,1.44,1.44,0.35,0.35,-0.35,-0.24,-0.19,1.10,1.10,1.10
128.57,1.44,1.44,0.42,0.42,-0.42,-0.31,-0.24,1.02,1.02,1.02
129.85,1.44,1.44,0.50,0.50,-0.50,-0.39,-0.28,0.95,0.95,0.95
131.15,1.44,1.44,0.57,0.57,-0.57,-0.46,-0.32,0.87,0.87,0.87
132.46,1.44,1.44,0.64,0.64,-0.64,-0.54,-0.36,0.80,0.80,0.80
133.79,1.44,1.44,0.72,0.72,-0.72,-0.61,-0.41,0.73,0.73,0.73
135.12,1.44,1.44,0.79,0.79,-0.79,-0.68,-0.44,0.66,0.66,0.66
136.48,1.44,1.44,0.86,0.86,-0.86,-0.75,-0.48,0.59,0.59,0.59
137.84,1.44,1.44,0.93,0.93,-0.93,-0.82,-0.52,0.52,0.52,0.52
139.22,1.44,1.44,0.99,0.99,-0.99,-0.89,-0.56,0.45,0.45,0.45
140.61,1.44,1.44,1.06,1.06,-1.06,-0.96,-0.60,0.39,0.39,0.39
142.02,1.44,1.44,1.13,1.13,-1.13,-1.03,-0.63,0.32,0.32,0.32
143.44,1.44,1.44,1.19,1.19,-1.19,-1.10,-0.67,0.26,0.26,0.26
144.87,1.44,1.44,1.25,1.25,-1.25,-1.16,-0.71,0.19,0.19,0.19
146.32,1.44,1.44,1.32,1.32,-1.32,-1.23,-0.74,0.13,0.13,0.13
147.78,1.44,1.44,1.38,1.38,-1.38,-1.29,-0.78,0.07,0.07,0.07
149.26,1.44,1.44,1.44,1.44,-1.44,-1.35,-0.82,0.01,0.01,0.01
150.75,1.44,1.44,1.50,1.50,-1.49,-1.41,-0.86,-0.05,-0.05,-0.05
152.26,1.44,1.44,1.55,1.55,-1.55,-1.47,-0.89,-0.11,-0.11,-0.11
153.78,1.44,1.44,1.61,1.61,-1.61,-1.53,-0.93,-0.16,-0.16,-0.16
155.32,1.44,1.44,1.66,1.66,-1.66,-1.59,-0.97,-0.22,-0.22,-0.22
156.88,1.44,1.44,1.72,1.72,-1.72,-1.65,-1.01,-0.28,-0.28,-0.27
158.44,1.44,1.44,1.77,1.77,-1.78,-1.70,-1.05,-0.33,-0.33,-0.33
160.03,1.44,1.44,1.82,1.83,-1.83,-1.76,-1.09,-0.39,-0.39,-0.38
161.63,1.44,1.44,1.88,1.88,-1.88,-1.81,-1.14,-0.44,-0.44,-0.44
163.24,1.44,1.44,1.93,1.93,-1.93,-1.86,-1.18,-0.49,-0.49,-0.49
164.88,1.44,1.44,1.98,1.98,-1.98,-1.91,-1.23,-0.54,-0.54,-0.54
166.53,1.44,1.45,2.03,2.03,-2.02,-1.96,-1.27,-0.58,-0.58,-0.58
168.19,1.44,1.45,2.08,2.08,-2.06,-2.01,-1.32,-0.62,-0.62,-0.63
169.87,1.44,1.43,2.12,2.11,-2.10,-2.06,-1.37,-0.66,-0.67,-0.68
171.57,1.41,1.42,2.13,2.14,-2.14,-2.11,-1.42,-0.73,-0.72,-0.72
173.29,1.39,1.40,2.16,2.16,-2.18,-2.15,-1.47,-0.78,-0.77,-0.76
175.02,1.39,1.39,2.20,2.20,-2.21,-2.20,-1.52,-0.82,-0.82,-0.80
176.77,1.39,1.39,2.24,2.24,-2.24,-2.24,-1.57,-0.85,-0.85,-0.84
178.54,1.39,1.40,2.28,2.28,-2.27,-2.28,-1.63,-0.88,-0.87,-0.88
180.32,1.39,1.39,2.32,2.31,-2.30,-2.32,-1.68,-0.91,-0.91,-0.92
182.13,1.39,1.38,2.35,2.34,-2.33,-2.36,-1.74,-0.94,-0.96,-0.96
183.95,1.34,1.36,2.34,2.36,-2.36,-2.40,-1.80,-1.02,-1.00,-1.00
185.79,1.34,1.35,2.38,2.38,-2.39,-2.44,-1.86,-1.04,-1.04,-1.03
187.65,1.34,1.34,2.41,2.40,-2.41,-2.47,-1.92,-1.06,-1.07,-1.07
189.52,1.33,1.33,2.43,2.43,-2.43,-2.51,-1.98,-1.09,-1.09,-1.10
191.42,1.30,1.31,2.44,2.45,-2.44,-2.54,-2.04,-1.14,-1.13,-1.13
193.33,1.30,1.29,2.47,2.46,-2.45,-2.57,-2.11,-1.15,-1.16,-1.16
195.27,1.26,1.27,2.46,2.47,-2.46,-2.61,-2.17,-1.20,-1.19,-1.19
197.22,1.25,1.25,2.48,2.48,-2.47,-2.64,-2.24,-1.22,-1.22,-1.22
199.19,1.22,1.22,2.48,2.47,-2.48,-2.67,-2.31,-1.25,-1.26,-1.25
201.18,1.20,1.20,2.48,2.48,-2.48,-2.69,-2.37,-1.27,-1.28,-1.28
203.19,1.16,1.17,2.47,2.48,-2.48,-2.72,-2.44,-1.31,-1.30,-1.31
205.23,1.16,1.15,2.50,2.49,-2.48,-2.75,-2.51,-1.31,-1.33,-1.33
207.28,1.11,1.13,2.47,2.48,-2.48,-2.77,-2.58,-1.36,-1.35,-1.36
209.35,1.11,1.10,2.50,2.48,-2.48,-2.79,-2.64,-1.37,-1.38,-1.38
211.44,1.06,1.08,2.47,2.48,-2.49,-2.82,-2.71,-1.43,-1.41,-1.41
213.56,1.06,1.06,2.49,2.49,-2.51,-2.84,-2.78,-1.44,-1.44,-1.43
215.69,1.06,1.06,2.52,2.51,-2.53,-2.86,-2.84,-1.46,-1.47,-1.45
217.85,1.06,1.07,2.54,2.55,-2.55,-2.88,-2.90,-1.49,-1.48,-1.47
220.03,1.09,1.09,2.59,2.59,-2.59,-2.90,-2.97,-1.49,-1.50,-1.50
222.23,1.11,1.11,2.63,2.63,-2.63,-2.91,-3.03,-1.51,-1.51,-1.52
224.45,1.14,1.14,2.68,2.68,-2.67,-2.93,-3.08,-1.53,-1.53,-1.53
226.70,1.16,1.17,2.72,2.72,-2.72,-2.95,-3.14,-1.56,-1.55,-1.55
228.96,1.20,1.19,2.78,2.77,-2.77,-2.96,-3.19,-1.57,-1.58,-1.57
231.25,1.21,1.23,2.80,2.82,-2.82,-2.97,-3.24,-1.60,-1.59,-1.59
233.57,1.25,1.26,2.86,2.87,-2.87,-2.99,-3.28,-1.61,-1.61,-1.61
235.90,1.29,1.28,2.93,2.91,-2.91,-3.00,-3.32,-1.61,-1.63,-1.63
238.26,1.30,1.31,2.95,2.95,-2.95,-3.01,-3.36,-1.64,-1.64,-1.65
240.64,1.30,1.32,2.97,2.99,-2.98,-3.02,-3.39,-1.68,-1.66,-1.67
243.05,1.34,1.33,3.03,3.01,-3.01,-3.02,-3.41,-1.67,-1.68,-1.68
245.48,1.34,1.34,3.04,3.04,-3.04,-3.03,-3.43,-1.69,-1.69,-1.70
247.93,1.34,1.35,3.05,3.06,-3.05,-3.04,-3.45,-1.71,-1.71,-1.71
250.41,1.34,1.35,3.07,3.07,-3.07,-3.04,-3.46,-1.72,-1.72,-1.72
252.92,1.34,1.34,3.08,3.08,-3.08,-3.05,-3.47,-1.73,-1.73,-1.74
255.45,1.34,1.34,3.09,3.09,-3.08,-3.05,-3.47,-1.74,-1.75,-1.75
258.00,1.32,1.33,3.09,3.09,-3.09,-3.05,-3.46,-1.77,-1.76,-1.76
260.58,1.31,1.32,3.09,3.09,-3.10,-3.05,-3.45,-1.78,-1.78,-1.77
263.19,1.30,1.31,3.09,3.09,-3.10,-3.05,-3.44,-1.80,-1.79,-1.78
265.82,1.30,1.30,3.10,3.10,-3.10,-3.05,-3.42,-1.80,-1.80,-1.79
268.48,1.30,1.31,3.11,3.11,-3.11,-3.05,-3.40,-1.80,-1.80,-1.81
271.16,1.30,1.31,3.12,3.12,-3.11,-3.05,-3.37,-1.81,-1.81,-1.82
273.87,1.30,1.29,3.13,3.12,-3.11,-3.05,-3.34,-1.81,-1.82,-1.83
276.61,1.27,1.28,3.11,3.11,-3.11,-3.05,-3.31,-1.84,-1.84,-1.83
279.38,1.25,1.26,3.10,3.11,-3.11,-3.04,-3.27,-1.86,-1.85,-1.84
282.17,1.25,1.25,3.11,3.10,-3.11,-3.04,-3.23,-1.85,-1.85,-1.85
284.99,1.25,1.25,3.11,3.11,-3.10,-3.03,-3.19,-1.85,-1.85,-1.85
287.84,1.25,1.25,3.10,3.10,-3.10,-3.02,-3.15,-1.84,-1.85,-1.85
290.72,1.23,1.23,3.09,3.09,-3.09,-3.02,-3.11,-1.85,-1.86,-1.86
293.63,1.20,1.22,3.07,3.08,-3.08,-3.01,-3.06,-1.88,-1.86,-1.86
296.57,1.20,1.21,3.07,3.07,-3.07,-3.00,-3.02,-1.87,-1.86,-1.86
299.53,1.20,1.20,3.06,3.06,-3.06,-2.99,-2.97,-1.86,-1.87,-1.86
302.53,1.19,1.19,3.06,3.05,-3.05,-2.98,-2.92,-1.86,-1.86,-1.87
305.55,1.16,1.18,3.03,3.04,-3.04,-2.97,-2.88,-1.88,-1.86,-1.86
308.61,1.16,1.17,3.03,3.03,-3.03,-2.96,-2.83,-1.87,-1.87,-1.87
311.69,1.16,1.15,3.03,3.02,-3.02,-2.95,-2.79,-1.86,-1.87,-1.87
314.81,1.13,1.14,3.01,3.01,-3.01,-2.93,-2.74,-1.87,-1.87,-1.87
317.96,1.11,1.13,2.98,3.00,-2.99,-2.92,-2.70,-1.88,-1.87,-1.87
321.14,1.11,1.11,2.99,2.98,-2.98,-2.91,-2.66,-1.87,-1.87,-1.87
324.35,1.11,1.10,2.98,2.96,-2.97,-2.89,-2.61,-1.85,-1.87,-1.87
327.59,1.06,1.09,2.93,2.95,-2.95,-2.88,-2.57,-1.89,-1.87,-1.86
330.87,1.06,1.07,2.93,2.93,-2.94,-2.86,-2.54,-1.87,-1.87,-1.87
334.18,1.06,1.05,2.93,2.91,-2.92,-2.84,-2.50,-1.85,-1.87,-1.86
337.52,1.02,1.04,2.89,2.91,-2.90,-2.83,-2.46,-1.88,-1.86,-1.87
340.90,1.02,1.02,2.89,2.88,-2.88,-2.81,-2.43,-1.86,-1.86,-1.86
344.30,1.02,1.01,2.88,2.87,-2.86,-2.79,-2.40,-1.84,-1.85,-1.86
347.75,0.97,0.99,2.82,2.84,-2.84,-2.77,-2.37,-1.86,-1.85,-1.85
351.23,0.97,0.97,2.83,2.81,-2.82,-2.75,-2.34,-1.84,-1.85,-1.85
354.74,0.94,0.95,2.78,2.79,-2.80,-2.74,-2.32,-1.85,-1.85,-1.84
358.28,0.92,0.93,2.77,2.77,-2.77,-2.72,-2.29,-1.85,-1.84,-1.84
361.87,0.92,0.91,2.76,2.75,-2.75,-2.70,-2.27,-1.83,-1.84,-1.84
365.49,0.89,0.90,2.72,2.73,-2.73,-2.68,-2.25,-1.84,-1.83,-1.83
369.14,0.88,0.89,2.72,2.72,-2.71,-2.65,-2.23,-1.83,-1.82,-1.83
372.83,0.88,0.87,2.70,2.69,-2.69,-2.63,-2.21,-1.81,-1.82,-1.82
376.56,0.85,0.86,2.67,2.67,-2.67,-2.61,-2.20,-1.82,-1.82,-1.82
380.33,0.83,0.85,2.65,2.66,-2.66,-2.59,-2.19,-1.82,-1.81,-1.81
384.13,0.83,0.83,2.65,2.64,-2.64,-2.57,-2.17,-1.80,-1.81,-1.81
387.97,0.83,0.82,2.64,2.62,-2.62,-2.54,-2.16,-1.79,-1.80,-1.81
391.85,0.78,0.80,2.57,2.60,-2.60,-2.52,-2.16,-1.82,-1.80,-1.79
395.77,0.78,0.79,2.58,2.58,-2.58,-2.50,-2.15,-1.80,-1.79,-1.79
399.73,0.78,0.78,2.57,2.56,-2.57,-2.47,-2.14,-1.78,-1.79,-1.78
403.72,0.78,0.77,2.56,2.55,-2.55,-2.45,-2.14,-1.76,-1.78,-1.78
407.76,0.74,0.76,2.52,2.54,-2.53,-2.43,-2.13,-1.79,-1.77,-1.78
411.84,0.74,0.74,2.52,2.52,-2.51,-2.40,-2.13,-1.77,-1.77,-1.77
415.96,0.74,0.73,2.51,2.49,-2.49,-2.38,-2.13,-1.75,-1.77,-1.76
420.12,0.69,0.71,2.46,2.47,-2.47,-2.35,-2.13,-1.78,-1.76,-1.77
424.32,0.69,0.69,2.45,2.45,-2.45,-2.33,-2.13,-1.76,-1.76,-1.76
428.56,0.67,0.67,2.42,2.43,-2.43,-2.30,-2.13,-1.75,-1.75,-1.75
432.85,0.65,0.66,2.40,2.40,-2.40,-2.28,-2.13,-1.75,-1.74,-1.74
437.18,0.65,0.64,2.40,2.38,-2.37,-2.25,-2.13,-1.72,-1.73,-1.74
441.55,0.60,0.62,2.34,2.35,-2.35,-2.23,-2.13,-1.74,-1.73,-1.73
445.96,0.60,0.60,2.33,2.32,-2.32,-2.20,-2.13,-1.71,-1.72,-1.73
450.42,0.56,0.57,2.27,2.28,-2.29,-2.17,-2.13,-1.72,-1.72,-1.71
454.93,0.55,0.55,2.25,2.25,-2.26,-2.15,-2.12,-1.70,-1.71,-1.70
459.48,0.52,0.53,2.22,2.22,-2.23,-2.12,-2.12,-1.70,-1.70,-1.69
464.07,0.51,0.51,2.21,2.20,-2.20,-2.09,-2.12,-1.68,-1.69,-1.69
468.71,0.48,0.49,2.17,2.17,-2.17,-2.07,-2.11,-1.68,-1.68,-1.68
473.40,0.46,0.46,2.14,2.14,-2.14,-2.04,-2.11,-1.67,-1.67,-1.67
478.13,0.44,0.44,2.11,2.11,-2.11,-2.01,-2.10,-1.67,-1.67,-1.67
482.91,0.41,0.42,2.07,2.08,-2.08,-1.99,-2.09,-1.67,-1.66,-1.66
487.74,0.40,0.40,2.05,2.05,-2.05,-1.96,-2.08,-1.65,-1.65,-1.65
492.62,0.37,0.38,2.01,2.02,-2.02,-1.93,-2.07,-1.64,-1.64,-1.64
497.55,0.37,0.36,2.01,1.99,-1.99,-1.90,-2.05,-1.61,-1.62,-1.63
502.52,0.32,0.34,1.95,1.95,-1.95,-1.88,-2.04,-1.63,-1.62,-1.62
507.55,0.32,0.31,1.93,1.92,-1.92,-1.85,-2.02,-1.60,-1.61,-1.60
512.62,0.27,0.28,1.87,1.88,-1.89,-1.82,-2.00,-1.61,-1.60,-1.59
517.75,0.27,0.27,1.86,1.85,-1.86,-1.79,-1.98,-1.58,-1.59,-1.58
