frequency,raw,error,smoothed,error_smoothed,equalization,equalized_raw,equalized_smoothed,target
20,-18.019073790936226,-22.139694541544138,-17.93069043333845,-22.051329428516656,5.999999999999999,-12.019073790936226,-11.930690433338452,4.120620750607913
21,-17.31303683883515,-21.465271983544483,-17.431256821704263,-21.583481342217834,6.0,-11.31303683883515,-11.431256821704263,4.152235144709332
22,-16.87717112901871,-21.057619609042206,-16.947616910816116,-21.128043329177203,6.0,-10.87717112901871,-10.947616910816116,4.180448480023496
23,-16.62191829127811,-20.827177641599647,-16.47977070067401,-20.685015389394763,5.999999999999999,-10.62191829127811,-10.47977070067401,4.205259350321538
24,-15.989669512651318,-20.216335609105553,-16.02771819127792,-20.254397522870487,5.999999999999998,-9.98966951265132,-10.027718191277922,4.2266660964542355
25,-15.536590716596569,-19.781257491502366,-15.590976523113486,-19.83571522384785,6.000000000000001,-9.536590716596567,-9.590976523113486,4.244666774905798
26,-15.225505369265123,-19.484764493315385,-15.170390894387843,-19.429809300629298,6.0,-9.225505369265123,-9.170390894387843,4.259259124050261
27,-14.856197978273691,-19.12670745198423,-14.76637071527071,-19.037080813000188,6.0,-8.856197978273691,-8.76637071527071,4.270509473710542
28,-14.196581378746266,-18.474943019332215,-14.379054540178437,-18.65764884136739,6.0,-8.196581378746266,-8.379054540178437,4.278361640585948
29,-13.951757077085682,-18.234543768597394,-14.008167830966023,-18.29120385185739,6.000000000000001,-7.951757077085682,-8.008167830966023,4.282786691511712
30,-13.725735583404214,-18.00947327206501,-13.652855357914493,-17.936838812552256,6.0,-7.725735583404214,-7.652855357914493,4.2837376886607945
31,-13.347006210961242,-17.62815307783612,-13.312330160828996,-17.593695187668914,5.999999999999999,-7.347006210961243,-7.312330160828997,4.281146866874879
32,-13.056889016204472,-17.33181329773094,-12.986297653110755,-17.261387186077364,5.999999999999999,-7.056889016204473,-6.986297653110756,4.274924281526465
33,-12.629808770107797,-16.89476739051599,-12.67523815677964,-16.940286125164672,6.0,-6.629808770107797,-6.67523815677964,4.264958620408194
34,-12.39134242700365,-16.642474482938688,-12.380246052036586,-16.63136335640465,5.999999999999998,-6.391342427003652,-6.380246052036588,4.251132055935038
35,-12.17285099960595,-16.406165560864086,-12.102249399892248,-16.335416179699852,6.000000000000001,-6.1728509996059495,-6.102249399892247,4.233314561258136
36,-11.734706862634242,-15.946081980137567,-11.84095365991493,-16.05202000009117,5.999999999999998,-5.734706862634244,-5.840953659914932,4.211375117503325
37,-11.478327393335807,-15.663519598272629,-11.593892012587403,-15.778589364950452,6.0,-5.478327393335807,-5.593892012587403,4.185192204936822
38,-11.287692591010714,-15.442359042150159,-11.356093415997435,-15.510058888763199,6.000000000000001,-5.287692591010713,-5.356093415997434,4.154666451139444
39,-11.065362064811621,-15.185097154657386,-11.120731226085525,-15.239546622769884,6.0,-5.065362064811621,-5.120731226085525,4.119735089845765
40,-11.067827797087668,-15.14821555900713,-10.880751544484415,-14.959998676083341,5.999999999999999,-5.067827797087669,-4.880751544484416,4.0803877619194635
41,-10.842140506980735,-14.878825419021798,-10.631119295608139,-14.666452495837166,5.999999999999999,-4.842140506980736,-4.63111929560814,4.036684912041063
42,-10.43226734874819,-14.421042776701777,-10.371006228276512,-14.358242230931026,6.000000000000003,-4.432267348748188,-4.371006228276509,3.9887754279535863
43,-10.147248635380492,-14.084162520759879,-10.105142959262018,-14.040367359746632,6.0,-4.1472486353804925,-4.105142959262018,3.9369138853793864
44,-9.686475851919969,-13.567951954737328,-9.843716398855356,-13.723404855633305,6.0,-3.686475851919969,-3.8437163988553564,3.881476102817359
45,-9.682182674104457,-13.505154514603527,-9.600571841747547,-13.421723048375817,5.999999999999998,-3.6821826741044585,-3.6005718417475485,3.8229718404990702
46,-9.387332056558986,-13.149385491683354,-9.389984635148512,-13.150260973867784,6.0,-3.3873320565589857,-3.3899846351485117,3.762053435124368
47,-8.992341231018827,-12.691860419745833,-9.222745195850155,-12.920615942995601,6.0,-2.992341231018827,-3.2227451958501554,3.699519188727006
48,-8.99012043597992,-12.626431169283565,-9.102603319123297,-12.737484383935467,6.0,-2.99012043597992,-3.102603319123297,3.6363107333036453
49,-8.988276099721523,-12.56177964088815,-9.024134116632627,-12.596517626656862,5.999999999999999,-2.9882760997215234,-3.024134116632628,3.573503541166627
50,-8.759065971725795,-12.271356126134876,-8.972775461717895,-12.484342122104703,5.999999999999999,-2.7590659717257955,-2.9727754617178954,3.5122901544090803
51,-8.803696338432236,-12.257652377035699,-8.927207533035599,-12.380914634442883,5.999999999999999,-2.8036963384322364,-2.9272075330355998,3.453956038603463
52,-8.987036662446009,-12.386885013924456,-8.863561371344106,-12.263699637105693,5.999999999999999,-2.98703666244601,-2.8635613713441073,3.3998483514784477
53,-9.216214381199537,-12.567552696834843,-8.760373133886283,-12.112586297846569,6.000000000000002,-3.216214381199535,-2.760373133886281,3.351338315635306
54,-8.8073996952106,-12.117177963194674,-8.602949531555726,-11.914211617867231,6.0,-2.8073996952106004,-2.6029495315557263,3.309778267984073
55,-8.535206889322348,-11.811661736184934,-8.385991152991238,-11.664537859644348,6.0,-2.535206889322348,-2.385991152991238,3.2764548468625856
56,-8.079746206922923,-11.332286293536452,-8.113895558958424,-11.369107876642929,6.000000000000002,-2.0797462069229216,-2.113895558958422,3.2525400866135277
57,-7.61394085133294,-10.852983285155894,-7.798936589104104,-11.041176744218522,5.999999999999999,-1.6139408513329405,-1.7989365891041045,3.239042433822953
58,-7.3965269953291,-10.633286845951428,-7.4581988059032325,-10.698600711675638,6.0,-1.3965269953290997,-1.4581988059032325,3.2367598506223283
59,-7.162237958564975,-10.408475174343598,-7.110470235554107,-10.360688765902538,6.000000000000002,-1.1622379585649734,-1.1104702355541054,3.2462372157786232
60,-6.720364297539377,-9.988094462391416,-6.774132400165934,-10.046057857236057,6.000000000000001,-0.7203642975393763,-0.7741324001659331,3.26773016485204
61,-6.486335978800338,-9.787513301651202,-6.466499948044026,-9.771945965227395,6.000000000000002,-0.4863359788003363,-0.4664999480440244,3.301177322850865
62,-6.258293632428301,-9.604476218125004,-6.204301248489202,-9.554675950424816,6.0,-0.25829363242830095,-0.20430124848920173,3.346182585696703
63,-6.029110621237443,-9.431119331120609,-6.004388306336793,-9.410359742052773,6.0,-0.029110621237443013,-0.00438830633679288,3.4020087098831655
64,-5.929672616524008,-9.397255608689301,-5.883593627086357,-9.354761226009757,5.999999999999999,0.07032738347599121,0.11640637291364175,3.4675829921652936
65,-5.795935402039768,-9.337450688778457,-5.857008003420097,-9.401592023045078,5.999999999999999,0.20406459796023135,0.14299199657990247,3.541515286738689
66,-5.793738336376416,-9.415866380504532,-5.934703628615853,-9.559264241026295,6.000000000000002,0.2062616636235859,0.06529637138414834,3.6221280441281154
67,-5.793532036514811,-9.50102953073802,-6.117764267971941,-9.826961072058102,5.999999999999999,0.20646796348518848,-0.11776426797194173,3.707497494223208
68,-6.122070921568198,-9.917575487702791,-6.39504675314687,-10.191448130771818,6.000000000000001,-0.12207092156819677,-0.3950467531468691,3.7955045661345936
69,-6.5261902956390205,-10.410083965065304,-6.742121441148646,-10.626071358403044,5.999999999999999,-0.5261902956390214,-0.7421214411486465,3.8838936694262842
70,-7.104825341975369,-11.07516242295304,-7.123274154830492,-11.092821829921515,6.0,-1.1048253419753689,-1.1232741548304919,3.970337080977672
71,-7.725839457516473,-11.778341868104627,-7.496488754533232,-11.547384177008606,6.0,-1.7258394575164733,-1.4964887545332317,4.052502410588154
72,-8.128559444975258,-12.256679916543563,-7.8203235935505075,-11.946079301361848,5.999999999999999,-2.1285594449752585,-1.8203235935505084,4.128120471568305
73,-8.36473231338202,-12.559783181280803,-8.060924761057581,-12.252941682253823,6.0,-2.364732313382021,-2.0609247610575814,4.195050867898782
74,-8.378445314541931,-12.62978804190101,-8.19733489575384,-12.445087568404094,6.000000000000001,-2.3784453145419304,-2.1973348957538397,4.251342727359079
75,-8.389139519228841,-12.684427772154212,-8.223784706467825,-12.515058924581261,5.999999999999998,-2.389139519228843,-2.2237847064678267,4.295288252925371
76,-8.187778339124177,-12.513245457302196,-8.148589042844606,-12.46976305486547,6.000000000000003,-2.1877783391241747,-2.148589042844603,4.325467118178018
77,-7.7655606550947205,-12.106340830836372,-7.9902654109953275,-12.326624334920368,6.000000000000001,-1.7655606550947196,-1.9902654109953266,4.340780175741651
78,-7.6571209835641785,-11.997592438965178,-7.772208721667688,-12.108280915652937,6.0,-1.6571209835641785,-1.7722087216676883,4.3404714554009995
79,-7.497173994252393,-11.821311966099689,-7.517480399902036,-11.837384130720881,6.000000000000002,-1.4971739942523916,-1.517480399902034,4.3241379718472945
80,-7.231850521386973,-11.523577932445129,-7.244987532549491,-11.532776306719558,6.000000000000001,-1.2318505213869724,-1.24498753254949,4.291727411058156
81,-6.918487277511642,-11.16201156722701,-6.967701666183842,-11.207696886983381,6.000000000000002,-0.9184872775116402,-0.9677016661838405,4.243524289715368
82,-6.721911870973276,-10.90203752777237,-6.69285643943686,-10.869956596625128,6.0,-0.7219118709732761,-0.6928564394368601,4.180125656799094
83,-6.316938778768634,-10.419346586263554,-6.423512893938171,-10.523469426627148,6.000000000000002,-0.3169387787686322,-0.4235128939381694,4.102407807494919
84,-6.215184287153344,-10.226670076123966,-6.160633829363782,-10.170285508988227,6.000000000000001,-0.2151842871533427,-0.160633829363781,4.011485788970623
85,-5.961355700467972,-9.870023384166508,-5.904878966049171,-9.812339574955704,6.000000000000001,0.03864429953202908,0.09512103395082949,3.908667683698537
86,-5.670477422662913,-9.465883176323128,-5.657629708322482,-9.452427988847823,6.0,0.32952257733708734,0.3423702916775184,3.795405753660216
87,-5.480597372684146,-9.153843892066272,-5.421130737433884,-9.094306189987206,6.0,0.5194026273158538,0.5788692625661156,3.673246519382126
88,-5.0877730733941275,-8.631554812249332,-5.197957318021461,-8.742118582083208,6.0,0.9122269266058725,0.8020426819785387,3.543781738855204
89,-4.915758827068762,-8.324360882907667,-4.990194562597234,-8.399546654993078,6.000000000000001,1.0842411729312387,1.0098054374027665,3.4086020558389056
90,-4.739321960717691,-8.008576782592513,-4.798726910395326,-8.069068330686253,6.000000000000001,1.2606780392823103,1.2012730896046753,3.2692548218748225
91,-4.684957919409369,-7.812165200815464,-4.622915543506075,-7.751597219641455,6.0,1.315042080590631,1.3770844564939253,3.1272072814060956
92,-4.4867895670323765,-7.470605533002011,-4.460752538757069,-7.446581813885853,5.999999999999999,1.5132104329676226,1.5392474612429305,2.9838159659696353
93,-4.3646494702591125,-7.20495226294134,-4.309398136438292,-7.152468601966735,6.000000000000002,1.6353505297408892,1.6906018635617102,2.8403027926822273
94,-4.099427509767072,-6.7971655337088155,-4.165890927463688,-6.867328273866969,6.0,1.9005724902329284,1.8341090725363118,2.697738023941744
95,-4.067813444955808,-6.624843381553232,-4.027796485797392,-6.589432755955361,6.0,1.9321865550441917,1.972203514202608,2.5570299365974236
96,-3.8728665894915415,-6.29178737301548,-3.893619700595657,-6.317637929415047,5.950900071051374,2.078033481559833,2.057280370455717,2.4189207835239386
97,-3.7899118975841963,-6.073900315809336,-3.7629150715765394,-6.051531926650268,5.845930640217539,2.0560187426333423,2.0830155686409992,2.2839884182251398
98,-3.687761478690586,-5.84041427784073,-3.636140162452458,-5.791402509317784,5.686849837051034,1.9990883583604484,2.0507096745985764,2.152652799150144
99,-3.521295757029593,-5.5464822529761095,-3.514366733157982,-5.538119612377787,5.49408006847957,1.9727843114499768,1.9797133353215877,2.0251864959465165
100,-3.274841034316432,-5.176569316468307,-3.398970868855262,-5.293009593593995,5.2842000773382125,2.0093590430217807,1.8852292084829507,1.9017282821518755
101,-3.2871661963827994,-5.06946510820614,-3.2913787523210365,-5.057738964608415,5.057738964608415,1.7705727682256156,1.7663602122873785,1.7822989118233408
102,-3.3052608415281695,-4.972079074362459,-3.1928797297282006,-4.834166921052004,4.834166921052004,1.5289060795238347,1.6412871913238036,1.6668182328342898
104,-3.0975016232083368,-4.590659875000082,-3.1044682398128796,-4.624103495184734,4.624103495184736,1.526601871976399,1.5196352553718562,1.493158251791745
105,-2.980780753349839,-4.365719123578362,-3.0266663561805185,-4.428940599428783,4.428940599428783,1.4481598460789438,1.4022742432482644,1.3849383702285227
106,-2.9187064406794545,-4.198826200285858,-2.9593130717486575,-4.249196159741475,4.249196159741474,1.3304897190620193,1.2898830879928163,1.2801197596064027
107,-2.9467178004432686,-4.125107435095938,-2.901364357824413,-4.084091347023541,4.0840913470235405,1.137373546580272,1.1827269891991277,1.1783896346526697
108,-2.777420959540634,-3.8568374128538516,-2.8507944117511768,-3.9313233178291616,3.931323317829161,1.1539023582885273,1.0805289060779844,1.0794164533132178
109,-2.7743983897453743,-3.7572615517605508,-2.8046946433852025,-3.7871729884522054,3.787172988452205,1.0127745987068306,0.9824783450670025,0.9828631620151764
110,-2.798916291428085,-3.6873151229280854,-2.7596239429677807,-3.6470007299227767,3.6470007299227762,0.8480844384946913,0.8873767869549956,0.8883988315000004
111,-2.8125947750848064,-3.6083034116869435,-2.712183193099449,-3.5060597162776084,3.506059716277608,0.6934649411928016,0.793876523178159,0.7957086366021369
112,-2.609475478041327,-3.313977659245646,-2.659698233905245,-3.3604409893734823,3.3604409893734823,0.7509655113321552,0.7007427554682373,0.7045021812043191
113,-2.6232201615650586,-3.2377403628187023,-2.600835446172808,-3.207901590125454,3.2079015901254535,0.584681428560395,0.6070661439526455,0.6145202012536437
114,-2.6076076818292475,-3.1331473791481277,-2.5359699543347554,-3.04834408533554,3.048344085335541,0.4407364035062935,0.5123741310007857,0.5255396973188802
115,-2.4119563467393523,-2.8493339043238093,-2.4671834374669634,-2.883808729013074,2.883808729013074,0.4718523822737217,0.4166252915461106,0.43737755758445696
117,-2.4148430762268247,-2.710023096629472,-2.3978687470111923,-2.7179766940941867,2.7179766940941863,0.3031336178673616,0.32010794708299395,0.2951800204026471
118,-2.3923290061555122,-2.601727957264942,-2.3320305265278973,-2.5553200249798653,2.5553200249798644,0.16299101882435219,0.2232894984519671,0.20939895110942963
119,-2.1831238389003347,-2.3073118408274835,-2.273458651113603,-2.4001278502662835,2.400127850266283,0.21700401136594838,0.12666919915268027,0.12418800192714885
120,-2.1778620856139086,-2.2173871726958474,-2.2249850383353955,-2.255659780051844,2.255659780051844,0.0777976944379355,0.030674741716448573,0.0395250870819388
121,-2.171510987779711,-2.126937130345751,-2.188004174211642,-2.123623153406622,2.123623153406622,-0.04788783437308908,-0.06438102080501995,-0.04457385743395981
123,-2.164771108106552,-1.9893140530356774,-2.1623557780865315,-2.004063946449635,2.0040639464496346,-0.16070716165691756,-0.15829183163689686,-0.17545705507087472
124,-2.1581118501396377,-1.9011701425303762,-2.1465622581454156,-1.8956394817623468,1.8956394817623465,-0.26247236837729115,-0.25092277638306903,-0.2569417076092615
125,-2.151854448769173,-1.8142350951414894,-2.1383181582283726,-1.7961435728869142,1.7961435728869142,-0.3557108758822589,-0.3421745853414584,-0.3376193536276837
126,-2.1462887401686257,-1.728915911876562,-2.1350725382147275,-1.7031083835343912,1.703108383534391,-0.4431803566342347,-0.43196415468033655,-0.4173728282920637
128,-2.1417097380196486,-1.6048136956938521,-2.134543232986617,-1.6143201807323342,1.6143201807323349,-0.5273895572873137,-0.5202230522542821,-0.5368960423257965
129,-2.138346100758093,-1.525245894024339,-2.135048543806758,-1.5281448096569943,1.5281448096569947,-0.6102012911010981,-0.6069037341497634,-0.6131002067337539
130,-2.1362499433785027,-1.4482599045779492,-2.135615044113796,-1.4436354432457978,1.443635443245798,-0.6926145001327046,-0.6919796008679981,-0.6879900388005535
131,-2.1352504220634247,-1.373813334026711,-2.1358918943909297,-1.3604611114290874,1.3604611114290877,-0.7747893106343371,-0.7754307829618421,-0.7614370880367138
133,-2.135023891671774,-1.2672496277065863,-2.1359484060689047,-1.2787300449937171,1.2787300449937176,-0.8562938466780565,-0.8572183610751871,-0.8677742639651878
134,-2.135246591667904,-1.1984690722429605,-2.13604147266951,-1.1987826187080584,1.1987826187080584,-0.9364639729598456,-0.9372588539614515,-0.9367775194249435
135,-2.135734397879187,-1.131685418492361,-2.1364184464430203,-1.1210054660016915,1.1210054660016913,-1.014728931877496,-1.015412980441329,-1.0040489793868261
137,-2.136475090105766,-1.0372070146567847,-2.137186088492677,-1.0456891984339154,1.0456891984339152,-1.0907858916718507,-1.0914968900587618,-1.0992680754489812
138,-2.1375240436372676,-0.9757460116992465,-2.1382471346529233,-0.972933477454252,0.9729334774542517,-1.1645905661830158,-1.1653136571986715,-1.161778031938021
140,-2.138830728811213,-0.8898808983304476,-2.1392946913190403,-0.9026016687878293,0.9026016687878292,-1.2362290600233838,-1.236693022531211,-1.2489498304807656
141,-2.140128750815179,-0.8334190289691383,-2.139861028345959,-0.8343378153883907,0.8343378153883907,-1.3057909354267885,-1.3055232129575685,-1.3067097218460408
142,-2.1410010130048134,-0.7783823586601346,-2.139429179622578,-0.7676668474341922,0.7676668474341923,-1.373334165570621,-1.3717623321883856,-1.3626186543446788
144,-2.1411182939196927,-0.701794918892295,-2.137616064211876,-0.7021898456414619,0.7021898456414618,-1.4389284482782307,-1.4354262185704143,-1.4393233750273977
145,-2.1405075777616593,-0.6498537731720169,-2.1344149363472686,-0.6378550052689127,0.6378550052689127,-1.5026525724927466,-1.496559931078356,-1.4906538045896425
147,-2.1396468416327874,-0.5794036872419381,-2.130447386952148,-0.5752411531980544,0.5752411531980544,-1.564405688434733,-1.5552062337540935,-1.5602431543908493
148,-2.1392756313515364,-0.5320982669280592,-2.127138880254454,-0.5157547257265978,0.5157547257265976,-1.6235209056249387,-1.6113841545278564,-1.6071773644234773
150,-2.140008507831746,-0.46992457053721903,-2.126721114078052,-0.46163637720146744,0.46163637720146755,-1.6783721306302783,-1.6650847368765846,-1.6700839372945269
151,-2.1419979313724133,-0.42924609383009793,-2.1319966394328413,-0.41571419468904625,0.4157141946890463,-1.726283736683367,-1.716282444743795,-1.7127518375423154
153,-2.1448854211431265,-0.37557321550429856,-2.1458748215008105,-0.3809211724958954,0.3809211724958954,-1.7639642486472311,-1.7649536490049151,-1.769312205638828
154,-2.148091627933976,-0.3403510150775757,-2.1707769399048105,-0.35968557170696325,0.3596855717069632,-1.7884060562270128,-1.8110913681978473,-1.8077406128564002
156,-2.151259370112439,-0.2931026728366284,-2.2080722595138327,-0.3533637728765803,0.3533637728765803,-1.7978955972358586,-1.8547084866372523,-1.8581566972758106
157,-2.173356846280647,-0.2811037485810721,-2.2577135516005074,-0.3618855253578065,0.3618855253578064,-1.8114713209228406,-1.895828026242701,-1.8922530976995748
159,-2.386521951556972,-0.4499271068799957,-2.318180159406326,-0.38371468346637094,0.38371468346637094,-2.002807268090601,-1.9344654759399549,-1.9365948446769763
160,-2.3920522491927363,-0.4258789461336394,-2.3867313540724417,-0.4161194661673556,0.41611946616735557,-1.9759327830253808,-1.9706118879050862,-1.9661733030590969
