frequency,raw,smoothed,error,error_smoothed,equalization,parametric_eq,fixed_band_eq,equalized_raw,equalized_smoothed,target
20.00,4.80,4.80,-0.95,-0.94,0.95,0.24,-0.01,5.75,5.75,5.74
20.20,4.83,4.83,-0.91,-0.92,0.92,0.24,-0.01,5.74,5.74,5.74
20.40,4.86,4.86,-0.88,-0.88,0.88,0.24,-0.00,5.74,5.74,5.74
20.61,4.89,4.89,-0.85,-0.85,0.85,0.23,-0.00,5.74,5.74,5.74
20.81,4.92,4.92,-0.82,-0.82,0.82,0.23,-0.00,5.74,5.74,5.74
21.02,4.96,4.96,-0.78,-0.79,0.79,0.22,-0.00,5.74,5.74,5.74
21.23,4.99,4.99,-0.75,-0.75,0.75,0.22,-0.00,5.74,5.74,5.74
21.44,5.02,5.02,-0.72,-0.72,0.72,0.21,-0.00,5.74,5.74,5.74
21.66,5.05,5.05,-0.69,-0.69,0.69,0.20,-0.00,5.74,5.74,5.74
21.87,5.08,5.08,-0.66,-0.66,0.65,0.20,-0.00,5.73,5.74,5.74
22.09,5.12,5.12,-0.62,-0.62,0.62,0.19,0.00,5.74,5.74,5.74
22.31,5.15,5.15,-0.59,-0.59,0.59,0.19,0.00,5.74,5.74,5.74
22.54,5.18,5.18,-0.56,-0.56,0.56,0.18,0.00,5.74,5.74,5.74
22.76,5.21,5.21,-0.53,-0.53,0.53,0.18,0.00,5.74,5.73,5.73
22.99,5.24,5.24,-0.49,-0.49,0.49,0.17,0.00,5.73,5.73,5.73
23.22,5.27,5.27,-0.46,-0.46,0.46,0.16,0.00,5.73,5.73,5.73
23.45,5.30,5.30,-0.43,-0.43,0.43,0.16,0.01,5.73,5.73,5.73
23.69,5.33,5.33,-0.40,-0.40,0.40,0.15,0.01,5.73,5.73,5.73
23.92,5.36,5.36,-0.37,-0.37,0.37,0.14,0.01,5.73,5.73,5.73
24.16,5.39,5.39,-0.34,-0.34,0.34,0.14,0.01,5.73,5.73,5.73
24.40,5.42,5.42,-0.31,-0.31,0.31,0.13,0.01,5.73,5.73,5.73
24.65,5.45,5.45,-0.28,-0.28,0.28,0.12,0.01,5.73,5.73,5.73
24.89,5.47,5.47,-0.25,-0.25,0.25,0.11,0.01,5.72,5.72,5.72
25.14,5.50,5.50,-0.22,-0.23,0.23,0.11,0.01,5.72,5.72,5.72
25.39,5.52,5.52,-0.20,-0.20,0.20,0.10,0.01,5.72,5.72,5.72
25.65,5.55,5.55,-0.17,-0.17,0.17,0.09,0.01,5.72,5.72,5.72
25.91,5.57,5.57,-0.15,-0.15,0.15,0.08,0.01,5.72,5.72,5.72
26.16,5.59,5.59,-0.13,-0.13,0.13,0.07,0.01,5.72,5.72,5.72
26.43,5.61,5.61,-0.11,-0.11,0.11,0.07,0.01,5.71,5.71,5.72
26.69,5.63,5.63,-0.08,-0.08,0.08,0.06,0.01,5.71,5.71,5.71
26.96,5.65,5.65,-0.06,-0.06,0.06,0.05,0.01,5.71,5.71,5.71
27.23,5.67,5.67,-0.04,-0.04,0.04,0.04,0.01,5.71,5.71,5.71
27.50,5.69,5.69,-0.02,-0.02,0.02,0.03,0.01,5.71,5.71,5.71
27.77,5.70,5.70,-0.01,-0.00,0.00,0.02,0.01,5.70,5.71,5.71
28.05,5.72,5.72,0.01,0.02,-0.01,0.01,0.01,5.70,5.71,5.70
28.33,5.74,5.73,0.04,0.03,-0.03,-0.00,0.01,5.71,5.70,5.70
28.62,5.75,5.75,0.05,0.05,-0.05,-0.01,0.01,5.70,5.70,5.70
28.90,5.76,5.76,0.06,0.06,-0.07,-0.02,0.00,5.69,5.70,5.70
29.19,5.78,5.78,0.08,0.08,-0.08,-0.03,0.00,5.70,5.69,5.70
29.48,5.79,5.79,0.10,0.10,-0.10,-0.05,-0.00,5.69,5.69,5.69
29.78,5.81,5.81,0.12,0.12,-0.11,-0.06,-0.00,5.69,5.69,5.69
30.08,5.82,5.82,0.13,0.13,-0.13,-0.07,-0.01,5.69,5.69,5.69
30.38,5.83,5.83,0.14,0.15,-0.15,-0.08,-0.01,5.68,5.68,5.69
30.68,5.85,5.85,0.17,0.16,-0.17,-0.10,-0.02,5.68,5.68,5.68
30.99,5.86,5.86,0.18,0.18,-0.18,-0.11,-0.02,5.68,5.68,5.68
31.30,5.88,5.88,0.20,0.20,-0.20,-0.12,-0.03,5.68,5.68,5.68
31.61,5.89,5.89,0.22,0.22,-0.22,-0.14,-0.03,5.67,5.67,5.67
31.93,5.91,5.91,0.24,0.24,-0.24,-0.15,-0.04,5.67,5.67,5.67
32.24,5.92,5.92,0.25,0.26,-0.25,-0.16,-0.04,5.67,5.67,5.67
32.57,5.94,5.94,0.28,0.27,-0.27,-0.18,-0.05,5.67,5.67,5.66
32.89,5.95,5.95,0.29,0.29,-0.29,-0.19,-0.06,5.66,5.66,5.66
33.22,5.96,5.96,0.30,0.30,-0.30,-0.21,-0.07,5.66,5.66,5.66
33.55,5.97,5.97,0.32,0.32,-0.32,-0.22,-0.08,5.65,5.65,5.65
33.89,5.98,5.98,0.33,0.33,-0.33,-0.24,-0.09,5.65,5.65,5.65
34.23,5.99,5.99,0.35,0.35,-0.35,-0.25,-0.09,5.64,5.64,5.64
34.57,6.00,6.00,0.36,0.36,-0.36,-0.27,-0.10,5.64,5.64,5.64
34.92,6.01,6.01,0.37,0.38,-0.37,-0.28,-0.12,5.64,5.64,5.63
35.27,6.02,6.02,0.39,0.39,-0.39,-0.30,-0.13,5.63,5.63,5.63
35.62,6.03,6.03,0.40,0.40,-0.40,-0.31,-0.14,5.63,5.63,5.62
35.97,6.03,6.03,0.41,0.41,-0.41,-0.33,-0.15,5.62,5.62,5.62
36.33,6.04,6.04,0.42,0.42,-0.42,-0.34,-0.16,5.62,5.61,5.61
36.70,6.04,6.04,0.43,0.43,-0.44,-0.36,-0.17,5.60,5.61,5.61
37.06,6.05,6.05,0.45,0.45,-0.45,-0.37,-0.18,5.60,5.60,5.60
37.43,6.06,6.06,0.46,0.46,-0.46,-0.39,-0.20,5.60,5.60,5.60
37.81,6.06,6.06,0.47,0.47,-0.47,-0.40,-0.21,5.59,5.59,5.59
38.19,6.07,6.07,0.48,0.48,-0.48,-0.41,-0.22,5.59,5.59,5.59
38.57,6.07,6.07,0.49,0.49,-0.49,-0.42,-0.24,5.58,5.58,5.58
38.95,6.07,6.07,0.50,0.50,-0.50,-0.44,-0.25,5.57,5.57,5.57
39.34,6.08,6.08,0.51,0.51,-0.51,-0.45,-0.27,5.56,5.56,5.56
39.74,6.08,6.08,0.52,0.52,-0.53,-0.46,-0.28,5.55,5.56,5.56
40.14,6.09,6.09,0.54,0.54,-0.53,-0.47,-0.30,5.55,5.55,5.55
40.54,6.09,6.09,0.55,0.55,-0.54,-0.48,-0.31,5.55,5.54,5.54
40.94,6.09,6.09,0.56,0.56,-0.55,-0.49,-0.33,5.54,5.54,5.53
41.35,6.09,6.09,0.56,0.56,-0.56,-0.50,-0.34,5.53,5.53,5.53
41.76,6.09,6.09,0.57,0.57,-0.57,-0.51,-0.36,5.52,5.52,5.52
42.18,6.08,6.08,0.57,0.57,-0.58,-0.52,-0.38,5.50,5.50,5.51
42.60,6.08,6.08,0.58,0.58,-0.58,-0.53,-0.39,5.49,5.49,5.50
43.03,6.08,6.08,0.59,0.59,-0.59,-0.53,-0.41,5.49,5.49,5.49
43.46,6.08,6.08,0.60,0.60,-0.60,-0.54,-0.43,5.48,5.48,5.48
43.90,6.08,6.08,0.61,0.61,-0.61,-0.55,-0.45,5.47,5.47,5.47
44.33,6.07,6.07,0.61,0.61,-0.61,-0.56,-0.46,5.46,5.46,5.46
44.78,6.07,6.07,0.62,0.62,-0.62,-0.57,-0.48,5.45,5.45,5.45
45.23,6.06,6.06,0.62,0.63,-0.63,-0.58,-0.50,5.43,5.43,5.43
45.68,6.06,6.06,0.64,0.63,-0.64,-0.59,-0.52,5.42,5.42,5.42
46.13,6.05,6.05,0.64,0.64,-0.64,-0.60,-0.54,5.41,5.41,5.41
46.60,6.05,6.05,0.65,0.65,-0.65,-0.61,-0.56,5.40,5.40,5.40
47.06,6.04,6.04,0.66,0.66,-0.66,-0.62,-0.58,5.38,5.38,5.38
47.53,6.04,6.04,0.67,0.67,-0.66,-0.63,-0.60,5.37,5.37,5.37
48.01,6.03,6.03,0.67,0.67,-0.67,-0.65,-0.62,5.36,5.36,5.36
48.49,6.02,6.02,0.68,0.68,-0.68,-0.66,-0.64,5.34,5.34,5.34
48.97,6.01,6.01,0.68,0.69,-0.69,-0.67,-0.66,5.32,5.32,5.33
49.46,6.01,6.01,0.70,0.70,-0.70,-0.68,-0.68,5.31,5.31,5.31
49.96,6.00,6.00,0.71,0.70,-0.71,-0.70,-0.71,5.29,5.29,5.29
50.46,5.99,5.99,0.71,0.71,-0.71,-0.71,-0.73,5.27,5.28,5.28
50.96,5.98,5.98,0.72,0.72,-0.72,-0.72,-0.75,5.25,5.26,5.26
51.47,5.98,5.98,0.74,0.74,-0.73,-0.74,-0.77,5.24,5.24,5.24
51.99,5.97,5.97,0.75,0.75,-0.74,-0.75,-0.80,5.22,5.22,5.22
52.51,5.96,5.96,0.76,0.76,-0.76,-0.77,-0.82,5.20,5.20,5.20
53.03,5.95,5.95,0.77,0.77,-0.77,-0.78,-0.84,5.18,5.18,5.18
53.56,5.94,5.94,0.78,0.78,-0.78,-0.80,-0.86,5.16,5.16,5.16
54.10,5.93,5.93,0.79,0.79,-0.79,-0.82,-0.88,5.14,5.14,5.14
54.64,5.92,5.92,0.80,0.80,-0.80,-0.83,-0.91,5.12,5.12,5.12
55.18,5.91,5.91,0.81,0.81,-0.81,-0.85,-0.93,5.10,5.10,5.10
55.74,5.90,5.90,0.83,0.83,-0.82,-0.87,-0.95,5.07,5.07,5.07
56.29,5.89,5.89,0.84,0.84,-0.84,-0.88,-0.97,5.05,5.05,5.05
56.86,5.87,5.87,0.85,0.85,-0.85,-0.90,-0.99,5.02,5.02,5.02
57.42,5.86,5.86,0.86,0.86,-0.86,-0.92,-1.01,5.00,5.00,5.00
58.00,5.85,5.85,0.88,0.88,-0.88,-0.94,-1.03,4.97,4.97,4.97
58.58,5.84,5.84,0.89,0.89,-0.89,-0.96,-1.05,4.95,4.95,4.94
59.16,5.82,5.82,0.90,0.91,-0.90,-0.98,-1.07,4.92,4.92,4.92
59.76,5.81,5.81,0.92,0.92,-0.92,-1.00,-1.09,4.89,4.89,4.89
60.35,5.79,5.79,0.93,0.93,-0.93,-1.01,-1.11,4.86,4.86,4.86
60.96,5.77,5.77,0.94,0.95,-0.95,-1.03,-1.12,4.82,4.83,4.83
61.57,5.76,5.76,0.96,0.96,-0.96,-1.06,-1.14,4.80,4.80,4.80
62.18,5.74,5.74,0.98,0.98,-0.97,-1.08,-1.16,4.76,4.76,4.76
62.80,5.72,5.72,0.99,0.99,-0.99,-1.10,-1.17,4.73,4.73,4.73
63.43,5.70,5.70,1.00,1.00,-1.00,-1.12,-1.19,4.69,4.69,4.70
64.07,5.68,5.68,1.02,1.02,-1.02,-1.14,-1.20,4.66,4.66,4.66
64.71,5.66,5.66,1.03,1.04,-1.03,-1.16,-1.21,4.62,4.63,4.62
65.35,5.64,5.64,1.05,1.05,-1.05,-1.18,-1.22,4.59,4.59,4.59
66.01,5.62,5.62,1.07,1.07,-1.07,-1.20,-1.24,4.55,4.55,4.55
66.67,5.59,5.59,1.08,1.08,-1.08,-1.23,-1.25,4.51,4.51,4.51
67.33,5.57,5.57,1.10,1.10,-1.10,-1.25,-1.26,4.47,4.47,4.47
68.01,5.54,5.54,1.11,1.11,-1.11,-1.27,-1.27,4.43,4.43,4.43
68.69,5.52,5.52,1.13,1.13,-1.13,-1.29,-1.28,4.39,4.39,4.39
69.37,5.49,5.49,1.14,1.15,-1.15,-1.32,-1.29,4.34,4.34,4.34
70.07,5.47,5.47,1.17,1.17,-1.16,-1.34,-1.30,4.30,4.30,4.30
70.77,5.44,5.44,1.18,1.18,-1.18,-1.36,-1.31,4.26,4.25,4.26
71.48,5.41,5.41,1.20,1.20,-1.20,-1.39,-1.32,4.21,4.21,4.21
72.19,5.38,5.38,1.22,1.22,-1.22,-1.41,-1.33,4.16,4.16,4.16
72.91,5.36,5.36,1.25,1.24,-1.24,-1.43,-1.34,4.12,4.11,4.11
73.64,5.33,5.33,1.26,1.26,-1.26,-1.46,-1.36,4.07,4.07,4.06
74.38,5.30,5.30,1.28,1.28,-1.28,-1.48,-1.37,4.02,4.02,4.01
75.12,5.26,5.27,1.30,1.30,-1.30,-1.50,-1.38,3.96,3.96,3.96
75.87,5.24,5.24,1.33,1.33,-1.32,-1.53,-1.40,3.91,3.91,3.91
76.63,5.21,5.20,1.35,1.35,-1.35,-1.55,-1.41,3.86,3.86,3.86
77.40,5.17,5.17,1.37,1.37,-1.37,-1.58,-1.42,3.80,3.80,3.80
78.17,5.14,5.14,1.39,1.39,-1.39,-1.60,-1.44,3.74,3.74,3.75
78.95,5.11,5.11,1.42,1.42,-1.42,-1.63,-1.46,3.69,3.69,3.69
79.74,5.08,5.08,1.44,1.45,-1.44,-1.65,-1.48,3.63,3.64,3.63
80.54,5.05,5.05,1.47,1.47,-1.47,-1.67,-1.50,3.58,3.58,3.58
81.35,5.02,5.02,1.50,1.50,-1.50,-1.70,-1.52,3.52,3.52,3.52
82.16,4.98,4.98,1.52,1.53,-1.52,-1.72,-1.54,3.45,3.46,3.46
82.98,4.95,4.95,1.55,1.55,-1.55,-1.75,-1.56,3.40,3.40,3.40
83.81,4.91,4.91,1.58,1.58,-1.58,-1.77,-1.58,3.33,3.33,3.33
84.65,4.88,4.88,1.61,1.61,-1.61,-1.80,-1.61,3.27,3.27,3.27
85.50,4.84,4.84,1.63,1.63,-1.63,-1.82,-1.64,3.20,3.21,3.21
86.35,4.81,4.81,1.67,1.66,-1.66,-1.84,-1.66,3.15,3.14,3.14
87.22,4.77,4.77,1.69,1.69,-1.69,-1.87,-1.69,3.08,3.08,3.08
88.09,4.73,4.73,1.72,1.72,-1.72,-1.89,-1.72,3.01,3.01,3.01
88.97,4.70,4.70,1.75,1.75,-1.75,-1.91,-1.76,2.95,2.95,2.94
89.86,4.66,4.66,1.78,1.78,-1.78,-1.94,-1.79,2.88,2.88,2.88
90.76,4.62,4.62,1.81,1.81,-1.81,-1.96,-1.83,2.81,2.81,2.81
91.66,4.58,4.58,1.84,1.84,-1.84,-1.98,-1.86,2.74,2.74,2.74
92.58,4.54,4.54,1.87,1.87,-1.87,-2.01,-1.90,2.67,2.67,2.67
93.51,4.50,4.50,1.90,1.90,-1.90,-2.03,-1.94,2.60,2.60,2.60
94.44,4.46,4.46,1.93,1.93,-1.93,-2.05,-1.98,2.53,2.53,2.53
95.39,4.42,4.42,1.96,1.95,-1.96,-2.07,-2.02,2.46,2.46,2.46
96.34,4.37,4.37,1.98,1.98,-1.98,-2.09,-2.06,2.38,2.39,2.39
97.30,4.33,4.33,2.01,2.01,-2.01,-2.12,-2.11,2.32,2.32,2.32
98.28,4.29,4.29,2.04,2.04,-2.04,-2.14,-2.15,2.25,2.25,2.25
99.26,4.25,4.25,2.08,2.07,-2.07,-2.16,-2.19,2.18,2.18,2.17
100.25,4.20,4.20,2.10,2.10,-2.10,-2.18,-2.24,2.10,2.10,2.10
101.25,4.16,4.16,2.13,2.13,-2.13,-2.20,-2.29,2.03,2.03,2.03
102.27,4.11,4.11,2.15,2.16,-2.16,-2.22,-2.33,1.95,1.96,1.96
103.29,4.07,4.07,2.19,2.18,-2.18,-2.24,-2.38,1.89,1.88,1.88
104.32,4.02,4.02,2.21,2.21,-2.21,-2.25,-2.42,1.81,1.81,1.81
105.37,3.97,3.97,2.23,2.23,-2.23,-2.27,-2.47,1.73,1.74,1.74
106.42,3.92,3.92,2.26,2.26,-2.26,-2.29,-2.52,1.66,1.66,1.66
107.48,3.88,3.88,2.29,2.28,-2.29,-2.31,-2.56,1.59,1.59,1.59
108.56,3.83,3.83,2.31,2.31,-2.31,-2.32,-2.60,1.52,1.52,1.52
109.64,3.78,3.78,2.33,2.33,-2.33,-2.34,-2.65,1.45,1.45,1.45
110.74,3.73,3.73,2.36,2.36,-2.36,-2.35,-2.69,1.37,1.37,1.37
111.85,3.68,3.68,2.38,2.38,-2.38,-2.37,-2.72,1.30,1.30,1.30
112.97,3.63,3.63,2.40,2.40,-2.40,-2.38,-2.76,1.23,1.23,1.23
114.10,3.58,3.58,2.42,2.42,-2.42,-2.39,-2.79,1.16,1.16,1.16
115.24,3.52,3.52,2.43,2.44,-2.44,-2.41,-2.82,1.08,1.08,1.09
116.39,3.47,3.47,2.45,2.46,-2.46,-2.42,-2.85,1.01,1.01,1.01
117.55,3.42,3.42,2.47,2.47,-2.47,-2.43,-2.87,0.94,0.94,0.94
118.73,3.37,3.37,2.49,2.49,-2.49,-2.44,-2.89,0.88,0.88,0.87
119.92,3.31,3.31,2.50,2.51,-2.51,-2.45,-2.91,0.80,0.81,0.81
121.12,3.26,3.26,2.52,2.52,-2.52,-2.46,-2.92,0.74,0.74,0.74
122.33,3.20,3.20,2.53,2.53,-2.53,-2.46,-2.93,0.67,0.67,0.67
123.55,3.15,3.15,2.55,2.55,-2.55,-2.47,-2.93,0.60,0.60,0.60
124.79,3.09,3.09,2.56,2.56,-2.56,-2.47,-2.93,0.53,0.53,0.53
126.03,3.03,3.03,2.56,2.57,-2.57,-2.48,-2.93,0.46,0.47,0.47
127.29,2.98,2.98,2.58,2.57,-2.57,-2.48,-2.91,0.40,0.40,0.40
128.57,2.92,2.92,2.58,2.58,-2.58,-2.49,-2.90,0.34,0.34,0.34
129.85,2.86,2.86,2.59,2.59,-2.59,-2.49,-2.88,0.27,0.27,0.27
131.15,2.80,2.80,2.59,2.59,-2.59,-2.49,-2.86,0.21,0.21,0.21
132.46,2.74,2.74,2.59,2.59,-2.59,-2.49,-2.83,0.15,0.15,0.15
133.79,2.68,2.68,2.59,2.59,-2.59,-2.49,-2.80,0.09,0.09,0.09
135.12,2.62,2.62,2.59,2.59,-2.59,-2.49,-2.76,0.03,0.03,0.03
136.48,2.55,2.55,2.58,2.59,-2.59,-2.48,-2.72,-0.04,-0.03,-0.03
137.84,2.49,2.49,2.58,2.58,-2.58,-2.48,-2.68,-0.09,-0.09,-0.09
139.22,2.43,2.43,2.58,2.58,-2.58,-2.47,-2.64,-0.15,-0.15,-0.15
140.61,2.37,2.37,2.57,2.57,-2.57,-2.47,-2.59,-0.20,-0.21,-0.21
142.02,2.30,2.30,2.56,2.56,-2.56,-2.46,-2.54,-0.26,-0.26,-0.26
143.44,2.24,2.24,2.56,2.56,-2.56,-2.45,-2.49,-0.32,-0.32,-0.32
144.87,2.18,2.18,2.55,2.55,-2.55,-2.44,-2.43,-0.37,-0.37,-0.37
146.32,2.11,2.11,2.53,2.53,-2.53,-2.43,-2.38,-0.42,-0.42,-0.42
147.78,2.05,2.05,2.52,2.52,-2.52,-2.42,-2.32,-0.47,-0.47,-0.47
149.26,1.98,1.98,2.50,2.51,-2.51,-2.41,-2.27,-0.53,-0.52,-0.52
150.75,1.92,1.92,2.49,2.49,-2.49,-2.39,-2.21,-0.57,-0.57,-0.57
152.26,1.85,1.85,2.47,2.47,-2.47,-2.38,-2.15,-0.62,-0.62,-0.62
153.78,1.78,1.78,2.45,2.45,-2.45,-2.36,-2.10,-0.67,-0.67,-0.67
155.32,1.72,1.72,2.44,2.43,-2.43,-2.34,-2.04,-0.71,-0.72,-0.72
156.88,1.65,1.65,2.41,2.41,-2.41,-2.33,-1.98,-0.76,-0.76,-0.76
158.44,1.58,1.58,2.39,2.39,-2.39,-2.31,-1.93,-0.81,-0.81,-0.81
160.03,1.51,1.51,2.36,2.36,-2.37,-2.28,-1.87,-0.86,-0.86,-0.85
161.63,1.45,1.45,2.35,2.34,-2.35,-2.26,-1.81,-0.90,-0.90,-0.90
163.24,1.38,1.38,2.32,2.32,-2.32,-2.24,-1.76,-0.94,-0.94,-0.94
164.88,1.32,1.32,2.30,2.30,-2.30,-2.21,-1.71,-0.98,-0.98,-0.98
166.53,1.25,1.25,2.27,2.27,-2.27,-2.19,-1.65,-1.02,-1.02,-1.02
168.19,1.18,1.18,2.24,2.24,-2.24,-2.16,-1.60,-1.06,-1.06,-1.06
169.87,1.11,1.11,2.21,2.21,-2.21,-2.14,-1.55,-1.10,-1.10,-1.10
171.57,1.05,1.05,2.18,2.18,-2.18,-2.11,-1.50,-1.13,-1.14,-1.13
173.29,0.98,0.98,2.15,2.15,-2.15,-2.08,-1.45,-1.17,-1.17,-1.17
175.02,0.91,0.91,2.11,2.12,-2.11,-2.05,-1.40,-1.20,-1.20,-1.20
176.77,0.84,0.84,2.08,2.08,-2.08,-2.01,-1.35,-1.24,-1.24,-1.24
178.54,0.77,0.77,2.04,2.04,-2.04,-1.98,-1.31,-1.27,-1.27,-1.27
180.32,0.70,0.70,2.00,2.00,-2.00,-1.95,-1.26,-1.30,-1.30,-1.30
182.13,0.63,0.63,1.96,1.96,-1.96,-1.91,-1.22,-1.33,-1.33,-1.33
183.95,0.56,0.56,1.92,1.92,-1.92,-1.87,-1.18,-1.36,-1.36,-1.36
185.79,0.49,0.49,1.88,1.88,-1.88,-1.83,-1.14,-1.39,-1.39,-1.39
187.65,0.42,0.42,1.84,1.84,-1.84,-1.80,-1.09,-1.42,-1.42,-1.42
189.52,0.35,0.35,1.80,1.80,-1.80,-1.76,-1.06,-1.45,-1.45,-1.45
191.42,0.28,0.28,1.75,1.75,-1.76,-1.72,-1.02,-1.48,-1.48,-1.48
193.33,0.21,0.21,1.71,1.71,-1.71,-1.67,-0.98,-1.50,-1.50,-1.50
195.27,0.14,0.14,1.67,1.67,-1.67,-1.63,-0.94,-1.53,-1.53,-1.53
197.22,0.07,0.07,1.62,1.62,-1.62,-1.59,-0.91,-1.55,-1.55,-1.55
199.19,-0.00,-0.00,1.57,1.57,-1.57,-1.54,-0.87,-1.57,-1.57,-1.57
201.18,-0.08,-0.08,1.52,1.52,-1.52,-1.49,-0.84,-1.60,-1.59,-1.60
203.19,-0.15,-0.15,1.47,1.47,-1.47,-1.45,-0.80,-1.62,-1.62,-1.62
205.23,-0.23,-0.23,1.41,1.41,-1.41,-1.40,-0.77,-1.64,-1.64,-1.64
207.28,-0.31,-0.31,1.35,1.35,-1.36,-1.35,-0.74,-1.67,-1.66,-1.66
209.35,-0.38,-0.38,1.30,1.30,-1.30,-1.30,-0.71,-1.68,-1.68,-1.68
211.44,-0.46,-0.46,1.24,1.24,-1.24,-1.25,-0.67,-1.70,-1.70,-1.70
213.56,-0.53,-0.53,1.19,1.19,-1.19,-1.20,-0.64,-1.72,-1.72,-1.72
215.69,-0.61,-0.61,1.13,1.13,-1.13,-1.15,-0.61,-1.74,-1.74,-1.74
217.85,-0.69,-0.69,1.07,1.07,-1.07,-1.09,-0.58,-1.76,-1.76,-1.76
220.03,-0.76,-0.77,1.01,1.01,-1.01,-1.04,-0.55,-1.77,-1.77,-1.77
222.23,-0.84,-0.84,0.95,0.95,-0.95,-0.98,-0.52,-1.79,-1.79,-1.79
224.45,-0.92,-0.92,0.88,0.89,-0.89,-0.93,-0.50,-1.81,-1.80,-1.81
226.70,-0.99,-0.99,0.83,0.83,-0.83,-0.87,-0.47,-1.82,-1.82,-1.82
228.96,-1.07,-1.07,0.77,0.76,-0.77,-0.81,-0.44,-1.84,-1.84,-1.84
231.25,-1.15,-1.15,0.70,0.70,-0.70,-0.75,-0.41,-1.86,-1.85,-1.85
233.57,-1.23,-1.23,0.63,0.64,-0.64,-0.70,-0.38,-1.87,-1.87,-1.86
235.90,-1.30,-1.30,0.59,0.58,-0.58,-0.64,-0.35,-1.88,-1.88,-1.89
238.26,-1.38,-1.38,0.52,0.52,-0.52,-0.58,-0.32,-1.90,-1.90,-1.90
240.64,-1.45,-1.45,0.46,0.46,-0.46,-0.51,-0.29,-1.91,-1.91,-1.91
243.05,-1.53,-1.53,0.39,0.39,-0.39,-0.45,-0.26,-1.92,-1.92,-1.93
245.48,-1.61,-1.61,0.33,0.33,-0.33,-0.39,-0.23,-1.94,-1.94,-1.94
247.93,-1.68,-1.69,0.27,0.26,-0.27,-0.33,-0.20,-1.95,-1.95,-1.95
250.41,-1.76,-1.76,0.20,0.20,-0.20,-0.26,-0.17,-1.96,-1.96,-1.96
252.92,-1.84,-1.84,0.13,0.13,-0.14,-0.20,-0.14,-1.98,-1.97,-1.97
255.45,-1.91,-1.91,0.07,0.07,-0.07,-0.14,-0.11,-1.98,-1.98,-1.98
258.00,-1.98,-1.98,0.01,0.01,-0.00,-0.07,-0.08,-1.99,-1.99,-1.99
260.58,-2.06,-2.06,-0.06,-0.06,0.06,-0.01,-0.05,-2.00,-2.00,-2.00
263.19,-2.13,-2.13,-0.12,-0.12,0.12,0.06,-0.02,-2.01,-2.01,-2.01
265.82,-2.21,-2.21,-0.19,-0.19,0.19,0.13,0.02,-2.02,-2.02,-2.02
268.48,-2.28,-2.28,-0.25,-0.25,0.25,0.19,0.05,-2.03,-2.03,-2.03
271.16,-2.35,-2.36,-0.32,-0.32,0.32,0.26,0.09,-2.03,-2.04,-2.03
273.87,-2.43,-2.43,-0.39,-0.39,0.38,0.32,0.12,-2.05,-2.04,-2.04
276.61,-2.50,-2.50,-0.45,-0.45,0.45,0.39,0.15,-2.05,-2.05,-2.05
279.38,-2.57,-2.57,-0.51,-0.51,0.52,0.46,0.19,-2.05,-2.05,-2.06
282.17,-2.64,-2.64,-0.58,-0.58,0.58,0.52,0.23,-2.06,-2.06,-2.06
284.99,-2.71,-2.71,-0.65,-0.65,0.65,0.59,0.26,-2.06,-2.06,-2.06
287.84,-2.78,-2.78,-0.72,-0.72,0.72,0.66,0.30,-2.06,-2.06,-2.06
290.72,-2.85,-2.85,-0.79,-0.79,0.78,0.72,0.34,-2.07,-2.07,-2.06
293.63,-2.92,-2.92,-0.85,-0.85,0.85,0.79,0.38,-2.07,-2.07,-2.07
296.57,-2.98,-2.98,-0.91,-0.92,0.92,0.86,0.42,-2.06,-2.07,-2.07
299.53,-3.05,-3.05,-0.99,-0.98,0.98,0.92,0.46,-2.07,-2.06,-2.06
302.53,-3.11,-3.11,-1.04,-1.05,1.05,0.99,0.50,-2.06,-2.06,-2.07
305.55,-3.17,-3.18,-1.11,-1.11,1.11,1.05,0.54,-2.06,-2.06,-2.06
308.61,-3.24,-3.24,-1.17,-1.17,1.17,1.12,0.58,-2.07,-2.07,-2.07
311.69,-3.30,-3.30,-1.24,-1.24,1.23,1.18,0.63,-2.07,-2.07,-2.06
314.81,-3.36,-3.36,-1.29,-1.30,1.29,1.24,0.67,-2.07,-2.07,-2.07
317.96,-3.42,-3.42,-1.36,-1.35,1.35,1.31,0.72,-2.07,-2.07,-2.06
321.14,-3.47,-3.47,-1.40,-1.41,1.41,1.37,0.76,-2.06,-2.06,-2.07
324.35,-3.53,-3.53,-1.47,-1.47,1.47,1.43,0.81,-2.06,-2.06,-2.06
327.59,-3.58,-3.58,-1.53,-1.52,1.52,1.49,0.86,-2.06,-2.06,-2.06
330.87,-3.63,-3.63,-1.57,-1.58,1.57,1.55,0.90,-2.06,-2.06,-2.06
334.18,-3.68,-3.68,-1.63,-1.62,1.63,1.60,0.95,-2.05,-2.05,-2.05
337.52,-3.73,-3.73,-1.67,-1.67,1.68,1.66,1.00,-2.05,-2.05,-2.06
340.90,-3.77,-3.78,-1.72,-1.73,1.73,1.72,1.06,-2.04,-2.05,-2.05
344.30,-3.82,-3.82,-1.78,-1.78,1.78,1.77,1.11,-2.04,-2.04,-2.04
347.75,-3.87,-3.87,-1.83,-1.83,1.83,1.82,1.16,-2.04,-2.04,-2.04
351.23,-3.91,-3.91,-1.87,-1.88,1.87,1.87,1.22,-2.04,-2.04,-2.04
354.74,-3.95,-3.95,-1.93,-1.92,1.92,1.92,1.27,-2.03,-2.03,-2.02
358.28,-3.99,-3.99,-1.96,-1.96,1.96,1.97,1.33,-2.03,-2.02,-2.03
361.87,-4.02,-4.02,-2.00,-2.01,2.01,2.02,1.39,-2.02,-2.02,-2.02
365.49,-4.06,-4.06,-2.05,-2.04,2.04,2.06,1.45,-2.02,-2.01,-2.01
369.14,-4.09,-4.09,-2.08,-2.08,2.08,2.10,1.51,-2.01,-2.01,-2.01
372.83,-4.12,-4.12,-2.12,-2.12,2.12,2.14,1.57,-2.00,-2.00,-2.00
376.56,-4.15,-4.15,-2.15,-2.15,2.15,2.18,1.63,-2.00,-2.00,-2.00
380.33,-4.18,-4.18,-2.19,-2.19,2.19,2.22,1.69,-1.99,-1.99,-1.99
384.13,-4.21,-4.21,-2.22,-2.22,2.22,2.25,1.75,-1.99,-1.99,-1.99
387.97,-4.23,-4.23,-2.24,-2.25,2.25,2.28,1.82,-1.98,-1.98,-1.99
391.85,-4.26,-4.26,-2.29,-2.28,2.28,2.31,1.88,-1.98,-1.98,-1.97
395.77,-4.28,-4.28,-2.31,-2.31,2.31,2.34,1.95,-1.97,-1.97,-1.97
399.73,-4.30,-4.30,-2.34,-2.34,2.34,2.37,2.01,-1.96,-1.96,-1.96
403.72,-4.32,-4.32,-2.37,-2.36,2.36,2.39,2.08,-1.96,-1.96,-1.95
407.76,-4.34,-4.34,-2.38,-2.39,2.38,2.41,2.14,-1.96,-1.95,-1.96
411.84,-4.35,-4.35,-2.40,-2.40,2.40,2.43,2.21,-1.95,-1.95,-1.95
415.96,-4.36,-4.36,-2.42,-2.42,2.42,2.45,2.27,-1.94,-1.94,-1.94
420.12,-4.37,-4.37,-2.43,-2.43,2.43,2.46,2.33,-1.94,-1.94,-1.94
424.32,-4.38,-4.38,-2.45,-2.45,2.45,2.47,2.40,-1.94,-1.93,-1.93
428.56,-4.38,-4.38,-2.46,-2.46,2.46,2.48,2.46,-1.92,-1.92,-1.92
432.85,-4.38,-4.39,-2.46,-2.47,2.47,2.49,2.52,-1.91,-1.92,-1.92
437.18,-4.39,-4.39,-2.47,-2.47,2.48,2.49,2.57,-1.91,-1.91,-1.92
441.55,-4.39,-4.39,-2.48,-2.48,2.49,2.50,2.63,-1.90,-1.90,-1.91
445.96,-4.39,-4.39,-2.49,-2.49,2.49,2.50,2.68,-1.90,-1.90,-1.90
450.42,-4.38,-4.38,-2.50,-2.50,2.50,2.50,2.73,-1.88,-1.89,-1.88
454.93,-4.38,-4.38,-2.51,-2.51,2.50,2.49,2.78,-1.88,-1.88,-1.87
459.48,-4.37,-4.37,-2.51,-2.50,2.50,2.49,2.82,-1.87,-1.87,-1.86
464.07,-4.36,-4.36,-2.50,-2.50,2.50,2.48,2.86,-1.86,-1.86,-1.86
468.71,-4.34,-4.34,-2.48,-2.49,2.49,2.47,2.89,-1.85,-1.85,-1.86
473.40,-4.33,-4.33,-2.48,-2.48,2.49,2.46,2.92,-1.85,-1.84,-1.85
478.13,-4.31,-4.31,-2.47,-2.48,2.48,2.45,2.94,-1.83,-1.84,-1.84
482.91,-4.30,-4.30,-2.47,-2.47,2.47,2.44,2.96,-1.84,-1.83,-1.83
487.74,-4.27,-4.27,-2.45,-2.45,2.45,2.42,2.97,-1.82,-1.82,-1.82
492.62,-4.25,-4.25,-2.44,-2.44,2.44,2.40,2.98,-1.81,-1.81,-1.81
497.55,-4.23,-4.23,-2.43,-2.43,2.43,2.38,2.98,-1.80,-1.80,-1.80
502.52,-4.20,-4.20,-2.41,-2.41,2.41,2.36,2.98,-1.79,-1.79,-1.79
