frequency,raw
10,-17.577348778601646
11,-16.535694457100217
12,-15.267590994242322
13,-14.451463305588863
14,-13.66907578165614
15,-12.834577370839625
16,-12.260424124774406
17,-11.561521153024824
18,-10.982991939711198
19,-10.50452315249908
20,-10.067307256926133
21,-9.567567751795501
22,-9.173377176989327
23,-8.802283494319315
24,-8.497787474223948
25,-8.04515925364257
26,-7.813787838088588
27,-7.508167973177298
28,-7.256227194965724
29,-7.059217640616399
30,-6.8507152939845914
31,-6.623544031719987
32,-6.383196311481389
33,-6.196541352934744
34,-6.054807493442909
35,-5.887816008869073
36,-5.6838343296497555
37,-5.493358532581456
38,-5.510359779181938
39,-5.318465095052719
40,-5.133424833053534
41,-4.995259526573922
42,-4.739120927418604
43,-4.773108224391632
44,-4.5460565469685275
45,-4.484565054836198
46,-4.368925882063572
47,-4.274357934339253
48,-4.173493042550781
49,-4.064745486014765
50,-4.049754405271569
51,-3.829275859073755
52,-3.81059994360538
53,-3.8014433712666547
54,-3.704555363167613
55,-3.689371418924712
56,-3.695825819008894
57,-3.7056920957990247
58,-3.7162968642003262
59,-3.725546947467346
60,-3.7749696720347328
61,-3.8423931387812216
62,-3.8388513268374895
63,-3.839890842226124
64,-3.7403919131912473
65,-3.6412198225328076
66,-3.642336920356062
67,-3.6421735819744603
68,-3.5486250296825914
69,-3.432345872197834
70,-3.4250879859152996
71,-3.4180205854221666
72,-3.3391239489221696
73,-3.2106975924378953
74,-3.2135675297809776
75,-3.192886805963351
76,-3.1299398068401523
77,-3.1423228231873845
78,-3.054910789664646
79,-3.017586653852125
80,-2.974536694087682
81,-2.9635588165094675
82,-2.873239171985392
83,-2.7666937279217887
84,-2.751147122675312
85,-2.7369232163088597
86,-2.7222598425705584
87,-2.7076680383163776
88,-2.593160357328851
89,-2.4808484466217378
90,-2.4738684552947046
91,-2.4741481981318336
92,-2.4824078401973715
93,-2.496349686209353
94,-2.410348881738953
95,-2.419707166591879
96,-2.419991465340907
97,-2.411467348007399
98,-2.3987196607624357
99,-2.3885939200242765
100,-2.386811680719859
101,-2.3949960620797945
102,-2.4097175414581007
104,-2.323548277616495
105,-2.3307314999460984
106,-2.327058521000185
107,-2.313734591862317
108,-2.295933632458554
109,-2.2801629585446737
110,-2.271394719571802
111,-2.271402825008486
112,-2.2788654265949324
113,-2.2907495351655416
114,-2.3039313683401548
115,-2.316176915965647
117,-2.3262601639522553
118,-2.3336090629210284
119,-2.338033795944752
120,-2.3397788899860426
121,-2.3396855553966507
123,-2.339060812632774
124,-2.2631109239661926
125,-2.2394939947936603
126,-2.2405087949247475
128,-2.2398743943360246
129,-2.236268643053422
130,-2.2298288965574224
131,-2.235692304089499
133,-2.3174955363693397
134,-2.3159860129067145
135,-2.318657270482831
137,-2.3234334230488143
138,-2.388622927755137
140,-2.4274316175444324
141,-2.4227606316170194
142,-2.41526618552466
144,-2.4079281740516274
145,-2.4034989458928444
147,-2.4189944682950864
148,-2.4874502398164955
150,-2.5114930807399496
151,-2.5142061627470684
153,-2.5122860843470036
154,-2.5038320822174533
156,-2.488714116498349
157,-2.46906009483935
159,-2.4490073112254924
160,-2.4600314764591507
162,-2.526719727925319
164,-2.6291122911451406
165,-2.6376498498781196
167,-2.648360513918272
169,-2.656739407310517
170,-2.6602996621686144
172,-2.6592829149496042
174,-2.6849809331006322
175,-2.736780919055505
177,-2.755953925240546
179,-2.7506276325192145
181,-2.7503483185036375
183,-2.748256288263793
184,-2.7441853926002144
186,-2.7644764615405246
188,-2.8482620992267083
190,-2.9206081376772546
192,-2.9533738492514794
194,-2.9490222765534506
196,-2.9420623100252867
198,-2.9296432004351223
200,-2.9088477874239103
202,-2.901956543173334
204,-3.030817484775981
206,-3.067350763037556
208,-3.059213377611154
210,-3.0501690494525424
212,-3.0662403289890237
214,-3.1562591319693425
216,-3.1451059593213193
218,-3.101830283783016
221,-3.1757955057633667
223,-3.216232090290477
225,-3.2203183697141786
227,-3.316973744704419
229,-3.3585916603465575
232,-3.3285960990930716
234,-3.3470807885893854
236,-3.4976415692263414
239,-3.5584411778231857
241,-3.5108091875204304
244,-3.5822164126984375
246,-3.705366217639652
248,-3.6954150997180806
251,-3.668300668619592
253,-3.658342627999296
256,-3.77580949446826
259,-3.9043482151766566
261,-3.902856976669902
264,-3.919736178055535
266,-4.026322286141871
269,-3.9915434104184646
272,-4.041043032062065
274,-4.205072662337498
277,-4.227232965157581
280,-4.183827114021493
283,-4.173583478463604
286,-4.231682206843406
288,-4.2580299947832465
291,-4.251846184732274
294,-4.425098005264492
297,-4.498875362815383
300,-4.436976767715123
303,-4.488973918540708
306,-4.5663613201079265
309,-4.456231193344242
312,-4.543731428722204
316,-4.676655946531195
319,-4.779636535553657
322,-4.722066637042931
325,-4.678309294300771
328,-4.6682930177900115
332,-4.651426992380735
335,-4.580815330552308
338,-4.74743099446623
342,-4.9389608490210275
345,-4.889705180230278
349,-4.8444945546616776
352,-4.768654525098398
356,-4.782726745825613
359,-5.008424377095621
363,-5.056021883196902
366,-4.976817340728568
370,-4.95640454508519
374,-4.943781506536143
377,-4.932215201471804
381,-4.922108658844481
385,-4.940790017115637
389,-5.0056731680862345
393,-5.070872996289983
397,-5.085947949479665
401,-5.073746178614716
405,-5.087688190937289
409,-5.256720336007095
413,-5.217090875970197
417,-5.158762877603667
421,-5.165629575477471
425,-5.337342725916429
430,-5.363281483593891
434,-5.273319276021592
438,-5.266456692654071
443,-5.257860418278412
447,-5.248837806619945
451,-5.3445962201692465
456,-5.468946504503145
460,-5.347604678471884
465,-5.298668781557741
470,-5.2830471448733265
474,-5.268369826937475
479,-5.253932680547282
484,-5.237393252140116
489,-5.216143810237607
494,-5.1890566499213975
499,-5.157422127625255
504,-4.863030223889063
509,-4.832758294667382
514,-5.093458773668393
519,-5.028225283692225
524,-4.841003648385209
529,-4.655403732372325
535,-4.691795333520375
540,-4.901807102224976
545,-4.893973134697232
551,-4.64754815968298
556,-4.603242470634557
562,-4.494207144233986
568,-4.3317867913690105
573,-4.276628310903278
579,-4.011537979122417
585,-4.085090850309873
591,-4.0956786744209435
596,-4.018027228573328
602,-3.779003212348954
608,-3.5922209525572537
615,-3.4945977425563113
621,-3.5356447323287625
627,-3.3530979743147555
633,-3.1745110498389875
639,-3.025010304439026
646,-2.863649438166426
652,-2.717207010875975
659,-2.5209513889769855
665,-2.4158256586795495
672,-2.384903896015205
679,-2.241247516819054
686,-2.0639788887395194
692,-1.8941878255476938
699,-1.759569178695532
706,-1.6368782613717288
713,-1.4985544427622617
721,-1.268796713102721
728,-1.2299957653133577
735,-1.1648075865856442
742,-0.9645155489257431
750,-0.92970974592345
757,-0.9065311755371432
765,-0.8394456221990003
773,-0.721885629462125
780,-0.6831221179437303
788,-0.6096042473117302
796,-0.482905407002
804,-0.4312162870281351
812,-0.41709064801805773
820,-0.3508848201491266
828,-0.2798187298703296
837,-0.22801199240773462
845,-0.22885589720766514
853,-0.22163432212353662
862,-0.16687092618469546
871,-0.1767959886439412
879,-0.18612023245782705
888,-0.1870159416982382
897,-0.16408253231525705
906,-0.07866061074083808
915,-0.07442040536732275
924,-0.06961143865869335
933,-0.10830948632773663
943,-0.2485885788718043
952,-0.23152264390536137
962,-0.20620366272185675
971,-0.14901966739386463
981,-0.047021841000444264
991,-0.020368494028816908
1001,0.0022518406779008515
1011,0.0221371907927832
1021,-0.024513987500596524
1031,-0.134747281865903
1041,-0.10497637195314752
1052,-0.15850135848839297
1062,-0.21394717526833373
1073,-0.18333843353511758
1084,-0.16465299553026724
1094,-0.19915168960023555
1105,-0.2537432540408844
1116,-0.2776289185804989
1128,-0.32616917451822314
1139,-0.37285436147055384
1150,-0.4134535739518359
1162,-0.40874541304583323
1173,-0.48035775050814844
1185,-0.5322883382038763
1197,-0.631245794346766
1209,-0.7150938428710276
1221,-0.7674384758813273
1233,-0.773522548543256
1246,-0.7567691447468232
1258,-0.7615770228010086
1271,-0.7661569972648765
1283,-0.7501841654858428
1296,-0.7914246814370145
1309,-0.7819370151942282
1322,-0.7750381707613292
1335,-0.8215716489094227
1349,-0.8834417093020885
1362,-0.87836058949242
1376,-0.8827152354097731
1390,-0.8828079772468476
1404,-0.888284605467569
1418,-0.9369470682267278
1432,-1.00054554462728
1446,-1.0361841281267745
1461,-1.0451609948744158
1475,-1.0757791944547468
1490,-1.1283426562632641
1505,-1.1623698431699925
1520,-1.1926357066965556
1535,-1.2116094158748787
1550,-1.2397005859476664
1566,-1.288726471111969
1582,-1.3402284590762812
1597,-1.2956208449636755
1613,-1.3111113388345106
1629,-1.363496558336271
1646,-1.3982494181257814
1662,-1.3921176355397034
1679,-1.4662788133190512
1696,-1.521349558555685
1713,-1.5864591045665968
1730,-1.5403562305722551
1747,-1.5794326198322097
1764,-1.5729638859558381
1782,-1.5405326143052505
1800,-1.6159332878934944
1818,-1.641658272452827
1836,-1.6463742348106627
1854,-1.6459703978545228
1873,-1.6757752114214495
1892,-1.6915215943215443
1911,-1.6737808076117089
1930,-1.6955329061979239
1949,-1.7564293787601635
1969,-1.7472579495857365
1988,-1.7036419124663222
2008,-1.666147861667282
2028,-1.6173931815815967
2048,-1.5370716641250501
2069,-1.4603108475151014
2090,-1.3695730323643884
2111,-1.2407606359619496
2132,-1.1578707029850017
2153,-1.0609080197781822
2175,-0.9144377530594747
2196,-0.750075923666472
2218,-0.5909774236582415
2240,-0.43229642138452906
2263,-0.34519026611477255
2285,-0.20527157540103502
2308,-0.017841982392485356
2331,0.19287127568394258
2355,0.4330719443676392
2378,0.7014981861642973
2402,0.9910031925721148
2426,1.3990635534009792
2450,1.6874980187183537
2475,2.0460728708396543
2500,2.3816184521467516
2525,2.7513123614959456
2550,3.0837131193640026
2575,3.317975976226575
2601,3.486425043189757
2627,3.680828396631698
2653,4.007310005365334
2680,4.323779511315758
2707,4.672050179861989
2734,5.041733023579579
2761,5.34078523259587
2789,5.59090301215569
2817,5.6606359760266844
2845,5.648399371448059
2873,5.2486325213103555
2902,5.24713174544269
2931,4.948770691906502
2960,4.7157621395370555
2990,4.650423319435484
3020,4.634176112857659
3050,4.797558920689138
3080,5.089602085381176
3111,4.773466004223804
3142,4.633202240782383
3174,4.754692255410214
3206,4.840239240795355
3238,5.1076478852231695
3270,5.422603610904924
3303,5.598584772339416
3336,6.134418144232223
3369,6.6311819972904384
3403,6.987212475790036
3437,7.2143700621321365
3471,7.42657165403051
3506,7.617975841596012
3541,7.815286351654165
3576,8.180214118060345
3612,8.299698359682885
3648,8.282866493653508
3685,8.194806784442367
3721,7.911237351546295
3759,7.877772226561677
3796,7.788998193222515
3834,7.750035278519718
3873,7.875650290280723
3911,7.639975658908453
3950,7.33400176955859
3990,7.099491055475598
4030,6.967633520415233
4070,6.960014798586143
4111,6.885409780543299
4152,6.704284159918718
4193,6.45722154412127
4235,6.1545429054767515
4278,5.943309690329216
4321,5.757513939631907
4364,5.633774091633252
4407,5.467928556684252
4451,5.276132168585094
4496,5.039703186426571
4541,4.7731588475679585
4586,4.627694633771932
4632,4.4707178610282865
4679,4.165570555027971
4725,3.901869477130459
4773,3.6082545189486037
4820,3.1914812185052446
4868,2.7802814215915976
4917,2.4495792026822665
4966,2.1130395804923205
5016,1.7196212139149383
5066,1.4321464696101662
5117,1.190611936149156
5168,0.937399172192567
5220,0.7254640941228088
5272,0.5521258962747266
5325,0.4052834751061889
5378,0.3387116577615883
5432,0.1864341993611589
5486,0.09697806247758933
5541,0.046723315483141015
5596,-0.08611367624614363
5652,-0.4140133098928951
5709,-0.7846911680520288
5766,-1.166369883072071
5823,-1.5154561651739629
5882,-1.6415455335269735
5940,-1.3411957304763922
6000,-1.2714185014923522
6060,-0.744056971286021
6120,-0.2677631875581383
6182,-0.04986706512203121
6244,-0.1188237390523339
6306,-0.33527911030849555
6369,-0.5190446877163808
6433,-0.6317596597524497
6497,-1.0108000133754524
6562,-1.473919424120579
6628,-1.8416297188766784
6694,-2.4697587266659093
6761,-2.5437253413522996
6828,-2.450271865801457
6897,-2.3773491170314545
6966,-2.267050151542305
7035,-2.267332614677135
7106,-2.3336890871754976
7177,-2.574274773241141
7249,-2.5872130780103846
7321,-2.6097597020943226
7394,-3.0444878250620184
7468,-3.325430638547048
7543,-2.9224742428234074
7618,-2.6322917669156536
7694,-2.502138891473291
7771,-2.492976568296708
7849,-2.713794165342697
7928,-2.876807470527001
8007,-2.9206110528052376
8087,-2.905026195344091
8168,-2.9346585096976856
8250,-2.890645767706168
8332,-1.9703464861053126
8415,-1.523631594728701
8499,-1.5126397564203757
8584,-1.6627065045536225
8670,-0.8698328977438003
8757,-0.6580636209903741
8845,-1.292929724072021
8933,-2.047544908642495
9022,-2.09860737350845
9113,-1.1229882356299896
9204,-0.8962682635578911
9296,-0.41459737390102847
9389,0.6466534129989436
9483,1.3406968956869791
9577,1.9368052810788314
9673,2.5552419144408987
9770,3.3112750026263034
9868,3.9502150312692215
9966,4.5474896319364095
10066,4.75991791633121
10167,4.3901269946313
10268,3.936938690459523
10371,3.2996315975619925
10475,2.065193082115375
10579,1.0974405528813556
10685,0.08524095530533282
10792,-1.683072805394386
10900,-2.565058597731407
11009,-3.7083406768945633
11119,-4.850830832456054
11230,-5.22416349764946
11343,-5.365560266355796
11456,-5.814176320525963
11571,-5.9328117145057835
11686,-5.751993598720047
11803,-5.672672859627362
11921,-5.567036468728488
12040,-4.9255560349832095
12161,-4.211192913641251
12282,-3.4689019076543333
12405,-2.9697069267644847
12529,-2.6613666668942217
12655,-2.7893208112809793
12781,-3.5666797887822463
12909,-4.778585176419816
13038,-6.650427662536251
13168,-8.029716160834816
13300,-9.195645287237692
13433,-9.7556593094484
13567,-10.296617560420607
13703,-9.828485119002124
13840,-10.682023979700578
13978,-11.502510391329473
14118,-12.441468403294602
14259,-13.07223042277089
14402,-13.345150850215846
14546,-12.919845955491045
14692,-12.131570218523175
14838,-11.417434370397602
14987,-10.786633141740195
15137,-10.300527746807859
15288,-9.655846352382625
15441,-8.990865570553812
15595,-8.98121250392828
15751,-8.988571967429442
15909,-8.85222517705118
16068,-9.079455207059517
16229,-9.308035320213222
16391,-10.085051121459081
16555,-10.510442853861939
16720,-10.074716621409893
16888,-10.938464649480961
17056,-12.014288623076716
17227,-13.340462632620891
17399,-12.969782888878626
17573,-11.699229652386666
17749,-11.43485717284251
17926,-11.862382217395535
18106,-12.447216812412137
18287,-13.273393336658266
18470,-14.810687049181293
18654,-15.581940792345518
18841,-16.898614852515312
19029,-19.48666342411214
19220,-20.176988386671013
19412,-20.427349999005713
19606,-19.440187446131283
19802,-18.147609895982658
20000,-16.726843289932926
20200,-14.839096777190107
20402,-13.903510418679968
20606,-12.933636600909024
20812,-11.228925720182918
21020,-10.635136976236932
21230,-9.80398087148348
21443,-8.597933235498093
21657,-7.758683577634906
21874,-8.048421801881881
22092,-7.990881250807445
22313,-7.8659818606800025
22537,-8.382458039577525
22762,-9.337276053152618
22989,-10.786265723602057
23219,-11.998743573120173
23452,-14.1962432019211
23686,-14.952634855818136
23923,-16.304046685221582
24162,-17.47002438270166
24404,-18.6559821173983
24648,-19.840362133601012
24894,-21.022904082675968
25143,-22.208686310679695
25395,-23.397294881917098
25649,-24.583118783291667
25905,-25.766019015958378
26164,-26.95106104149587
26426,-28.138052346111287
26690,-29.32178565464975
26957,-30.50726651983326
27227,-31.6943569756378
27499,-32.878012633449295
27774,-34.06307219176422
28052,-35.24936634514798
28332,-36.43196606347084
28615,-37.6155430987254
28902,-38.80460016782931
29191,-39.98961269481063
29482,-41.17057055130165
29777,-42.35651183835726
