frequency,raw
20.00,-10.52
20.20,-10.80
20.40,-11.08
20.61,-11.35
20.81,-11.64
21.02,-11.92
21.23,-12.25
21.44,-12.57
21.66,-12.90
21.87,-13.23
22.09,-13.55
22.31,-13.90
22.54,-14.22
22.76,-14.57
22.99,-14.91
23.22,-15.20
23.45,-15.48
23.69,-15.76
23.92,-16.04
24.16,-16.19
24.40,-16.27
24.65,-16.35
24.89,-16.43
25.14,-16.36
25.39,-16.16
25.65,-15.97
25.91,-15.77
26.16,-15.43
26.43,-15.03
26.69,-14.60
26.96,-14.19
27.23,-13.70
27.50,-13.17
27.77,-12.65
28.05,-12.14
28.33,-11.62
28.62,-11.11
28.90,-10.58
29.19,-10.07
29.48,-9.58
29.78,-9.08
30.08,-8.60
30.38,-8.15
30.68,-7.68
30.99,-7.23
31.30,-6.80
31.61,-6.37
31.93,-5.95
32.24,-5.52
32.57,-5.13
32.89,-4.73
33.22,-4.35
33.55,-3.98
33.89,-3.60
34.23,-3.24
34.57,-2.89
34.92,-2.54
35.27,-2.20
35.62,-1.87
35.97,-1.53
36.33,-1.22
36.70,-0.90
37.06,-0.59
37.43,-0.29
37.81,0.02
38.19,0.31
38.57,0.60
38.95,0.89
39.34,1.16
39.74,1.43
40.14,1.70
40.54,1.96
40.94,2.22
41.35,2.47
41.76,2.72
42.18,2.96
42.60,3.20
43.03,3.44
43.46,3.66
43.90,3.89
44.33,4.11
44.78,4.32
45.23,4.53
45.68,4.74
46.13,4.94
46.60,5.14
47.06,5.33
47.53,5.52
48.01,5.71
48.49,5.90
48.97,6.09
49.46,6.27
49.96,6.45
50.46,6.62
50.96,6.78
51.47,6.91
51.99,7.04
52.51,7.15
53.03,7.27
53.56,7.40
54.10,7.54
54.64,7.70
55.18,7.85
55.74,7.99
56.29,8.12
56.86,8.23
57.42,8.34
58.00,8.44
58.58,8.53
59.16,8.63
59.76,8.74
60.35,8.85
60.96,8.96
61.57,9.07
62.18,9.17
62.80,9.26
63.43,9.35
64.07,9.43
64.71,9.51
65.35,9.59
66.01,9.65
66.67,9.72
67.33,9.79
68.01,9.85
68.69,9.91
69.37,9.98
70.07,10.05
70.77,10.10
71.48,10.16
72.19,10.23
72.91,10.28
73.64,10.34
74.38,10.37
75.12,10.39
75.87,10.42
76.63,10.44
77.40,10.47
78.17,10.50
78.95,10.53
79.74,10.57
80.54,10.62
81.35,10.65
82.16,10.68
82.98,10.71
83.81,10.73
84.65,10.76
85.50,10.77
86.35,10.79
87.22,10.80
88.09,10.81
88.97,10.82
89.86,10.84
90.76,10.86
91.66,10.87
92.58,10.89
93.51,10.90
94.44,10.90
95.39,10.91
96.34,10.91
97.30,10.90
98.28,10.89
99.26,10.87
100.25,10.85
101.25,10.84
102.27,10.83
103.29,10.85
104.32,10.86
105.37,10.86
106.42,10.86
107.48,10.85
108.56,10.83
109.64,10.80
110.74,10.78
111.85,10.76
112.97,10.75
114.10,10.74
115.24,10.73
116.39,10.72
117.55,10.70
118.73,10.68
119.92,10.65
121.12,10.63
122.33,10.60
123.55,10.58
124.79,10.55
126.03,10.53
127.29,10.52
128.57,10.50
129.85,10.48
131.15,10.46
132.46,10.42
133.79,10.39
135.12,10.34
136.48,10.30
137.84,10.25
139.22,10.21
140.61,10.17
142.02,10.12
143.44,10.08
144.87,10.05
146.32,10.02
147.78,9.98
149.26,9.94
150.75,9.90
152.26,9.87
153.78,9.83
155.32,9.78
156.88,9.73
158.44,9.69
160.03,9.65
161.63,9.61
163.24,9.57
164.88,9.52
166.53,9.48
168.19,9.44
169.87,9.39
171.57,9.36
173.29,9.32
175.02,9.27
176.77,9.23
178.54,9.18
180.32,9.14
182.13,9.09
183.95,9.04
185.79,9.00
187.65,8.98
189.52,8.95
191.42,8.95
193.33,8.94
195.27,8.93
197.22,8.92
199.19,8.91
201.18,8.89
203.19,8.87
205.23,8.85
207.28,8.83
209.35,8.81
211.44,8.78
213.56,8.74
215.69,8.70
217.85,8.63
220.03,8.58
222.23,8.51
224.45,8.45
226.70,8.39
228.96,8.34
231.25,8.29
233.57,8.24
235.90,8.18
238.26,8.13
240.64,8.06
243.05,8.00
245.48,7.93
247.93,7.86
250.41,7.80
252.92,7.73
255.45,7.67
258.00,7.60
260.58,7.53
263.19,7.45
265.82,7.38
268.48,7.31
271.16,7.24
273.87,7.16
276.61,7.09
279.38,7.02
282.17,6.94
284.99,6.87
287.84,6.79
290.72,6.72
293.63,6.64
296.57,6.57
299.53,6.49
302.53,6.41
305.55,6.34
308.61,6.27
311.69,6.19
314.81,6.11
317.96,6.03
321.14,5.96
324.35,5.89
327.59,5.81
330.87,5.73
334.18,5.65
337.52,5.57
340.90,5.49
344.30,5.42
347.75,5.34
351.23,5.26
354.74,5.18
358.28,5.10
361.87,5.02
365.49,4.94
369.14,4.86
372.83,4.78
376.56,4.70
380.33,4.62
384.13,4.53
387.97,4.45
391.85,4.37
395.77,4.28
399.73,4.20
403.72,4.11
407.76,4.02
411.84,3.94
415.96,3.85
420.12,3.77
424.32,3.68
428.56,3.59
432.85,3.50
437.18,3.41
441.55,3.33
445.96,3.24
450.42,3.16
454.93,3.07
459.48,2.99
464.07,2.91
468.71,2.83
473.40,2.75
478.13,2.67
482.91,2.59
487.74,2.50
492.62,2.42
497.55,2.34
502.52,2.24
507.55,2.15
512.62,2.05
517.75,1.94
522.93,1.83
528.16,1.73
533.44,1.64
538.77,1.55
544.16,1.47
549.60,1.41
555.10,1.32
560.65,1.24
566.25,1.15
571.92,1.07
577.64,0.97
583.41,0.88
589.25,0.79
595.14,0.70
601.09,0.62
607.10,0.54
613.17,0.45
619.30,0.35
625.50,0.24
631.75,0.14
638.07,0.04
644.45,-0.05
650.89,-0.13
657.40,-0.19
663.98,-0.26
670.62,-0.33
677.32,-0.40
684.10,-0.49
690.94,-0.56
697.85,-0.64
704.83,-0.70
711.87,-0.76
718.99,-0.81
726.18,-0.85
733.44,-0.90
740.78,-0.94
748.19,-1.00
755.67,-1.06
763.23,-1.12
770.86,-1.17
778.57,-1.21
786.35,-1.24
794.22,-1.27
802.16,-1.29
810.18,-1.30
818.28,-1.31
826.46,-1.32
834.73,-1.31
843.08,-1.30
851.51,-1.29
860.02,-1.27
868.62,-1.23
877.31,-1.20
886.08,-1.14
894.94,-1.08
903.89,-1.02
912.93,-0.95
922.06,-0.87
931.28,-0.79
940.59,-0.70
950.00,-0.60
959.50,-0.48
969.09,-0.36
978.78,-0.24
988.57,-0.13
998.46,-0.02
1008.44,0.08
1018.53,0.17
1028.71,0.24
1039.00,0.32
1049.39,0.40
1059.88,0.48
1070.48,0.55
1081.19,0.63
1092.00,0.70
1102.92,0.77
1113.95,0.83
1125.09,0.89
1136.34,0.92
1147.70,0.95
1159.18,0.97
1170.77,0.99
1182.48,1.00
1194.30,1.02
1206.25,1.04
1218.31,1.06
1230.49,1.07
1242.80,1.10
1255.22,1.13
1267.78,1.18
1280.45,1.22
1293.26,1.25
1306.19,1.28
1319.25,1.29
1332.45,1.29
1345.77,1.29
1359.23,1.29
1372.82,1.31
1386.55,1.33
1400.41,1.35
1414.42,1.37
1428.56,1.40
1442.85,1.41
1457.28,1.41
1471.85,1.40
1486.57,1.41
1501.43,1.42
1516.45,1.44
1531.61,1.47
1546.93,1.51
1562.40,1.55
1578.02,1.58
1593.80,1.61
1609.74,1.64
1625.84,1.67
1642.10,1.71
1658.52,1.74
1675.10,1.78
1691.85,1.83
1708.77,1.88
1725.86,1.93
1743.12,1.99
1760.55,2.06
1778.15,2.13
1795.94,2.19
1813.90,2.27
1832.03,2.34
1850.36,2.41
1868.86,2.48
1887.55,2.56
1906.42,2.65
1925.49,2.74
1944.74,2.83
1964.19,2.91
1983.83,3.01
2003.67,3.11
2023.71,3.22
2043.94,3.34
2064.38,3.46
2085.03,3.60
2105.88,3.73
2126.94,3.85
2148.20,3.97
2169.69,4.08
2191.38,4.20
2213.30,4.32
2235.43,4.43
2257.78,4.55
2280.36,4.68
2303.17,4.80
2326.20,4.93
2349.46,5.02
2372.95,5.11
2396.68,5.20
2420.65,5.29
2444.86,5.38
2469.31,5.49
2494.00,5.61
2518.94,5.74
2544.13,5.87
2569.57,6.00
2595.27,6.12
2621.22,6.23
2647.43,6.31
2673.90,6.38
2700.64,6.43
2727.65,6.46
2754.93,6.49
2782.48,6.50
2810.30,6.53
2838.40,6.56
2866.79,6.60
2895.46,6.66
2924.41,6.70
2953.65,6.73
2983.19,6.76
3013.02,6.78
3043.15,6.78
3073.58,6.76
3104.32,6.74
3135.36,6.70
3166.72,6.64
3198.38,6.57
3230.37,6.48
3262.67,6.38
3295.30,6.27
3328.25,6.16
3361.53,6.04
3395.15,5.92
3429.10,5.79
3463.39,5.67
3498.03,5.55
3533.01,5.40
3568.34,5.25
3604.02,5.09
3640.06,4.91
3676.46,4.73
3713.22,4.56
3750.36,4.38
3787.86,4.21
3825.74,4.04
3864.00,3.88
3902.64,3.72
3941.66,3.57
3981.08,3.42
4020.89,3.25
4061.10,3.08
4101.71,2.90
4142.73,2.73
4184.15,2.55
4226.00,2.38
4268.26,2.22
4310.94,2.06
4354.05,1.90
4397.59,1.76
4441.56,1.64
4485.98,1.54
4530.84,1.44
4576.15,1.35
4621.91,1.25
4668.13,1.15
4714.81,1.05
4761.96,0.95
4809.58,0.84
4857.67,0.70
4906.25,0.56
4955.31,0.42
5004.87,0.28
5054.91,0.16
5105.46,0.04
5156.52,-0.04
5208.08,-0.11
5260.16,-0.17
5312.77,-0.21
5365.89,-0.25
5419.55,-0.28
5473.75,-0.32
5528.49,-0.36
5583.77,-0.39
5639.61,-0.42
5696.00,-0.43
5752.96,-0.45
5810.49,-0.47
5868.60,-0.49
5927.28,-0.49
5986.56,-0.49
6046.42,-0.46
6106.89,-0.41
6167.96,-0.35
6229.64,-0.26
6291.93,-0.17
6354.85,-0.07
6418.40,0.04
6482.58,0.18
6547.41,0.35
6612.88,0.55
6679.01,0.76
6745.80,1.00
6813.26,1.25
6881.39,1.50
6950.21,1.78
7019.71,2.09
7089.91,2.42
7160.81,2.80
7232.41,3.21
7304.74,3.67
7377.79,4.14
7451.56,4.61
7526.08,5.15
7601.34,5.75
7677.35,6.40
7754.13,7.13
7831.67,7.92
7909.98,8.73
7989.08,9.53
8068.98,10.26
8149.67,10.87
8231.16,11.36
8313.47,11.60
8396.61,11.61
8480.57,11.39
8565.38,10.80
8651.03,9.92
8737.54,8.86
8824.92,7.68
8913.17,6.59
9002.30,5.43
9092.32,4.44
9183.25,3.63
9275.08,2.88
9367.83,2.11
9461.51,1.40
9556.12,0.71
9651.68,0.07
9748.20,-0.47
9845.68,-0.95
9944.14,-1.39
10043.58,-1.81
10144.02,-2.19
10245.46,-2.52
10347.91,-2.86
10451.39,-3.21
10555.91,-3.50
10661.46,-3.72
10768.08,-3.92
10875.76,-4.12
10984.52,-4.31
11094.36,-4.47
11205.31,-4.62
11317.36,-4.67
11430.53,-4.48
11544.84,-4.68
11660.29,-5.29
11776.89,-5.36
11894.66,-5.41
12013.60,-5.47
12133.74,-5.26
12255.08,-5.22
12377.63,-5.22
12501.41,-5.13
12626.42,-4.98
12752.68,-4.74
12880.21,-4.46
13009.01,-4.11
13139.10,-3.71
13270.49,-3.24
13403.20,-2.56
13537.23,-1.77
13672.60,-0.91
13809.33,0.01
13947.42,1.07
14086.90,2.21
14227.77,3.38
14370.04,4.44
14513.74,5.28
14658.88,5.85
14805.47,5.81
14953.52,5.30
15103.06,4.43
15254.09,3.19
15406.63,1.79
15560.70,0.35
15716.30,-1.03
15873.47,-2.28
16032.20,-3.40
16192.52,-4.39
16354.45,-5.24
16517.99,-5.99
16683.17,-6.68
16850.01,-7.26
17018.51,-7.78
17188.69,-8.25
17360.58,-8.65
17534.18,-9.00
17709.53,-9.31
17886.62,-9.54
18065.49,-9.70
18246.14,-9.79
18428.60,-9.79
18612.89,-9.67
18799.02,-9.45
18987.01,-9.14
19176.88,-8.68
19368.65,-8.11
19562.33,-7.45
19757.96,-6.68
19955.54,-5.87
