frequency,raw,error,smoothed,error_smoothed,equalization,parametric_eq,fixed_band_eq,equalized_raw,equalized_smoothed,target
20.00,10.66,5.15,10.65,5.14,-5.14,-5.43,-2.93,5.52,5.51,5.51
20.20,10.66,5.15,10.68,5.16,-5.17,-5.45,-3.01,5.49,5.51,5.51
20.40,10.71,5.19,10.71,5.19,-5.20,-5.47,-3.09,5.51,5.52,5.52
20.61,10.76,5.22,10.75,5.22,-5.23,-5.49,-3.18,5.53,5.52,5.53
20.81,10.81,5.28,10.81,5.27,-5.27,-5.52,-3.27,5.55,5.54,5.53
21.02,10.85,5.31,10.85,5.31,-5.30,-5.54,-3.36,5.55,5.55,5.54
21.23,10.90,5.35,10.90,5.34,-5.34,-5.56,-3.46,5.56,5.56,5.55
21.44,10.94,5.37,10.94,5.37,-5.37,-5.59,-3.55,5.57,5.57,5.57
21.66,10.98,5.41,10.99,5.41,-5.41,-5.61,-3.65,5.57,5.57,5.57
21.87,11.03,5.45,11.03,5.45,-5.45,-5.63,-3.76,5.58,5.58,5.58
22.09,11.08,5.50,11.07,5.49,-5.49,-5.66,-3.86,5.59,5.58,5.58
22.31,11.11,5.52,11.12,5.53,-5.53,-5.68,-3.97,5.58,5.59,5.59
22.54,11.17,5.58,11.17,5.58,-5.58,-5.70,-4.08,5.59,5.59,5.59
22.76,11.22,5.62,11.22,5.62,-5.62,-5.73,-4.20,5.60,5.60,5.60
22.99,11.27,5.67,11.27,5.67,-5.66,-5.75,-4.31,5.61,5.60,5.60
23.22,11.31,5.71,11.31,5.71,-5.71,-5.77,-4.43,5.60,5.61,5.60
23.45,11.35,5.74,11.35,5.75,-5.75,-5.80,-4.55,5.60,5.61,5.61
23.69,11.40,5.79,11.40,5.79,-5.79,-5.82,-4.68,5.61,5.61,5.61
23.92,11.44,5.83,11.44,5.83,-5.83,-5.85,-4.81,5.61,5.61,5.61
24.16,11.48,5.86,11.48,5.87,-5.87,-5.87,-4.94,5.61,5.62,5.62
24.40,11.53,5.90,11.53,5.90,-5.90,-5.89,-5.07,5.63,5.62,5.63
24.65,11.56,5.93,11.57,5.94,-5.94,-5.92,-5.21,5.62,5.63,5.63
24.89,11.61,5.99,11.61,5.98,-5.98,-5.94,-5.34,5.63,5.63,5.62
25.14,11.64,6.02,11.64,6.01,-6.02,-5.96,-5.48,5.63,5.62,5.62
25.39,11.67,6.05,11.67,6.05,-6.05,-5.99,-5.62,5.62,5.62,5.62
25.65,11.70,6.08,11.71,6.08,-6.09,-6.01,-5.76,5.61,5.62,5.62
25.91,11.74,6.12,11.74,6.12,-6.12,-6.04,-5.90,5.62,5.63,5.62
26.16,11.79,6.16,11.78,6.15,-6.15,-6.06,-6.04,5.64,5.63,5.63
26.43,11.81,6.18,11.81,6.18,-6.18,-6.08,-6.18,5.63,5.63,5.63
26.69,11.83,6.20,11.84,6.21,-6.21,-6.11,-6.32,5.62,5.63,5.63
26.96,11.87,6.24,11.86,6.23,-6.23,-6.13,-6.46,5.64,5.63,5.63
27.23,11.87,6.24,11.88,6.26,-6.26,-6.15,-6.60,5.61,5.63,5.63
27.50,11.92,6.29,11.91,6.28,-6.28,-6.18,-6.73,5.64,5.63,5.62
27.77,11.92,6.29,11.93,6.30,-6.30,-6.20,-6.86,5.62,5.63,5.63
28.05,11.96,6.33,11.95,6.32,-6.32,-6.22,-6.99,5.64,5.63,5.63
28.33,11.96,6.33,11.97,6.33,-6.34,-6.25,-7.11,5.62,5.63,5.63
28.62,12.00,6.37,11.99,6.36,-6.36,-6.27,-7.23,5.64,5.63,5.63
28.90,12.00,6.36,12.01,6.38,-6.38,-6.29,-7.33,5.62,5.64,5.64
29.19,12.05,6.41,12.04,6.40,-6.40,-6.31,-7.44,5.65,5.64,5.64
29.48,12.05,6.41,12.05,6.42,-6.41,-6.34,-7.53,5.64,5.64,5.64
29.78,12.07,6.44,12.07,6.44,-6.43,-6.36,-7.62,5.64,5.64,5.63
30.08,12.09,6.45,12.09,6.45,-6.45,-6.38,-7.69,5.64,5.63,5.64
30.38,12.10,6.47,12.11,6.47,-6.48,-6.40,-7.76,5.62,5.63,5.63
30.68,12.13,6.50,12.13,6.50,-6.50,-6.43,-7.81,5.63,5.63,5.63
30.99,12.15,6.52,12.15,6.52,-6.52,-6.45,-7.86,5.62,5.63,5.63
31.30,12.18,6.55,12.18,6.55,-6.55,-6.47,-7.89,5.63,5.62,5.63
31.61,12.20,6.58,12.20,6.58,-6.58,-6.49,-7.91,5.62,5.62,5.62
31.93,12.22,6.61,12.22,6.61,-6.61,-6.51,-7.92,5.61,5.62,5.61
32.24,12.26,6.64,12.25,6.64,-6.63,-6.53,-7.93,5.63,5.62,5.62
32.57,12.26,6.65,12.27,6.66,-6.66,-6.55,-7.91,5.60,5.61,5.61
32.89,12.31,6.71,12.30,6.69,-6.69,-6.57,-7.90,5.62,5.61,5.60
33.22,12.31,6.71,12.32,6.71,-6.72,-6.60,-7.87,5.59,5.60,5.60
33.55,12.35,6.75,12.34,6.74,-6.74,-6.62,-7.84,5.61,5.60,5.60
33.89,12.35,6.75,12.36,6.76,-6.77,-6.63,-7.79,5.58,5.59,5.60
34.23,12.39,6.80,12.38,6.80,-6.80,-6.65,-7.74,5.59,5.59,5.58
34.57,12.39,6.81,12.40,6.82,-6.82,-6.67,-7.69,5.57,5.59,5.58
34.92,12.44,6.87,12.43,6.85,-6.84,-6.69,-7.63,5.60,5.58,5.57
35.27,12.44,6.86,12.44,6.87,-6.87,-6.71,-7.56,5.57,5.57,5.58
35.62,12.44,6.89,12.44,6.89,-6.89,-6.73,-7.50,5.55,5.55,5.55
35.97,12.44,6.89,12.45,6.90,-6.91,-6.75,-7.43,5.53,5.54,5.55
36.33,12.46,6.92,12.46,6.93,-6.93,-6.77,-7.36,5.53,5.53,5.54
36.70,12.48,6.96,12.47,6.95,-6.94,-6.78,-7.28,5.54,5.53,5.52
37.06,12.48,6.97,12.47,6.96,-6.95,-6.80,-7.21,5.53,5.52,5.51
37.43,12.46,6.96,12.46,6.97,-6.96,-6.82,-7.14,5.50,5.50,5.50
37.81,12.44,6.96,12.45,6.97,-6.97,-6.83,-7.07,5.47,5.48,5.48
38.19,12.44,6.97,12.44,6.97,-6.98,-6.85,-7.00,5.46,5.46,5.47
38.57,12.44,6.99,12.43,6.98,-6.98,-6.86,-6.93,5.46,5.45,5.45
38.95,12.43,6.99,12.42,6.99,-6.98,-6.88,-6.87,5.45,5.44,5.44
39.34,12.39,6.98,12.40,6.99,-6.98,-6.89,-6.80,5.41,5.42,5.41
39.74,12.39,6.99,12.38,6.98,-6.98,-6.91,-6.75,5.41,5.40,5.40
40.14,12.36,6.98,12.36,6.98,-6.98,-6.92,-6.69,5.38,5.38,5.38
40.54,12.35,6.98,12.35,6.98,-6.98,-6.94,-6.64,5.37,5.37,5.37
40.94,12.31,6.97,12.32,6.97,-6.98,-6.95,-6.59,5.33,5.34,5.34
41.35,12.31,6.98,12.30,6.97,-6.97,-6.96,-6.54,5.34,5.32,5.33
41.76,12.26,6.96,12.27,6.97,-6.97,-6.97,-6.50,5.29,5.30,5.30
42.18,12.26,6.97,12.25,6.97,-6.97,-6.99,-6.47,5.29,5.28,5.29
42.60,12.22,6.96,12.22,6.97,-6.97,-7.00,-6.44,5.25,5.26,5.26
43.03,12.20,6.97,12.20,6.97,-6.97,-7.01,-6.41,5.23,5.24,5.23
43.46,12.18,6.97,12.17,6.97,-6.96,-7.02,-6.39,5.22,5.21,5.21
43.90,12.14,6.96,12.14,6.97,-6.96,-7.03,-6.37,5.18,5.18,5.18
44.33,12.11,6.96,12.11,6.96,-6.96,-7.04,-6.36,5.15,5.15,5.15
44.78,12.08,6.96,12.08,6.95,-6.96,-7.05,-6.36,5.12,5.12,5.12
45.23,12.05,6.94,12.05,6.95,-6.95,-7.05,-6.35,5.10,5.10,5.11
45.68,12.02,6.95,12.01,6.95,-6.95,-7.06,-6.36,5.07,5.07,5.07
46.13,11.98,6.95,11.98,6.94,-6.94,-7.07,-6.36,5.04,5.04,5.03
46.60,11.93,6.93,11.94,6.94,-6.94,-7.08,-6.37,4.99,5.00,5.00
47.06,11.91,6.94,11.90,6.93,-6.93,-7.08,-6.39,4.97,4.97,4.97
47.53,11.87,6.93,11.86,6.93,-6.93,-7.09,-6.41,4.94,4.93,4.94
48.01,11.82,6.93,11.83,6.93,-6.93,-7.09,-6.43,4.89,4.90,4.89
48.49,11.79,6.93,11.79,6.93,-6.93,-7.10,-6.46,4.86,4.86,4.86
48.97,11.76,6.94,11.75,6.93,-6.93,-7.10,-6.50,4.83,4.82,4.82
49.46,11.71,6.92,11.72,6.93,-6.93,-7.11,-6.53,4.78,4.79,4.79
49.96,11.68,6.94,11.68,6.94,-6.93,-7.11,-6.57,4.75,4.75,4.74
50.46,11.65,6.94,11.64,6.93,-6.94,-7.11,-6.61,4.71,4.71,4.71
50.96,11.61,6.94,11.61,6.94,-6.94,-7.11,-6.66,4.67,4.67,4.67
51.47,11.57,6.93,11.58,6.94,-6.94,-7.12,-6.71,4.63,4.64,4.64
51.99,11.56,6.96,11.55,6.95,-6.95,-7.12,-6.76,4.61,4.60,4.60
52.51,11.53,6.96,11.52,6.95,-6.96,-7.12,-6.81,4.57,4.57,4.57
53.03,11.48,6.94,11.50,6.96,-6.96,-7.12,-6.86,4.52,4.53,4.54
53.56,11.47,6.97,11.46,6.97,-6.97,-7.12,-6.92,4.50,4.49,4.50
54.10,11.44,6.99,11.43,6.98,-6.98,-7.12,-6.97,4.46,4.46,4.45
54.64,11.40,6.98,11.40,6.99,-6.98,-7.11,-7.02,4.42,4.42,4.42
55.18,11.36,6.99,11.36,6.99,-6.98,-7.11,-7.08,4.38,4.38,4.37
55.74,11.33,7.00,11.32,6.98,-6.98,-7.11,-7.13,4.35,4.34,4.33
56.29,11.28,6.97,11.28,6.98,-6.98,-7.10,-7.18,4.30,4.30,4.31
56.86,11.24,6.96,11.24,6.97,-6.97,-7.10,-7.22,4.27,4.27,4.28
57.42,11.20,6.97,11.20,6.96,-6.96,-7.09,-7.26,4.24,4.24,4.23
58.00,11.16,6.96,11.16,6.95,-6.95,-7.09,-7.30,4.21,4.21,4.20
58.58,11.12,6.94,11.12,6.94,-6.94,-7.08,-7.34,4.18,4.18,4.18
59.16,11.07,6.92,11.08,6.92,-6.93,-7.08,-7.37,4.14,4.14,4.15
59.76,11.04,6.92,11.03,6.91,-6.93,-7.07,-7.39,4.11,4.10,4.12
60.35,10.98,6.91,10.99,6.91,-6.93,-7.06,-7.41,4.05,4.06,4.07
60.96,10.94,6.91,10.94,6.92,-6.92,-7.05,-7.42,4.02,4.02,4.03
61.57,10.90,6.93,10.89,6.92,-6.92,-7.04,-7.43,3.98,3.97,3.97
62.18,10.85,6.93,10.86,6.93,-6.92,-7.03,-7.42,3.93,3.93,3.92
62.80,10.81,6.93,10.81,6.94,-6.92,-7.02,-7.42,3.89,3.89,3.88
63.43,10.77,6.94,10.76,6.93,-6.92,-7.01,-7.40,3.85,3.85,3.83
64.07,10.71,6.92,10.71,6.91,-6.91,-7.00,-7.38,3.80,3.80,3.80
64.71,10.65,6.89,10.65,6.89,-6.90,-6.99,-7.35,3.75,3.75,3.76
65.35,10.59,6.87,10.60,6.87,-6.89,-6.98,-7.31,3.70,3.71,3.72
66.01,10.55,6.87,10.55,6.86,-6.87,-6.96,-7.27,3.68,3.68,3.68
66.67,10.51,6.86,10.50,6.86,-6.86,-6.95,-7.23,3.65,3.65,3.65
67.33,10.46,6.86,10.46,6.85,-6.85,-6.93,-7.17,3.61,3.61,3.60
68.01,10.40,6.84,10.41,6.84,-6.84,-6.92,-7.12,3.56,3.57,3.56
68.69,10.36,6.84,10.36,6.83,-6.84,-6.90,-7.06,3.52,3.52,3.52
69.37,10.31,6.82,10.32,6.83,-6.84,-6.89,-6.99,3.47,3.48,3.49
70.07,10.28,6.83,10.28,6.83,-6.84,-6.87,-6.92,3.44,3.44,3.45
70.77,10.25,6.85,10.24,6.84,-6.84,-6.85,-6.85,3.41,3.40,3.40
71.48,10.19,6.83,10.20,6.84,-6.84,-6.84,-6.78,3.35,3.36,3.36
72.19,10.16,6.85,10.16,6.85,-6.84,-6.82,-6.71,3.32,3.32,3.31
72.91,10.11,6.84,10.11,6.84,-6.83,-6.80,-6.64,3.28,3.27,3.27
73.64,10.06,6.84,10.06,6.83,-6.83,-6.78,-6.56,3.23,3.23,3.22
74.38,9.99,6.81,10.00,6.82,-6.81,-6.76,-6.49,3.18,3.19,3.18
75.12,9.94,6.80,9.94,6.80,-6.79,-6.74,-6.42,3.15,3.14,3.14
75.87,9.89,6.78,9.88,6.77,-6.77,-6.72,-6.35,3.12,3.11,3.11
76.63,9.81,6.74,9.82,6.75,-6.75,-6.70,-6.28,3.06,3.07,3.07
77.40,9.76,6.72,9.76,6.72,-6.72,-6.68,-6.21,3.04,3.04,3.04
78.17,9.69,6.69,9.69,6.69,-6.69,-6.65,-6.15,3.00,3.00,3.00
78.95,9.63,6.65,9.63,6.66,-6.66,-6.63,-6.09,2.97,2.97,2.97
79.74,9.56,6.62,9.57,6.63,-6.63,-6.61,-6.03,2.93,2.93,2.94
80.54,9.51,6.60,9.51,6.60,-6.60,-6.59,-5.97,2.91,2.90,2.91
81.35,9.45,6.58,9.45,6.58,-6.58,-6.56,-5.92,2.87,2.87,2.87
82.16,9.39,6.55,9.39,6.55,-6.55,-6.54,-5.87,2.84,2.84,2.84
82.98,9.33,6.52,9.33,6.52,-6.52,-6.51,-5.83,2.81,2.81,2.81
83.81,9.26,6.49,9.26,6.49,-6.49,-6.49,-5.79,2.77,2.77,2.77
84.65,9.19,6.46,9.20,6.47,-6.46,-6.47,-5.75,2.73,2.74,2.73
85.50,9.14,6.45,9.13,6.44,-6.43,-6.44,-5.72,2.71,2.70,2.69
86.35,9.06,6.40,9.06,6.40,-6.40,-6.42,-5.69,2.66,2.66,2.66
87.22,8.99,6.36,9.00,6.37,-6.37,-6.39,-5.67,2.62,2.62,2.63
88.09,8.93,6.34,8.93,6.34,-6.35,-6.37,-5.65,2.58,2.58,2.59
88.97,8.87,6.32,8.87,6.31,-6.32,-6.34,-5.63,2.55,2.55,2.56
89.86,8.81,6.30,8.81,6.29,-6.30,-6.32,-5.62,2.51,2.51,2.51
90.76,8.74,6.26,8.75,6.27,-6.27,-6.29,-5.61,2.47,2.48,2.48
91.66,8.69,6.25,8.68,6.25,-6.24,-6.26,-5.61,2.45,2.44,2.44
92.58,8.62,6.22,8.62,6.22,-6.21,-6.24,-5.61,2.41,2.41,2.40
93.51,8.55,6.18,8.55,6.19,-6.18,-6.21,-5.61,2.37,2.37,2.37
94.44,8.49,6.16,8.48,6.16,-6.15,-6.19,-5.62,2.34,2.33,2.33
95.39,8.40,6.12,8.40,6.12,-6.11,-6.16,-5.63,2.29,2.29,2.28
96.34,8.33,6.09,8.32,6.08,-6.08,-6.14,-5.65,2.25,2.24,2.24
97.30,8.22,6.02,8.23,6.04,-6.04,-6.11,-5.67,2.18,2.20,2.20
98.28,8.16,6.01,8.15,6.00,-6.00,-6.09,-5.69,2.16,2.15,2.15
99.26,8.08,5.97,8.08,5.96,-5.97,-6.06,-5.72,2.11,2.11,2.11
100.25,8.01,5.94,8.01,5.94,-5.94,-6.04,-5.75,2.07,2.07,2.07
101.25,7.95,5.91,7.95,5.91,-5.92,-6.01,-5.78,2.03,2.03,2.04
102.27,7.91,5.90,7.91,5.90,-5.91,-5.99,-5.81,2.00,2.00,2.01
103.29,7.86,5.89,7.87,5.90,-5.90,-5.97,-5.85,1.96,1.97,1.97
104.32,7.84,5.90,7.83,5.90,-5.90,-5.94,-5.88,1.94,1.94,1.94
105.37,7.80,5.90,7.80,5.90,-5.90,-5.92,-5.92,1.90,1.90,1.90
106.42,7.76,5.89,7.77,5.90,-5.90,-5.90,-5.96,1.86,1.87,1.87
107.48,7.73,5.90,7.73,5.90,-5.89,-5.88,-6.00,1.83,1.83,1.83
108.56,7.69,5.89,7.69,5.89,-5.89,-5.85,-6.04,1.80,1.80,1.80
109.64,7.65,5.89,7.65,5.89,-5.88,-5.83,-6.08,1.77,1.77,1.76
110.74,7.60,5.88,7.60,5.88,-5.87,-5.81,-6.12,1.73,1.73,1.72
111.85,7.54,5.85,7.54,5.86,-5.84,-5.79,-6.16,1.70,1.70,1.69
112.97,7.48,5.83,7.48,5.83,-5.82,-5.77,-6.19,1.66,1.66,1.65
114.10,7.40,5.79,7.40,5.79,-5.78,-5.76,-6.23,1.62,1.62,1.61
115.24,7.32,5.75,7.32,5.75,-5.75,-5.74,-6.25,1.57,1.57,1.57
116.39,7.23,5.71,7.23,5.71,-5.72,-5.72,-6.28,1.51,1.52,1.52
117.55,7.16,5.67,7.16,5.68,-5.69,-5.70,-6.30,1.47,1.47,1.48
118.73,7.09,5.65,7.09,5.65,-5.66,-5.69,-6.32,1.43,1.43,1.44
119.92,7.04,5.64,7.04,5.64,-5.64,-5.67,-6.33,1.40,1.40,1.41
121.12,7.00,5.62,7.00,5.63,-5.64,-5.66,-6.35,1.36,1.36,1.38
122.33,6.98,5.64,6.97,5.63,-5.64,-5.64,-6.35,1.34,1.33,1.34
123.55,6.93,5.63,6.95,5.64,-5.65,-5.63,-6.35,1.28,1.30,1.30
124.79,6.93,5.66,6.93,5.66,-5.66,-5.62,-6.34,1.27,1.27,1.27
126.03,6.91,5.68,6.91,5.67,-5.67,-5.61,-6.32,1.24,1.24,1.23
127.29,6.88,5.69,6.88,5.69,-5.68,-5.60,-6.30,1.20,1.21,1.19
128.57,6.85,5.70,6.85,5.70,-5.68,-5.59,-6.28,1.17,1.16,1.15
129.85,6.80,5.69,6.80,5.69,-5.68,-5.58,-6.25,1.12,1.12,1.11
131.15,6.75,5.68,6.75,5.68,-5.68,-5.57,-6.21,1.07,1.07,1.07
132.46,6.70,5.67,6.70,5.67,-5.67,-5.56,-6.17,1.03,1.03,1.03
133.79,6.65,5.66,6.65,5.66,-5.66,-5.55,-6.13,0.99,0.99,0.99
135.12,6.61,5.65,6.61,5.64,-5.65,-5.54,-6.07,0.96,0.96,0.96
136.48,6.56,5.63,6.56,5.63,-5.63,-5.54,-6.02,0.93,0.93,0.93
137.84,6.51,5.61,6.51,5.62,-5.62,-5.53,-5.96,0.89,0.89,0.90
139.22,6.46,5.61,6.46,5.60,-5.60,-5.53,-5.91,0.86,0.86,0.85
140.61,6.41,5.58,6.41,5.59,-5.59,-5.52,-5.84,0.82,0.82,0.83
142.02,6.38,5.58,6.37,5.58,-5.58,-5.52,-5.78,0.80,0.79,0.80
143.44,6.33,5.57,6.34,5.57,-5.57,-5.51,-5.71,0.76,0.77,0.76
144.87,6.30,5.56,6.30,5.56,-5.56,-5.51,-5.65,0.74,0.74,0.74
146.32,6.26,5.55,6.26,5.54,-5.54,-5.51,-5.58,0.72,0.71,0.71
147.78,6.21,5.53,6.22,5.53,-5.53,-5.50,-5.51,0.68,0.69,0.68
149.26,6.17,5.51,6.17,5.52,-5.51,-5.50,-5.45,0.66,0.66,0.66
150.75,6.13,5.51,6.12,5.50,-5.49,-5.50,-5.38,0.64,0.63,0.62
152.26,6.07,5.47,6.07,5.47,-5.47,-5.50,-5.32,0.60,0.60,0.60
153.78,6.01,5.44,6.01,5.45,-5.45,-5.50,-5.26,0.56,0.56,0.57
155.32,5.96,5.42,5.96,5.42,-5.43,-5.49,-5.20,0.53,0.53,0.54
156.88,5.91,5.40,5.91,5.41,-5.41,-5.49,-5.14,0.50,0.50,0.51
158.44,5.87,5.40,5.86,5.39,-5.39,-5.49,-5.08,0.48,0.47,0.47
160.03,5.82,5.38,5.82,5.38,-5.38,-5.49,-5.03,0.44,0.44,0.44
161.63,5.77,5.36,5.78,5.37,-5.37,-5.49,-4.98,0.40,0.41,0.41
163.24,5.74,5.37,5.73,5.36,-5.36,-5.48,-4.93,0.38,0.37,0.37
164.88,5.69,5.35,5.69,5.35,-5.35,-5.48,-4.88,0.34,0.34,0.34
166.53,5.64,5.34,5.65,5.35,-5.35,-5.48,-4.84,0.29,0.30,0.30
168.19,5.61,5.34,5.61,5.34,-5.34,-5.47,-4.80,0.27,0.26,0.27
169.87,5.57,5.34,5.57,5.33,-5.34,-5.47,-4.77,0.23,0.23,0.23
171.57,5.53,5.33,5.53,5.33,-5.33,-5.46,-4.74,0.20,0.20,0.20
173.29,5.48,5.32,5.49,5.33,-5.32,-5.46,-4.71,0.16,0.17,0.16
175.02,5.45,5.32,5.44,5.32,-5.31,-5.45,-4.68,0.14,0.13,0.13
176.77,5.39,5.30,5.39,5.30,-5.30,-5.45,-4.66,0.09,0.09,0.09
178.54,5.34,5.28,5.34,5.28,-5.28,-5.44,-4.64,0.06,0.06,0.06
180.32,5.27,5.26,5.28,5.26,-5.26,-5.43,-4.63,0.01,0.02,0.01
182.13,5.22,5.24,5.22,5.24,-5.24,-5.42,-4.62,-0.02,-0.02,-0.02
183.95,5.16,5.21,5.16,5.21,-5.21,-5.41,-4.61,-0.05,-0.05,-0.05
185.79,5.10,5.19,5.10,5.19,-5.19,-5.40,-4.61,-0.09,-0.09,-0.09
187.65,5.04,5.16,5.04,5.16,-5.16,-5.39,-4.60,-0.12,-0.12,-0.12
189.52,4.97,5.13,4.97,5.13,-5.13,-5.37,-4.61,-0.16,-0.16,-0.16
191.42,4.92,5.11,4.91,5.10,-5.11,-5.36,-4.61,-0.19,-0.20,-0.19
193.33,4.84,5.07,4.85,5.08,-5.08,-5.34,-4.62,-0.24,-0.24,-0.23
195.27,4.79,5.06,4.79,5.06,-5.06,-5.32,-4.63,-0.27,-0.27,-0.27
197.22,4.74,5.04,4.74,5.04,-5.04,-5.30,-4.65,-0.30,-0.30,-0.30
199.19,4.70,5.03,4.70,5.03,-5.03,-5.28,-4.66,-0.33,-0.33,-0.33
201.18,4.66,5.03,4.66,5.02,-5.02,-5.26,-4.68,-0.36,-0.36,-0.37
203.19,4.61,5.00,4.61,5.01,-5.01,-5.24,-4.70,-0.40,-0.40,-0.39
205.23,4.58,5.00,4.58,5.00,-5.01,-5.21,-4.72,-0.43,-0.43,-0.42
207.28,4.55,4.99,4.55,5.00,-5.01,-5.19,-4.74,-0.46,-0.45,-0.44
209.35,4.54,5.02,4.53,5.01,-5.00,-5.16,-4.77,-0.46,-0.47,-0.48
211.44,4.51,5.01,4.51,5.01,-5.00,-5.13,-4.79,-0.49,-0.49,-0.50
213.56,4.48,5.00,4.48,5.00,-5.00,-5.10,-4.82,-0.52,-0.52,-0.52
215.69,4.44,4.99,4.44,4.99,-4.99,-5.07,-4.84,-0.55,-0.54,-0.55
217.85,4.40,4.97,4.40,4.98,-4.97,-5.04,-4.87,-0.57,-0.57,-0.57
220.03,4.37,4.97,4.36,4.96,-4.96,-5.01,-4.89,-0.59,-0.59,-0.60
222.23,4.32,4.94,4.32,4.94,-4.94,-4.97,-4.91,-0.62,-0.62,-0.62
224.45,4.27,4.91,4.27,4.92,-4.92,-4.93,-4.94,-0.65,-0.65,-0.64
226.70,4.22,4.88,4.22,4.88,-4.89,-4.90,-4.95,-0.67,-0.67,-0.66
228.96,4.18,4.86,4.18,4.86,-4.87,-4.86,-4.97,-0.69,-0.69,-0.68
231.25,4.15,4.85,4.15,4.84,-4.85,-4.82,-4.98,-0.70,-0.70,-0.70
233.57,4.12,4.83,4.11,4.83,-4.83,-4.77,-4.99,-0.71,-0.72,-0.71
235.90,4.07,4.80,4.08,4.81,-4.81,-4.73,-4.99,-0.74,-0.73,-0.73
238.26,4.04,4.79,4.04,4.79,-4.79,-4.69,-5.00,-0.75,-0.75,-0.75
240.64,4.01,4.76,4.00,4.76,-4.76,-4.64,-4.99,-0.75,-0.76,-0.75
243.05,3.96,4.73,3.97,4.74,-4.73,-4.60,-4.98,-0.77,-0.76,-0.77
245.48,3.92,4.71,3.91,4.70,-4.69,-4.55,-4.97,-0.77,-0.78,-0.79
247.93,3.86,4.67,3.85,4.65,-4.65,-4.50,-4.95,-0.79,-0.80,-0.81
250.41,3.78,4.58,3.79,4.60,-4.60,-4.45,-4.92,-0.82,-0.81,-0.80
252.92,3.73,4.54,3.73,4.54,-4.55,-4.40,-4.90,-0.82,-0.82,-0.81
255.45,3.66,4.49,3.66,4.48,-4.49,-4.35,-4.86,-0.83,-0.83,-0.83
258.00,3.60,4.43,3.60,4.43,-4.42,-4.30,-4.82,-0.82,-0.82,-0.83
260.58,3.52,4.36,3.52,4.36,-4.34,-4.25,-4.77,-0.82,-0.82,-0.84
263.19,3.44,4.29,3.43,4.28,-4.26,-4.19,-4.72,-0.82,-0.83,-0.85
265.82,3.33,4.18,3.33,4.19,-4.18,-4.14,-4.66,-0.85,-0.84,-0.85
268.48,3.23,4.09,3.23,4.09,-4.10,-4.09,-4.60,-0.87,-0.86,-0.86
271.16,3.15,4.01,3.14,4.00,-4.03,-4.03,-4.54,-0.88,-0.88,-0.86
273.87,3.06,3.93,3.07,3.94,-3.96,-3.98,-4.47,-0.90,-0.89,-0.87
276.61,3.01,3.88,3.01,3.89,-3.91,-3.92,-4.40,-0.90,-0.90,-0.87
279.38,2.98,3.87,2.97,3.86,-3.88,-3.87,-4.32,-0.90,-0.90,-0.89
282.17,2.95,3.83,2.96,3.84,-3.85,-3.81,-4.24,-0.90,-0.90,-0.88
284.99,2.95,3.83,2.95,3.83,-3.84,-3.76,-4.16,-0.89,-0.89,-0.88
287.84,2.95,3.82,2.95,3.83,-3.82,-3.70,-4.08,-0.87,-0.87,-0.87
290.72,2.95,3.84,2.95,3.83,-3.81,-3.64,-4.00,-0.86,-0.86,-0.89
293.63,2.95,3.83,2.94,3.82,-3.79,-3.59,-3.91,-0.84,-0.85,-0.88
296.57,2.91,3.78,2.91,3.79,-3.76,-3.53,-3.83,-0.85,-0.86,-0.87
299.53,2.86,3.74,2.86,3.73,-3.73,-3.48,-3.74,-0.87,-0.87,-0.88
302.53,2.79,3.66,2.80,3.68,-3.68,-3.42,-3.66,-0.89,-0.88,-0.87
305.55,2.75,3.62,2.75,3.62,-3.63,-3.36,-3.57,-0.88,-0.88,-0.87
308.61,2.70,3.57,2.69,3.56,-3.57,-3.31,-3.49,-0.87,-0.88,-0.87
311.69,2.63,3.50,2.64,3.51,-3.51,-3.25,-3.40,-0.88,-0.87,-0.87
314.81,2.58,3.44,2.58,3.44,-3.45,-3.19,-3.32,-0.87,-0.87,-0.86
317.96,2.52,3.39,2.52,3.38,-3.38,-3.14,-3.23,-0.86,-0.87,-0.87
321.14,2.46,3.32,2.46,3.32,-3.32,-3.08,-3.15,-0.86,-0.86,-0.86
324.35,2.40,3.26,2.40,3.26,-3.26,-3.03,-3.07,-0.86,-0.86,-0.86
327.59,2.34,3.19,2.34,3.19,-3.19,-2.97,-2.99,-0.85,-0.85,-0.85
330.87,2.28,3.13,2.28,3.13,-3.12,-2.91,-2.91,-0.84,-0.84,-0.85
334.18,2.22,3.07,2.22,3.06,-3.05,-2.86,-2.84,-0.83,-0.83,-0.85
337.52,2.15,2.99,2.15,2.99,-2.98,-2.80,-2.76,-0.83,-0.83,-0.84
340.90,2.08,2.92,2.08,2.91,-2.90,-2.75,-2.69,-0.82,-0.83,-0.83
344.30,2.00,2.83,2.00,2.83,-2.84,-2.70,-2.62,-0.84,-0.83,-0.83
347.75,1.94,2.76,1.94,2.76,-2.77,-2.64,-2.55,-0.83,-0.84,-0.82
351.23,1.88,2.70,1.88,2.70,-2.72,-2.59,-2.49,-0.84,-0.84,-0.82
354.74,1.84,2.64,1.85,2.65,-2.68,-2.54,-2.42,-0.84,-0.83,-0.80
358.28,1.82,2.62,1.82,2.62,-2.65,-2.48,-2.36,-0.83,-0.82,-0.80
361.87,1.82,2.62,1.81,2.61,-2.62,-2.43,-2.30,-0.80,-0.81,-0.80
365.49,1.80,2.59,1.81,2.59,-2.59,-2.38,-2.24,-0.79,-0.79,-0.79
369.14,1.80,2.58,1.80,2.58,-2.56,-2.32,-2.18,-0.76,-0.76,-0.78
372.83,1.78,2.55,1.78,2.55,-2.53,-2.27,-2.12,-0.75,-0.75,-0.77
376.56,1.75,2.52,1.74,2.51,-2.48,-2.22,-2.07,-0.73,-0.73,-0.77
380.33,1.68,2.44,1.68,2.44,-2.41,-2.17,-2.02,-0.73,-0.74,-0.76
384.13,1.59,2.35,1.59,2.35,-2.34,-2.12,-1.96,-0.75,-0.74,-0.76
387.97,1.49,2.24,1.50,2.24,-2.25,-2.07,-1.92,-0.76,-0.75,-0.75
391.85,1.41,2.15,1.40,2.15,-2.16,-2.02,-1.87,-0.75,-0.76,-0.74
395.77,1.31,2.05,1.32,2.05,-2.07,-1.97,-1.82,-0.76,-0.76,-0.74
399.73,1.25,1.98,1.24,1.97,-1.99,-1.92,-1.78,-0.74,-0.75,-0.73
403.72,1.17,1.88,1.18,1.90,-1.92,-1.87,-1.73,-0.75,-0.74,-0.71
407.76,1.13,1.84,1.13,1.84,-1.85,-1.82,-1.69,-0.72,-0.72,-0.71
411.84,1.08,1.78,1.09,1.79,-1.79,-1.77,-1.65,-0.71,-0.70,-0.70
415.96,1.05,1.75,1.05,1.75,-1.74,-1.72,-1.61,-0.69,-0.68,-0.69
420.12,1.02,1.72,1.01,1.70,-1.68,-1.67,-1.57,-0.66,-0.67,-0.70
424.32,0.96,1.65,0.96,1.64,-1.63,-1.63,-1.53,-0.67,-0.67,-0.69
428.56,0.90,1.57,0.90,1.57,-1.57,-1.58,-1.49,-0.67,-0.67,-0.67
432.85,0.84,1.50,0.85,1.51,-1.52,-1.53,-1.46,-0.68,-0.67,-0.66
437.18,0.80,1.46,0.80,1.46,-1.46,-1.48,-1.42,-0.66,-0.66,-0.66
441.55,0.76,1.41,0.75,1.40,-1.39,-1.43,-1.39,-0.63,-0.64,-0.65
445.96,0.70,1.34,0.70,1.34,-1.33,-1.39,-1.35,-0.63,-0.64,-0.64
450.42,0.63,1.26,0.64,1.27,-1.27,-1.34,-1.32,-0.64,-0.64,-0.63
454.93,0.58,1.20,0.59,1.21,-1.22,-1.29,-1.29,-0.64,-0.63,-0.62
459.48,0.55,1.16,0.55,1.16,-1.17,-1.24,-1.26,-0.62,-0.62,-0.61
464.07,0.52,1.11,0.51,1.11,-1.12,-1.20,-1.22,-0.60,-0.61,-0.59
468.71,0.48,1.06,0.48,1.07,-1.07,-1.15,-1.19,-0.59,-0.59,-0.58
473.40,0.45,1.02,0.45,1.03,-1.03,-1.10,-1.16,-0.58,-0.58,-0.57
478.13,0.43,1.00,0.42,0.99,-0.99,-1.05,-1.13,-0.56,-0.57,-0.57
482.91,0.39,0.95,0.40,0.95,-0.95,-1.01,-1.10,-0.56,-0.55,-0.56
487.74,0.37,0.92,0.36,0.91,-0.89,-0.96,-1.07,-0.53,-0.53,-0.55
492.62,0.32,0.86,0.32,0.86,-0.84,-0.91,-1.03,-0.52,-0.52,-0.54
497.55,0.27,0.80,0.27,0.79,-0.77,-0.86,-1.00,-0.50,-0.51,-0.53
