frequency,raw
20,-3.86
21,-3.44
22,-3.05
23,-2.69
24,-2.36
25,-2.06
26,-1.79
27,-1.56
28,-1.36
29,-1.18
30,-1.04
31,-0.98
32,-0.93
33,-0.90
34,-0.88
35,-0.89
36,-0.91
37,-0.94
38,-1.00
39,-1.07
40,-1.16
41,-1.26
42,-1.38
43,-1.50
44,-1.64
45,-1.78
46,-1.93
47,-2.07
48,-2.19
49,-2.31
50,-2.41
51,-2.49
52,-2.54
53,-2.53
54,-2.51
55,-2.45
56,-2.36
57,-2.24
58,-2.10
59,-1.94
60,-1.77
61,-1.59
62,-1.40
63,-1.21
64,-1.02
65,-0.82
66,-0.66
67,-0.50
68,-0.34
69,-0.19
70,-0.04
71,0.09
72,0.19
73,0.30
74,0.38
75,0.48
76,0.55
77,0.63
78,0.69
79,0.76
80,0.81
81,0.86
82,0.90
83,0.93
84,0.96
85,0.99
86,1.00
87,1.02
88,1.03
89,1.04
90,1.05
91,1.04
92,1.03
93,1.02
94,1.02
95,1.02
96,1.02
97,1.02
98,1.02
99,1.02
100,1.02
101,1.02
102,1.02
104,1.02
105,1.03
106,1.04
107,1.04
108,1.04
109,1.04
110,1.02
111,1.00
112,0.98
113,0.95
114,0.92
115,0.89
117,0.87
118,0.84
119,0.80
120,0.76
121,0.71
123,0.67
124,0.64
125,0.61
126,0.57
128,0.53
129,0.50
130,0.46
131,0.41
133,0.35
134,0.29
135,0.23
137,0.17
138,0.11
140,0.05
141,-0.02
142,-0.10
144,-0.17
145,-0.26
147,-0.35
148,-0.45
150,-0.55
151,-0.66
153,-0.78
154,-0.91
156,-1.03
157,-1.16
159,-1.29
160,-1.43
162,-1.57
164,-1.70
165,-1.83
167,-1.97
169,-2.11
170,-2.26
172,-2.38
174,-2.50
175,-2.62
177,-2.74
179,-2.86
181,-2.98
183,-3.08
184,-3.18
186,-3.26
188,-3.33
190,-3.40
192,-3.46
194,-3.50
196,-3.52
198,-3.54
200,-3.54
202,-3.53
204,-3.51
206,-3.47
208,-3.41
210,-3.33
212,-3.24
214,-3.14
216,-3.02
218,-2.88
221,-2.73
223,-2.55
225,-2.36
227,-2.16
229,-1.95
232,-1.73
234,-1.49
236,-1.24
239,-0.98
241,-0.72
244,-0.45
246,-0.19
248,0.07
251,0.33
253,0.58
256,0.84
259,1.10
261,1.35
264,1.57
266,1.79
269,2.01
272,2.22
274,2.42
277,2.60
280,2.79
283,2.96
286,3.11
288,3.26
291,3.40
294,3.53
297,3.64
300,3.73
303,3.83
306,3.92
309,4.00
312,4.09
316,4.17
319,4.23
322,4.28
325,4.35
328,4.42
332,4.48
335,4.53
338,4.59
342,4.65
345,4.71
349,4.77
352,4.84
356,4.90
359,4.97
363,5.02
366,5.07
370,5.12
374,5.17
377,5.21
381,5.24
385,5.26
389,5.26
393,5.26
397,5.25
401,5.23
405,5.19
409,5.14
413,5.10
417,5.05
421,4.98
425,4.92
430,4.85
434,4.77
438,4.68
443,4.60
447,4.51
451,4.43
456,4.34
460,4.26
465,4.18
470,4.09
474,4.00
479,3.92
484,3.85
489,3.77
494,3.69
499,3.61
504,3.53
509,3.45
514,3.38
519,3.32
524,3.25
529,3.18
535,3.11
540,3.06
545,3.00
551,2.94
556,2.89
562,2.86
568,2.81
573,2.76
579,2.71
585,2.66
591,2.62
596,2.58
602,2.53
608,2.49
615,2.46
621,2.42
627,2.39
633,2.35
639,2.30
646,2.25
652,2.21
659,2.17
665,2.13
672,2.12
679,2.11
686,2.08
692,2.05
699,2.02
706,2.00
713,1.96
721,1.93
728,1.89
735,1.86
742,1.82
750,1.76
757,1.68
765,1.61
773,1.54
780,1.46
788,1.37
796,1.28
804,1.20
812,1.13
820,1.07
828,0.99
837,0.91
845,0.84
853,0.78
862,0.72
871,0.65
879,0.58
888,0.52
897,0.46
906,0.39
915,0.33
924,0.28
933,0.24
943,0.21
952,0.17
962,0.13
971,0.10
981,0.07
991,0.04
1001,-0.00
1011,-0.06
1021,-0.09
1031,-0.13
1041,-0.19
1052,-0.25
1062,-0.32
1073,-0.39
1084,-0.47
1094,-0.56
1105,-0.64
1116,-0.71
1128,-0.79
1139,-0.86
1150,-0.94
1162,-1.03
1173,-1.10
1185,-1.16
1197,-1.23
1209,-1.30
1221,-1.37
1233,-1.43
1246,-1.49
1258,-1.56
1271,-1.63
1283,-1.70
1296,-1.77
1309,-1.85
1322,-1.92
1335,-2.00
1349,-2.08
1362,-2.15
1376,-2.24
1390,-2.34
1404,-2.43
1418,-2.52
1432,-2.61
1446,-2.70
1461,-2.79
1475,-2.87
1490,-2.97
1505,-3.07
1520,-3.16
1535,-3.24
1550,-3.33
1566,-3.43
1582,-3.52
1597,-3.61
1613,-3.69
1629,-3.78
1646,-3.86
1662,-3.93
1679,-4.02
1696,-4.11
1713,-4.20
1730,-4.28
1747,-4.36
1764,-4.43
1782,-4.49
1800,-4.57
1818,-4.65
1836,-4.71
1854,-4.76
1873,-4.82
1892,-4.89
1911,-4.94
1930,-4.99
1949,-5.05
1969,-5.12
1988,-5.19
2008,-5.24
2028,-5.31
2048,-5.39
2069,-5.46
2090,-5.54
2111,-5.61
2132,-5.69
2153,-5.76
2175,-5.84
2196,-5.93
2218,-6.01
2240,-6.08
2263,-6.17
2285,-6.26
2308,-6.35
2331,-6.44
2355,-6.54
2378,-6.65
2402,-6.76
2426,-6.87
2450,-6.97
2475,-7.09
2500,-7.20
2525,-7.31
2550,-7.41
2575,-7.52
2601,-7.64
2627,-7.73
2653,-7.82
2680,-7.91
2707,-8.00
2734,-8.10
2761,-8.21
2789,-8.29
2817,-8.37
2845,-8.43
2873,-8.49
2902,-8.54
2931,-8.57
2960,-8.57
2990,-8.56
3020,-8.55
3050,-8.50
3080,-8.45
3111,-8.39
3142,-8.32
3174,-8.24
3206,-8.14
3238,-8.03
3270,-7.93
3303,-7.83
3336,-7.73
3369,-7.63
3403,-7.53
3437,-7.43
3471,-7.35
3506,-7.28
3541,-7.20
3576,-7.13
3612,-7.08
3648,-7.05
3685,-7.03
3721,-7.03
3759,-7.07
3796,-7.11
3834,-7.17
3873,-7.25
3911,-7.33
3950,-7.42
3990,-7.50
4030,-7.56
4070,-7.61
4111,-7.64
4152,-7.64
4193,-7.61
4235,-7.54
4278,-7.44
4321,-7.29
4364,-7.12
4407,-6.93
4451,-6.71
4496,-6.47
4541,-6.25
4586,-6.01
4632,-5.78
4679,-5.54
4725,-5.30
4773,-5.04
4820,-4.79
4868,-4.55
4917,-4.30
4966,-4.06
5016,-3.84
5066,-3.61
5117,-3.39
5168,-3.18
5220,-2.96
5272,-2.73
5325,-2.51
5378,-2.27
5432,-2.03
5486,-1.78
5541,-1.52
5596,-1.24
5652,-0.94
5709,-0.61
5766,-0.27
5823,0.08
5882,0.41
5940,0.75
6000,1.07
6060,1.37
6120,1.67
6182,1.96
6244,2.23
6306,2.50
6369,2.75
6433,3.00
6497,3.25
6562,3.49
6628,3.71
6694,3.94
6761,4.16
6828,4.37
6897,4.56
6966,4.76
7035,4.94
7106,5.10
7177,5.25
7249,5.39
7321,5.51
7394,5.62
7468,5.74
7543,5.85
7618,5.93
7694,6.00
7771,6.06
7849,6.12
7928,6.16
8007,6.17
8087,6.15
8168,6.12
8250,6.04
8332,5.93
8415,5.81
8499,5.66
8584,5.50
8670,5.30
8757,5.11
8845,4.92
8933,4.71
9022,4.52
9113,4.35
9204,4.17
9296,4.00
9389,3.85
9483,3.71
9577,3.58
9673,3.44
9770,3.32
9868,3.20
9966,3.09
10066,2.99
10167,2.89
10268,2.81
10371,2.75
10475,2.70
10579,2.66
10685,2.65
10792,2.66
10900,2.67
11009,2.70
11119,2.74
11230,2.78
11343,2.82
11456,2.87
11571,2.91
11686,2.96
11803,3.00
11921,3.05
12040,3.07
12161,3.07
12282,3.03
12405,2.95
12529,2.83
12655,2.68
12781,2.50
12909,2.28
13038,2.02
13168,1.74
13300,1.45
13433,1.15
13567,0.84
13703,0.56
13840,0.31
13978,0.10
14118,-0.06
14259,-0.16
14402,-0.20
14546,-0.21
14692,-0.18
14838,-0.13
14987,-0.05
15137,0.04
15288,0.12
15441,0.21
15595,0.29
15751,0.33
15909,0.34
16068,0.34
16229,0.31
16391,0.25
16555,0.16
16720,0.07
16888,-0.05
17056,-0.18
17227,-0.33
17399,-0.50
17573,-0.68
17749,-0.88
17926,-1.10
18106,-1.33
18287,-1.56
18470,-1.82
18654,-2.09
18841,-2.37
19029,-2.67
19220,-2.98
19412,-3.31
19606,-3.65
19802,-4.00
20000,-4.37
