frequency,raw,smoothed,error,error_smoothed,equalization,parametric_eq,fixed_band_eq,equalized_raw,equalized_smoothed,target
20.00,9.88,9.88,1.78,1.78,-1.77,-2.09,-1.02,8.10,8.10,8.10
20.20,9.90,9.90,1.80,1.80,-1.80,-2.09,-1.05,8.10,8.10,8.10
20.40,9.93,9.92,1.83,1.83,-1.83,-2.09,-1.08,8.10,8.10,8.10
20.61,9.95,9.95,1.85,1.85,-1.85,-2.09,-1.11,8.09,8.09,8.10
20.81,9.97,9.97,1.87,1.88,-1.88,-2.10,-1.14,8.09,8.09,8.10
21.02,10.00,9.99,1.90,1.90,-1.90,-2.10,-1.18,8.10,8.09,8.09
21.23,10.02,10.02,1.92,1.92,-1.92,-2.10,-1.21,8.09,8.09,8.09
21.44,10.04,10.04,1.94,1.95,-1.94,-2.10,-1.25,8.09,8.09,8.09
21.66,10.06,10.06,1.96,1.97,-1.97,-2.10,-1.28,8.09,8.09,8.09
21.87,10.08,10.08,1.99,1.99,-1.98,-2.11,-1.32,8.09,8.09,8.09
22.09,10.10,10.09,2.01,2.00,-2.00,-2.11,-1.36,8.10,8.09,8.09
22.31,10.11,10.11,2.02,2.02,-2.02,-2.11,-1.40,8.09,8.09,8.09
22.54,10.12,10.12,2.03,2.03,-2.03,-2.11,-1.44,8.09,8.09,8.09
22.76,10.14,10.13,2.05,2.05,-2.05,-2.11,-1.48,8.09,8.09,8.09
22.99,10.15,10.15,2.06,2.06,-2.06,-2.12,-1.52,8.09,8.09,8.09
23.22,10.16,10.16,2.07,2.07,-2.07,-2.12,-1.57,8.08,8.08,8.09
23.45,10.17,10.17,2.08,2.09,-2.09,-2.12,-1.61,8.08,8.08,8.09
23.69,10.19,10.19,2.10,2.10,-2.10,-2.12,-1.66,8.08,8.08,8.08
23.92,10.21,10.20,2.12,2.12,-2.12,-2.13,-1.70,8.09,8.08,8.08
24.16,10.22,10.22,2.14,2.14,-2.14,-2.13,-1.75,8.08,8.08,8.08
24.40,10.24,10.23,2.16,2.15,-2.15,-2.13,-1.80,8.09,8.08,8.08
24.65,10.25,10.25,2.17,2.17,-2.17,-2.13,-1.85,8.08,8.08,8.08
24.89,10.26,10.26,2.18,2.18,-2.18,-2.14,-1.89,8.07,8.08,8.08
25.14,10.28,10.27,2.20,2.20,-2.20,-2.14,-1.94,8.08,8.08,8.08
25.39,10.29,10.29,2.21,2.21,-2.21,-2.14,-1.99,8.08,8.08,8.08
25.65,10.30,10.30,2.22,2.22,-2.22,-2.14,-2.04,8.07,8.07,8.07
25.91,10.31,10.31,2.24,2.24,-2.24,-2.15,-2.09,8.07,8.07,8.07
26.16,10.32,10.32,2.25,2.25,-2.25,-2.15,-2.14,8.07,8.07,8.07
26.43,10.33,10.33,2.26,2.26,-2.26,-2.15,-2.19,8.07,8.07,8.07
26.69,10.34,10.33,2.27,2.27,-2.27,-2.16,-2.24,8.07,8.07,8.07
26.96,10.34,10.34,2.27,2.28,-2.28,-2.16,-2.29,8.06,8.07,8.07
27.23,10.35,10.35,2.28,2.28,-2.28,-2.16,-2.34,8.06,8.06,8.06
27.50,10.36,10.35,2.30,2.29,-2.29,-2.17,-2.38,8.07,8.06,8.06
27.77,10.36,10.36,2.30,2.30,-2.30,-2.17,-2.43,8.06,8.06,8.06
28.05,10.37,10.37,2.31,2.31,-2.31,-2.17,-2.47,8.06,8.06,8.06
28.33,10.37,10.37,2.31,2.31,-2.31,-2.18,-2.51,8.05,8.06,8.06
28.62,10.38,10.38,2.32,2.32,-2.32,-2.18,-2.55,8.06,8.05,8.05
28.90,10.38,10.38,2.33,2.33,-2.33,-2.18,-2.59,8.05,8.05,8.05
29.19,10.39,10.39,2.34,2.34,-2.34,-2.19,-2.62,8.05,8.05,8.05
29.48,10.39,10.39,2.34,2.34,-2.34,-2.19,-2.65,8.04,8.05,8.05
29.78,10.40,10.40,2.35,2.35,-2.35,-2.19,-2.68,8.05,8.05,8.04
30.08,10.40,10.40,2.36,2.36,-2.36,-2.20,-2.71,8.04,8.04,8.04
30.38,10.41,10.41,2.37,2.37,-2.36,-2.20,-2.73,8.04,8.04,8.04
30.68,10.41,10.41,2.37,2.37,-2.37,-2.20,-2.75,8.04,8.03,8.04
30.99,10.41,10.41,2.37,2.38,-2.38,-2.21,-2.76,8.03,8.03,8.03
31.30,10.41,10.41,2.38,2.38,-2.38,-2.21,-2.77,8.02,8.03,8.03
31.61,10.42,10.41,2.39,2.39,-2.39,-2.22,-2.78,8.03,8.03,8.03
31.93,10.42,10.42,2.39,2.39,-2.39,-2.22,-2.79,8.03,8.03,8.02
32.24,10.42,10.42,2.40,2.40,-2.39,-2.23,-2.79,8.02,8.02,8.02
32.57,10.42,10.41,2.40,2.40,-2.40,-2.23,-2.79,8.02,8.02,8.02
32.89,10.41,10.41,2.39,2.40,-2.40,-2.23,-2.79,8.01,8.01,8.01
33.22,10.41,10.41,2.40,2.40,-2.40,-2.24,-2.78,8.01,8.01,8.01
33.55,10.41,10.41,2.40,2.40,-2.40,-2.24,-2.77,8.01,8.00,8.01
33.89,10.41,10.41,2.41,2.40,-2.40,-2.25,-2.76,8.01,8.00,8.00
34.23,10.40,10.40,2.40,2.40,-2.40,-2.25,-2.74,8.00,8.00,8.00
34.57,10.40,10.40,2.40,2.40,-2.40,-2.26,-2.73,8.00,7.99,7.99
34.92,10.39,10.39,2.40,2.40,-2.40,-2.26,-2.71,7.98,7.99,7.99
35.27,10.39,10.39,2.40,2.40,-2.40,-2.27,-2.69,7.98,7.98,7.98
35.62,10.38,10.38,2.40,2.40,-2.40,-2.27,-2.67,7.97,7.98,7.98
35.97,10.38,10.38,2.40,2.40,-2.40,-2.28,-2.65,7.97,7.97,7.97
36.33,10.37,10.37,2.40,2.40,-2.40,-2.28,-2.62,7.97,7.97,7.97
36.70,10.37,10.37,2.40,2.40,-2.40,-2.29,-2.60,7.97,7.97,7.96
37.06,10.36,10.36,2.40,2.40,-2.39,-2.29,-2.58,7.96,7.96,7.96
37.43,10.35,10.35,2.40,2.39,-2.39,-2.30,-2.55,7.96,7.96,7.95
37.81,10.33,10.33,2.38,2.38,-2.39,-2.30,-2.53,7.94,7.94,7.95
38.19,10.32,10.32,2.38,2.38,-2.39,-2.31,-2.51,7.93,7.93,7.94
38.57,10.31,10.31,2.38,2.38,-2.38,-2.31,-2.48,7.92,7.93,7.93
38.95,10.31,10.31,2.38,2.38,-2.39,-2.32,-2.46,7.92,7.92,7.93
39.34,10.31,10.31,2.39,2.39,-2.39,-2.33,-2.44,7.92,7.92,7.92
39.74,10.31,10.31,2.40,2.40,-2.40,-2.33,-2.42,7.91,7.91,7.91
40.14,10.31,10.31,2.40,2.40,-2.40,-2.34,-2.40,7.90,7.90,7.90
40.54,10.31,10.31,2.41,2.41,-2.41,-2.34,-2.38,7.90,7.90,7.90
40.94,10.31,10.31,2.42,2.42,-2.42,-2.35,-2.37,7.89,7.89,7.89
41.35,10.31,10.31,2.43,2.43,-2.43,-2.36,-2.35,7.88,7.88,7.88
41.76,10.31,10.31,2.44,2.44,-2.43,-2.36,-2.34,7.88,7.88,7.87
42.18,10.30,10.30,2.44,2.44,-2.43,-2.37,-2.32,7.86,7.87,7.86
42.60,10.30,10.29,2.45,2.44,-2.44,-2.38,-2.31,7.86,7.85,7.85
43.03,10.28,10.28,2.44,2.44,-2.44,-2.38,-2.31,7.84,7.84,7.84
43.46,10.27,10.27,2.44,2.44,-2.44,-2.39,-2.30,7.82,7.82,7.83
43.90,10.26,10.26,2.44,2.44,-2.45,-2.40,-2.29,7.81,7.81,7.82
44.33,10.26,10.26,2.45,2.45,-2.45,-2.40,-2.29,7.81,7.81,7.81
44.78,10.26,10.25,2.46,2.46,-2.45,-2.41,-2.29,7.81,7.80,7.80
45.23,10.25,10.25,2.46,2.46,-2.45,-2.42,-2.29,7.80,7.80,7.79
45.68,10.24,10.24,2.46,2.46,-2.45,-2.42,-2.29,7.78,7.78,7.78
46.13,10.22,10.22,2.45,2.46,-2.46,-2.43,-2.29,7.76,7.76,7.76
46.60,10.21,10.20,2.46,2.45,-2.46,-2.44,-2.30,7.75,7.75,7.75
47.06,10.19,10.19,2.45,2.45,-2.46,-2.45,-2.30,7.73,7.73,7.74
47.53,10.18,10.18,2.45,2.45,-2.46,-2.45,-2.31,7.72,7.72,7.72
48.01,10.17,10.16,2.46,2.46,-2.45,-2.46,-2.32,7.71,7.71,7.71
48.49,10.15,10.15,2.45,2.46,-2.45,-2.47,-2.33,7.69,7.70,7.69
48.97,10.14,10.14,2.46,2.46,-2.45,-2.48,-2.35,7.68,7.68,7.68
49.46,10.12,10.12,2.45,2.45,-2.45,-2.49,-2.36,7.67,7.66,7.66
49.96,10.10,10.10,2.45,2.45,-2.45,-2.49,-2.38,7.65,7.65,7.65
50.46,10.08,10.08,2.45,2.45,-2.45,-2.50,-2.39,7.63,7.63,7.63
50.96,10.06,10.06,2.44,2.45,-2.45,-2.51,-2.41,7.61,7.61,7.61
51.47,10.05,10.04,2.45,2.45,-2.45,-2.52,-2.43,7.60,7.59,7.59
51.99,10.03,10.03,2.45,2.45,-2.45,-2.53,-2.45,7.58,7.58,7.58
52.51,10.01,10.01,2.45,2.45,-2.45,-2.54,-2.47,7.56,7.56,7.56
53.03,9.99,9.99,2.45,2.45,-2.45,-2.55,-2.49,7.54,7.54,7.54
53.56,9.97,9.97,2.45,2.45,-2.45,-2.56,-2.51,7.52,7.52,7.52
54.10,9.95,9.94,2.45,2.45,-2.45,-2.56,-2.53,7.50,7.50,7.49
54.64,9.92,9.92,2.44,2.45,-2.45,-2.57,-2.56,7.47,7.47,7.47
55.18,9.90,9.90,2.45,2.45,-2.46,-2.58,-2.58,7.44,7.44,7.45
55.74,9.88,9.88,2.45,2.45,-2.46,-2.59,-2.60,7.42,7.42,7.43
56.29,9.87,9.86,2.46,2.46,-2.46,-2.60,-2.62,7.40,7.40,7.40
56.86,9.85,9.85,2.47,2.47,-2.47,-2.61,-2.64,7.38,7.38,7.38
57.42,9.84,9.84,2.49,2.48,-2.47,-2.62,-2.66,7.36,7.36,7.35
58.00,9.82,9.81,2.49,2.49,-2.48,-2.63,-2.68,7.34,7.34,7.33
58.58,9.79,9.79,2.49,2.49,-2.49,-2.64,-2.70,7.30,7.30,7.30
59.16,9.76,9.76,2.49,2.49,-2.49,-2.65,-2.72,7.27,7.27,7.27
59.76,9.73,9.73,2.49,2.49,-2.50,-2.66,-2.73,7.23,7.23,7.24
60.35,9.71,9.71,2.50,2.50,-2.51,-2.67,-2.75,7.20,7.20,7.21
60.96,9.70,9.69,2.52,2.51,-2.52,-2.68,-2.76,7.18,7.18,7.18
61.57,9.68,9.68,2.53,2.53,-2.53,-2.69,-2.77,7.15,7.15,7.15
62.18,9.66,9.66,2.54,2.54,-2.54,-2.70,-2.78,7.12,7.12,7.12
62.80,9.64,9.64,2.55,2.55,-2.55,-2.72,-2.79,7.09,7.09,7.08
63.43,9.62,9.62,2.57,2.57,-2.56,-2.73,-2.79,7.05,7.05,7.05
64.07,9.59,9.59,2.57,2.58,-2.58,-2.74,-2.80,7.01,7.02,7.01
64.71,9.57,9.56,2.59,2.59,-2.59,-2.75,-2.80,6.98,6.98,6.98
65.35,9.54,9.54,2.60,2.60,-2.60,-2.76,-2.80,6.94,6.94,6.94
66.01,9.51,9.51,2.60,2.61,-2.61,-2.77,-2.81,6.90,6.90,6.90
66.67,9.49,9.48,2.62,2.62,-2.62,-2.78,-2.80,6.87,6.86,6.86
67.33,9.46,9.46,2.63,2.63,-2.63,-2.80,-2.80,6.83,6.83,6.82
68.01,9.43,9.43,2.64,2.65,-2.64,-2.81,-2.80,6.78,6.78,6.78
68.69,9.40,9.40,2.66,2.66,-2.66,-2.82,-2.80,6.74,6.74,6.74
69.37,9.37,9.37,2.67,2.67,-2.67,-2.83,-2.79,6.70,6.70,6.70
70.07,9.34,9.34,2.68,2.68,-2.68,-2.85,-2.79,6.65,6.65,6.65
70.77,9.31,9.31,2.70,2.70,-2.70,-2.86,-2.79,6.61,6.61,6.61
71.48,9.28,9.28,2.71,2.72,-2.71,-2.87,-2.78,6.56,6.56,6.56
72.19,9.25,9.25,2.73,2.73,-2.73,-2.88,-2.78,6.52,6.52,6.52
72.91,9.22,9.21,2.75,2.75,-2.75,-2.90,-2.77,6.47,6.47,6.47
73.64,9.18,9.18,2.76,2.76,-2.76,-2.91,-2.77,6.41,6.42,6.42
74.38,9.15,9.15,2.78,2.78,-2.78,-2.92,-2.77,6.37,6.37,6.37
75.12,9.12,9.12,2.80,2.80,-2.80,-2.94,-2.77,6.32,6.32,6.32
75.87,9.09,9.08,2.82,2.82,-2.82,-2.95,-2.77,6.27,6.26,6.26
76.63,9.05,9.05,2.84,2.84,-2.84,-2.96,-2.77,6.21,6.21,6.21
77.40,9.02,9.02,2.86,2.86,-2.86,-2.98,-2.77,6.16,6.16,6.16
78.17,8.99,8.98,2.89,2.88,-2.88,-2.99,-2.77,6.11,6.10,6.10
78.95,8.95,8.95,2.90,2.90,-2.90,-3.01,-2.78,6.04,6.05,6.05
79.74,8.91,8.91,2.92,2.92,-2.92,-3.02,-2.78,5.98,5.99,5.99
80.54,8.88,8.87,2.95,2.95,-2.95,-3.04,-2.79,5.93,5.93,5.93
81.35,8.84,8.84,2.97,2.97,-2.97,-3.05,-2.80,5.87,5.87,5.87
82.16,8.81,8.81,3.00,3.00,-2.99,-3.07,-2.81,5.81,5.81,5.81
82.98,8.77,8.77,3.02,3.02,-3.02,-3.08,-2.83,5.75,5.75,5.75
83.81,8.74,8.74,3.05,3.05,-3.05,-3.10,-2.84,5.69,5.69,5.69
84.65,8.70,8.70,3.07,3.07,-3.07,-3.12,-2.86,5.63,5.62,5.62
85.50,8.66,8.66,3.10,3.10,-3.10,-3.13,-2.88,5.56,5.56,5.56
86.35,8.62,8.62,3.12,3.12,-3.13,-3.15,-2.90,5.49,5.50,5.50
87.22,8.59,8.58,3.16,3.15,-3.15,-3.17,-2.93,5.43,5.43,5.43
88.09,8.55,8.55,3.18,3.18,-3.18,-3.18,-2.96,5.37,5.37,5.37
88.97,8.51,8.51,3.21,3.21,-3.21,-3.20,-2.99,5.30,5.30,5.30
89.86,8.47,8.47,3.24,3.24,-3.24,-3.22,-3.02,5.23,5.23,5.23
90.76,8.43,8.43,3.26,3.26,-3.26,-3.24,-3.05,5.16,5.16,5.16
91.66,8.39,8.39,3.29,3.29,-3.29,-3.26,-3.09,5.09,5.09,5.09
92.58,8.35,8.35,3.32,3.32,-3.32,-3.28,-3.13,5.02,5.02,5.03
93.51,8.31,8.31,3.35,3.35,-3.35,-3.29,-3.17,4.96,4.96,4.96
94.44,8.27,8.27,3.38,3.38,-3.38,-3.31,-3.21,4.88,4.89,4.89
95.39,8.23,8.23,3.41,3.41,-3.41,-3.33,-3.26,4.81,4.81,4.81
96.34,8.19,8.19,3.44,3.44,-3.44,-3.35,-3.30,4.74,4.74,4.74
97.30,8.15,8.15,3.48,3.48,-3.48,-3.37,-3.35,4.67,4.67,4.67
98.28,8.11,8.11,3.51,3.51,-3.51,-3.40,-3.40,4.60,4.60,4.60
99.26,8.07,8.07,3.54,3.54,-3.54,-3.42,-3.45,4.53,4.53,4.53
100.25,8.03,8.02,3.57,3.57,-3.57,-3.44,-3.51,4.46,4.46,4.46
101.25,7.98,7.98,3.59,3.60,-3.60,-3.46,-3.56,4.38,4.38,4.38
102.27,7.94,7.94,3.63,3.63,-3.63,-3.48,-3.61,4.31,4.31,4.31
103.29,7.90,7.89,3.66,3.66,-3.66,-3.50,-3.67,4.24,4.24,4.24
104.32,7.85,7.85,3.68,3.69,-3.69,-3.53,-3.73,4.16,4.16,4.16
105.37,7.81,7.81,3.72,3.71,-3.71,-3.55,-3.78,4.09,4.09,4.09
106.42,7.76,7.76,3.74,3.74,-3.74,-3.57,-3.84,4.01,4.02,4.02
107.48,7.72,7.72,3.77,3.77,-3.77,-3.60,-3.89,3.95,3.94,3.94
108.56,7.67,7.67,3.80,3.80,-3.80,-3.62,-3.95,3.87,3.87,3.87
109.64,7.63,7.62,3.83,3.83,-3.83,-3.65,-4.00,3.80,3.80,3.80
110.74,7.58,7.58,3.85,3.85,-3.85,-3.67,-4.05,3.73,3.73,3.73
111.85,7.53,7.53,3.87,3.88,-3.88,-3.69,-4.10,3.65,3.66,3.65
112.97,7.49,7.48,3.91,3.90,-3.90,-3.72,-4.15,3.59,3.58,3.58
114.10,7.44,7.44,3.93,3.93,-3.92,-3.74,-4.20,3.51,3.51,3.51
115.24,7.39,7.39,3.95,3.95,-3.95,-3.77,-4.24,3.44,3.44,3.44
116.39,7.34,7.34,3.97,3.97,-3.97,-3.79,-4.28,3.37,3.37,3.37
117.55,7.29,7.29,3.99,3.99,-3.99,-3.82,-4.31,3.29,3.29,3.30
118.73,7.24,7.24,4.01,4.01,-4.02,-3.84,-4.34,3.22,3.23,3.23
119.92,7.20,7.19,4.04,4.04,-4.04,-3.87,-4.37,3.16,3.16,3.16
121.12,7.15,7.15,4.06,4.06,-4.06,-3.90,-4.39,3.09,3.09,3.09
122.33,7.10,7.10,4.08,4.08,-4.07,-3.92,-4.41,3.02,3.03,3.02
123.55,7.05,7.05,4.09,4.09,-4.09,-3.95,-4.42,2.96,2.96,2.95
124.79,7.00,6.99,4.11,4.11,-4.11,-3.97,-4.43,2.89,2.89,2.89
126.03,6.94,6.94,4.12,4.12,-4.12,-3.99,-4.43,2.82,2.82,2.82
127.29,6.89,6.89,4.13,4.13,-4.13,-4.02,-4.42,2.75,2.75,2.76
128.57,6.84,6.84,4.15,4.15,-4.15,-4.04,-4.42,2.69,2.69,2.69
129.85,6.79,6.79,4.16,4.16,-4.16,-4.07,-4.40,2.63,2.63,2.63
131.15,6.73,6.73,4.16,4.17,-4.17,-4.09,-4.39,2.56,2.57,2.56
132.46,6.68,6.68,4.18,4.17,-4.17,-4.11,-4.36,2.50,2.50,2.50
133.79,6.62,6.62,4.18,4.18,-4.18,-4.13,-4.34,2.44,2.44,2.44
135.12,6.57,6.57,4.19,4.19,-4.19,-4.15,-4.31,2.38,2.38,2.38
136.48,6.51,6.51,4.19,4.19,-4.19,-4.17,-4.27,2.32,2.32,2.32
137.84,6.46,6.45,4.20,4.19,-4.19,-4.19,-4.24,2.27,2.26,2.26
139.22,6.40,6.40,4.19,4.19,-4.19,-4.21,-4.20,2.21,2.21,2.20
140.61,6.34,6.34,4.19,4.19,-4.19,-4.23,-4.16,2.15,2.15,2.15
142.02,6.29,6.28,4.20,4.19,-4.19,-4.24,-4.11,2.10,2.09,2.09
143.44,6.23,6.23,4.19,4.19,-4.19,-4.26,-4.07,2.04,2.04,2.04
144.87,6.17,6.17,4.18,4.19,-4.19,-4.27,-4.02,1.98,1.98,1.98
146.32,6.12,6.12,4.19,4.19,-4.19,-4.28,-3.97,1.92,1.92,1.93
147.78,6.07,6.07,4.19,4.19,-4.20,-4.30,-3.93,1.87,1.87,1.88
149.26,6.03,6.03,4.20,4.20,-4.20,-4.31,-3.88,1.83,1.83,1.83
150.75,5.99,5.99,4.21,4.21,-4.20,-4.31,-3.83,1.78,1.78,1.78
152.26,5.95,5.94,4.22,4.21,-4.21,-4.32,-3.78,1.74,1.74,1.73
153.78,5.90,5.90,4.21,4.21,-4.21,-4.33,-3.74,1.69,1.69,1.68
155.32,5.85,5.85,4.21,4.21,-4.21,-4.33,-3.69,1.64,1.64,1.64
156.88,5.80,5.80,4.21,4.20,-4.21,-4.33,-3.65,1.59,1.59,1.59
158.44,5.75,5.75,4.20,4.20,-4.20,-4.33,-3.61,1.55,1.55,1.55
160.03,5.69,5.69,4.18,4.19,-4.19,-4.33,-3.57,1.50,1.50,1.50
161.63,5.64,5.64,4.19,4.18,-4.17,-4.33,-3.53,1.46,1.46,1.45
163.24,5.58,5.58,4.17,4.17,-4.16,-4.32,-3.49,1.42,1.42,1.41
164.88,5.52,5.52,4.15,4.15,-4.15,-4.31,-3.46,1.37,1.37,1.37
166.53,5.46,5.46,4.13,4.13,-4.13,-4.30,-3.42,1.32,1.33,1.33
168.19,5.41,5.41,4.12,4.11,-4.12,-4.29,-3.40,1.29,1.28,1.29
169.87,5.36,5.36,4.10,4.10,-4.11,-4.28,-3.37,1.24,1.25,1.26
171.57,5.32,5.32,4.10,4.10,-4.11,-4.26,-3.34,1.21,1.21,1.22
173.29,5.28,5.28,4.09,4.10,-4.10,-4.25,-3.32,1.18,1.18,1.18
175.02,5.25,5.25,4.10,4.10,-4.10,-4.23,-3.30,1.15,1.15,1.15
176.77,5.22,5.21,4.10,4.10,-4.09,-4.21,-3.28,1.13,1.12,1.12
178.54,5.18,5.18,4.10,4.09,-4.09,-4.19,-3.27,1.09,1.09,1.08
180.32,5.13,5.13,4.08,4.08,-4.08,-4.16,-3.25,1.05,1.06,1.05
182.13,5.09,5.08,4.07,4.06,-4.06,-4.14,-3.25,1.03,1.02,1.02
183.95,5.04,5.03,4.05,4.04,-4.04,-4.11,-3.24,0.99,0.99,0.99
185.79,4.98,4.98,4.02,4.02,-4.02,-4.08,-3.23,0.96,0.96,0.96
187.65,4.93,4.92,4.00,3.99,-3.99,-4.05,-3.23,0.93,0.93,0.93
189.52,4.87,4.87,3.96,3.96,-3.97,-4.02,-3.23,0.90,0.90,0.91
191.42,4.81,4.81,3.93,3.93,-3.93,-3.98,-3.23,0.87,0.88,0.88
193.33,4.76,4.75,3.91,3.90,-3.90,-3.95,-3.24,0.85,0.85,0.85
195.27,4.70,4.70,3.87,3.87,-3.87,-3.91,-3.24,0.83,0.83,0.83
197.22,4.64,4.64,3.83,3.84,-3.84,-3.87,-3.25,0.80,0.80,0.80
199.19,4.59,4.58,3.81,3.80,-3.80,-3.83,-3.26,0.78,0.78,0.78
201.18,4.53,4.53,3.77,3.77,-3.77,-3.79,-3.27,0.76,0.76,0.76
203.19,4.47,4.47,3.73,3.73,-3.73,-3.75,-3.28,0.73,0.73,0.73
205.23,4.41,4.41,3.69,3.70,-3.70,-3.71,-3.30,0.71,0.71,0.71
207.28,4.36,4.35,3.67,3.66,-3.66,-3.67,-3.31,0.70,0.69,0.69
209.35,4.30,4.30,3.63,3.62,-3.62,-3.62,-3.33,0.67,0.67,0.67
211.44,4.24,4.24,3.58,3.59,-3.59,-3.58,-3.34,0.65,0.65,0.65
213.56,4.18,4.18,3.54,3.55,-3.55,-3.53,-3.36,0.63,0.63,0.63
215.69,4.13,4.12,3.51,3.51,-3.51,-3.48,-3.37,0.62,0.61,0.62
217.85,4.07,4.07,3.47,3.47,-3.47,-3.44,-3.39,0.60,0.60,0.60
220.03,4.01,4.01,3.43,3.43,-3.43,-3.39,-3.40,0.58,0.58,0.58
222.23,3.96,3.95,3.39,3.39,-3.39,-3.34,-3.41,0.57,0.57,0.56
224.45,3.90,3.90,3.35,3.35,-3.35,-3.29,-3.42,0.55,0.55,0.55
226.70,3.84,3.84,3.30,3.30,-3.31,-3.24,-3.43,0.53,0.53,0.53
228.96,3.78,3.78,3.26,3.26,-3.26,-3.19,-3.44,0.51,0.52,0.52
231.25,3.72,3.72,3.21,3.22,-3.22,-3.14,-3.44,0.50,0.50,0.50
233.57,3.67,3.66,3.18,3.18,-3.18,-3.09,-3.44,0.49,0.49,0.49
235.90,3.61,3.60,3.14,3.13,-3.13,-3.04,-3.44,0.47,0.47,0.47
238.26,3.54,3.54,3.08,3.09,-3.09,-2.99,-3.43,0.45,0.45,0.45
240.64,3.48,3.48,3.04,3.05,-3.05,-2.94,-3.42,0.43,0.44,0.44
243.05,3.44,3.43,3.01,3.00,-3.00,-2.89,-3.41,0.44,0.43,0.43
245.48,3.38,3.38,2.96,2.96,-2.96,-2.84,-3.39,0.42,0.42,0.42
247.93,3.32,3.32,2.91,2.91,-2.91,-2.79,-3.37,0.41,0.41,0.41
250.41,3.26,3.26,2.86,2.86,-2.86,-2.74,-3.35,0.39,0.39,0.39
252.92,3.20,3.20,2.81,2.82,-2.82,-2.69,-3.32,0.38,0.38,0.38
255.45,3.15,3.14,2.77,2.77,-2.77,-2.64,-3.28,0.37,0.37,0.37
258.00,3.09,3.09,2.72,2.73,-2.73,-2.59,-3.24,0.36,0.36,0.36
260.58,3.04,3.04,2.68,2.68,-2.69,-2.54,-3.20,0.35,0.35,0.35
263.19,2.99,2.99,2.64,2.64,-2.64,-2.49,-3.15,0.34,0.34,0.34
265.82,2.94,2.94,2.60,2.60,-2.60,-2.44,-3.10,0.34,0.34,0.34
268.48,2.89,2.89,2.56,2.56,-2.56,-2.39,-3.05,0.33,0.33,0.33
271.16,2.84,2.84,2.52,2.52,-2.52,-2.34,-2.99,0.32,0.32,0.32
273.87,2.79,2.79,2.48,2.48,-2.48,-2.29,-2.93,0.31,0.31,0.31
276.61,2.74,2.74,2.43,2.43,-2.43,-2.24,-2.86,0.31,0.31,0.30
279.38,2.69,2.69,2.39,2.39,-2.38,-2.19,-2.79,0.30,0.30,0.30
282.17,2.63,2.63,2.34,2.34,-2.33,-2.14,-2.72,0.29,0.30,0.29
284.99,2.58,2.58,2.29,2.28,-2.28,-2.10,-2.65,0.29,0.29,0.29
287.84,2.52,2.52,2.22,2.23,-2.23,-2.05,-2.58,0.29,0.29,0.30
290.72,2.47,2.46,2.18,2.18,-2.18,-2.00,-2.50,0.29,0.29,0.29
293.63,2.41,2.41,2.12,2.12,-2.12,-1.96,-2.43,0.28,0.29,0.28
296.57,2.36,2.36,2.07,2.07,-2.07,-1.91,-2.35,0.29,0.29,0.29
299.53,2.31,2.30,2.02,2.02,-2.02,-1.86,-2.27,0.29,0.29,0.29
302.53,2.25,2.25,1.96,1.96,-1.96,-1.82,-2.19,0.28,0.29,0.29
305.55,2.20,2.20,1.91,1.91,-1.91,-1.77,-2.11,0.29,0.29,0.29
308.61,2.15,2.15,1.86,1.86,-1.86,-1.73,-2.03,0.29,0.29,0.29
311.69,2.10,2.09,1.81,1.81,-1.81,-1.69,-1.95,0.29,0.29,0.29
314.81,2.04,2.04,1.75,1.75,-1.75,-1.64,-1.87,0.29,0.29,0.29
317.96,1.99,1.99,1.70,1.70,-1.70,-1.60,-1.79,0.29,0.29,0.29
321.14,1.94,1.94,1.65,1.65,-1.65,-1.55,-1.71,0.29,0.29,0.29
324.35,1.89,1.88,1.60,1.59,-1.59,-1.51,-1.63,0.30,0.29,0.29
327.59,1.83,1.83,1.53,1.54,-1.54,-1.47,-1.55,0.29,0.29,0.30
330.87,1.78,1.78,1.48,1.48,-1.48,-1.43,-1.47,0.29,0.29,0.29
334.18,1.73,1.73,1.43,1.43,-1.43,-1.38,-1.39,0.30,0.30,0.30
337.52,1.68,1.68,1.38,1.38,-1.38,-1.34,-1.31,0.30,0.30,0.30
340.90,1.63,1.63,1.32,1.32,-1.32,-1.30,-1.24,0.31,0.31,0.30
344.30,1.58,1.58,1.27,1.27,-1.27,-1.26,-1.16,0.31,0.31,0.31
347.75,1.53,1.53,1.21,1.21,-1.21,-1.22,-1.08,0.31,0.31,0.32
351.23,1.48,1.48,1.16,1.16,-1.16,-1.18,-1.01,0.32,0.32,0.31
354.74,1.43,1.43,1.10,1.10,-1.10,-1.14,-0.94,0.32,0.32,0.33
358.28,1.38,1.38,1.05,1.05,-1.05,-1.10,-0.86,0.33,0.33,0.33
361.87,1.33,1.33,0.99,0.99,-1.00,-1.06,-0.79,0.33,0.33,0.33
365.49,1.28,1.28,0.94,0.94,-0.94,-1.02,-0.72,0.34,0.34,0.34
369.14,1.24,1.23,0.90,0.89,-0.89,-0.98,-0.65,0.35,0.35,0.34
372.83,1.19,1.19,0.83,0.84,-0.83,-0.94,-0.58,0.35,0.35,0.36
376.56,1.14,1.14,0.78,0.78,-0.78,-0.90,-0.51,0.36,0.36,0.35
380.33,1.09,1.09,0.73,0.73,-0.73,-0.86,-0.44,0.36,0.36,0.36
384.13,1.04,1.04,0.68,0.67,-0.67,-0.82,-0.37,0.36,0.36,0.36
387.97,0.99,0.99,0.62,0.62,-0.62,-0.78,-0.30,0.37,0.37,0.37
391.85,0.95,0.94,0.56,0.57,-0.57,-0.74,-0.23,0.38,0.38,0.39
395.77,0.90,0.90,0.51,0.51,-0.51,-0.70,-0.17,0.38,0.38,0.38
399.73,0.85,0.85,0.46,0.46,-0.46,-0.66,-0.10,0.39,0.39,0.39
403.72,0.81,0.80,0.41,0.41,-0.41,-0.62,-0.04,0.40,0.39,0.40
407.76,0.76,0.76,0.36,0.36,-0.36,-0.58,0.03,0.40,0.40,0.40
411.84,0.72,0.72,0.31,0.31,-0.31,-0.54,0.09,0.41,0.41,0.41
415.96,0.67,0.67,0.25,0.26,-0.26,-0.50,0.15,0.41,0.41,0.41
420.12,0.63,0.63,0.22,0.21,-0.21,-0.46,0.21,0.42,0.42,0.41
424.32,0.58,0.58,0.16,0.16,-0.16,-0.42,0.27,0.42,0.42,0.42
428.56,0.54,0.53,0.11,0.11,-0.11,-0.38,0.33,0.43,0.43,0.43
432.85,0.49,0.49,0.05,0.06,-0.06,-0.33,0.39,0.43,0.43,0.44
437.18,0.45,0.45,0.01,0.01,-0.01,-0.29,0.44,0.44,0.44,0.44
441.55,0.41,0.41,-0.04,-0.04,0.04,-0.25,0.50,0.45,0.45,0.44
445.96,0.37,0.37,-0.09,-0.09,0.09,-0.21,0.55,0.46,0.46,0.45
450.42,0.33,0.33,-0.14,-0.14,0.14,-0.16,0.60,0.47,0.47,0.47
454.93,0.29,0.28,-0.19,-0.20,0.19,-0.12,0.65,0.48,0.48,0.48
459.48,0.24,0.24,-0.25,-0.25,0.24,-0.08,0.69,0.48,0.48,0.49
464.07,0.20,0.20,-0.29,-0.29,0.29,-0.03,0.74,0.49,0.49,0.49
468.71,0.16,0.16,-0.34,-0.34,0.34,0.01,0.78,0.50,0.50,0.50
473.40,0.12,0.12,-0.39,-0.39,0.39,0.06,0.82,0.51,0.51,0.51
478.13,0.08,0.08,-0.44,-0.44,0.44,0.11,0.86,0.52,0.51,0.52
482.91,0.04,0.04,-0.49,-0.49,0.48,0.15,0.89,0.52,0.52,0.52
487.74,-0.00,0.00,-0.54,-0.53,0.53,0.20,0.93,0.53,0.53,0.53
492.62,-0.03,-0.04,-0.58,-0.58,0.58,0.25,0.96,0.55,0.55,0.54
497.55,-0.07,-0.07,-0.62,-0.63,0.63,0.30,0.99,0.56,0.56,0.55
502.52,-0.11,-0.11,-0.67,-0.68,0.68,0.35,1.01,0.57,0.57,0.56
507.55,-0.15,-0.15,-0.73,-0.73,0.73,0.40,1.03,0.57,0.57,0.58
512.62,-0.19,-0.19,-0.78,-0.78,0.77,0.46,1.05,0.58,0.58,0.59
517.75,-0.22,-0.23,-0.82,-0.82,0.82,0.51,1.07,0.60,0.59,0.60
522.93,-0.26,-0.26,-0.87,-0.87,0.87,0.56,1.09,0.60,0.61,0.61
528.16,-0.29,-0.29,-0.91,-0.91,0.91,0.62,1.10,0.62,0.62,0.62
