frequency,raw,smoothed,error,error_smoothed,equalization,parametric_eq,fixed_band_eq,equalized_raw,equalized_smoothed,target
20.00,3.64,3.64,-4.05,-4.05,4.05,3.50,1.36,7.69,7.69,7.69
20.20,3.67,3.67,-4.02,-4.02,4.02,3.50,1.40,7.69,7.69,7.69
20.40,3.70,3.70,-3.99,-3.99,3.99,3.49,1.44,7.69,7.69,7.69
20.61,3.73,3.73,-3.96,-3.96,3.96,3.48,1.49,7.69,7.69,7.69
20.81,3.76,3.76,-3.93,-3.93,3.93,3.48,1.53,7.69,7.68,7.69
21.02,3.79,3.79,-3.90,-3.90,3.89,3.47,1.58,7.68,7.68,7.69
21.23,3.82,3.82,-3.87,-3.87,3.86,3.46,1.62,7.68,7.68,7.69
21.44,3.85,3.85,-3.83,-3.84,3.83,3.46,1.67,7.68,7.68,7.68
21.66,3.88,3.88,-3.80,-3.80,3.80,3.45,1.72,7.68,7.68,7.68
21.87,3.91,3.91,-3.77,-3.77,3.77,3.44,1.77,7.68,7.68,7.68
22.09,3.94,3.94,-3.74,-3.74,3.74,3.44,1.83,7.68,7.68,7.68
22.31,3.97,3.97,-3.71,-3.71,3.71,3.43,1.88,7.68,7.68,7.68
22.54,4.00,4.00,-3.68,-3.68,3.69,3.42,1.94,7.69,7.68,7.68
22.76,4.02,4.02,-3.66,-3.66,3.66,3.41,1.99,7.68,7.68,7.68
22.99,4.04,4.04,-3.64,-3.63,3.64,3.40,2.05,7.67,7.68,7.68
23.22,4.07,4.06,-3.61,-3.61,3.61,3.40,2.11,7.68,7.67,7.68
23.45,4.09,4.09,-3.59,-3.59,3.59,3.39,2.17,7.67,7.67,7.68
23.69,4.11,4.11,-3.57,-3.56,3.56,3.38,2.23,7.67,7.67,7.68
23.92,4.14,4.14,-3.53,-3.54,3.54,3.37,2.30,7.68,7.67,7.67
24.16,4.16,4.16,-3.51,-3.51,3.51,3.36,2.36,7.67,7.67,7.67
24.40,4.19,4.19,-3.48,-3.49,3.49,3.35,2.43,7.68,7.67,7.67
24.65,4.21,4.21,-3.46,-3.46,3.46,3.34,2.49,7.67,7.67,7.67
24.89,4.23,4.23,-3.44,-3.44,3.44,3.34,2.56,7.67,7.67,7.67
25.14,4.26,4.26,-3.41,-3.41,3.41,3.33,2.63,7.67,7.67,7.67
25.39,4.28,4.28,-3.39,-3.39,3.39,3.32,2.69,7.67,7.67,7.67
25.65,4.30,4.30,-3.37,-3.36,3.37,3.31,2.76,7.67,7.67,7.66
25.91,4.32,4.32,-3.34,-3.34,3.35,3.30,2.83,7.66,7.67,7.66
26.16,4.34,4.34,-3.32,-3.32,3.32,3.28,2.90,7.66,7.66,7.66
26.43,4.36,4.36,-3.30,-3.30,3.30,3.27,2.96,7.66,7.66,7.66
26.69,4.37,4.37,-3.29,-3.29,3.28,3.26,3.03,7.65,7.66,7.66
26.96,4.39,4.39,-3.27,-3.27,3.26,3.25,3.10,7.65,7.65,7.66
27.23,4.41,4.41,-3.25,-3.25,3.24,3.24,3.16,7.65,7.65,7.66
27.50,4.43,4.43,-3.22,-3.22,3.22,3.23,3.22,7.65,7.65,7.65
27.77,4.45,4.45,-3.20,-3.20,3.20,3.22,3.28,7.65,7.65,7.65
28.05,4.47,4.47,-3.18,-3.18,3.18,3.20,3.34,7.65,7.65,7.65
28.33,4.48,4.48,-3.17,-3.16,3.17,3.19,3.39,7.64,7.65,7.65
28.62,4.50,4.50,-3.15,-3.15,3.15,3.18,3.44,7.64,7.64,7.64
28.90,4.52,4.52,-3.12,-3.13,3.13,3.17,3.49,7.65,7.64,7.64
29.19,4.53,4.53,-3.11,-3.11,3.11,3.15,3.53,7.64,7.64,7.64
29.48,4.55,4.55,-3.09,-3.09,3.09,3.14,3.57,7.64,7.64,7.64
29.78,4.56,4.56,-3.08,-3.07,3.07,3.12,3.61,7.63,7.63,7.64
30.08,4.58,4.58,-3.05,-3.05,3.05,3.11,3.64,7.63,7.63,7.63
30.38,4.60,4.60,-3.03,-3.03,3.04,3.10,3.66,7.63,7.63,7.63
30.68,4.61,4.61,-3.02,-3.01,3.02,3.08,3.68,7.63,7.63,7.63
30.99,4.63,4.63,-3.00,-3.00,3.00,3.07,3.70,7.63,7.63,7.62
31.30,4.64,4.64,-2.98,-2.98,2.98,3.05,3.70,7.62,7.62,7.62
31.61,4.65,4.65,-2.97,-2.96,2.96,3.03,3.71,7.61,7.62,7.62
31.93,4.67,4.66,-2.95,-2.95,2.95,3.02,3.70,7.62,7.61,7.61
32.24,4.68,4.68,-2.93,-2.93,2.93,3.00,3.70,7.61,7.61,7.61
32.57,4.69,4.69,-2.92,-2.91,2.92,2.98,3.69,7.60,7.61,7.61
32.89,4.71,4.71,-2.90,-2.90,2.90,2.97,3.67,7.61,7.61,7.60
33.22,4.72,4.72,-2.88,-2.88,2.88,2.95,3.65,7.60,7.60,7.60
33.55,4.73,4.73,-2.87,-2.87,2.87,2.93,3.62,7.60,7.60,7.60
33.89,4.74,4.74,-2.85,-2.85,2.85,2.92,3.59,7.59,7.59,7.59
34.23,4.75,4.75,-2.84,-2.84,2.84,2.90,3.56,7.59,7.59,7.59
34.57,4.76,4.76,-2.82,-2.83,2.82,2.88,3.52,7.58,7.58,7.58
34.92,4.77,4.77,-2.81,-2.81,2.81,2.86,3.48,7.58,7.58,7.58
35.27,4.78,4.78,-2.80,-2.79,2.79,2.85,3.44,7.57,7.57,7.57
35.62,4.80,4.80,-2.77,-2.77,2.77,2.83,3.39,7.57,7.57,7.57
35.97,4.81,4.81,-2.76,-2.76,2.76,2.81,3.35,7.57,7.57,7.56
36.33,4.82,4.82,-2.74,-2.74,2.74,2.80,3.30,7.56,7.56,7.56
36.70,4.83,4.83,-2.72,-2.73,2.73,2.78,3.25,7.56,7.55,7.55
37.06,4.83,4.83,-2.72,-2.72,2.71,2.76,3.20,7.54,7.55,7.55
37.43,4.84,4.84,-2.70,-2.70,2.70,2.75,3.15,7.54,7.54,7.54
37.81,4.85,4.85,-2.69,-2.69,2.69,2.73,3.10,7.54,7.53,7.54
38.19,4.86,4.86,-2.67,-2.67,2.67,2.71,3.05,7.53,7.53,7.53
38.57,4.86,4.86,-2.66,-2.66,2.66,2.70,3.00,7.52,7.52,7.52
38.95,4.87,4.87,-2.65,-2.65,2.65,2.68,2.95,7.52,7.52,7.52
39.34,4.88,4.88,-2.63,-2.63,2.63,2.67,2.90,7.51,7.51,7.51
39.74,4.89,4.89,-2.61,-2.62,2.62,2.65,2.85,7.51,7.51,7.50
40.14,4.89,4.89,-2.61,-2.60,2.60,2.64,2.81,7.49,7.50,7.49
40.54,4.90,4.90,-2.59,-2.59,2.59,2.62,2.76,7.49,7.49,7.49
40.94,4.90,4.90,-2.58,-2.58,2.58,2.61,2.72,7.47,7.48,7.48
41.35,4.91,4.91,-2.56,-2.56,2.56,2.60,2.67,7.47,7.47,7.47
41.76,4.91,4.91,-2.55,-2.55,2.55,2.58,2.63,7.46,7.46,7.46
42.18,4.92,4.92,-2.53,-2.53,2.53,2.57,2.60,7.45,7.45,7.45
42.60,4.93,4.93,-2.51,-2.51,2.52,2.55,2.56,7.45,7.45,7.44
43.03,4.94,4.94,-2.49,-2.50,2.50,2.54,2.52,7.44,7.44,7.43
43.46,4.94,4.94,-2.48,-2.48,2.49,2.52,2.49,7.43,7.43,7.42
43.90,4.94,4.94,-2.47,-2.47,2.47,2.51,2.46,7.41,7.41,7.41
44.33,4.94,4.94,-2.46,-2.46,2.46,2.49,2.43,7.40,7.40,7.40
44.78,4.95,4.94,-2.44,-2.45,2.44,2.48,2.40,7.39,7.39,7.39
45.23,4.95,4.95,-2.43,-2.43,2.43,2.46,2.38,7.38,7.38,7.38
45.68,4.95,4.95,-2.42,-2.41,2.41,2.44,2.35,7.36,7.37,7.37
46.13,4.96,4.96,-2.40,-2.40,2.40,2.43,2.33,7.36,7.36,7.35
46.60,4.96,4.96,-2.38,-2.38,2.38,2.41,2.31,7.34,7.34,7.34
47.06,4.96,4.96,-2.37,-2.37,2.37,2.39,2.29,7.33,7.33,7.33
47.53,4.96,4.96,-2.36,-2.35,2.35,2.37,2.28,7.31,7.31,7.31
48.01,4.97,4.97,-2.33,-2.33,2.33,2.35,2.26,7.30,7.30,7.30
48.49,4.97,4.97,-2.32,-2.32,2.32,2.34,2.25,7.29,7.29,7.29
48.97,4.97,4.97,-2.30,-2.30,2.30,2.32,2.24,7.27,7.27,7.27
49.46,4.97,4.97,-2.29,-2.29,2.29,2.30,2.23,7.25,7.25,7.25
49.96,4.97,4.97,-2.27,-2.27,2.27,2.27,2.22,7.24,7.24,7.24
50.46,4.97,4.97,-2.25,-2.25,2.25,2.25,2.21,7.22,7.22,7.22
50.96,4.97,4.97,-2.23,-2.24,2.24,2.23,2.21,7.21,7.20,7.20
51.47,4.96,4.96,-2.23,-2.22,2.22,2.21,2.20,7.18,7.18,7.19
51.99,4.96,4.96,-2.21,-2.21,2.21,2.19,2.19,7.16,7.16,7.17
52.51,4.96,4.96,-2.19,-2.19,2.19,2.16,2.19,7.15,7.15,7.15
53.03,4.96,4.96,-2.17,-2.17,2.17,2.14,2.19,7.13,7.13,7.13
53.56,4.96,4.96,-2.15,-2.15,2.15,2.12,2.18,7.11,7.11,7.11
54.10,4.95,4.95,-2.14,-2.13,2.13,2.09,2.18,7.08,7.08,7.09
54.64,4.95,4.95,-2.11,-2.11,2.11,2.07,2.17,7.06,7.06,7.06
55.18,4.95,4.95,-2.09,-2.09,2.09,2.04,2.17,7.04,7.04,7.04
55.74,4.95,4.95,-2.07,-2.07,2.07,2.01,2.16,7.02,7.02,7.02
56.29,4.95,4.95,-2.04,-2.05,2.05,1.99,2.16,7.00,6.99,6.99
56.86,4.94,4.94,-2.03,-2.03,2.03,1.96,2.15,6.97,6.97,6.97
57.42,4.94,4.94,-2.00,-2.00,2.00,1.93,2.14,6.94,6.94,6.94
58.00,4.94,4.94,-1.98,-1.98,1.98,1.91,2.13,6.92,6.92,6.92
58.58,4.93,4.93,-1.96,-1.96,1.96,1.88,2.12,6.89,6.89,6.89
59.16,4.93,4.93,-1.93,-1.94,1.93,1.85,2.11,6.86,6.86,6.86
59.76,4.92,4.92,-1.91,-1.91,1.91,1.82,2.09,6.83,6.83,6.83
60.35,4.92,4.92,-1.88,-1.88,1.88,1.79,2.08,6.80,6.80,6.80
60.96,4.92,4.91,-1.85,-1.86,1.86,1.76,2.06,6.78,6.77,6.77
61.57,4.91,4.91,-1.83,-1.83,1.83,1.73,2.04,6.74,6.74,6.74
62.18,4.90,4.90,-1.81,-1.81,1.80,1.69,2.01,6.70,6.71,6.71
62.80,4.90,4.90,-1.78,-1.78,1.78,1.66,1.98,6.68,6.67,6.68
63.43,4.89,4.89,-1.75,-1.75,1.75,1.63,1.96,6.64,6.64,6.64
64.07,4.89,4.89,-1.72,-1.72,1.72,1.60,1.92,6.61,6.61,6.61
64.71,4.88,4.88,-1.69,-1.69,1.69,1.56,1.89,6.57,6.57,6.57
65.35,4.87,4.87,-1.66,-1.66,1.66,1.53,1.85,6.53,6.53,6.53
66.01,4.86,4.86,-1.64,-1.63,1.63,1.49,1.81,6.49,6.49,6.49
66.67,4.86,4.86,-1.60,-1.60,1.60,1.46,1.77,6.46,6.46,6.46
67.33,4.85,4.85,-1.57,-1.57,1.57,1.42,1.73,6.42,6.42,6.42
68.01,4.84,4.84,-1.54,-1.54,1.53,1.38,1.68,6.37,6.37,6.37
68.69,4.83,4.83,-1.50,-1.50,1.50,1.35,1.64,6.33,6.33,6.33
69.37,4.82,4.82,-1.47,-1.47,1.47,1.31,1.59,6.28,6.29,6.29
70.07,4.82,4.82,-1.43,-1.43,1.43,1.27,1.54,6.25,6.25,6.25
70.77,4.81,4.81,-1.39,-1.39,1.39,1.23,1.48,6.20,6.20,6.20
71.48,4.80,4.80,-1.35,-1.35,1.36,1.19,1.43,6.16,6.16,6.15
72.19,4.79,4.79,-1.32,-1.32,1.32,1.16,1.37,6.11,6.11,6.11
72.91,4.78,4.78,-1.28,-1.28,1.28,1.12,1.32,6.06,6.06,6.06
73.64,4.77,4.77,-1.24,-1.24,1.24,1.07,1.26,6.01,6.01,6.01
74.38,4.76,4.76,-1.20,-1.20,1.20,1.03,1.20,5.96,5.96,5.96
75.12,4.75,4.75,-1.16,-1.16,1.16,0.99,1.14,5.91,5.91,5.91
75.87,4.74,4.74,-1.12,-1.12,1.12,0.95,1.09,5.85,5.85,5.86
76.63,4.73,4.73,-1.07,-1.07,1.07,0.91,1.03,5.80,5.80,5.80
77.40,4.72,4.72,-1.03,-1.03,1.03,0.87,0.97,5.75,5.75,5.75
78.17,4.71,4.71,-0.98,-0.98,0.99,0.82,0.91,5.69,5.69,5.69
78.95,4.70,4.70,-0.94,-0.94,0.94,0.78,0.85,5.64,5.64,5.64
79.74,4.68,4.68,-0.90,-0.90,0.89,0.74,0.79,5.57,5.58,5.58
80.54,4.67,4.67,-0.85,-0.85,0.85,0.69,0.72,5.52,5.52,5.52
81.35,4.66,4.66,-0.80,-0.80,0.80,0.65,0.66,5.46,5.46,5.46
82.16,4.65,4.65,-0.75,-0.75,0.76,0.60,0.60,5.41,5.40,5.40
82.98,4.63,4.63,-0.71,-0.71,0.71,0.56,0.54,5.34,5.34,5.34
83.81,4.62,4.62,-0.66,-0.66,0.66,0.51,0.48,5.28,5.28,5.28
84.65,4.60,4.60,-0.62,-0.61,0.61,0.46,0.42,5.21,5.21,5.22
85.50,4.59,4.59,-0.56,-0.56,0.56,0.42,0.36,5.15,5.15,5.15
86.35,4.57,4.57,-0.52,-0.52,0.52,0.37,0.30,5.08,5.09,5.09
87.22,4.56,4.56,-0.46,-0.47,0.47,0.32,0.24,5.02,5.02,5.02
88.09,4.54,4.54,-0.42,-0.42,0.41,0.28,0.18,4.95,4.96,4.96
88.97,4.53,4.53,-0.36,-0.36,0.36,0.23,0.12,4.89,4.89,4.89
89.86,4.51,4.51,-0.31,-0.31,0.31,0.18,0.06,4.82,4.82,4.82
90.76,4.50,4.50,-0.26,-0.26,0.26,0.13,0.00,4.76,4.76,4.75
91.66,4.48,4.48,-0.21,-0.20,0.21,0.09,-0.06,4.68,4.69,4.69
92.58,4.47,4.47,-0.15,-0.15,0.15,0.04,-0.12,4.62,4.62,4.62
93.51,4.45,4.45,-0.10,-0.10,0.10,-0.01,-0.18,4.55,4.55,4.55
94.44,4.43,4.43,-0.05,-0.05,0.05,-0.06,-0.24,4.47,4.48,4.48
95.39,4.41,4.41,0.00,0.01,-0.01,-0.11,-0.30,4.40,4.40,4.41
96.34,4.40,4.39,0.06,0.06,-0.06,-0.15,-0.36,4.34,4.33,4.33
97.30,4.38,4.38,0.12,0.12,-0.12,-0.20,-0.41,4.26,4.26,4.26
98.28,4.36,4.36,0.17,0.17,-0.17,-0.25,-0.47,4.19,4.19,4.19
99.26,4.35,4.35,0.23,0.23,-0.23,-0.30,-0.53,4.12,4.12,4.12
100.25,4.33,4.33,0.28,0.28,-0.28,-0.34,-0.59,4.05,4.05,4.05
101.25,4.31,4.31,0.34,0.34,-0.34,-0.39,-0.65,3.97,3.98,3.97
102.27,4.29,4.29,0.39,0.39,-0.39,-0.44,-0.70,3.90,3.90,3.90
103.29,4.27,4.27,0.44,0.44,-0.44,-0.49,-0.76,3.83,3.83,3.83
104.32,4.25,4.25,0.49,0.49,-0.49,-0.53,-0.82,3.76,3.76,3.75
105.37,4.23,4.23,0.55,0.54,-0.54,-0.58,-0.87,3.69,3.68,3.68
106.42,4.20,4.20,0.59,0.59,-0.59,-0.63,-0.92,3.60,3.61,3.61
107.48,4.18,4.18,0.64,0.64,-0.64,-0.67,-0.98,3.53,3.54,3.54
108.56,4.16,4.16,0.70,0.69,-0.70,-0.72,-1.03,3.46,3.46,3.46
109.64,4.14,4.14,0.75,0.75,-0.75,-0.76,-1.08,3.39,3.39,3.39
110.74,4.11,4.11,0.79,0.79,-0.80,-0.81,-1.13,3.31,3.32,3.32
111.85,4.09,4.09,0.84,0.84,-0.85,-0.85,-1.18,3.24,3.24,3.25
112.97,4.07,4.07,0.90,0.90,-0.90,-0.89,-1.22,3.17,3.17,3.17
114.10,4.05,4.05,0.95,0.95,-0.95,-0.94,-1.27,3.10,3.10,3.10
115.24,4.03,4.03,1.00,1.00,-0.99,-0.98,-1.31,3.03,3.03,3.03
116.39,4.00,4.00,1.04,1.04,-1.04,-1.02,-1.35,2.96,2.96,2.96
117.55,3.98,3.98,1.09,1.09,-1.09,-1.06,-1.39,2.89,2.89,2.89
118.73,3.96,3.96,1.14,1.14,-1.14,-1.10,-1.42,2.82,2.82,2.82
119.92,3.94,3.94,1.19,1.19,-1.19,-1.14,-1.45,2.75,2.75,2.75
121.12,3.91,3.91,1.23,1.23,-1.23,-1.18,-1.48,2.68,2.68,2.68
122.33,3.89,3.89,1.28,1.28,-1.28,-1.22,-1.51,2.61,2.61,2.61
123.55,3.87,3.87,1.32,1.32,-1.32,-1.26,-1.54,2.55,2.55,2.55
124.79,3.84,3.84,1.36,1.36,-1.36,-1.29,-1.56,2.48,2.48,2.48
126.03,3.82,3.82,1.41,1.41,-1.40,-1.33,-1.58,2.41,2.41,2.41
127.29,3.79,3.79,1.44,1.44,-1.45,-1.36,-1.59,2.34,2.35,2.35
128.57,3.77,3.77,1.49,1.49,-1.49,-1.40,-1.61,2.28,2.28,2.28
129.85,3.74,3.74,1.52,1.52,-1.52,-1.43,-1.62,2.22,2.22,2.22
131.15,3.72,3.72,1.56,1.56,-1.56,-1.46,-1.63,2.16,2.16,2.16
132.46,3.69,3.69,1.60,1.60,-1.60,-1.49,-1.63,2.09,2.09,2.09
133.79,3.66,3.66,1.63,1.63,-1.63,-1.52,-1.64,2.03,2.03,2.03
135.12,3.64,3.64,1.67,1.66,-1.66,-1.55,-1.64,1.97,1.97,1.97
136.48,3.61,3.61,1.70,1.70,-1.70,-1.58,-1.64,1.91,1.91,1.91
137.84,3.58,3.58,1.73,1.73,-1.73,-1.61,-1.64,1.85,1.85,1.85
139.22,3.55,3.55,1.75,1.76,-1.76,-1.64,-1.64,1.79,1.80,1.80
140.61,3.53,3.53,1.79,1.79,-1.79,-1.66,-1.63,1.74,1.74,1.74
142.02,3.50,3.50,1.82,1.82,-1.81,-1.69,-1.63,1.69,1.69,1.68
143.44,3.47,3.47,1.84,1.84,-1.84,-1.71,-1.62,1.63,1.63,1.63
144.87,3.44,3.44,1.86,1.86,-1.87,-1.73,-1.61,1.57,1.57,1.58
146.32,3.41,3.41,1.89,1.89,-1.89,-1.76,-1.61,1.52,1.52,1.52
147.78,3.38,3.38,1.91,1.91,-1.91,-1.78,-1.60,1.47,1.47,1.47
149.26,3.36,3.36,1.94,1.93,-1.93,-1.80,-1.59,1.43,1.42,1.42
150.75,3.33,3.33,1.96,1.95,-1.95,-1.82,-1.58,1.38,1.37,1.37
152.26,3.29,3.29,1.97,1.97,-1.97,-1.83,-1.58,1.32,1.32,1.32
153.78,3.26,3.26,1.98,1.98,-1.99,-1.85,-1.57,1.27,1.27,1.27
155.32,3.23,3.23,2.00,2.00,-2.00,-1.87,-1.56,1.23,1.23,1.23
156.88,3.20,3.20,2.02,2.02,-2.02,-1.88,-1.56,1.18,1.18,1.18
158.44,3.17,3.17,2.03,2.03,-2.03,-1.89,-1.55,1.14,1.14,1.14
160.03,3.14,3.14,2.04,2.05,-2.05,-1.91,-1.54,1.09,1.09,1.10
161.63,3.11,3.11,2.07,2.06,-2.06,-1.92,-1.54,1.05,1.05,1.04
163.24,3.08,3.08,2.08,2.08,-2.07,-1.93,-1.54,1.00,1.00,1.00
164.88,3.05,3.05,2.09,2.09,-2.09,-1.94,-1.54,0.96,0.96,0.96
166.53,3.02,3.02,2.10,2.10,-2.10,-1.95,-1.53,0.92,0.92,0.92
168.19,2.99,2.99,2.11,2.11,-2.10,-1.96,-1.53,0.89,0.88,0.88
169.87,2.96,2.96,2.11,2.11,-2.11,-1.97,-1.53,0.85,0.85,0.85
171.57,2.92,2.92,2.11,2.11,-2.11,-1.97,-1.54,0.80,0.81,0.81
173.29,2.89,2.89,2.11,2.12,-2.12,-1.98,-1.54,0.77,0.77,0.77
175.02,2.86,2.86,2.12,2.12,-2.12,-1.98,-1.55,0.74,0.74,0.74
176.77,2.83,2.83,2.12,2.12,-2.12,-1.99,-1.55,0.71,0.71,0.71
178.54,2.80,2.80,2.13,2.12,-2.12,-1.99,-1.56,0.68,0.67,0.67
180.32,2.76,2.76,2.12,2.12,-2.12,-1.99,-1.57,0.64,0.64,0.64
182.13,2.73,2.73,2.12,2.12,-2.12,-1.99,-1.58,0.61,0.61,0.61
183.95,2.70,2.69,2.12,2.11,-2.12,-1.99,-1.59,0.58,0.58,0.58
185.79,2.66,2.66,2.11,2.11,-2.11,-1.99,-1.60,0.55,0.55,0.55
187.65,2.63,2.63,2.11,2.11,-2.11,-1.99,-1.62,0.52,0.52,0.52
189.52,2.60,2.60,2.10,2.10,-2.10,-1.99,-1.63,0.50,0.50,0.50
191.42,2.56,2.56,2.09,2.09,-2.09,-1.98,-1.65,0.47,0.47,0.47
193.33,2.53,2.53,2.09,2.08,-2.08,-1.98,-1.66,0.45,0.44,0.44
195.27,2.49,2.49,2.07,2.07,-2.07,-1.98,-1.68,0.42,0.42,0.42
197.22,2.46,2.46,2.07,2.06,-2.06,-1.97,-1.70,0.40,0.39,0.39
199.19,2.42,2.42,2.05,2.05,-2.05,-1.96,-1.72,0.37,0.37,0.37
201.18,2.39,2.39,2.04,2.04,-2.04,-1.96,-1.74,0.35,0.35,0.35
203.19,2.36,2.36,2.03,2.03,-2.03,-1.95,-1.76,0.33,0.33,0.33
205.23,2.32,2.32,2.02,2.02,-2.02,-1.94,-1.78,0.30,0.31,0.30
207.28,2.29,2.29,2.01,2.00,-2.00,-1.93,-1.80,0.29,0.28,0.28
209.35,2.25,2.25,1.99,1.99,-1.99,-1.92,-1.82,0.26,0.26,0.26
211.44,2.22,2.22,1.98,1.97,-1.97,-1.91,-1.84,0.25,0.24,0.24
213.56,2.18,2.18,1.95,1.96,-1.96,-1.90,-1.86,0.22,0.22,0.22
215.69,2.15,2.15,1.94,1.94,-1.94,-1.89,-1.88,0.21,0.21,0.21
217.85,2.11,2.11,1.92,1.92,-1.92,-1.88,-1.90,0.19,0.19,0.19
220.03,2.08,2.08,1.91,1.91,-1.90,-1.86,-1.92,0.17,0.17,0.17
222.23,2.04,2.04,1.88,1.89,-1.89,-1.85,-1.94,0.15,0.16,0.16
224.45,2.01,2.01,1.87,1.87,-1.87,-1.84,-1.96,0.14,0.14,0.14
226.70,1.97,1.97,1.85,1.85,-1.85,-1.82,-1.97,0.12,0.12,0.12
228.96,1.94,1.94,1.83,1.83,-1.83,-1.81,-1.98,0.11,0.11,0.11
231.25,1.90,1.90,1.80,1.81,-1.81,-1.79,-1.99,0.09,0.09,0.09
233.57,1.87,1.87,1.79,1.79,-1.79,-1.77,-2.00,0.08,0.08,0.08
235.90,1.83,1.83,1.77,1.77,-1.77,-1.76,-2.01,0.06,0.06,0.06
238.26,1.80,1.80,1.76,1.75,-1.75,-1.74,-2.01,0.05,0.05,0.04
240.64,1.76,1.76,1.73,1.73,-1.73,-1.72,-2.01,0.03,0.03,0.03
243.05,1.73,1.73,1.71,1.71,-1.71,-1.70,-2.01,0.02,0.02,0.02
245.48,1.69,1.69,1.68,1.68,-1.68,-1.68,-2.00,0.01,0.01,0.01
247.93,1.66,1.66,1.66,1.66,-1.66,-1.66,-1.99,-0.00,-0.00,-0.00
250.41,1.62,1.62,1.63,1.63,-1.63,-1.64,-1.98,-0.02,-0.02,-0.01
252.92,1.58,1.58,1.60,1.61,-1.61,-1.62,-1.97,-0.03,-0.03,-0.03
255.45,1.55,1.55,1.58,1.58,-1.58,-1.60,-1.95,-0.03,-0.04,-0.04
258.00,1.51,1.51,1.55,1.56,-1.56,-1.58,-1.93,-0.05,-0.05,-0.05
260.58,1.48,1.48,1.53,1.53,-1.53,-1.56,-1.90,-0.05,-0.06,-0.05
263.19,1.44,1.44,1.50,1.51,-1.51,-1.54,-1.88,-0.07,-0.07,-0.06
265.82,1.41,1.41,1.48,1.48,-1.48,-1.51,-1.84,-0.07,-0.07,-0.07
268.48,1.38,1.38,1.46,1.46,-1.46,-1.49,-1.81,-0.08,-0.08,-0.08
271.16,1.34,1.34,1.43,1.43,-1.43,-1.47,-1.78,-0.09,-0.09,-0.09
273.87,1.31,1.31,1.41,1.40,-1.40,-1.44,-1.74,-0.10,-0.10,-0.10
276.61,1.27,1.27,1.37,1.38,-1.38,-1.42,-1.70,-0.11,-0.11,-0.11
279.38,1.24,1.24,1.35,1.35,-1.35,-1.39,-1.66,-0.11,-0.11,-0.11
282.17,1.20,1.20,1.32,1.32,-1.32,-1.37,-1.61,-0.12,-0.11,-0.12
284.99,1.17,1.17,1.29,1.28,-1.28,-1.34,-1.57,-0.11,-0.12,-0.12
287.84,1.13,1.13,1.24,1.25,-1.25,-1.31,-1.52,-0.12,-0.12,-0.11
290.72,1.10,1.10,1.22,1.22,-1.22,-1.29,-1.47,-0.12,-0.12,-0.12
293.63,1.06,1.06,1.19,1.18,-1.18,-1.26,-1.42,-0.12,-0.12,-0.13
296.57,1.03,1.03,1.15,1.15,-1.15,-1.23,-1.37,-0.12,-0.12,-0.12
299.53,0.99,0.99,1.11,1.11,-1.11,-1.21,-1.32,-0.13,-0.12,-0.12
302.53,0.96,0.96,1.08,1.08,-1.08,-1.18,-1.27,-0.12,-0.12,-0.12
305.55,0.93,0.92,1.05,1.05,-1.05,-1.15,-1.21,-0.12,-0.12,-0.12
308.61,0.89,0.89,1.01,1.02,-1.01,-1.12,-1.16,-0.12,-0.12,-0.12
311.69,0.86,0.86,0.98,0.98,-0.98,-1.09,-1.11,-0.12,-0.12,-0.12
314.81,0.83,0.82,0.95,0.95,-0.95,-1.06,-1.05,-0.12,-0.12,-0.12
317.96,0.79,0.79,0.91,0.91,-0.91,-1.03,-1.00,-0.12,-0.12,-0.12
321.14,0.76,0.76,0.88,0.88,-0.88,-1.00,-0.95,-0.12,-0.12,-0.12
324.35,0.73,0.73,0.85,0.85,-0.85,-0.97,-0.89,-0.12,-0.12,-0.12
327.59,0.70,0.70,0.81,0.81,-0.81,-0.94,-0.84,-0.11,-0.11,-0.11
330.87,0.67,0.67,0.78,0.78,-0.78,-0.91,-0.79,-0.11,-0.11,-0.11
334.18,0.63,0.63,0.74,0.74,-0.74,-0.88,-0.73,-0.11,-0.11,-0.11
337.52,0.60,0.60,0.71,0.71,-0.71,-0.85,-0.68,-0.11,-0.11,-0.11
340.90,0.57,0.57,0.67,0.67,-0.67,-0.81,-0.63,-0.10,-0.10,-0.11
344.30,0.54,0.54,0.64,0.64,-0.63,-0.78,-0.58,-0.10,-0.10,-0.10
347.75,0.50,0.50,0.59,0.60,-0.60,-0.75,-0.53,-0.10,-0.10,-0.09
351.23,0.47,0.47,0.56,0.56,-0.56,-0.71,-0.47,-0.09,-0.09,-0.10
354.74,0.44,0.44,0.52,0.52,-0.53,-0.68,-0.42,-0.09,-0.09,-0.08
358.28,0.41,0.41,0.49,0.49,-0.49,-0.65,-0.37,-0.08,-0.08,-0.08
361.87,0.38,0.38,0.45,0.45,-0.46,-0.61,-0.32,-0.08,-0.08,-0.07
365.49,0.35,0.35,0.42,0.42,-0.42,-0.58,-0.27,-0.07,-0.07,-0.07
369.14,0.33,0.33,0.40,0.39,-0.39,-0.54,-0.22,-0.06,-0.06,-0.07
372.83,0.30,0.30,0.35,0.36,-0.36,-0.51,-0.17,-0.06,-0.06,-0.05
376.56,0.27,0.27,0.32,0.32,-0.32,-0.47,-0.13,-0.05,-0.05,-0.05
380.33,0.24,0.24,0.29,0.29,-0.29,-0.44,-0.08,-0.05,-0.05,-0.05
384.13,0.21,0.21,0.26,0.25,-0.25,-0.40,-0.03,-0.04,-0.04,-0.05
387.97,0.18,0.18,0.22,0.22,-0.22,-0.37,0.02,-0.04,-0.04,-0.04
391.85,0.15,0.15,0.17,0.18,-0.18,-0.33,0.07,-0.03,-0.03,-0.02
395.77,0.12,0.12,0.15,0.14,-0.15,-0.29,0.11,-0.03,-0.03,-0.03
399.73,0.10,0.10,0.12,0.11,-0.11,-0.26,0.16,-0.01,-0.02,-0.02
403.72,0.07,0.07,0.08,0.08,-0.08,-0.22,0.20,-0.01,-0.01,-0.01
407.76,0.04,0.04,0.05,0.05,-0.05,-0.18,0.25,-0.01,-0.01,-0.01
411.84,0.01,0.01,0.01,0.01,-0.01,-0.14,0.29,-0.00,-0.00,-0.00
415.96,-0.02,-0.02,-0.03,-0.02,0.02,-0.10,0.34,-0.00,-0.00,0.00
420.12,-0.05,-0.05,-0.05,-0.06,0.05,-0.07,0.38,0.00,0.00,0.00
424.32,-0.07,-0.07,-0.08,-0.09,0.08,-0.03,0.42,0.01,0.01,0.01
428.56,-0.10,-0.10,-0.12,-0.12,0.12,0.01,0.47,0.02,0.02,0.02
432.85,-0.12,-0.12,-0.15,-0.15,0.15,0.05,0.51,0.03,0.03,0.03
437.18,-0.15,-0.15,-0.18,-0.18,0.18,0.09,0.55,0.03,0.03,0.03
441.55,-0.18,-0.18,-0.22,-0.21,0.22,0.13,0.58,0.04,0.04,0.04
445.96,-0.20,-0.20,-0.25,-0.25,0.25,0.17,0.62,0.05,0.05,0.04
450.42,-0.22,-0.22,-0.28,-0.29,0.28,0.21,0.66,0.06,0.06,0.06
454.93,-0.25,-0.25,-0.32,-0.32,0.32,0.25,0.69,0.07,0.07,0.07
459.48,-0.27,-0.27,-0.35,-0.35,0.35,0.29,0.73,0.08,0.08,0.08
464.07,-0.30,-0.30,-0.38,-0.38,0.38,0.33,0.76,0.08,0.08,0.08
468.71,-0.32,-0.32,-0.41,-0.41,0.42,0.37,0.79,0.09,0.09,0.09
473.40,-0.35,-0.35,-0.45,-0.45,0.45,0.41,0.82,0.10,0.10,0.10
478.13,-0.37,-0.37,-0.48,-0.48,0.48,0.45,0.84,0.11,0.11,0.11
482.91,-0.40,-0.40,-0.52,-0.51,0.51,0.49,0.87,0.11,0.11,0.12
487.74,-0.42,-0.42,-0.55,-0.54,0.54,0.53,0.89,0.12,0.12,0.12
492.62,-0.44,-0.44,-0.57,-0.58,0.58,0.57,0.91,0.14,0.14,0.13
497.55,-0.46,-0.46,-0.60,-0.61,0.61,0.61,0.93,0.15,0.15,0.14
502.52,-0.49,-0.49,-0.64,-0.64,0.64,0.65,0.95,0.15,0.16,0.15
507.55,-0.51,-0.51,-0.68,-0.68,0.68,0.69,0.97,0.17,0.17,0.17
512.62,-0.53,-0.53,-0.71,-0.71,0.71,0.73,0.98,0.18,0.18,0.18
517.75,-0.55,-0.55,-0.74,-0.74,0.74,0.77,0.99,0.19,0.19,0.19
522.93,-0.57,-0.58,-0.77,-0.78,0.77,0.81,1.00,0.20,0.20,0.20
528.16,-0.60,-0.60,-0.81,-0.80,0.80,0.85,1.01,0.20,0.21,0.21
533.44,-0.62,-0.62,-0.84,-0.83,0.83,0.89,1.02,0.21,0.22,0.22
538.77,-0.63,-0.64,-0.85,-0.86,0.86,0.93,1.03,0.23,0.23,0.22
544.16,-0.65,-0.65,-0.89,-0.89,0.89,0.96,1.03,0.24,0.24,0.24
