frequency,raw,error,smoothed,error_smoothed,equalization,equalized_raw,equalized_smoothed,target
20,-0.9530886590081972,-2.600932414477544,-0.8903318028069984,-2.538160211609228,2.538160211609228,1.5850715526010308,1.6478284088022295,1.647843755469347
21,-0.4317152363052829,-2.0795400323234614,-0.45982119179744313,-2.107648341966482,2.107648341966481,1.6759331056611981,1.647827150169038,1.6478247960181784
22,0.02087097059127374,-1.6269290278940687,-0.05179340516115993,-1.6996057175665489,1.6996057175665484,1.7204766881578222,1.6478123124053885,1.6477999984853424
23,0.3414650850548123,-1.3063028715871607,0.333751557101851,-1.3140323384094286,1.3140323384094286,1.655497423464241,1.6477838955112796,1.6477679566419732
24,0.7248939590970275,-0.9228330522418194,0.6968136949915891,-0.9509282044951198,0.9509282044951195,1.675822163592147,1.6477418994867086,1.647727011338847
25,1.0432190522491165,-0.6044561668110575,1.035145086216284,-0.612542714433191,0.612542714433191,1.6557617666823075,1.647687800649475,1.647675219060174
26,1.3703279036399176,-0.27728241454008007,1.3514340651398493,-0.2961860793624703,0.2961860793624703,1.666513983002388,1.6476201445023198,1.6476103181799977
27,1.6329045850796025,-0.014625108120688513,1.6481184288560122,0.0005810664282055737,-0.0005810664282055733,1.632323518651397,1.6475373624278067,1.647529693200291
28,1.9333297922112784,0.2858994566999211,1.9285103449548833,0.28107347417586326,-0.2810734741758632,1.6522563180354153,1.6474368707790201,1.6474303355113573
29,2.169647096595286,0.5223382936700176,2.1963317631998254,0.5490167134101185,-0.5490167134101188,1.620630383185167,1.6473150497897064,1.6473088029252683
30,2.445573008960676,0.7984118328589296,2.454333459877236,0.8071656397163497,-0.8071656397163498,1.6384073692443264,1.6471678201608861,1.6471611761017466
31,2.6605140988115488,1.0135310862134062,2.704475499197531,1.0574850633827353,-1.057485063382735,1.6030290354288137,1.6469904358147958,1.6469830125981426
32,2.9375376372579693,1.2907683388414877,2.9476426426285225,1.3008650004686646,-1.3008650004686646,1.6366726367893047,1.646777642159858,1.6467692984164817
33,3.211820740471916,1.5653063434117218,3.183815762287204,1.537292087519234,-1.5372920875192342,1.674528652952682,1.64652367476797,1.6465143970601943
34,3.4404112004763587,1.7941992043019206,3.4125077772386208,1.7662856217940899,-1.7662856217940894,1.6741255786822693,1.6462221554445313,1.6462119961744381
35,3.6415606257637148,1.9957055740476357,3.6330870629749867,1.9872210201901488,-1.987221020190149,1.6543396055735657,1.6458660427848377,1.645855051716079
36,3.8427100510510717,2.197274321240178,3.8451129174428114,2.1996653878540657,-2.199665387854066,1.6430446631970055,1.6454475295887452,1.6454357298108935
37,4.01099531615694,2.3660499698067805,4.04850688886034,2.4035489307401203,-2.40354893074012,1.6074463854168202,1.6449579581202198,1.6449453463501595
38,4.245008901625783,2.600634597183319,4.24356414264596,2.5991763921514806,-2.5991763921514814,1.6458325094743018,1.6443877504944786,1.6443743044424641
39,4.4461583269131415,2.8024462970598596,4.430862966684003,2.7871366282587715,-2.7871366282587715,1.65902169865437,1.6437263384252319,1.643712029853282
40,4.6103080332314255,2.967361128642838,4.61109884913008,2.9681367474390172,-2.9681367474390163,1.6421712857924091,1.6429621016910638,1.6429469045885874
41,4.846814097385661,3.2047478985761275,4.784911502084445,3.142829197491979,-3.1428291974919786,1.703984899893682,1.6420823045924666,1.642066198809533
42,4.878635612588397,3.237579611302133,4.952747497507449,3.3116744683953834,-3.3116744683953847,1.5669611441930122,1.6410730291120643,1.6410560012862638
43,5.099893959098523,3.4599928104620092,5.11478441260962,3.4748653067847677,-3.474865306784768,1.625028652313755,1.6399191058248515,1.6399011486365138
44,5.275981052104108,3.6373958984715946,5.270930521747026,3.6323264798863315,-3.632326479886331,1.6436545722177773,1.6386040418606949,1.6385851536325138
45,5.441935826360517,3.8048456934524095,5.420892236073948,3.783782288230741,-3.783782288230741,1.6581535381297758,1.6371099478432072,1.6370901329081073
46,5.552850283031408,3.917453548573205,5.564287394946803,3.9288699302803947,-3.9288699302803947,1.6239803527510137,1.635417464666408,1.6353967344582032
47,5.709503587355994,4.07601952195772,5.7007718615026945,4.067266170837913,-4.067266170837914,1.6422374165180802,1.633505690664781,1.6334840653982736
48,5.85420430382094,4.222874683274526,5.830145089672035,4.198792979793286,-4.198792979793285,1.6554113240276553,1.6313521098787502,1.6313296205464143
49,5.95477901649708,4.325869803990077,5.952410094754887,4.323477572862133,-4.323477572862132,1.631301443634948,1.6289325218927546,1.6289092125070037
50,6.053454825130018,4.4272579210542,6.067779627218581,4.44155865321245,-4.441558653212451,1.611896171917567,1.62622097400613,1.626196904075818
51,6.15592844257904,4.532763498626414,6.176636902190753,4.553447205459993,-4.553447205459993,1.602481237119047,1.6231896967307593,1.6231649439526268
52,6.2799889650309515,4.6602052580928115,6.279468786032728,4.659659742217333,-4.6596597422173325,1.620329222813619,1.6198090438153958,1.61978370693814
53,6.357077868456429,4.741056228451798,6.376789466475294,4.760742028222852,-4.760742028222853,1.5963358402335759,1.6160474382524415,1.616021640004631
54,6.542565644671857,4.93072042881386,6.46906585940101,4.857194533470182,-4.857194533470182,1.6853711112016754,1.6118713259308288,1.611845215857997
55,6.558227287475,4.951008391630254,6.556649445417686,4.94940430659509,-4.949404306595089,1.6088229808799106,1.6072451388225968,1.6072188958447455
56,6.5582272806354975,4.956122176346778,6.639718235358245,5.037586965544108,-5.03758696554411,1.5206403150913879,1.6021312698141355,1.6021051042887193
57,6.759376699887606,5.16291248333286,6.718236767722963,5.121746706232672,-5.121746706232672,1.637629993654934,1.5964900614902904,1.5964642165547454
58,6.75937670156034,5.169122138247463,6.791946577845183,5.20166676650081,-5.20166676650081,1.5577099350595303,1.5902798113443728,1.5902545633128775
59,6.8599514334861995,5.276518979887203,6.8603974367312,5.276940640739155,-5.276940640739156,1.5830107927470438,1.5834567959920447,1.5834324535989968
60,6.960526192055523,5.384573972738942,6.923018604116871,5.347043287122075,-5.347043287122076,1.6134829049334476,1.5759753169947954,1.575952219316581
61,6.960526264980139,5.392759981197509,6.979214345085303,5.411426574250013,-5.411426574250014,1.5490996907301247,1.567787770835289,1.5677662837826305
62,7.06110105830087,5.502275801527539,7.028457193850862,5.469612448432827,-5.469612448432825,1.591488609868045,1.5588447454180372,1.5588252567733307
63,7.061101097547273,5.512023039285525,7.070354078234102,5.521258933048587,-5.521258933048589,1.5398421644986842,1.5490951451855128,1.5490780582617476
64,7.061101013659017,5.522628941002058,7.1046749054915015,5.566188558914281,-5.566188558914283,1.4949124547447337,1.5384863465772183,1.5384720726569596
65,7.161675419918609,5.634722085062922,7.13135254384149,5.604388158950794,-5.6043881589507905,1.5572872609678186,1.5269643848906993,1.5269533348556874
66,7.161674815273111,5.647208066456036,7.150475794023642,5.636001620693859,-5.636001620693862,1.525673194579249,1.5144741733297797,1.514466748817075
67,7.161673930421832,5.660717591729956,7.162293946690305,5.661334192263848,-5.661334192263846,1.5003397381579866,1.500959754426459,1.5009563386918772
68,7.161672966147772,5.67530743433617,7.1672340373394565,5.68086945480664,-5.680869454806641,1.480803511341131,1.4863645825328158,1.486365531811602
69,7.161672385063063,5.69103491295083,7.165910649611682,5.695278814618451,-5.695278814618451,1.4663935704446116,1.470631834993231,1.4706374721122324
70,7.161672933410999,5.707957571532425,7.159097029656142,5.7053922791586364,-5.705392279158636,1.4562806542523639,1.453704750497506,1.4537153618785736
71,7.161675545798199,5.726132716698233,7.147635394172887,5.712108399184095,-5.712108399184095,1.449567146614104,1.435526994988792,1.4355428290999663
72,7.161681077618676,5.745616760342211,7.132291238571573,5.716248183808752,-5.7162481838087515,1.4454328938099241,1.416043054762821,1.4160643172764655
73,7.061115128223165,5.665889633971171,7.113588095763306,5.718389446268771,-5.718389446268771,1.3427256819543931,1.3951986494945343,1.3952254942519944
74,7.061126268673122,5.688152592060458,7.091678790257676,5.7187376374483225,-5.718737637448323,1.3423886312247983,1.3729411528093527,1.3729736766126637
75,7.061137112061125,5.711878845666323,7.066305051709769,5.7170850472747645,-5.717085047274764,1.3440520647863616,1.3492200044350051,1.349258266394802
76,7.061142707430237,5.737111510131173,7.036869982750057,5.712882876693001,-5.712882876693001,1.348259830737236,1.3239871060570554,1.3240311972990644
77,7.031827894638079,5.734580506355947,7.002609205294723,5.705411976299935,-5.705411976299935,1.326415918338144,1.2971972289947882,1.2972473882821323
78,6.9605333940016925,5.691668190752871,6.962814139128976,5.6940056246988116,-5.69400562469881,1.2665277693028827,1.268808514430166,1.2688652032488212
79,6.935864665310596,5.69701774878841,6.917048059695447,5.678264903871506,-5.678264903871508,1.2575997614390886,1.2387831558239393,1.2388469165221871
80,6.859812651796068,5.652653467064461,6.86530358810449,5.658215342503282,-5.658215342503283,1.2015973092927847,1.2070882456012075,1.2071591847316068
81,6.759119381828519,5.585345855214611,6.808071427608731,5.634374888906618,-5.63437488890662,1.1247444929218995,1.173696538702111,1.1737735266139078
82,6.7603423234219076,5.621675510578685,6.746313253624393,5.607726581544568,-5.6077265815445685,1.152615741877339,1.1385866720798248,1.1386668128432222
83,6.758874202654563,5.657052434393516,6.6813487702908745,5.579606391002764,-5.579606391002764,1.1792678116517994,1.101742379288111,1.101821768261047
84,6.557678114991036,5.49445062634495,6.614676869412943,5.551526161360636,-5.551526161360638,1.0061519536303987,1.063150708052305,1.0632274886460862
85,6.5577612624188895,5.534881289078559,6.547757503827296,5.52495723985095,-5.52495723985095,1.0328040225679391,1.0228002639763458,1.022879973340331
86,6.4708091254857,5.490026451924193,6.481789392934317,5.5011077228364105,-5.501107722836409,0.9697014026492914,0.9806816700979084,0.980782673561508
87,6.410403502302223,5.473456448248932,6.417527356993664,5.48073452316723,-5.48073452316723,0.929668979134993,0.9367928338264333,0.9369470540532916
88,6.350084119269472,5.458690956392291,6.355183650084607,5.464033392884289,-5.464033392884288,0.886050726385184,0.8911502572003185,0.891393162877181
89,6.243381571740834,5.399231371024387,6.294443340098566,5.450639152521209,-5.45063915252121,0.792742419219624,0.8438041875773568,0.8441502007164474
90,6.271626806171166,5.476369728982603,6.234594533039186,5.4397436881437695,-5.4397436881437695,0.8318831180273962,0.7948508448954161,0.7952570771885625
91,6.189016237054465,5.444253299500007,6.174739542652403,5.430308059708873,-5.430308059708872,0.7587081773455928,0.744431482943531,0.7447629375544573
92,6.1304603636758355,5.437732724544176,6.114027765457143,5.421319135716134,-5.421319135716133,0.7091412279597025,0.6927086297410101,0.6927276391316588
93,6.062931569698168,5.423709416730411,6.05184802226022,5.412031460548187,-5.412031460548187,0.6509001091499806,0.639816561712033,0.6392221529677569
94,5.974682253209945,5.390353389969421,5.98794133854092,5.402146185486078,-5.402146185486078,0.5725360677238669,0.5857951530548418,0.5843288632405232
95,5.921751579321381,5.393609844564415,5.922432996448968,5.391903608368293,-5.391903608368293,0.5298479709530879,0.5305293880806756,0.5281417347569652
96,5.857105111525772,5.386338793383365,5.85581508539871,5.382090613947492,-5.38209061394749,0.4750144975782824,0.4737244714512201,0.4707663181424082
97,5.762676450767742,5.350356887652369,5.788921631894494,5.373978914799038,-5.373978914799038,0.3886975359687037,0.4149427170954558,0.41231956311537354
98,5.742556169628007,5.3896267567899265,5.722923443187398,5.369212208002253,-5.369212208002254,0.37334396162575345,0.3537112351851439,0.3529294128380811
99,5.697446037093911,5.404711880267384,5.659338309328223,5.369655511847867,-5.369655511847866,0.32779052524604513,0.2896827974803564,0.29273415682652715
100,5.616180475829604,5.384298949532189,5.600020898032174,5.377214925539823,-5.377214925539824,0.23896555028978028,0.2228059724923499,0.23188152629741499
101,5.523399594770161,5.3528720707742865,5.547082173626365,5.3936356380236665,-5.3936356380236665,0.1297639567464941,0.15344653560269883,0.17052752399587412
102,5.4780582859842095,5.369223295752841,5.502699101456532,5.42029043905459,-5.420290439054588,0.05776784692962167,0.082408662401944,0.10883499023136878
104,5.455767477378827,5.4707601848741785,5.468806974548194,5.45797504138055,-5.457975041380551,-0.0022075640017238385,0.010831933167643193,-0.014992707495351976
105,5.431968022715272,5.508903989245252,5.446706535312554,5.506726182299873,-5.506726182299873,-0.07475815958460164,-0.06001964698731932,-0.07693596652998025
106,5.407450879863311,5.546034568152104,5.436654154997046,5.5656761126408245,-5.565676112640823,-0.15822523277751177,-0.12902195764377655,-0.1385836882887923
107,5.437453857699734,5.6372211059163115,5.437527172318968,5.63295911957211,-5.632959119572109,-0.19550526187237516,-0.19543194725314095,-0.19976724821657754
108,5.460281216657907,5.720603532431619,5.446661791342018,5.705695108957646,-5.705695108957645,-0.2454138922997382,-0.25903331761562676,-0.2603223157737129
109,5.438734603673482,5.758825750595032,5.459942505141473,5.7800859567529415,-5.780085956752943,-0.3413513530794612,-0.32014345161146984,-0.32009114692155016
110,5.41971619065858,5.798641015003653,5.472178500356172,5.851660538003692,-5.851660538003691,-0.43194434734511145,-0.3794820376475192,-0.3789248243450736
111,5.50435386534331,5.941039241710987,5.477738429135633,5.915682916600709,-5.91568291660071,-0.4113290512574004,-0.4379444874650771,-0.43668537636767724
112,5.491865394499213,5.985113101054493,5.471341963514801,5.967692177072612,-5.967692177072613,-0.4758267825734004,-0.49635021355781195,-0.4932477065552807
113,5.482989387354824,6.031490657728352,5.448845853815548,6.004084397190772,-6.004084397190772,-0.5210950098359479,-0.5552385433752232,-0.5485012703735279
114,5.477685766600421,6.080037209480064,5.407840053199994,6.022603990542152,-6.0226039905421525,-0.5449182239417318,-0.6147639373421585,-0.6023514428796437
115,5.408467947795002,6.06318847981191,5.347903982679431,6.022610262272497,-6.022610262272499,-0.6141423144774967,-0.6747062795930683,-0.6547205320169067
117,5.261831791883358,6.022092913141144,5.270460631641869,6.005035677214618,-6.005035677214616,-0.7432038853312584,-0.7345750455727469,-0.7602611212577859
118,5.101504915230289,5.9098857329881085,5.178279990706427,5.972040944455532,-5.972040944455532,-0.8705360292252431,-0.7937609537491053,-0.8083808177578189
119,5.032954605946843,5.887800015019446,5.074784013203486,5.926466477784697,-5.926466477784697,-0.8935118718378536,-0.8516824645812111,-0.8548454090726025
120,4.989345676145102,5.888999769734172,4.963356129428007,5.87124299391369,-5.87124299391369,-0.8818973177685878,-0.9078868644856826,-0.8996540935890698
121,4.892759837902738,5.835581780469893,4.8468404307153135,5.80893018235102,-5.808930182351019,-0.9161703444482807,-0.9620897516357054,-0.942821942567154
123,4.682155836290853,5.713932816837844,4.727338304754011,5.741500011830814,-5.741500011830814,-1.0593441755399606,-1.014161707076803,-1.031776980546991
124,4.6100650697338095,5.680523847412861,4.60630735619238,5.6703942206712865,-5.670394220671286,-1.0603291509374762,-1.0640868644789059,-1.0704587776790508
125,4.5022729291772405,5.6098896168866546,4.484879310687711,5.5967994894231765,-5.596799489423177,-1.0945265602459369,-1.111920178735466,-1.1076166877094145
126,4.391578445990048,5.534897502354111,4.364267578810226,5.5220278952734105,-5.5220278952734105,-1.130449449283362,-1.1577603164631842,-1.1433190563640632
128,4.22890492909964,5.447369834268178,4.246137502095294,5.447877717086014,-5.4478777170860155,-1.2189727879863756,-1.2017402149907213,-1.218464905168538
129,4.1183700698681305,5.368552088543134,4.132851219616593,5.376876547440977,-5.376876547440979,-1.2585064775728485,-1.244025327824386,-1.2501820186750034
130,4.04972009480887,5.330415368699045,4.027552018760585,5.312357995797946,-5.3123579957979485,-1.2626379009890787,-1.2848059770373634,-1.2806952738901747
131,3.9812068907170426,5.291299532516016,3.934097901184912,5.258373881910473,-5.258373881910474,-1.2771669911934316,-1.3242759807255622,-1.3100926417989736
133,3.840202565552912,5.213115773098808,3.856879088562649,5.219479600799907,-5.219479600799909,-1.379277035246997,-1.3626005122372602,-1.3729132075458956
134,3.772461826715094,5.1715852138061935,3.8005596974176217,5.200444934499407,-5.200444934499407,-1.4279831077843128,-1.3998852370817851,-1.3991233870910995
135,3.755979725560976,5.180475527146543,3.7697758863299473,5.205936781338298,-5.205936781338299,-1.4499570557773231,-1.436160895008352,-1.424495801585567
137,3.7592475467414905,5.238105024979598,3.7688062383517975,5.240197862142663,-5.2401978621426615,-1.480950315401171,-1.471391623790864,-1.4788574782381079
138,3.773172279447871,5.274847042681978,3.8012091933192433,5.306714049038941,-5.306714049038942,-1.5335417695910714,-1.5055048557196988,-1.5016747632341079
140,3.863328765347764,5.413745807244005,3.8694035364438686,5.407834275727091,-5.407834275727091,-1.5445055103793273,-1.5384307392832226,-1.5504170418962406
141,3.9502250593411854,5.5213102931780975,3.9741598263175653,5.544294646426643,-5.5442946464266445,-1.594069587085459,-1.5701348201090792,-1.5710852338369121
142,4.052184298327484,5.643477566463977,4.113982981855789,5.714614298180022,-5.714614298180023,-1.662429999852539,-1.6006313163242343,-1.5912932681364933
144,4.255794675342292,5.889516752742376,4.284407263077065,5.9143809407027454,-5.914380940702745,-1.6585862653604524,-1.6299736776256797,-1.6337220774000842
145,4.388850576279974,6.041071030720719,4.477295966168951,6.135525310085004,-6.135525310085005,-1.7466747338050315,-1.6582293439160543,-1.6522204544407448
147,4.675999889768331,6.366428848632589,4.680326204222899,6.365778010138915,-6.365778010138914,-1.6897781203705833,-1.6854518059160153,-1.6904289588642585
148,4.809597067732106,6.517030232258232,4.876912887876414,6.588575657195636,-6.588575657195635,-1.778978589463529,-1.7116627693192212,-1.7074331645261265
150,5.046707211288791,6.788563257188929,5.046845362861581,6.7836966395945035,-6.783696639594505,-1.736989428305714,-1.7368512767329243,-1.7418560459001373
151,5.171889861243704,6.929370784534696,5.167841042155011,6.928829051875269,-6.928829051875269,-1.7569391906315648,-1.7609880097202577,-1.7574809232909923
153,5.322716765451887,7.111151274889938,5.2180488696233995,7.002094871085611,-7.002094871085611,-1.6793781056337238,-1.7840460014622117,-1.78843450943805
154,5.291314697410753,7.094005329073713,5.1792810027992635,6.985297789780169,-6.985297789780169,-1.6939830923694164,-1.8060167869809058,-1.8026906316629603
156,5.1648330639657605,6.995203445243695,5.040471831725747,6.867385960321268,-6.867385960321268,-1.7025528963555079,-1.8269141285955213,-1.8303703812779348
157,5.033855878799932,6.877026465404503,4.800648479487298,6.647412351860165,-6.647412351860163,-1.613556473060231,-1.8467638723728657,-1.8431705866045713
159,4.6073849264819495,6.475046743450498,4.470638573802415,6.336223558050335,-6.336223558050335,-1.7288386315683857,-1.8655849842479206,-1.8676618169685493
160,4.264619173661538,6.143459298675216,4.072897071184295,5.956267652938758,-5.956267652938756,-1.6916484792772177,-1.8833705817544608,-1.878840125013678
162,3.548241149925237,5.4483842803295595,3.639200397217398,5.539277895833216,-5.539277895833216,-1.9910367459079787,-1.900077498615818,-1.900143130404322
164,3.059525273634085,4.97893631394269,3.206455904784532,5.122084797631428,-5.122084797631428,-2.0625595239973427,-1.9156288928468959,-1.9194110403086042
