frequency,raw,smoothed,error,error_smoothed,equalization,parametric_eq,fixed_band_eq,equalized_raw,equalized_smoothed,target
20.00,-0.01,-0.01,-7.44,-7.44,6.00,5.91,2.60,5.99,5.99,7.43
20.20,0.05,0.05,-7.38,-7.38,6.00,5.91,2.67,6.05,6.05,7.43
20.40,0.11,0.11,-7.32,-7.32,6.00,5.90,2.75,6.11,6.11,7.43
20.61,0.17,0.17,-7.26,-7.26,6.00,5.90,2.83,6.17,6.17,7.43
20.81,0.23,0.23,-7.20,-7.20,6.00,5.90,2.91,6.23,6.23,7.43
21.02,0.29,0.29,-7.14,-7.14,6.00,5.90,2.99,6.29,6.29,7.43
21.23,0.34,0.34,-7.09,-7.09,6.00,5.90,3.08,6.34,6.34,7.43
21.44,0.39,0.39,-7.04,-7.04,6.00,5.89,3.17,6.39,6.39,7.43
21.66,0.43,0.43,-7.00,-7.00,6.00,5.89,3.26,6.43,6.43,7.43
21.87,0.47,0.47,-6.96,-6.96,6.00,5.89,3.35,6.47,6.47,7.43
22.09,0.50,0.50,-6.93,-6.92,6.00,5.89,3.44,6.50,6.50,7.43
22.31,0.54,0.54,-6.89,-6.89,6.00,5.88,3.54,6.54,6.54,7.42
22.54,0.58,0.58,-6.85,-6.85,6.00,5.88,3.64,6.58,6.58,7.42
22.76,0.61,0.61,-6.81,-6.81,6.00,5.88,3.75,6.61,6.61,7.42
22.99,0.65,0.64,-6.77,-6.78,6.00,5.87,3.85,6.65,6.64,7.42
23.22,0.67,0.67,-6.75,-6.75,6.00,5.87,3.96,6.67,6.67,7.42
23.45,0.69,0.69,-6.73,-6.73,6.00,5.87,4.07,6.69,6.69,7.42
23.69,0.70,0.69,-6.72,-6.72,6.00,5.87,4.19,6.70,6.69,7.42
23.92,0.69,0.69,-6.73,-6.73,6.00,5.86,4.30,6.69,6.69,7.42
24.16,0.67,0.67,-6.75,-6.75,6.00,5.86,4.42,6.67,6.67,7.42
24.40,0.65,0.65,-6.77,-6.77,6.00,5.86,4.54,6.65,6.65,7.42
24.65,0.64,0.64,-6.78,-6.77,6.00,5.85,4.66,6.64,6.64,7.41
24.89,0.64,0.64,-6.77,-6.77,6.00,5.85,4.79,6.64,6.64,7.41
25.14,0.66,0.66,-6.75,-6.75,6.00,5.85,4.91,6.66,6.66,7.41
25.39,0.69,0.70,-6.72,-6.71,6.00,5.84,5.04,6.69,6.70,7.41
25.65,0.76,0.75,-6.65,-6.65,6.00,5.84,5.16,6.76,6.75,7.41
25.91,0.82,0.82,-6.59,-6.59,6.00,5.84,5.29,6.82,6.82,7.41
26.16,0.89,0.89,-6.52,-6.52,6.00,5.83,5.42,6.89,6.89,7.41
26.43,0.95,0.95,-6.46,-6.46,6.00,5.83,5.54,6.95,6.95,7.40
26.69,1.00,1.00,-6.40,-6.40,6.00,5.82,5.67,7.00,7.00,7.40
26.96,1.05,1.04,-6.35,-6.36,6.00,5.82,5.79,7.05,7.04,7.40
27.23,1.07,1.07,-6.33,-6.33,6.00,5.82,5.91,7.07,7.07,7.40
27.50,1.09,1.09,-6.31,-6.30,6.00,5.81,6.03,7.09,7.09,7.40
27.77,1.11,1.11,-6.29,-6.29,6.00,5.81,6.15,7.11,7.11,7.39
28.05,1.13,1.13,-6.26,-6.27,6.00,5.80,6.26,7.13,7.13,7.39
28.33,1.14,1.14,-6.25,-6.25,6.00,5.80,6.36,7.14,7.14,7.39
28.62,1.16,1.16,-6.23,-6.23,6.00,5.79,6.47,7.16,7.16,7.39
28.90,1.18,1.18,-6.21,-6.21,6.00,5.79,6.56,7.18,7.18,7.39
29.19,1.20,1.20,-6.18,-6.18,6.00,5.78,6.65,7.20,7.20,7.38
29.48,1.22,1.22,-6.16,-6.16,6.00,5.78,6.72,7.22,7.22,7.38
29.78,1.25,1.25,-6.13,-6.13,6.00,5.77,6.80,7.25,7.25,7.38
30.08,1.27,1.27,-6.11,-6.10,6.00,5.77,6.86,7.27,7.27,7.38
30.38,1.30,1.30,-6.08,-6.08,6.00,5.76,6.91,7.30,7.30,7.37
30.68,1.32,1.32,-6.05,-6.05,6.00,5.76,6.95,7.32,7.32,7.37
30.99,1.34,1.34,-6.03,-6.03,6.00,5.75,6.99,7.34,7.34,7.37
31.30,1.36,1.36,-6.01,-6.01,5.99,5.74,7.00,7.35,7.35,7.37
31.61,1.38,1.38,-5.98,-5.99,5.98,5.74,7.02,7.36,7.36,7.36
31.93,1.39,1.39,-5.97,-5.97,5.97,5.73,7.02,7.36,7.36,7.36
32.24,1.40,1.40,-5.96,-5.95,5.95,5.72,7.01,7.35,7.35,7.36
32.57,1.42,1.42,-5.93,-5.93,5.93,5.72,6.99,7.35,7.35,7.35
32.89,1.44,1.44,-5.91,-5.91,5.91,5.71,6.96,7.35,7.35,7.35
33.22,1.46,1.46,-5.89,-5.89,5.89,5.70,6.93,7.35,7.35,7.34
33.55,1.48,1.48,-5.86,-5.86,5.86,5.70,6.88,7.34,7.34,7.34
33.89,1.50,1.50,-5.84,-5.84,5.84,5.69,6.83,7.34,7.34,7.34
34.23,1.52,1.52,-5.81,-5.82,5.82,5.68,6.77,7.34,7.33,7.33
34.57,1.53,1.53,-5.80,-5.79,5.79,5.67,6.71,7.32,7.33,7.33
34.92,1.55,1.55,-5.77,-5.77,5.77,5.67,6.64,7.32,7.32,7.32
35.27,1.57,1.57,-5.75,-5.75,5.75,5.66,6.57,7.32,7.32,7.32
35.62,1.58,1.58,-5.73,-5.73,5.73,5.65,6.49,7.31,7.32,7.31
35.97,1.60,1.60,-5.71,-5.71,5.72,5.64,6.41,7.31,7.31,7.31
36.33,1.61,1.61,-5.69,-5.70,5.70,5.63,6.33,7.31,7.30,7.30
36.70,1.62,1.62,-5.68,-5.68,5.67,5.62,6.24,7.29,7.29,7.30
37.06,1.63,1.63,-5.66,-5.66,5.65,5.61,6.16,7.28,7.29,7.29
37.43,1.65,1.65,-5.64,-5.64,5.63,5.60,6.08,7.28,7.28,7.29
37.81,1.67,1.67,-5.61,-5.61,5.61,5.59,5.99,7.28,7.28,7.28
38.19,1.69,1.69,-5.58,-5.58,5.59,5.58,5.91,7.28,7.28,7.27
38.57,1.71,1.71,-5.56,-5.56,5.57,5.57,5.83,7.27,7.28,7.27
38.95,1.73,1.73,-5.53,-5.53,5.54,5.56,5.75,7.27,7.27,7.26
39.34,1.74,1.74,-5.51,-5.52,5.52,5.55,5.67,7.26,7.26,7.25
39.74,1.74,1.74,-5.51,-5.50,5.50,5.54,5.60,7.24,7.24,7.25
40.14,1.75,1.75,-5.49,-5.49,5.48,5.53,5.52,7.23,7.23,7.24
40.54,1.76,1.76,-5.47,-5.47,5.46,5.52,5.45,7.22,7.22,7.23
40.94,1.78,1.78,-5.44,-5.44,5.44,5.50,5.39,7.22,7.22,7.22
41.35,1.80,1.80,-5.41,-5.42,5.42,5.49,5.33,7.22,7.21,7.21
41.76,1.81,1.81,-5.40,-5.39,5.40,5.48,5.27,7.21,7.21,7.21
42.18,1.83,1.83,-5.37,-5.37,5.38,5.46,5.21,7.20,7.20,7.20
42.60,1.84,1.84,-5.35,-5.35,5.35,5.45,5.16,7.19,7.19,7.19
43.03,1.85,1.85,-5.33,-5.33,5.33,5.44,5.11,7.18,7.18,7.18
43.46,1.85,1.85,-5.32,-5.32,5.31,5.42,5.06,7.16,7.16,7.17
43.90,1.86,1.86,-5.30,-5.30,5.29,5.41,5.02,7.15,7.15,7.16
44.33,1.86,1.86,-5.29,-5.28,5.28,5.39,4.99,7.14,7.14,7.15
44.78,1.88,1.88,-5.26,-5.26,5.26,5.38,4.95,7.14,7.13,7.13
45.23,1.89,1.89,-5.23,-5.24,5.24,5.36,4.92,7.13,7.12,7.12
45.68,1.90,1.90,-5.21,-5.21,5.21,5.34,4.90,7.11,7.11,7.11
46.13,1.90,1.90,-5.20,-5.20,5.19,5.33,4.88,7.09,7.09,7.10
46.60,1.91,1.91,-5.18,-5.18,5.17,5.31,4.86,7.08,7.08,7.09
47.06,1.92,1.92,-5.15,-5.15,5.15,5.29,4.84,7.07,7.08,7.07
47.53,1.94,1.94,-5.12,-5.12,5.14,5.27,4.83,7.08,7.07,7.06
48.01,1.95,1.94,-5.09,-5.10,5.12,5.25,4.82,7.07,7.06,7.04
48.49,1.94,1.93,-5.09,-5.10,5.10,5.23,4.82,7.04,7.03,7.03
48.97,1.92,1.92,-5.09,-5.09,5.07,5.21,4.82,6.99,7.00,7.01
49.46,1.91,1.92,-5.09,-5.08,5.05,5.19,4.82,6.96,6.97,7.00
49.96,1.94,1.94,-5.04,-5.04,5.02,5.17,4.82,6.96,6.96,6.98
50.46,1.97,1.97,-5.00,-5.00,5.00,5.15,4.83,6.97,6.97,6.96
50.96,2.00,2.00,-4.95,-4.95,4.98,5.13,4.83,6.98,6.98,6.95
51.47,2.02,2.01,-4.91,-4.92,4.95,5.11,4.84,6.97,6.96,6.93
51.99,2.00,2.00,-4.91,-4.91,4.93,5.08,4.85,6.92,6.92,6.91
52.51,1.98,1.98,-4.91,-4.91,4.90,5.06,4.87,6.88,6.88,6.89
53.03,1.97,1.98,-4.90,-4.89,4.87,5.03,4.88,6.84,6.85,6.87
53.56,1.99,1.99,-4.86,-4.86,4.84,5.01,4.89,6.83,6.83,6.85
54.10,2.01,2.00,-4.82,-4.83,4.82,4.98,4.91,6.83,6.82,6.83
54.64,2.02,2.02,-4.79,-4.78,4.79,4.95,4.92,6.80,6.81,6.81
55.18,2.04,2.04,-4.75,-4.75,4.75,4.93,4.93,6.79,6.79,6.78
55.74,2.05,2.05,-4.71,-4.71,4.71,4.90,4.94,6.76,6.76,6.76
56.29,2.06,2.06,-4.68,-4.68,4.68,4.87,4.95,6.74,6.74,6.74
56.86,2.07,2.07,-4.64,-4.64,4.66,4.84,4.96,6.73,6.73,6.71
57.42,2.07,2.07,-4.62,-4.61,4.64,4.81,4.96,6.71,6.71,6.69
58.00,2.07,2.06,-4.59,-4.60,4.62,4.78,4.96,6.69,6.69,6.66
58.58,2.04,2.03,-4.59,-4.60,4.60,4.74,4.96,6.64,6.63,6.63
59.16,2.00,2.00,-4.61,-4.61,4.57,4.71,4.95,6.57,6.57,6.61
59.76,1.97,1.99,-4.61,-4.59,4.54,4.68,4.94,6.51,6.53,6.58
60.35,2.00,2.01,-4.55,-4.54,4.50,4.64,4.93,6.50,6.51,6.55
60.96,2.06,2.05,-4.46,-4.47,4.46,4.61,4.91,6.52,6.51,6.52
61.57,2.11,2.10,-4.38,-4.39,4.41,4.57,4.88,6.52,6.51,6.48
62.18,2.12,2.12,-4.33,-4.33,4.36,4.53,4.85,6.48,6.48,6.45
62.80,2.13,2.13,-4.29,-4.28,4.30,4.49,4.82,6.43,6.44,6.42
63.43,2.14,2.14,-4.25,-4.24,4.25,4.45,4.77,6.39,6.39,6.38
64.07,2.15,2.14,-4.20,-4.21,4.20,4.41,4.73,6.35,6.34,6.35
64.71,2.15,2.15,-4.16,-4.16,4.16,4.37,4.68,6.31,6.31,6.31
65.35,2.15,2.16,-4.13,-4.12,4.12,4.33,4.62,6.27,6.28,6.28
66.01,2.17,2.16,-4.07,-4.08,4.08,4.29,4.56,6.25,6.24,6.24
66.67,2.16,2.16,-4.04,-4.04,4.04,4.24,4.49,6.20,6.20,6.20
67.33,2.16,2.16,-4.00,-4.00,3.99,4.20,4.42,6.15,6.15,6.16
68.01,2.15,2.16,-3.97,-3.96,3.95,4.15,4.34,6.10,6.11,6.12
68.69,2.17,2.17,-3.91,-3.90,3.91,4.10,4.26,6.07,6.08,6.08
69.37,2.19,2.18,-3.84,-3.85,3.86,4.06,4.18,6.05,6.04,6.03
70.07,2.20,2.19,-3.79,-3.80,3.81,4.01,4.10,6.01,6.00,5.99
70.77,2.18,2.18,-3.76,-3.76,3.76,3.96,4.01,5.94,5.94,5.94
71.48,2.17,2.17,-3.73,-3.72,3.71,3.90,3.92,5.88,5.88,5.90
72.19,2.17,2.18,-3.68,-3.68,3.66,3.85,3.83,5.83,5.84,5.85
72.91,2.19,2.19,-3.61,-3.61,3.61,3.80,3.73,5.80,5.80,5.80
73.64,2.21,2.20,-3.54,-3.55,3.56,3.74,3.64,5.77,5.77,5.75
74.38,2.21,2.20,-3.49,-3.50,3.51,3.69,3.54,5.72,5.72,5.70
75.12,2.19,2.19,-3.46,-3.46,3.46,3.63,3.44,5.65,5.65,5.65
75.87,2.17,2.18,-3.43,-3.42,3.41,3.57,3.35,5.58,5.59,5.60
76.63,2.18,2.18,-3.37,-3.36,3.35,3.51,3.25,5.53,5.54,5.55
77.40,2.20,2.19,-3.29,-3.30,3.30,3.45,3.16,5.50,5.49,5.49
78.17,2.20,2.20,-3.24,-3.24,3.24,3.39,3.06,5.44,5.44,5.44
78.95,2.19,2.20,-3.19,-3.18,3.18,3.33,2.96,5.37,5.38,5.38
79.74,2.20,2.20,-3.12,-3.12,3.12,3.27,2.87,5.32,5.32,5.32
80.54,2.21,2.21,-3.06,-3.06,3.06,3.20,2.78,5.27,5.26,5.26
81.35,2.21,2.22,-3.00,-2.99,2.99,3.14,2.68,5.20,5.21,5.21
82.16,2.23,2.22,-2.92,-2.92,2.93,3.07,2.59,5.16,5.15,5.15
82.98,2.23,2.22,-2.85,-2.86,2.87,3.01,2.50,5.09,5.09,5.08
83.81,2.22,2.23,-2.80,-2.80,2.80,2.94,2.41,5.02,5.03,5.02
84.65,2.22,2.22,-2.74,-2.74,2.74,2.87,2.33,4.95,4.95,4.96
85.50,2.22,2.21,-2.68,-2.68,2.67,2.80,2.24,4.89,4.89,4.90
86.35,2.21,2.22,-2.62,-2.61,2.61,2.73,2.16,4.82,4.83,4.83
87.22,2.23,2.23,-2.54,-2.54,2.55,2.66,2.07,4.77,4.77,4.77
88.09,2.24,2.23,-2.46,-2.47,2.48,2.59,1.99,4.72,4.71,4.70
88.97,2.23,2.23,-2.40,-2.41,2.41,2.52,1.91,4.64,4.64,4.63
89.86,2.21,2.22,-2.36,-2.35,2.34,2.44,1.83,4.55,4.56,4.57
90.76,2.21,2.21,-2.29,-2.29,2.27,2.37,1.76,4.48,4.48,4.50
91.66,2.22,2.22,-2.21,-2.21,2.20,2.29,1.68,4.42,4.42,4.43
92.58,2.23,2.23,-2.13,-2.13,2.13,2.22,1.60,4.36,4.36,4.36
93.51,2.24,2.24,-2.05,-2.05,2.06,2.14,1.53,4.30,4.30,4.29
94.44,2.24,2.24,-1.98,-1.98,1.99,2.06,1.46,4.23,4.23,4.22
95.39,2.23,2.23,-1.92,-1.92,1.92,1.99,1.39,4.15,4.15,4.15
96.34,2.22,2.22,-1.86,-1.86,1.85,1.91,1.32,4.07,4.07,4.08
97.30,2.22,2.22,-1.79,-1.79,1.78,1.83,1.25,4.00,4.00,4.01
98.28,2.22,2.22,-1.72,-1.72,1.71,1.75,1.19,3.93,3.93,3.93
99.26,2.22,2.22,-1.64,-1.64,1.64,1.68,1.12,3.86,3.86,3.86
100.25,2.22,2.22,-1.57,-1.57,1.57,1.60,1.06,3.79,3.79,3.79
101.25,2.22,2.22,-1.50,-1.50,1.50,1.52,0.99,3.72,3.72,3.72
102.27,2.22,2.22,-1.43,-1.43,1.43,1.44,0.93,3.65,3.65,3.64
103.29,2.21,2.22,-1.36,-1.36,1.36,1.36,0.87,3.57,3.57,3.57
104.32,2.22,2.21,-1.28,-1.28,1.29,1.28,0.81,3.51,3.50,3.50
105.37,2.21,2.21,-1.22,-1.22,1.22,1.20,0.76,3.43,3.43,3.43
106.42,2.21,2.21,-1.14,-1.15,1.14,1.12,0.70,3.35,3.35,3.35
107.48,2.20,2.20,-1.08,-1.08,1.07,1.04,0.64,3.27,3.28,3.28
108.56,2.20,2.20,-1.01,-1.01,1.00,0.96,0.59,3.20,3.20,3.21
109.64,2.20,2.20,-0.93,-0.94,0.93,0.89,0.54,3.13,3.13,3.13
110.74,2.20,2.20,-0.86,-0.86,0.86,0.81,0.49,3.06,3.06,3.06
111.85,2.20,2.20,-0.79,-0.79,0.79,0.73,0.44,2.99,2.99,2.99
112.97,2.20,2.19,-0.72,-0.72,0.72,0.65,0.39,2.92,2.92,2.92
114.10,2.19,2.19,-0.66,-0.66,0.66,0.58,0.34,2.85,2.84,2.85
115.24,2.17,2.19,-0.60,-0.59,0.59,0.50,0.29,2.76,2.78,2.77
116.39,2.19,2.19,-0.51,-0.51,0.53,0.42,0.25,2.72,2.72,2.70
117.55,2.20,2.18,-0.43,-0.45,0.46,0.35,0.20,2.66,2.64,2.63
118.73,2.17,2.16,-0.39,-0.40,0.40,0.28,0.16,2.57,2.55,2.56
119.92,2.12,2.15,-0.37,-0.35,0.33,0.20,0.12,2.45,2.48,2.49
121.12,2.13,2.14,-0.30,-0.28,0.26,0.13,0.08,2.39,2.41,2.42
122.33,2.19,2.16,-0.17,-0.20,0.19,0.06,0.04,2.38,2.35,2.36
123.55,2.17,2.17,-0.12,-0.11,0.13,-0.01,0.00,2.30,2.30,2.29
124.79,2.17,2.18,-0.05,-0.05,0.06,-0.08,-0.03,2.23,2.24,2.22
126.03,2.17,2.16,0.01,0.01,-0.00,-0.15,-0.07,2.17,2.16,2.16
127.29,2.16,2.16,0.07,0.07,-0.07,-0.22,-0.10,2.09,2.09,2.09
128.57,2.15,2.15,0.12,0.13,-0.13,-0.28,-0.13,2.02,2.02,2.03
129.85,2.15,2.14,0.19,0.18,-0.19,-0.35,-0.16,1.96,1.95,1.96
131.15,2.14,2.14,0.24,0.24,-0.25,-0.41,-0.19,1.89,1.89,1.90
132.46,2.14,2.14,0.30,0.31,-0.30,-0.47,-0.22,1.83,1.84,1.84
133.79,2.15,2.14,0.37,0.37,-0.36,-0.54,-0.25,1.79,1.78,1.78
135.12,2.14,2.14,0.42,0.42,-0.42,-0.60,-0.28,1.72,1.72,1.72
136.48,2.13,2.13,0.47,0.47,-0.47,-0.65,-0.30,1.65,1.66,1.66
137.84,2.12,2.12,0.52,0.53,-0.53,-0.71,-0.33,1.59,1.59,1.60
139.22,2.12,2.12,0.58,0.58,-0.58,-0.77,-0.35,1.54,1.54,1.54
140.61,2.12,2.11,0.64,0.63,-0.63,-0.82,-0.38,1.49,1.48,1.48
142.02,2.11,2.11,0.68,0.69,-0.68,-0.87,-0.40,1.43,1.43,1.43
143.44,2.11,2.11,0.74,0.74,-0.73,-0.92,-0.42,1.38,1.38,1.37
144.87,2.11,2.10,0.79,0.78,-0.78,-0.97,-0.45,1.33,1.32,1.32
146.32,2.09,2.09,0.82,0.83,-0.83,-1.02,-0.47,1.26,1.27,1.27
147.78,2.08,2.08,0.86,0.87,-0.87,-1.07,-0.50,1.21,1.21,1.21
149.26,2.08,2.08,0.91,0.91,-0.92,-1.11,-0.52,1.16,1.16,1.16
150.75,2.08,2.08,0.96,0.96,-0.96,-1.16,-0.54,1.12,1.12,1.11
152.26,2.07,2.07,1.00,1.00,-1.00,-1.20,-0.57,1.07,1.07,1.07
153.78,2.06,2.06,1.04,1.04,-1.04,-1.24,-0.59,1.02,1.02,1.02
155.32,2.05,2.05,1.08,1.08,-1.08,-1.27,-0.61,0.96,0.97,0.97
156.88,2.05,2.05,1.12,1.12,-1.13,-1.31,-0.64,0.92,0.93,0.93
158.44,2.05,2.05,1.17,1.17,-1.17,-1.35,-0.66,0.88,0.88,0.88
160.03,2.05,2.04,1.21,1.21,-1.20,-1.38,-0.69,0.85,0.84,0.84
161.63,2.03,2.03,1.24,1.24,-1.24,-1.41,-0.72,0.79,0.79,0.79
163.24,2.02,2.02,1.27,1.28,-1.28,-1.44,-0.74,0.74,0.75,0.75
164.88,2.02,2.01,1.31,1.31,-1.31,-1.47,-0.77,0.71,0.70,0.71
166.53,2.01,2.01,1.34,1.34,-1.34,-1.50,-0.80,0.67,0.67,0.67
168.19,2.00,2.00,1.37,1.37,-1.37,-1.52,-0.83,0.62,0.63,0.63
169.87,2.00,1.99,1.41,1.40,-1.40,-1.55,-0.86,0.60,0.59,0.59
171.57,1.98,1.99,1.43,1.43,-1.43,-1.57,-0.89,0.55,0.55,0.55
173.29,1.98,1.98,1.46,1.46,-1.46,-1.59,-0.92,0.52,0.52,0.52
175.02,1.97,1.97,1.49,1.48,-1.48,-1.61,-0.95,0.48,0.48,0.48
176.77,1.96,1.96,1.51,1.51,-1.51,-1.63,-0.99,0.45,0.45,0.45
178.54,1.95,1.95,1.53,1.53,-1.53,-1.65,-1.02,0.42,0.42,0.42
180.32,1.94,1.94,1.55,1.56,-1.56,-1.66,-1.05,0.38,0.39,0.39
182.13,1.94,1.93,1.58,1.58,-1.58,-1.68,-1.09,0.36,0.35,0.35
183.95,1.93,1.92,1.60,1.60,-1.60,-1.69,-1.13,0.33,0.32,0.32
185.79,1.91,1.92,1.61,1.62,-1.62,-1.70,-1.16,0.29,0.30,0.30
187.65,1.91,1.91,1.64,1.64,-1.64,-1.71,-1.20,0.27,0.27,0.27
189.52,1.91,1.90,1.67,1.66,-1.66,-1.72,-1.24,0.25,0.24,0.24
191.42,1.89,1.89,1.68,1.68,-1.68,-1.73,-1.28,0.21,0.21,0.21
193.33,1.87,1.88,1.68,1.69,-1.69,-1.74,-1.32,0.18,0.19,0.19
195.27,1.87,1.86,1.71,1.70,-1.70,-1.75,-1.36,0.16,0.16,0.16
197.22,1.86,1.85,1.72,1.72,-1.72,-1.75,-1.40,0.14,0.14,0.14
199.19,1.84,1.84,1.72,1.73,-1.73,-1.76,-1.45,0.11,0.11,0.11
201.18,1.83,1.83,1.74,1.74,-1.74,-1.76,-1.49,0.09,0.09,0.09
203.19,1.82,1.82,1.75,1.75,-1.75,-1.77,-1.53,0.07,0.07,0.07
205.23,1.81,1.81,1.76,1.76,-1.76,-1.77,-1.57,0.05,0.05,0.05
207.28,1.80,1.80,1.77,1.77,-1.77,-1.77,-1.61,0.03,0.03,0.03
209.35,1.78,1.78,1.77,1.78,-1.78,-1.77,-1.66,0.00,0.01,0.01
211.44,1.77,1.77,1.78,1.78,-1.78,-1.77,-1.70,-0.01,-0.01,-0.01
213.56,1.76,1.76,1.79,1.79,-1.79,-1.77,-1.74,-0.03,-0.03,-0.03
215.69,1.75,1.75,1.80,1.80,-1.80,-1.77,-1.78,-0.05,-0.05,-0.05
217.85,1.74,1.74,1.81,1.80,-1.80,-1.77,-1.82,-0.06,-0.07,-0.07
220.03,1.72,1.72,1.80,1.81,-1.80,-1.77,-1.85,-0.09,-0.08,-0.08
222.23,1.71,1.71,1.81,1.81,-1.81,-1.77,-1.89,-0.10,-0.10,-0.10
224.45,1.70,1.70,1.82,1.82,-1.81,-1.77,-1.92,-0.11,-0.11,-0.12
226.70,1.69,1.69,1.82,1.82,-1.82,-1.77,-1.96,-0.13,-0.13,-0.13
228.96,1.67,1.67,1.82,1.82,-1.83,-1.76,-1.99,-0.16,-0.16,-0.15
231.25,1.65,1.65,1.81,1.81,-1.83,-1.76,-2.01,-0.19,-0.19,-0.16
233.57,1.64,1.64,1.81,1.81,-1.84,-1.76,-2.04,-0.20,-0.20,-0.18
235.90,1.62,1.66,1.82,1.85,-1.84,-1.75,-2.06,-0.22,-0.19,-0.20
238.26,1.68,1.66,1.89,1.87,-1.84,-1.75,-2.08,-0.16,-0.18,-0.21
240.64,1.70,1.65,1.92,1.87,-1.84,-1.75,-2.09,-0.14,-0.19,-0.22
243.05,1.58,1.62,1.82,1.85,-1.84,-1.74,-2.11,-0.26,-0.22,-0.24
245.48,1.56,1.57,1.81,1.82,-1.83,-1.74,-2.11,-0.27,-0.26,-0.25
247.93,1.54,1.54,1.80,1.80,-1.83,-1.74,-2.12,-0.29,-0.29,-0.26
250.41,1.54,1.53,1.81,1.80,-1.82,-1.73,-2.12,-0.28,-0.28,-0.27
252.92,1.52,1.52,1.80,1.80,-1.80,-1.73,-2.12,-0.29,-0.28,-0.28
255.45,1.51,1.51,1.80,1.80,-1.80,-1.73,-2.11,-0.29,-0.28,-0.29
258.00,1.50,1.49,1.80,1.80,-1.79,-1.72,-2.10,-0.29,-0.30,-0.30
260.58,1.48,1.48,1.79,1.79,-1.79,-1.72,-2.09,-0.31,-0.31,-0.31
263.19,1.46,1.46,1.78,1.78,-1.78,-1.71,-2.07,-0.32,-0.32,-0.32
265.82,1.45,1.44,1.78,1.77,-1.78,-1.71,-2.05,-0.33,-0.33,-0.33
268.48,1.43,1.43,1.77,1.77,-1.77,-1.70,-2.03,-0.34,-0.34,-0.34
271.16,1.41,1.41,1.76,1.76,-1.76,-1.70,-2.01,-0.35,-0.34,-0.35
273.87,1.40,1.39,1.75,1.75,-1.75,-1.69,-1.98,-0.35,-0.35,-0.35
276.61,1.38,1.37,1.74,1.74,-1.74,-1.68,-1.95,-0.36,-0.36,-0.36
279.38,1.35,1.36,1.72,1.73,-1.73,-1.68,-1.92,-0.38,-0.37,-0.37
282.17,1.34,1.34,1.72,1.71,-1.71,-1.67,-1.88,-0.37,-0.37,-0.38
284.99,1.33,1.32,1.70,1.70,-1.70,-1.66,-1.85,-0.37,-0.37,-0.37
287.84,1.31,1.31,1.68,1.68,-1.68,-1.65,-1.81,-0.37,-0.37,-0.37
290.72,1.29,1.29,1.67,1.67,-1.66,-1.64,-1.77,-0.37,-0.37,-0.38
293.63,1.27,1.27,1.65,1.65,-1.65,-1.63,-1.73,-0.38,-0.38,-0.38
296.57,1.25,1.25,1.63,1.63,-1.63,-1.62,-1.69,-0.38,-0.38,-0.38
299.53,1.23,1.23,1.60,1.61,-1.61,-1.61,-1.65,-0.38,-0.38,-0.37
302.53,1.21,1.21,1.59,1.59,-1.59,-1.59,-1.60,-0.38,-0.38,-0.38
305.55,1.20,1.20,1.57,1.57,-1.58,-1.58,-1.56,-0.38,-0.38,-0.37
308.61,1.18,1.18,1.56,1.55,-1.56,-1.56,-1.52,-0.38,-0.39,-0.38
311.69,1.16,1.16,1.53,1.54,-1.55,-1.55,-1.48,-0.39,-0.39,-0.37
314.81,1.14,1.15,1.52,1.53,-1.53,-1.53,-1.43,-0.39,-0.38,-0.38
317.96,1.15,1.15,1.52,1.52,-1.51,-1.51,-1.39,-0.36,-0.36,-0.37
321.14,1.15,1.13,1.53,1.51,-1.49,-1.49,-1.35,-0.34,-0.36,-0.38
324.35,1.10,1.10,1.47,1.48,-1.47,-1.47,-1.31,-0.37,-0.36,-0.37
327.59,1.06,1.07,1.43,1.44,-1.44,-1.45,-1.27,-0.38,-0.37,-0.37
330.87,1.04,1.04,1.41,1.40,-1.42,-1.42,-1.23,-0.38,-0.38,-0.37
334.18,1.02,1.01,1.38,1.38,-1.39,-1.40,-1.19,-0.37,-0.38,-0.36
337.52,0.99,0.99,1.36,1.36,-1.36,-1.37,-1.15,-0.37,-0.37,-0.37
340.90,0.97,0.97,1.33,1.33,-1.33,-1.34,-1.11,-0.36,-0.36,-0.36
344.30,0.95,0.95,1.30,1.31,-1.30,-1.32,-1.07,-0.35,-0.35,-0.36
347.75,0.93,0.93,1.28,1.28,-1.28,-1.29,-1.03,-0.35,-0.35,-0.35
351.23,0.91,0.91,1.26,1.25,-1.25,-1.26,-1.00,-0.34,-0.34,-0.35
354.74,0.88,0.88,1.21,1.22,-1.22,-1.23,-0.96,-0.34,-0.34,-0.33
358.28,0.86,0.86,1.20,1.19,-1.19,-1.20,-0.93,-0.33,-0.33,-0.34
361.87,0.83,0.83,1.16,1.16,-1.16,-1.17,-0.89,-0.33,-0.33,-0.33
365.49,0.81,0.81,1.13,1.13,-1.13,-1.14,-0.86,-0.32,-0.33,-0.32
369.14,0.78,0.78,1.11,1.10,-1.11,-1.11,-0.83,-0.33,-0.32,-0.33
372.83,0.76,0.76,1.07,1.07,-1.08,-1.08,-0.80,-0.32,-0.32,-0.31
376.56,0.74,0.74,1.05,1.05,-1.05,-1.05,-0.77,-0.31,-0.31,-0.31
380.33,0.72,0.72,1.02,1.03,-1.02,-1.02,-0.74,-0.30,-0.30,-0.30
384.13,0.70,0.70,1.00,1.00,-0.99,-0.99,-0.71,-0.30,-0.30,-0.31
387.97,0.68,0.68,0.98,0.97,-0.97,-0.95,-0.68,-0.29,-0.29,-0.30
391.85,0.65,0.65,0.93,0.94,-0.94,-0.92,-0.65,-0.29,-0.29,-0.28
395.77,0.63,0.63,0.91,0.90,-0.91,-0.89,-0.62,-0.28,-0.28,-0.28
399.73,0.60,0.60,0.87,0.87,-0.88,-0.86,-0.60,-0.28,-0.28,-0.27
403.72,0.58,0.58,0.85,0.85,-0.85,-0.83,-0.57,-0.27,-0.27,-0.27
407.76,0.56,0.56,0.83,0.82,-0.82,-0.80,-0.55,-0.26,-0.26,-0.27
411.84,0.54,0.54,0.80,0.79,-0.79,-0.77,-0.52,-0.25,-0.26,-0.26
415.96,0.51,0.51,0.76,0.76,-0.76,-0.74,-0.50,-0.25,-0.25,-0.25
420.12,0.48,0.48,0.73,0.73,-0.74,-0.71,-0.48,-0.26,-0.25,-0.25
424.32,0.46,0.46,0.70,0.70,-0.71,-0.68,-0.45,-0.25,-0.25,-0.24
428.56,0.44,0.44,0.68,0.68,-0.68,-0.65,-0.43,-0.24,-0.24,-0.24
432.85,0.42,0.42,0.65,0.65,-0.65,-0.62,-0.41,-0.23,-0.23,-0.23
437.18,0.39,0.39,0.62,0.62,-0.61,-0.59,-0.39,-0.22,-0.22,-0.23
441.55,0.37,0.37,0.59,0.59,-0.58,-0.56,-0.37,-0.21,-0.21,-0.22
445.96,0.34,0.34,0.55,0.55,-0.54,-0.53,-0.35,-0.20,-0.21,-0.21
450.42,0.31,0.31,0.50,0.51,-0.51,-0.50,-0.33,-0.20,-0.20,-0.19
454.93,0.28,0.28,0.46,0.46,-0.47,-0.47,-0.31,-0.19,-0.19,-0.18
459.48,0.25,0.25,0.42,0.43,-0.43,-0.44,-0.29,-0.18,-0.18,-0.18
464.07,0.22,0.22,0.40,0.40,-0.39,-0.42,-0.27,-0.18,-0.17,-0.18
468.71,0.20,0.19,0.37,0.36,-0.36,-0.39,-0.26,-0.16,-0.17,-0.17
473.40,0.16,0.16,0.32,0.32,-0.32,-0.36,-0.24,-0.16,-0.16,-0.16
478.13,0.13,0.13,0.28,0.28,-0.29,-0.33,-0.22,-0.16,-0.15,-0.15
482.91,0.11,0.10,0.25,0.25,-0.25,-0.30,-0.21,-0.14,-0.14,-0.14
487.74,0.08,0.08,0.21,0.21,-0.21,-0.27,-0.19,-0.13,-0.13,-0.13
492.62,0.05,0.05,0.17,0.17,-0.17,-0.24,-0.18,-0.12,-0.12,-0.12
497.55,0.02,0.02,0.13,0.13,-0.13,-0.21,-0.16,-0.11,-0.11,-0.11
502.52,-0.01,-0.01,0.09,0.09,-0.09,-0.18,-0.15,-0.10,-0.10,-0.10
507.55,-0.05,-0.05,0.03,0.04,-0.04,-0.15,-0.13,-0.09,-0.09,-0.08
512.62,-0.09,-0.09,-0.02,-0.01,0.02,-0.12,-0.12,-0.08,-0.07,-0.08
517.75,-0.13,-0.13,-0.06,-0.06,0.08,-0.09,-0.10,-0.06,-0.05,-0.07
522.93,-0.16,-0.17,-0.10,-0.11,0.14,-0.06,-0.09,-0.03,-0.03,-0.06
528.16,-0.21,-0.21,-0.16,-0.16,0.19,-0.02,-0.08,-0.02,-0.02,-0.05
533.44,-0.26,-0.27,-0.22,-0.23,0.22,0.01,-0.07,-0.04,-0.04,-0.04
