frequency,raw,smoothed,error,error_smoothed,equalization,parametric_eq,fixed_band_eq,equalized_raw,equalized_smoothed,target
20.00,-1.04,-1.04,-1.92,-1.92,1.92,0.50,0.33,0.88,0.88,0.88
20.20,-1.00,-1.00,-1.91,-1.91,1.91,0.50,0.34,0.91,0.91,0.91
20.40,-0.97,-0.96,-1.91,-1.90,1.89,0.50,0.35,0.92,0.93,0.94
20.61,-0.92,-0.92,-1.88,-1.88,1.88,0.49,0.36,0.95,0.96,0.95
20.81,-0.86,-0.87,-1.85,-1.86,1.85,0.49,0.37,0.99,0.98,0.98
21.02,-0.83,-0.83,-1.84,-1.83,1.83,0.49,0.38,1.00,1.00,1.01
21.23,-0.78,-0.78,-1.80,-1.81,1.80,0.49,0.39,1.02,1.02,1.02
21.44,-0.74,-0.74,-1.77,-1.78,1.77,0.49,0.41,1.03,1.03,1.03
21.66,-0.69,-0.69,-1.73,-1.73,1.74,0.49,0.42,1.05,1.04,1.04
21.87,-0.66,-0.65,-1.70,-1.70,1.70,0.49,0.43,1.04,1.05,1.04
22.09,-0.60,-0.61,-1.65,-1.66,1.66,0.49,0.44,1.06,1.05,1.05
22.31,-0.57,-0.57,-1.62,-1.62,1.62,0.49,0.46,1.04,1.05,1.05
22.54,-0.52,-0.52,-1.57,-1.57,1.57,0.49,0.47,1.05,1.05,1.05
22.76,-0.49,-0.48,-1.54,-1.53,1.53,0.49,0.48,1.04,1.05,1.05
22.99,-0.43,-0.44,-1.47,-1.48,1.49,0.49,0.50,1.06,1.05,1.04
23.22,-0.40,-0.40,-1.44,-1.44,1.45,0.49,0.51,1.05,1.04,1.04
23.45,-0.37,-0.37,-1.41,-1.40,1.41,0.49,0.53,1.04,1.04,1.04
23.69,-0.33,-0.33,-1.37,-1.37,1.37,0.49,0.54,1.04,1.04,1.04
23.92,-0.29,-0.29,-1.33,-1.33,1.33,0.49,0.56,1.04,1.04,1.04
24.16,-0.25,-0.26,-1.30,-1.30,1.29,0.48,0.58,1.04,1.04,1.04
24.40,-0.22,-0.22,-1.26,-1.26,1.26,0.48,0.59,1.04,1.04,1.04
24.65,-0.19,-0.18,-1.22,-1.22,1.22,0.48,0.61,1.03,1.04,1.03
24.89,-0.14,-0.15,-1.17,-1.18,1.18,0.48,0.62,1.04,1.04,1.03
25.14,-0.11,-0.12,-1.14,-1.15,1.15,0.48,0.64,1.04,1.03,1.03
25.39,-0.09,-0.08,-1.12,-1.11,1.11,0.48,0.66,1.02,1.03,1.03
25.65,-0.05,-0.05,-1.08,-1.08,1.08,0.48,0.67,1.02,1.02,1.03
25.91,-0.01,-0.02,-1.03,-1.04,1.04,0.48,0.69,1.03,1.02,1.02
26.16,-0.00,0.01,-1.02,-1.00,1.01,0.48,0.71,1.01,1.02,1.02
26.43,0.05,0.04,-0.97,-0.97,0.98,0.48,0.72,1.02,1.02,1.02
26.69,0.08,0.07,-0.94,-0.94,0.94,0.48,0.74,1.02,1.02,1.01
26.96,0.09,0.10,-0.92,-0.91,0.91,0.47,0.75,1.00,1.01,1.01
27.23,0.14,0.13,-0.87,-0.88,0.88,0.47,0.77,1.02,1.01,1.01
27.50,0.15,0.16,-0.86,-0.85,0.85,0.47,0.78,1.00,1.01,1.01
27.77,0.19,0.19,-0.81,-0.82,0.82,0.47,0.80,1.01,1.00,1.00
28.05,0.21,0.21,-0.79,-0.79,0.79,0.47,0.81,1.00,1.00,1.00
28.33,0.23,0.23,-0.76,-0.76,0.76,0.47,0.82,0.99,0.99,0.99
28.62,0.25,0.25,-0.74,-0.73,0.73,0.47,0.83,0.98,0.98,0.98
28.90,0.28,0.28,-0.70,-0.70,0.70,0.47,0.84,0.98,0.98,0.98
29.19,0.30,0.30,-0.67,-0.68,0.68,0.47,0.85,0.98,0.98,0.97
29.48,0.33,0.32,-0.65,-0.65,0.65,0.46,0.86,0.98,0.97,0.98
29.78,0.33,0.34,-0.64,-0.63,0.63,0.46,0.87,0.96,0.97,0.97
30.08,0.37,0.36,-0.60,-0.61,0.60,0.46,0.88,0.97,0.96,0.97
30.38,0.37,0.38,-0.59,-0.58,0.58,0.46,0.88,0.95,0.96,0.95
30.68,0.40,0.40,-0.55,-0.55,0.56,0.46,0.88,0.96,0.96,0.95
30.99,0.42,0.41,-0.52,-0.54,0.53,0.46,0.89,0.95,0.94,0.94
31.30,0.42,0.42,-0.52,-0.52,0.51,0.45,0.89,0.93,0.94,0.94
31.61,0.42,0.44,-0.52,-0.49,0.49,0.45,0.89,0.91,0.93,0.94
31.93,0.47,0.45,-0.46,-0.47,0.47,0.45,0.89,0.94,0.92,0.92
32.24,0.47,0.46,-0.44,-0.45,0.45,0.45,0.88,0.92,0.91,0.91
32.57,0.47,0.48,-0.44,-0.43,0.43,0.45,0.88,0.90,0.91,0.91
32.89,0.48,0.49,-0.43,-0.42,0.42,0.45,0.87,0.89,0.90,0.91
33.22,0.51,0.50,-0.38,-0.40,0.40,0.44,0.86,0.91,0.90,0.89
33.55,0.51,0.51,-0.38,-0.38,0.38,0.44,0.86,0.89,0.89,0.89
33.89,0.51,0.51,-0.37,-0.37,0.37,0.44,0.85,0.88,0.88,0.88
34.23,0.51,0.51,-0.37,-0.36,0.36,0.44,0.84,0.87,0.87,0.87
34.57,0.51,0.51,-0.35,-0.35,0.35,0.44,0.83,0.86,0.86,0.86
34.92,0.51,0.51,-0.34,-0.34,0.34,0.43,0.81,0.85,0.85,0.85
35.27,0.51,0.51,-0.34,-0.33,0.33,0.43,0.80,0.84,0.84,0.84
35.62,0.51,0.51,-0.32,-0.32,0.32,0.43,0.79,0.83,0.83,0.83
35.97,0.51,0.51,-0.31,-0.31,0.31,0.43,0.77,0.82,0.82,0.82
36.33,0.51,0.51,-0.30,-0.30,0.30,0.42,0.76,0.81,0.81,0.81
36.70,0.51,0.51,-0.29,-0.29,0.29,0.42,0.74,0.80,0.80,0.80
37.06,0.51,0.51,-0.28,-0.28,0.28,0.42,0.73,0.79,0.79,0.79
37.43,0.51,0.51,-0.27,-0.27,0.27,0.42,0.71,0.78,0.78,0.78
37.81,0.51,0.51,-0.26,-0.26,0.26,0.41,0.70,0.77,0.77,0.77
38.19,0.51,0.51,-0.24,-0.25,0.24,0.41,0.68,0.75,0.75,0.75
38.57,0.51,0.51,-0.24,-0.24,0.23,0.41,0.67,0.74,0.74,0.75
38.95,0.51,0.51,-0.22,-0.22,0.22,0.40,0.65,0.73,0.73,0.73
39.34,0.51,0.51,-0.21,-0.21,0.21,0.40,0.64,0.72,0.72,0.72
39.74,0.51,0.51,-0.19,-0.19,0.20,0.40,0.62,0.71,0.72,0.70
40.14,0.51,0.50,-0.19,-0.19,0.20,0.39,0.61,0.71,0.70,0.70
40.54,0.50,0.49,-0.18,-0.19,0.19,0.39,0.59,0.69,0.68,0.68
40.94,0.47,0.48,-0.21,-0.19,0.19,0.39,0.58,0.66,0.67,0.68
41.35,0.47,0.47,-0.19,-0.19,0.19,0.38,0.56,0.66,0.66,0.66
41.76,0.47,0.47,-0.18,-0.18,0.19,0.38,0.55,0.66,0.66,0.65
42.18,0.47,0.46,-0.18,-0.18,0.19,0.38,0.53,0.66,0.65,0.65
42.60,0.46,0.45,-0.17,-0.19,0.19,0.37,0.52,0.64,0.63,0.63
43.03,0.42,0.44,-0.20,-0.19,0.18,0.37,0.51,0.60,0.62,0.62
43.46,0.42,0.42,-0.19,-0.18,0.18,0.36,0.49,0.60,0.60,0.61
43.90,0.42,0.40,-0.16,-0.18,0.17,0.36,0.48,0.59,0.58,0.58
44.33,0.39,0.39,-0.17,-0.17,0.17,0.35,0.47,0.56,0.56,0.56
44.78,0.37,0.38,-0.17,-0.16,0.17,0.35,0.46,0.53,0.54,0.54
45.23,0.37,0.36,-0.16,-0.16,0.16,0.34,0.44,0.53,0.52,0.53
45.68,0.36,0.35,-0.15,-0.15,0.16,0.34,0.43,0.52,0.51,0.51
46.13,0.33,0.34,-0.16,-0.15,0.16,0.34,0.42,0.49,0.50,0.49
46.60,0.33,0.32,-0.15,-0.15,0.16,0.33,0.41,0.49,0.48,0.48
47.06,0.30,0.30,-0.16,-0.16,0.16,0.33,0.40,0.45,0.46,0.46
47.53,0.28,0.28,-0.16,-0.16,0.15,0.32,0.39,0.43,0.44,0.44
48.01,0.27,0.26,-0.16,-0.16,0.15,0.31,0.38,0.42,0.41,0.43
48.49,0.23,0.24,-0.17,-0.16,0.15,0.31,0.37,0.38,0.39,0.40
48.97,0.23,0.22,-0.14,-0.15,0.15,0.30,0.37,0.38,0.37,0.37
49.46,0.19,0.20,-0.15,-0.14,0.14,0.30,0.36,0.33,0.34,0.34
49.96,0.19,0.18,-0.11,-0.13,0.14,0.29,0.35,0.33,0.32,0.30
50.46,0.14,0.15,-0.15,-0.14,0.14,0.29,0.34,0.28,0.29,0.29
50.96,0.14,0.13,-0.13,-0.13,0.13,0.28,0.33,0.27,0.27,0.27
51.47,0.10,0.10,-0.14,-0.14,0.13,0.27,0.33,0.23,0.24,0.24
51.99,0.09,0.09,-0.12,-0.13,0.13,0.27,0.32,0.22,0.22,0.21
52.51,0.05,0.06,-0.15,-0.14,0.14,0.26,0.31,0.18,0.19,0.20
53.03,0.05,0.04,-0.12,-0.14,0.14,0.26,0.31,0.19,0.17,0.17
53.56,-0.00,0.01,-0.15,-0.14,0.14,0.25,0.30,0.14,0.15,0.15
54.10,-0.01,-0.02,-0.13,-0.14,0.14,0.25,0.29,0.13,0.12,0.12
54.64,-0.05,-0.05,-0.15,-0.14,0.14,0.24,0.29,0.09,0.10,0.10
55.18,-0.07,-0.07,-0.14,-0.14,0.14,0.23,0.28,0.07,0.07,0.07
55.74,-0.09,-0.10,-0.13,-0.14,0.14,0.23,0.28,0.05,0.05,0.04
56.29,-0.13,-0.12,-0.16,-0.15,0.15,0.22,0.27,0.02,0.02,0.03
56.86,-0.14,-0.15,-0.14,-0.15,0.15,0.22,0.27,0.01,-0.00,-0.00
57.42,-0.19,-0.18,-0.16,-0.15,0.15,0.21,0.26,-0.04,-0.02,-0.03
58.00,-0.20,-0.20,-0.15,-0.15,0.16,0.20,0.26,-0.04,-0.04,-0.05
58.58,-0.23,-0.23,-0.16,-0.16,0.17,0.20,0.25,-0.07,-0.07,-0.07
59.16,-0.26,-0.26,-0.17,-0.17,0.17,0.19,0.25,-0.09,-0.09,-0.09
59.76,-0.29,-0.30,-0.18,-0.18,0.17,0.19,0.24,-0.12,-0.12,-0.11
60.35,-0.33,-0.32,-0.19,-0.18,0.18,0.18,0.24,-0.15,-0.15,-0.14
60.96,-0.36,-0.35,-0.20,-0.18,0.18,0.18,0.23,-0.18,-0.18,-0.17
61.57,-0.37,-0.39,-0.16,-0.18,0.18,0.17,0.23,-0.19,-0.21,-0.21
62.18,-0.42,-0.41,-0.18,-0.18,0.18,0.17,0.22,-0.24,-0.23,-0.24
62.80,-0.45,-0.45,-0.18,-0.17,0.18,0.17,0.22,-0.27,-0.26,-0.27
63.43,-0.47,-0.48,-0.17,-0.18,0.18,0.16,0.21,-0.29,-0.30,-0.30
64.07,-0.51,-0.51,-0.18,-0.18,0.18,0.16,0.21,-0.33,-0.33,-0.33
64.71,-0.54,-0.54,-0.19,-0.18,0.18,0.16,0.21,-0.36,-0.36,-0.35
65.35,-0.56,-0.57,-0.18,-0.19,0.18,0.15,0.20,-0.38,-0.39,-0.38
66.01,-0.60,-0.60,-0.19,-0.19,0.19,0.15,0.20,-0.41,-0.41,-0.41
66.67,-0.63,-0.63,-0.19,-0.19,0.19,0.15,0.19,-0.44,-0.44,-0.44
67.33,-0.65,-0.66,-0.18,-0.19,0.19,0.15,0.19,-0.46,-0.47,-0.47
68.01,-0.70,-0.69,-0.20,-0.20,0.19,0.15,0.18,-0.51,-0.50,-0.50
68.69,-0.73,-0.73,-0.20,-0.20,0.20,0.14,0.18,-0.54,-0.53,-0.53
69.37,-0.76,-0.76,-0.20,-0.20,0.20,0.14,0.17,-0.56,-0.57,-0.56
70.07,-0.79,-0.79,-0.20,-0.20,0.20,0.14,0.17,-0.59,-0.59,-0.60
70.77,-0.82,-0.82,-0.20,-0.20,0.20,0.14,0.17,-0.62,-0.62,-0.62
71.48,-0.85,-0.85,-0.20,-0.20,0.20,0.14,0.16,-0.65,-0.65,-0.65
72.19,-0.88,-0.89,-0.19,-0.20,0.20,0.15,0.16,-0.68,-0.69,-0.69
72.91,-0.93,-0.93,-0.21,-0.20,0.20,0.15,0.15,-0.73,-0.72,-0.72
73.64,-0.97,-0.97,-0.21,-0.21,0.21,0.15,0.15,-0.76,-0.76,-0.76
74.38,-1.00,-1.00,-0.21,-0.21,0.21,0.15,0.14,-0.79,-0.79,-0.79
75.12,-1.03,-1.04,-0.20,-0.21,0.21,0.15,0.14,-0.82,-0.82,-0.83
75.87,-1.07,-1.07,-0.21,-0.22,0.22,0.15,0.14,-0.85,-0.86,-0.86
76.63,-1.12,-1.11,-0.23,-0.22,0.22,0.16,0.13,-0.90,-0.89,-0.89
77.40,-1.15,-1.15,-0.23,-0.23,0.22,0.16,0.13,-0.93,-0.93,-0.92
78.17,-1.18,-1.18,-0.22,-0.23,0.23,0.16,0.12,-0.95,-0.96,-0.96
78.95,-1.21,-1.21,-0.23,-0.22,0.23,0.16,0.12,-0.98,-0.98,-0.98
79.74,-1.24,-1.25,-0.23,-0.23,0.23,0.17,0.11,-1.01,-1.01,-1.02
80.54,-1.28,-1.28,-0.23,-0.23,0.24,0.17,0.11,-1.04,-1.05,-1.05
81.35,-1.33,-1.32,-0.25,-0.24,0.24,0.17,0.11,-1.09,-1.08,-1.09
82.16,-1.36,-1.36,-0.24,-0.25,0.24,0.18,0.10,-1.12,-1.12,-1.12
82.98,-1.40,-1.40,-0.25,-0.25,0.24,0.18,0.10,-1.16,-1.16,-1.15
83.81,-1.44,-1.44,-0.25,-0.25,0.24,0.19,0.09,-1.20,-1.19,-1.19
84.65,-1.47,-1.47,-0.24,-0.25,0.25,0.19,0.09,-1.22,-1.23,-1.23
85.50,-1.51,-1.51,-0.25,-0.24,0.25,0.19,0.09,-1.26,-1.26,-1.26
86.35,-1.54,-1.54,-0.24,-0.24,0.25,0.20,0.08,-1.30,-1.30,-1.30
87.22,-1.58,-1.58,-0.24,-0.24,0.24,0.20,0.08,-1.34,-1.34,-1.34
88.09,-1.62,-1.62,-0.24,-0.24,0.24,0.21,0.07,-1.38,-1.38,-1.38
88.97,-1.65,-1.66,-0.24,-0.24,0.24,0.21,0.07,-1.41,-1.42,-1.41
89.86,-1.70,-1.70,-0.25,-0.24,0.24,0.21,0.07,-1.46,-1.46,-1.45
90.76,-1.74,-1.74,-0.24,-0.24,0.24,0.22,0.06,-1.50,-1.50,-1.50
91.66,-1.77,-1.78,-0.23,-0.23,0.24,0.22,0.06,-1.53,-1.54,-1.54
92.58,-1.82,-1.82,-0.23,-0.23,0.23,0.23,0.05,-1.59,-1.58,-1.59
93.51,-1.85,-1.86,-0.23,-0.23,0.23,0.23,0.05,-1.62,-1.63,-1.62
94.44,-1.91,-1.90,-0.24,-0.23,0.23,0.23,0.05,-1.68,-1.67,-1.67
95.39,-1.94,-1.94,-0.23,-0.23,0.23,0.24,0.04,-1.71,-1.72,-1.71
96.34,-1.99,-1.99,-0.22,-0.23,0.23,0.24,0.04,-1.76,-1.76,-1.77
97.30,-2.03,-2.03,-0.22,-0.22,0.23,0.24,0.03,-1.81,-1.81,-1.81
98.28,-2.08,-2.08,-0.22,-0.22,0.22,0.25,0.03,-1.86,-1.86,-1.86
99.26,-2.13,-2.13,-0.23,-0.22,0.22,0.25,0.03,-1.91,-1.91,-1.90
100.25,-2.17,-2.17,-0.22,-0.23,0.22,0.26,0.02,-1.95,-1.95,-1.95
101.25,-2.22,-2.22,-0.23,-0.22,0.22,0.26,0.02,-2.00,-2.00,-1.99
102.27,-2.26,-2.26,-0.22,-0.22,0.22,0.26,0.02,-2.04,-2.04,-2.04
103.29,-2.31,-2.31,-0.21,-0.22,0.22,0.27,0.02,-2.09,-2.09,-2.10
104.32,-2.36,-2.36,-0.23,-0.22,0.22,0.27,0.01,-2.14,-2.13,-2.13
105.37,-2.41,-2.41,-0.23,-0.23,0.23,0.27,0.01,-2.18,-2.18,-2.18
106.42,-2.45,-2.46,-0.22,-0.23,0.23,0.28,0.01,-2.22,-2.23,-2.23
107.48,-2.51,-2.51,-0.24,-0.23,0.23,0.28,0.01,-2.28,-2.28,-2.27
108.56,-2.55,-2.55,-0.22,-0.23,0.23,0.28,0.01,-2.32,-2.32,-2.33
109.64,-2.61,-2.61,-0.24,-0.23,0.23,0.29,0.01,-2.38,-2.37,-2.37
110.74,-2.65,-2.66,-0.23,-0.23,0.23,0.29,0.01,-2.42,-2.42,-2.42
111.85,-2.71,-2.71,-0.24,-0.23,0.23,0.30,0.01,-2.48,-2.48,-2.47
112.97,-2.75,-2.75,-0.22,-0.23,0.22,0.30,0.01,-2.53,-2.53,-2.53
114.10,-2.80,-2.80,-0.22,-0.22,0.22,0.30,0.01,-2.58,-2.58,-2.58
115.24,-2.85,-2.85,-0.22,-0.21,0.21,0.31,0.01,-2.64,-2.63,-2.63
116.39,-2.89,-2.90,-0.20,-0.21,0.21,0.31,0.02,-2.68,-2.69,-2.69
117.55,-2.94,-2.94,-0.20,-0.20,0.20,0.32,0.02,-2.74,-2.74,-2.74
118.73,-2.99,-2.99,-0.20,-0.19,0.20,0.32,0.03,-2.79,-2.78,-2.79
119.92,-3.03,-3.03,-0.19,-0.19,0.20,0.32,0.03,-2.83,-2.84,-2.84
121.12,-3.08,-3.08,-0.19,-0.19,0.20,0.33,0.04,-2.88,-2.89,-2.89
122.33,-3.14,-3.14,-0.20,-0.20,0.20,0.33,0.04,-2.94,-2.94,-2.94
123.55,-3.19,-3.19,-0.21,-0.20,0.20,0.34,0.05,-3.00,-2.99,-2.98
124.79,-3.24,-3.24,-0.20,-0.20,0.19,0.34,0.06,-3.05,-3.04,-3.04
126.03,-3.28,-3.29,-0.19,-0.20,0.19,0.35,0.07,-3.09,-3.09,-3.09
127.29,-3.33,-3.33,-0.19,-0.19,0.19,0.35,0.08,-3.14,-3.14,-3.14
128.57,-3.38,-3.38,-0.19,-0.18,0.19,0.36,0.10,-3.19,-3.19,-3.20
129.85,-3.42,-3.42,-0.18,-0.18,0.19,0.36,0.11,-3.23,-3.24,-3.24
131.15,-3.47,-3.47,-0.18,-0.18,0.19,0.37,0.12,-3.28,-3.29,-3.29
132.46,-3.53,-3.53,-0.19,-0.19,0.19,0.38,0.14,-3.34,-3.34,-3.34
133.79,-3.58,-3.58,-0.20,-0.20,0.19,0.38,0.15,-3.39,-3.39,-3.38
135.12,-3.63,-3.63,-0.20,-0.20,0.20,0.39,0.17,-3.43,-3.43,-3.43
136.48,-3.67,-3.68,-0.20,-0.21,0.21,0.39,0.19,-3.46,-3.47,-3.47
137.84,-3.74,-3.73,-0.23,-0.21,0.22,0.40,0.21,-3.52,-3.51,-3.51
139.22,-3.79,-3.79,-0.23,-0.23,0.24,0.41,0.23,-3.55,-3.55,-3.57
140.61,-3.84,-3.85,-0.23,-0.25,0.26,0.42,0.25,-3.59,-3.60,-3.61
142.02,-3.92,-3.92,-0.29,-0.28,0.27,0.42,0.27,-3.65,-3.64,-3.63
143.44,-3.98,-3.97,-0.31,-0.30,0.29,0.43,0.29,-3.69,-3.68,-3.67
144.87,-4.03,-4.03,-0.32,-0.32,0.31,0.44,0.32,-3.72,-3.72,-3.71
146.32,-4.07,-4.08,-0.32,-0.33,0.33,0.45,0.34,-3.74,-3.75,-3.75
147.78,-4.13,-4.13,-0.35,-0.35,0.35,0.46,0.36,-3.78,-3.78,-3.78
149.26,-4.19,-4.19,-0.37,-0.37,0.37,0.47,0.39,-3.82,-3.82,-3.82
150.75,-4.25,-4.25,-0.39,-0.39,0.39,0.48,0.41,-3.86,-3.86,-3.87
152.26,-4.31,-4.31,-0.41,-0.41,0.41,0.49,0.44,-3.90,-3.90,-3.90
153.78,-4.37,-4.37,-0.43,-0.43,0.43,0.50,0.47,-3.94,-3.95,-3.94
155.32,-4.44,-4.43,-0.46,-0.45,0.45,0.51,0.50,-3.99,-3.98,-3.98
156.88,-4.49,-4.49,-0.48,-0.47,0.47,0.52,0.53,-4.02,-4.02,-4.02
158.44,-4.54,-4.55,-0.48,-0.49,0.49,0.53,0.56,-4.05,-4.06,-4.06
160.03,-4.62,-4.61,-0.52,-0.51,0.52,0.54,0.59,-4.10,-4.10,-4.10
161.63,-4.68,-4.68,-0.54,-0.54,0.54,0.55,0.62,-4.14,-4.14,-4.14
163.24,-4.74,-4.75,-0.56,-0.57,0.57,0.56,0.65,-4.18,-4.18,-4.18
164.88,-4.81,-4.81,-0.60,-0.59,0.59,0.58,0.68,-4.22,-4.22,-4.21
166.53,-4.87,-4.87,-0.62,-0.62,0.62,0.59,0.71,-4.25,-4.25,-4.25
168.19,-4.93,-4.94,-0.64,-0.65,0.64,0.60,0.75,-4.29,-4.29,-4.29
169.87,-5.00,-5.00,-0.67,-0.67,0.67,0.62,0.78,-4.33,-4.33,-4.33
171.57,-5.06,-5.06,-0.70,-0.70,0.69,0.63,0.82,-4.37,-4.37,-4.36
173.29,-5.12,-5.12,-0.72,-0.72,0.72,0.65,0.85,-4.40,-4.40,-4.40
175.02,-5.19,-5.18,-0.75,-0.74,0.74,0.66,0.89,-4.45,-4.44,-4.44
176.77,-5.24,-5.25,-0.76,-0.77,0.77,0.68,0.93,-4.47,-4.48,-4.48
178.54,-5.31,-5.31,-0.79,-0.79,0.79,0.70,0.97,-4.52,-4.52,-4.53
180.32,-5.37,-5.37,-0.81,-0.81,0.81,0.71,1.00,-4.56,-4.55,-4.56
182.13,-5.43,-5.43,-0.84,-0.84,0.84,0.73,1.04,-4.59,-4.60,-4.59
183.95,-5.49,-5.49,-0.86,-0.86,0.86,0.75,1.08,-4.63,-4.63,-4.63
185.79,-5.56,-5.56,-0.90,-0.89,0.89,0.77,1.13,-4.67,-4.67,-4.66
187.65,-5.61,-5.61,-0.91,-0.91,0.91,0.79,1.17,-4.70,-4.70,-4.71
189.52,-5.67,-5.67,-0.94,-0.94,0.94,0.81,1.21,-4.74,-4.73,-4.74
191.42,-5.72,-5.72,-0.96,-0.96,0.96,0.83,1.25,-4.76,-4.76,-4.76
193.33,-5.78,-5.78,-0.99,-0.98,0.98,0.85,1.30,-4.80,-4.79,-4.79
195.27,-5.83,-5.83,-1.01,-1.01,1.01,0.87,1.34,-4.82,-4.83,-4.82
197.22,-5.88,-5.88,-1.03,-1.03,1.03,0.90,1.38,-4.85,-4.85,-4.85
199.19,-5.94,-5.93,-1.05,-1.05,1.05,0.92,1.43,-4.89,-4.88,-4.89
201.18,-5.97,-5.98,-1.07,-1.07,1.08,0.95,1.47,-4.89,-4.90,-4.90
203.19,-6.03,-6.02,-1.11,-1.10,1.10,0.97,1.52,-4.93,-4.92,-4.92
205.23,-6.06,-6.07,-1.12,-1.13,1.13,1.00,1.56,-4.93,-4.94,-4.94
207.28,-6.11,-6.11,-1.16,-1.15,1.16,1.02,1.61,-4.96,-4.96,-4.95
209.35,-6.16,-6.16,-1.19,-1.18,1.18,1.05,1.65,-4.98,-4.97,-4.97
211.44,-6.20,-6.21,-1.20,-1.21,1.22,1.08,1.69,-4.99,-4.99,-5.00
213.56,-6.25,-6.25,-1.25,-1.25,1.25,1.11,1.74,-5.00,-5.00,-5.00
215.69,-6.30,-6.30,-1.30,-1.29,1.28,1.14,1.78,-5.02,-5.01,-5.01
217.85,-6.34,-6.34,-1.32,-1.32,1.32,1.17,1.82,-5.02,-5.02,-5.02
220.03,-6.39,-6.39,-1.36,-1.36,1.36,1.20,1.86,-5.03,-5.03,-5.03
222.23,-6.42,-6.43,-1.38,-1.39,1.40,1.23,1.90,-5.02,-5.03,-5.04
224.45,-6.48,-6.47,-1.45,-1.43,1.44,1.27,1.94,-5.04,-5.04,-5.03
226.70,-6.51,-6.52,-1.48,-1.48,1.48,1.30,1.97,-5.03,-5.04,-5.04
228.96,-6.56,-6.56,-1.52,-1.53,1.52,1.34,2.01,-5.04,-5.04,-5.04
231.25,-6.59,-6.59,-1.56,-1.56,1.56,1.37,2.04,-5.03,-5.03,-5.03
233.57,-6.63,-6.63,-1.60,-1.60,1.60,1.41,2.07,-5.03,-5.03,-5.03
235.90,-6.66,-6.67,-1.63,-1.64,1.65,1.45,2.09,-5.01,-5.02,-5.03
238.26,-6.71,-6.71,-1.69,-1.68,1.69,1.48,2.12,-5.02,-5.01,-5.03
240.64,-6.74,-6.75,-1.73,-1.73,1.74,1.52,2.14,-5.00,-5.01,-5.01
243.05,-6.79,-6.79,-1.79,-1.79,1.78,1.56,2.15,-5.01,-5.01,-5.00
245.48,-6.83,-6.83,-1.84,-1.84,1.83,1.60,2.17,-5.00,-5.00,-4.99
247.93,-6.86,-6.86,-1.88,-1.88,1.87,1.64,2.18,-4.99,-4.99,-4.98
250.41,-6.89,-6.88,-1.91,-1.91,1.91,1.69,2.19,-4.98,-4.97,-4.98
252.92,-6.89,-6.91,-1.94,-1.95,1.95,1.73,2.19,-4.94,-4.96,-4.96
255.45,-6.93,-6.92,-2.00,-1.98,1.99,1.77,2.20,-4.94,-4.93,-4.93
258.00,-6.94,-6.94,-2.02,-2.02,2.02,1.82,2.19,-4.92,-4.92,-4.92
260.58,-6.94,-6.96,-2.03,-2.05,2.05,1.86,2.19,-4.89,-4.91,-4.91
263.19,-6.98,-6.97,-2.10,-2.08,2.08,1.90,2.18,-4.90,-4.89,-4.88
265.82,-6.98,-6.98,-2.11,-2.11,2.11,1.95,2.17,-4.87,-4.86,-4.87
268.48,-6.98,-6.98,-2.14,-2.14,2.14,1.99,2.16,-4.84,-4.84,-4.85
271.16,-6.98,-6.99,-2.16,-2.16,2.17,2.04,2.15,-4.81,-4.82,-4.82
273.87,-7.00,-7.00,-2.19,-2.20,2.20,2.08,2.13,-4.80,-4.80,-4.81
276.61,-7.03,-7.02,-2.25,-2.23,2.23,2.13,2.11,-4.80,-4.79,-4.78
279.38,-7.03,-7.03,-2.26,-2.26,2.25,2.17,2.09,-4.78,-4.78,-4.77
282.17,-7.03,-7.03,-2.28,-2.28,2.28,2.21,2.07,-4.75,-4.76,-4.75
284.99,-7.03,-7.03,-2.30,-2.30,2.30,2.25,2.05,-4.73,-4.73,-4.73
287.84,-7.03,-7.03,-2.32,-2.32,2.32,2.30,2.02,-4.71,-4.71,-4.71
290.72,-7.03,-7.03,-2.34,-2.34,2.35,2.34,2.00,-4.69,-4.69,-4.69
293.63,-7.03,-7.03,-2.36,-2.36,2.37,2.38,1.97,-4.67,-4.67,-4.67
296.57,-7.03,-7.03,-2.39,-2.38,2.38,2.41,1.95,-4.65,-4.65,-4.65
299.53,-7.03,-7.03,-2.40,-2.40,2.40,2.45,1.92,-4.63,-4.63,-4.63
302.53,-7.03,-7.03,-2.42,-2.43,2.42,2.48,1.89,-4.61,-4.61,-4.61
305.55,-7.03,-7.03,-2.45,-2.45,2.44,2.51,1.87,-4.59,-4.59,-4.58
308.61,-7.03,-7.02,-2.47,-2.46,2.46,2.54,1.84,-4.57,-4.56,-4.56
311.69,-7.00,-7.00,-2.47,-2.47,2.47,2.57,1.82,-4.53,-4.53,-4.53
314.81,-6.98,-6.99,-2.48,-2.49,2.49,2.60,1.79,-4.49,-4.51,-4.50
317.96,-6.98,-6.98,-2.50,-2.49,2.50,2.62,1.77,-4.48,-4.48,-4.48
321.14,-6.98,-6.97,-2.52,-2.51,2.50,2.64,1.74,-4.48,-4.46,-4.46
324.35,-6.94,-6.96,-2.49,-2.51,2.51,2.65,1.72,-4.43,-4.45,-4.45
327.59,-6.94,-6.94,-2.52,-2.51,2.51,2.66,1.70,-4.43,-4.43,-4.42
330.87,-6.92,-6.92,-2.52,-2.51,2.51,2.67,1.68,-4.41,-4.40,-4.40
334.18,-6.89,-6.90,-2.50,-2.51,2.51,2.68,1.66,-4.38,-4.39,-4.39
337.52,-6.87,-6.87,-2.50,-2.50,2.51,2.68,1.64,-4.36,-4.36,-4.37
340.90,-6.84,-6.84,-2.50,-2.50,2.50,2.68,1.63,-4.34,-4.34,-4.34
344.30,-6.81,-6.82,-2.49,-2.49,2.49,2.67,1.61,-4.32,-4.32,-4.32
347.75,-6.80,-6.79,-2.49,-2.48,2.48,2.66,1.60,-4.32,-4.31,-4.31
351.23,-6.75,-6.76,-2.46,-2.48,2.47,2.65,1.58,-4.28,-4.29,-4.29
354.74,-6.74,-6.73,-2.47,-2.46,2.46,2.63,1.57,-4.28,-4.27,-4.27
358.28,-6.70,-6.70,-2.45,-2.45,2.45,2.61,1.56,-4.26,-4.25,-4.25
361.87,-6.66,-6.67,-2.43,-2.43,2.43,2.58,1.55,-4.23,-4.24,-4.23
365.49,-6.63,-6.63,-2.41,-2.41,2.41,2.56,1.55,-4.22,-4.22,-4.22
369.14,-6.59,-6.59,-2.38,-2.39,2.39,2.52,1.54,-4.20,-4.20,-4.21
372.83,-6.56,-6.56,-2.37,-2.37,2.37,2.49,1.54,-4.19,-4.19,-4.19
376.56,-6.52,-6.52,-2.34,-2.34,2.34,2.45,1.53,-4.18,-4.17,-4.18
380.33,-6.47,-6.48,-2.32,-2.32,2.32,2.41,1.53,-4.15,-4.16,-4.15
384.13,-6.44,-6.44,-2.30,-2.29,2.28,2.37,1.53,-4.16,-4.15,-4.15
387.97,-6.39,-6.39,-2.25,-2.26,2.25,2.33,1.53,-4.14,-4.14,-4.14
391.85,-6.35,-6.35,-2.22,-2.22,2.21,2.28,1.53,-4.14,-4.13,-4.13
395.77,-6.29,-6.29,-2.18,-2.18,2.18,2.23,1.53,-4.11,-4.11,-4.11
399.73,-6.23,-6.23,-2.13,-2.13,2.14,2.18,1.53,-4.09,-4.09,-4.10
403.72,-6.17,-6.17,-2.08,-2.08,2.09,2.13,1.53,-4.08,-4.08,-4.09
407.76,-6.12,-6.12,-2.04,-2.04,2.05,2.07,1.53,-4.07,-4.07,-4.08
411.84,-6.08,-6.08,-2.02,-2.01,2.01,2.02,1.54,-4.08,-4.07,-4.07
415.96,-6.03,-6.03,-1.97,-1.97,1.96,1.96,1.54,-4.07,-4.07,-4.06
420.12,-5.97,-5.97,-1.92,-1.92,1.91,1.90,1.54,-4.06,-4.05,-4.05
424.32,-5.90,-5.91,-1.86,-1.87,1.87,1.85,1.55,-4.03,-4.04,-4.04
428.56,-5.84,-5.85,-1.81,-1.82,1.82,1.79,1.55,-4.02,-4.03,-4.03
432.85,-5.80,-5.79,-1.78,-1.77,1.77,1.73,1.55,-4.03,-4.01,-4.02
437.18,-5.72,-5.73,-1.71,-1.72,1.72,1.67,1.55,-4.00,-4.01,-4.01
441.55,-5.66,-5.67,-1.67,-1.67,1.67,1.61,1.56,-3.99,-4.00,-3.99
445.96,-5.61,-5.60,-1.63,-1.62,1.62,1.55,1.56,-3.99,-3.98,-3.98
450.42,-5.55,-5.55,-1.58,-1.57,1.57,1.49,1.55,-3.98,-3.97,-3.97
454.93,-5.47,-5.48,-1.52,-1.52,1.52,1.43,1.55,-3.95,-3.96,-3.96
459.48,-5.42,-5.41,-1.47,-1.47,1.47,1.37,1.55,-3.95,-3.94,-3.95
464.07,-5.35,-5.35,-1.42,-1.42,1.43,1.31,1.54,-3.92,-3.92,-3.93
468.71,-5.28,-5.29,-1.37,-1.38,1.38,1.25,1.53,-3.90,-3.91,-3.91
473.40,-5.23,-5.23,-1.33,-1.33,1.33,1.19,1.52,-3.90,-3.90,-3.90
478.13,-5.16,-5.16,-1.28,-1.28,1.28,1.13,1.51,-3.88,-3.88,-3.88
