frequency,raw,error,smoothed,error_smoothed,equalization,parametric_eq,fixed_band_eq,equalized_raw,equalized_smoothed,target
20.00,4.56,3.65,4.55,3.65,-3.69,-3.36,-1.92,0.87,0.87,0.91
20.20,4.61,3.66,4.61,3.66,-3.68,-3.40,-1.98,0.93,0.93,0.95
20.40,4.65,3.67,4.66,3.68,-3.67,-3.44,-2.03,0.98,0.99,0.98
20.61,4.70,3.69,4.70,3.69,-3.66,-3.48,-2.09,1.04,1.04,1.01
20.81,4.75,3.70,4.75,3.70,-3.66,-3.51,-2.15,1.09,1.09,1.05
21.02,4.79,3.70,4.78,3.70,-3.66,-3.55,-2.21,1.13,1.12,1.09
21.23,4.79,3.69,4.79,3.69,-3.66,-3.59,-2.27,1.13,1.13,1.10
21.44,4.79,3.67,4.79,3.67,-3.67,-3.63,-2.34,1.12,1.12,1.12
21.66,4.79,3.65,4.79,3.65,-3.67,-3.67,-2.41,1.12,1.12,1.14
21.87,4.79,3.64,4.79,3.64,-3.67,-3.70,-2.47,1.12,1.13,1.15
22.09,4.81,3.64,4.82,3.66,-3.68,-3.74,-2.54,1.13,1.14,1.17
22.31,4.86,3.69,4.86,3.69,-3.70,-3.78,-2.62,1.16,1.15,1.17
22.54,4.91,3.73,4.91,3.73,-3.73,-3.81,-2.69,1.18,1.17,1.18
22.76,4.96,3.77,4.96,3.78,-3.77,-3.85,-2.77,1.19,1.18,1.19
22.99,5.01,3.82,5.01,3.82,-3.82,-3.89,-2.84,1.19,1.19,1.19
23.22,5.06,3.86,5.06,3.87,-3.87,-3.92,-2.92,1.19,1.20,1.20
23.45,5.12,3.92,5.12,3.92,-3.90,-3.96,-3.00,1.22,1.21,1.21
23.69,5.17,3.95,5.17,3.96,-3.94,-3.99,-3.09,1.23,1.24,1.21
23.92,5.22,4.00,5.21,3.99,-3.96,-4.03,-3.17,1.26,1.25,1.22
24.16,5.24,4.01,5.24,4.00,-3.98,-4.06,-3.26,1.26,1.26,1.23
24.40,5.24,4.00,5.24,4.00,-4.00,-4.09,-3.34,1.24,1.24,1.24
24.65,5.24,4.01,5.24,4.00,-4.03,-4.13,-3.43,1.21,1.21,1.23
24.89,5.24,4.01,5.25,4.01,-4.05,-4.16,-3.52,1.19,1.19,1.23
25.14,5.27,4.04,5.28,4.05,-4.08,-4.19,-3.61,1.19,1.19,1.23
25.39,5.33,4.10,5.33,4.10,-4.11,-4.22,-3.70,1.22,1.22,1.23
25.65,5.39,4.16,5.39,4.16,-4.15,-4.25,-3.79,1.24,1.24,1.23
25.91,5.45,4.23,5.44,4.21,-4.18,-4.29,-3.88,1.27,1.26,1.22
26.16,5.47,4.24,5.47,4.24,-4.20,-4.32,-3.98,1.27,1.26,1.23
26.43,5.47,4.24,5.47,4.25,-4.22,-4.35,-4.07,1.25,1.25,1.23
26.69,5.47,4.24,5.47,4.24,-4.24,-4.38,-4.16,1.23,1.24,1.23
26.96,5.47,4.24,5.47,4.24,-4.24,-4.40,-4.25,1.23,1.23,1.23
27.23,5.47,4.24,5.47,4.24,-4.25,-4.43,-4.34,1.22,1.22,1.23
27.50,5.47,4.24,5.46,4.24,-4.26,-4.46,-4.43,1.21,1.21,1.23
27.77,5.47,4.25,5.47,4.25,-4.28,-4.49,-4.51,1.19,1.19,1.22
28.05,5.48,4.27,5.50,4.28,-4.31,-4.52,-4.60,1.17,1.19,1.22
28.33,5.55,4.35,5.54,4.33,-4.35,-4.54,-4.68,1.20,1.19,1.20
28.62,5.61,4.40,5.61,4.40,-4.41,-4.57,-4.75,1.20,1.20,1.21
28.90,5.68,4.47,5.68,4.47,-4.46,-4.60,-4.83,1.22,1.21,1.21
29.19,5.74,4.54,5.74,4.53,-4.52,-4.62,-4.90,1.22,1.22,1.20
29.48,5.80,4.59,5.80,4.60,-4.58,-4.65,-4.97,1.22,1.22,1.21
29.78,5.86,4.65,5.86,4.65,-4.63,-4.67,-5.03,1.23,1.23,1.21
30.08,5.90,4.69,5.89,4.68,-4.67,-4.70,-5.09,1.23,1.23,1.21
30.38,5.91,4.71,5.91,4.71,-4.69,-4.72,-5.14,1.22,1.22,1.20
30.68,5.92,4.72,5.92,4.73,-4.71,-4.75,-5.19,1.21,1.21,1.20
30.99,5.93,4.74,5.93,4.74,-4.73,-4.77,-5.23,1.20,1.19,1.19
31.30,5.93,4.75,5.93,4.74,-4.76,-4.80,-5.27,1.17,1.17,1.18
31.61,5.93,4.75,5.93,4.75,-4.78,-4.82,-5.30,1.15,1.14,1.18
31.93,5.93,4.76,5.94,4.77,-4.81,-4.85,-5.33,1.12,1.13,1.17
32.24,5.98,4.82,5.99,4.83,-4.84,-4.87,-5.35,1.14,1.15,1.16
32.57,6.06,4.90,6.06,4.90,-4.88,-4.90,-5.37,1.18,1.18,1.16
32.89,6.13,4.97,6.11,4.96,-4.91,-4.92,-5.38,1.22,1.20,1.16
33.22,6.15,4.99,6.14,4.99,-4.95,-4.94,-5.39,1.20,1.19,1.16
33.55,6.15,5.00,6.15,5.00,-5.00,-4.97,-5.40,1.15,1.15,1.15
33.89,6.15,5.00,6.16,5.01,-5.04,-4.99,-5.40,1.11,1.12,1.15
34.23,6.19,5.04,6.20,5.05,-5.08,-5.02,-5.40,1.11,1.11,1.15
34.57,6.25,5.11,6.25,5.10,-5.12,-5.04,-5.40,1.13,1.13,1.14
34.92,6.31,5.17,6.30,5.16,-5.14,-5.07,-5.39,1.17,1.16,1.14
35.27,6.34,5.20,6.34,5.21,-5.17,-5.10,-5.38,1.17,1.17,1.14
35.62,6.36,5.24,6.36,5.24,-5.20,-5.12,-5.37,1.16,1.16,1.12
35.97,6.38,5.26,6.37,5.25,-5.24,-5.15,-5.36,1.14,1.13,1.12
36.33,6.38,5.26,6.37,5.26,-5.28,-5.18,-5.36,1.10,1.09,1.12
36.70,6.38,5.26,6.38,5.27,-5.32,-5.20,-5.35,1.06,1.06,1.12
37.06,6.39,5.29,6.42,5.31,-5.35,-5.23,-5.34,1.04,1.06,1.10
37.43,6.48,5.38,6.48,5.38,-5.39,-5.26,-5.33,1.09,1.09,1.10
37.81,6.57,5.47,6.55,5.46,-5.42,-5.29,-5.32,1.15,1.13,1.10
38.19,6.61,5.52,6.60,5.51,-5.45,-5.32,-5.32,1.16,1.15,1.09
38.57,6.61,5.53,6.62,5.53,-5.49,-5.35,-5.31,1.12,1.13,1.08
38.95,6.61,5.53,6.61,5.54,-5.53,-5.38,-5.31,1.08,1.08,1.08
39.34,6.61,5.54,6.60,5.53,-5.57,-5.41,-5.31,1.04,1.03,1.07
39.74,6.61,5.55,6.62,5.55,-5.61,-5.45,-5.31,1.00,1.01,1.06
40.14,6.64,5.58,6.66,5.60,-5.64,-5.48,-5.32,1.00,1.02,1.06
40.54,6.73,5.67,6.73,5.67,-5.67,-5.52,-5.33,1.05,1.05,1.06
40.94,6.82,5.76,6.79,5.74,-5.71,-5.55,-5.34,1.11,1.08,1.06
41.35,6.83,5.79,6.83,5.79,-5.75,-5.59,-5.36,1.08,1.08,1.04
41.76,6.84,5.81,6.84,5.82,-5.79,-5.63,-5.38,1.05,1.06,1.03
42.18,6.84,5.83,6.84,5.83,-5.82,-5.67,-5.40,1.02,1.02,1.01
42.60,6.84,5.85,6.84,5.85,-5.85,-5.70,-5.43,0.99,0.99,0.99
43.03,6.84,5.86,6.84,5.87,-5.87,-5.75,-5.46,0.97,0.97,0.98
43.46,6.84,5.89,6.84,5.89,-5.90,-5.79,-5.49,0.94,0.94,0.95
43.90,6.84,5.93,6.84,5.92,-5.94,-5.83,-5.53,0.90,0.89,0.91
44.33,6.84,5.96,6.83,5.95,-5.99,-5.87,-5.58,0.85,0.84,0.88
44.78,6.84,5.99,6.86,6.01,-6.05,-5.92,-5.62,0.79,0.81,0.85
45.23,6.89,6.07,6.91,6.09,-6.11,-5.97,-5.67,0.78,0.81,0.82
45.68,7.00,6.20,6.98,6.18,-6.16,-6.01,-5.73,0.84,0.82,0.80
46.13,7.07,6.29,7.05,6.26,-6.22,-6.06,-5.79,0.85,0.83,0.78
46.60,7.07,6.29,7.08,6.31,-6.26,-6.11,-5.85,0.81,0.82,0.78
47.06,7.07,6.31,7.08,6.31,-6.30,-6.16,-5.92,0.77,0.78,0.76
47.53,7.07,6.32,7.07,6.31,-6.32,-6.21,-5.99,0.75,0.75,0.75
48.01,7.07,6.31,7.07,6.32,-6.33,-6.27,-6.07,0.74,0.74,0.76
48.49,7.07,6.32,7.07,6.32,-6.34,-6.32,-6.14,0.73,0.73,0.75
48.97,7.07,6.33,7.07,6.33,-6.33,-6.37,-6.23,0.74,0.74,0.74
49.46,7.07,6.33,7.07,6.33,-6.32,-6.43,-6.31,0.75,0.75,0.74
49.96,7.07,6.33,7.07,6.33,-6.31,-6.49,-6.40,0.76,0.76,0.74
50.46,7.07,6.32,7.07,6.32,-6.30,-6.54,-6.49,0.77,0.77,0.75
50.96,7.07,6.31,7.07,6.31,-6.31,-6.60,-6.58,0.76,0.76,0.76
51.47,7.07,6.31,7.07,6.31,-6.32,-6.66,-6.68,0.75,0.75,0.76
51.99,7.07,6.32,7.06,6.31,-6.35,-6.72,-6.77,0.72,0.71,0.75
52.51,7.07,6.33,7.07,6.33,-6.38,-6.78,-6.87,0.69,0.69,0.74
53.03,7.08,6.36,7.12,6.40,-6.43,-6.85,-6.97,0.65,0.69,0.72
53.56,7.19,6.50,7.19,6.50,-6.48,-6.91,-7.07,0.71,0.70,0.69
54.10,7.29,6.64,7.25,6.60,-6.56,-6.97,-7.17,0.73,0.69,0.65
54.64,7.29,6.68,7.29,6.68,-6.65,-7.04,-7.27,0.64,0.64,0.61
55.18,7.29,6.72,7.29,6.72,-6.74,-7.10,-7.37,0.55,0.55,0.57
55.74,7.29,6.77,7.32,6.79,-6.84,-7.16,-7.46,0.45,0.48,0.52
56.29,7.36,6.88,7.38,6.91,-6.92,-7.23,-7.56,0.44,0.46,0.48
56.86,7.49,7.06,7.45,7.03,-7.01,-7.29,-7.65,0.48,0.45,0.43
57.42,7.52,7.16,7.51,7.14,-7.09,-7.36,-7.73,0.43,0.42,0.36
58.00,7.52,7.21,7.53,7.22,-7.17,-7.42,-7.81,0.35,0.36,0.31
58.58,7.52,7.26,7.52,7.25,-7.26,-7.48,-7.89,0.26,0.25,0.26
59.16,7.52,7.30,7.51,7.30,-7.35,-7.55,-7.96,0.17,0.16,0.22
59.76,7.52,7.36,7.55,7.39,-7.44,-7.61,-8.02,0.08,0.11,0.16
60.35,7.60,7.50,7.62,7.52,-7.53,-7.67,-8.08,0.07,0.09,0.10
60.96,7.74,7.69,7.69,7.65,-7.62,-7.73,-8.13,0.12,0.07,0.05
61.57,7.75,7.76,7.74,7.75,-7.72,-7.79,-8.18,0.03,0.02,-0.01
62.18,7.75,7.82,7.76,7.82,-7.83,-7.85,-8.21,-0.08,-0.07,-0.07
62.80,7.75,7.85,7.79,7.90,-7.93,-7.91,-8.24,-0.18,-0.14,-0.10
63.43,7.85,8.00,7.86,8.01,-8.02,-7.96,-8.26,-0.17,-0.16,-0.15
64.07,7.98,8.17,7.93,8.12,-8.10,-8.02,-8.27,-0.12,-0.17,-0.19
64.71,7.98,8.20,7.98,8.21,-8.16,-8.07,-8.28,-0.18,-0.17,-0.22
65.35,7.98,8.24,7.99,8.25,-8.21,-8.12,-8.28,-0.23,-0.21,-0.26
66.01,7.98,8.27,7.98,8.27,-8.26,-8.17,-8.27,-0.28,-0.28,-0.29
66.67,7.98,8.30,7.98,8.30,-8.31,-8.22,-8.26,-0.33,-0.33,-0.32
67.33,7.98,8.32,7.97,8.31,-8.35,-8.26,-8.24,-0.37,-0.38,-0.34
68.01,7.98,8.34,7.98,8.34,-8.40,-8.30,-8.21,-0.42,-0.42,-0.36
68.69,7.99,8.37,8.02,8.40,-8.45,-8.34,-8.18,-0.46,-0.42,-0.38
69.37,8.08,8.48,8.09,8.49,-8.49,-8.37,-8.15,-0.41,-0.40,-0.40
70.07,8.21,8.63,8.16,8.58,-8.54,-8.41,-8.12,-0.33,-0.38,-0.42
70.77,8.21,8.64,8.21,8.64,-8.59,-8.44,-8.08,-0.38,-0.38,-0.43
71.48,8.21,8.66,8.22,8.67,-8.64,-8.46,-8.04,-0.43,-0.42,-0.45
72.19,8.21,8.67,8.21,8.67,-8.68,-8.49,-8.00,-0.47,-0.47,-0.46
72.91,8.21,8.70,8.21,8.69,-8.71,-8.51,-7.96,-0.50,-0.50,-0.49
73.64,8.21,8.71,8.21,8.71,-8.73,-8.53,-7.92,-0.52,-0.52,-0.50
74.38,8.21,8.73,8.21,8.73,-8.74,-8.54,-7.88,-0.53,-0.53,-0.52
75.12,8.21,8.75,8.21,8.75,-8.75,-8.56,-7.85,-0.54,-0.54,-0.54
75.87,8.21,8.77,8.21,8.77,-8.77,-8.57,-7.81,-0.56,-0.56,-0.56
76.63,8.21,8.79,8.21,8.79,-8.78,-8.57,-7.78,-0.57,-0.57,-0.58
77.40,8.21,8.79,8.21,8.80,-8.80,-8.58,-7.75,-0.59,-0.59,-0.58
78.17,8.21,8.81,8.21,8.81,-8.81,-8.58,-7.73,-0.60,-0.60,-0.60
78.95,8.21,8.81,8.21,8.81,-8.82,-8.58,-7.70,-0.61,-0.61,-0.60
79.74,8.21,8.81,8.21,8.82,-8.83,-8.57,-7.69,-0.62,-0.62,-0.60
80.54,8.21,8.82,8.21,8.82,-8.83,-8.57,-7.67,-0.62,-0.62,-0.61
81.35,8.21,8.82,8.21,8.82,-8.81,-8.56,-7.66,-0.60,-0.60,-0.61
82.16,8.21,8.81,8.22,8.83,-8.78,-8.55,-7.66,-0.57,-0.56,-0.60
82.98,8.21,8.79,8.21,8.80,-8.75,-8.53,-7.66,-0.54,-0.54,-0.58
83.81,8.21,8.79,8.16,8.73,-8.70,-8.52,-7.67,-0.49,-0.55,-0.58
84.65,8.06,8.63,8.08,8.65,-8.66,-8.51,-7.68,-0.60,-0.57,-0.57
85.50,7.98,8.52,8.01,8.56,-8.61,-8.49,-7.69,-0.63,-0.60,-0.54
86.35,7.98,8.51,7.97,8.50,-8.57,-8.47,-7.72,-0.59,-0.60,-0.53
87.22,7.98,8.49,7.97,8.48,-8.52,-8.45,-7.74,-0.54,-0.55,-0.51
88.09,7.98,8.48,7.98,8.47,-8.48,-8.44,-7.78,-0.50,-0.49,-0.50
88.97,7.98,8.44,7.99,8.46,-8.42,-8.42,-7.82,-0.44,-0.43,-0.46
89.86,7.98,8.43,7.97,8.42,-8.36,-8.40,-7.86,-0.38,-0.39,-0.45
90.76,7.96,8.40,7.93,8.36,-8.30,-8.38,-7.91,-0.34,-0.38,-0.44
91.66,7.82,8.24,7.85,8.28,-8.24,-8.36,-7.97,-0.42,-0.39,-0.42
92.58,7.75,8.18,7.74,8.16,-8.18,-8.34,-8.03,-0.43,-0.43,-0.43
93.51,7.65,8.06,7.64,8.04,-8.11,-8.32,-8.10,-0.46,-0.47,-0.40
94.44,7.54,7.94,7.57,7.97,-8.04,-8.30,-8.17,-0.50,-0.47,-0.40
95.39,7.52,7.92,7.53,7.93,-7.98,-8.29,-8.25,-0.46,-0.45,-0.40
96.34,7.52,7.94,7.52,7.93,-7.92,-8.27,-8.33,-0.40,-0.40,-0.42
97.30,7.52,7.94,7.50,7.92,-7.87,-8.26,-8.42,-0.35,-0.37,-0.42
98.28,7.47,7.90,7.44,7.87,-7.82,-8.25,-8.52,-0.35,-0.37,-0.43
99.26,7.33,7.76,7.37,7.81,-7.77,-8.24,-8.62,-0.44,-0.40,-0.43
100.25,7.28,7.72,7.27,7.71,-7.72,-8.23,-8.72,-0.44,-0.45,-0.44
101.25,7.21,7.67,7.18,7.64,-7.67,-8.22,-8.82,-0.46,-0.49,-0.46
102.27,7.07,7.55,7.12,7.61,-7.62,-8.21,-8.93,-0.55,-0.49,-0.48
103.29,7.07,7.58,7.05,7.56,-7.56,-8.21,-9.05,-0.49,-0.51,-0.51
104.32,7.02,7.55,6.98,7.51,-7.51,-8.21,-9.16,-0.49,-0.53,-0.53
105.37,6.90,7.46,6.92,7.48,-7.46,-8.21,-9.28,-0.56,-0.54,-0.56
106.42,6.84,7.44,6.88,7.48,-7.43,-8.22,-9.40,-0.59,-0.55,-0.60
107.48,6.84,7.49,6.83,7.48,-7.43,-8.22,-9.52,-0.59,-0.60,-0.65
108.56,6.84,7.55,6.76,7.47,-7.48,-8.23,-9.64,-0.64,-0.72,-0.71
109.64,6.69,7.45,6.71,7.47,-7.57,-8.25,-9.75,-0.88,-0.86,-0.76
110.74,6.62,7.43,6.69,7.50,-7.69,-8.26,-9.87,-1.07,-1.00,-0.81
111.85,6.82,7.67,6.80,7.66,-7.82,-8.28,-9.98,-1.00,-1.02,-0.86
112.97,6.98,7.90,7.05,7.97,-7.94,-8.30,-10.09,-0.96,-0.89,-0.92
114.10,7.34,8.31,7.28,8.26,-8.06,-8.33,-10.19,-0.72,-0.78,-0.97
115.24,7.49,8.52,7.41,8.44,-8.18,-8.36,-10.28,-0.69,-0.77,-1.03
116.39,7.36,8.45,7.39,8.48,-8.31,-8.39,-10.37,-0.95,-0.92,-1.09
117.55,7.28,8.42,7.24,8.38,-8.43,-8.43,-10.45,-1.16,-1.19,-1.14
118.73,7.12,8.30,7.19,8.37,-8.55,-8.46,-10.52,-1.43,-1.37,-1.18
119.92,7.18,8.39,7.27,8.48,-8.66,-8.51,-10.58,-1.49,-1.40,-1.21
121.12,7.53,8.78,7.44,8.68,-8.78,-8.55,-10.62,-1.25,-1.34,-1.25
122.33,7.67,8.94,7.66,8.93,-8.91,-8.60,-10.65,-1.24,-1.25,-1.27
123.55,7.85,9.13,7.85,9.14,-9.07,-8.65,-10.67,-1.22,-1.21,-1.28
124.79,7.97,9.27,7.98,9.28,-9.24,-8.71,-10.68,-1.27,-1.25,-1.31
126.03,8.13,9.45,8.13,9.45,-9.40,-8.77,-10.67,-1.27,-1.27,-1.32
127.29,8.25,9.59,8.26,9.60,-9.55,-8.83,-10.65,-1.30,-1.29,-1.33
128.57,8.38,9.74,8.36,9.72,-9.67,-8.90,-10.61,-1.29,-1.30,-1.36
129.85,8.43,9.80,8.41,9.78,-9.77,-8.96,-10.56,-1.34,-1.36,-1.37
131.15,8.43,9.82,8.44,9.82,-9.87,-9.04,-10.50,-1.44,-1.43,-1.39
132.46,8.43,9.84,8.47,9.88,-9.96,-9.11,-10.43,-1.53,-1.49,-1.41
133.79,8.57,9.99,8.56,9.98,-10.06,-9.19,-10.35,-1.49,-1.50,-1.42
135.12,8.67,10.12,8.69,10.13,-10.14,-9.27,-10.26,-1.47,-1.45,-1.45
136.48,8.83,10.29,8.81,10.27,-10.22,-9.35,-10.16,-1.39,-1.42,-1.46
137.84,8.89,10.37,8.87,10.36,-10.30,-9.43,-10.05,-1.41,-1.43,-1.48
139.22,8.89,10.41,8.90,10.42,-10.38,-9.52,-9.94,-1.49,-1.47,-1.52
140.61,8.89,10.44,8.90,10.44,-10.44,-9.60,-9.82,-1.55,-1.54,-1.55
142.02,8.89,10.45,8.89,10.46,-10.48,-9.69,-9.70,-1.59,-1.59,-1.56
143.44,8.89,10.48,8.89,10.48,-10.50,-9.78,-9.57,-1.61,-1.61,-1.59
144.87,8.89,10.51,8.90,10.51,-10.51,-9.87,-9.45,-1.62,-1.61,-1.62
146.32,8.89,10.54,8.87,10.52,-10.50,-9.95,-9.32,-1.61,-1.63,-1.65
147.78,8.84,10.52,8.81,10.50,-10.50,-10.04,-9.19,-1.66,-1.69,-1.68
149.26,8.72,10.45,8.76,10.49,-10.50,-10.12,-9.07,-1.78,-1.74,-1.73
150.75,8.66,10.46,8.68,10.47,-10.50,-10.20,-8.94,-1.84,-1.82,-1.80
152.26,8.65,10.50,8.60,10.45,-10.49,-10.28,-8.82,-1.84,-1.89,-1.85
153.78,8.51,10.43,8.54,10.46,-10.47,-10.35,-8.70,-1.96,-1.93,-1.92
155.32,8.44,10.44,8.46,10.46,-10.45,-10.42,-8.59,-2.01,-1.98,-2.00
156.88,8.41,10.47,8.37,10.43,-10.41,-10.49,-8.48,-2.00,-2.04,-2.06
158.44,8.27,10.39,8.28,10.41,-10.35,-10.54,-8.37,-2.08,-2.08,-2.12
160.03,8.14,10.33,8.14,10.33,-10.29,-10.59,-8.26,-2.15,-2.14,-2.19
161.63,8.01,10.25,8.00,10.24,-10.21,-10.63,-8.16,-2.20,-2.21,-2.24
163.24,7.84,10.12,7.86,10.13,-10.14,-10.67,-8.07,-2.30,-2.28,-2.28
164.88,7.75,10.06,7.71,10.02,-10.06,-10.69,-7.98,-2.31,-2.35,-2.31
166.53,7.57,9.91,7.60,9.94,-9.99,-10.70,-7.90,-2.42,-2.39,-2.34
168.19,7.52,9.87,7.54,9.89,-9.93,-10.70,-7.82,-2.41,-2.40,-2.35
169.87,7.52,9.88,7.51,9.87,-9.89,-10.69,-7.75,-2.37,-2.38,-2.36
171.57,7.52,9.88,7.52,9.87,-9.86,-10.67,-7.68,-2.34,-2.34,-2.36
173.29,7.52,9.87,7.52,9.87,-9.84,-10.64,-7.62,-2.32,-2.32,-2.35
175.02,7.52,9.84,7.52,9.85,-9.84,-10.60,-7.56,-2.32,-2.32,-2.32
176.77,7.52,9.84,7.52,9.84,-9.84,-10.54,-7.51,-2.32,-2.32,-2.32
178.54,7.52,9.83,7.52,9.82,-9.84,-10.47,-7.46,-2.32,-2.32,-2.31
180.32,7.52,9.81,7.52,9.81,-9.82,-10.39,-7.42,-2.30,-2.30,-2.29
182.13,7.52,9.80,7.54,9.81,-9.79,-10.30,-7.39,-2.27,-2.26,-2.28
183.95,7.52,9.79,7.52,9.79,-9.76,-10.20,-7.36,-2.24,-2.24,-2.27
185.79,7.52,9.79,7.47,9.74,-9.72,-10.09,-7.34,-2.20,-2.25,-2.27
187.65,7.36,9.65,7.40,9.69,-9.68,-9.97,-7.32,-2.32,-2.28,-2.29
189.52,7.30,9.60,7.31,9.61,-9.63,-9.84,-7.30,-2.33,-2.33,-2.30
191.42,7.24,9.55,7.21,9.52,-9.57,-9.71,-7.29,-2.33,-2.36,-2.31
193.33,7.12,9.44,7.15,9.47,-9.49,-9.57,-7.29,-2.37,-2.33,-2.32
195.27,7.07,9.40,7.10,9.43,-9.40,-9.42,-7.29,-2.33,-2.29,-2.33
197.22,7.07,9.41,7.02,9.36,-9.30,-9.27,-7.29,-2.23,-2.29,-2.34
199.19,6.93,9.30,6.90,9.26,-9.21,-9.11,-7.30,-2.28,-2.31,-2.37
201.18,6.70,9.07,6.74,9.11,-9.12,-8.95,-7.31,-2.42,-2.39,-2.37
203.19,6.56,8.94,6.56,8.95,-9.03,-8.79,-7.33,-2.47,-2.47,-2.38
205.23,6.44,8.84,6.46,8.85,-8.93,-8.62,-7.35,-2.48,-2.47,-2.40
207.28,6.38,8.78,6.41,8.82,-8.81,-8.46,-7.37,-2.43,-2.40,-2.40
209.35,6.38,8.80,6.32,8.74,-8.70,-8.29,-7.39,-2.32,-2.37,-2.42
211.44,6.25,8.69,6.22,8.65,-8.58,-8.12,-7.41,-2.33,-2.36,-2.44
213.56,6.01,8.45,6.07,8.51,-8.47,-7.96,-7.43,-2.46,-2.40,-2.44
215.69,5.93,8.36,5.89,8.33,-8.36,-7.79,-7.46,-2.43,-2.47,-2.43
217.85,5.72,8.17,5.74,8.19,-8.24,-7.62,-7.48,-2.52,-2.50,-2.45
220.03,5.61,8.07,5.62,8.08,-8.11,-7.46,-7.50,-2.50,-2.49,-2.46
222.23,5.51,7.99,5.49,7.96,-7.96,-7.29,-7.52,-2.45,-2.47,-2.48
224.45,5.36,7.83,5.38,7.86,-7.82,-7.13,-7.54,-2.46,-2.44,-2.47
226.70,5.25,7.72,5.23,7.70,-7.68,-6.97,-7.56,-2.43,-2.45,-2.47
228.96,5.09,7.57,5.07,7.54,-7.54,-6.81,-7.57,-2.45,-2.47,-2.48
231.25,4.86,7.33,4.90,7.38,-7.39,-6.65,-7.57,-2.53,-2.49,-2.47
233.57,4.76,7.24,4.73,7.21,-7.24,-6.50,-7.57,-2.48,-2.51,-2.48
235.90,4.57,7.06,4.59,7.07,-7.08,-6.35,-7.57,-2.51,-2.50,-2.49
238.26,4.45,6.93,4.47,6.95,-6.93,-6.20,-7.55,-2.48,-2.46,-2.48
240.64,4.35,6.83,4.31,6.78,-6.77,-6.05,-7.53,-2.42,-2.46,-2.48
243.05,4.17,6.63,4.16,6.63,-6.62,-5.91,-7.50,-2.45,-2.46,-2.46
245.48,3.94,6.40,3.99,6.45,-6.47,-5.77,-7.47,-2.53,-2.48,-2.46
247.93,3.87,6.31,3.84,6.29,-6.31,-5.63,-7.42,-2.44,-2.48,-2.44
250.41,3.69,6.14,3.71,6.15,-6.15,-5.49,-7.37,-2.46,-2.44,-2.45
252.92,3.60,6.03,3.60,6.02,-5.98,-5.36,-7.30,-2.38,-2.39,-2.43
255.45,3.45,5.86,3.43,5.84,-5.82,-5.23,-7.23,-2.37,-2.39,-2.41
258.00,3.28,5.68,3.27,5.67,-5.65,-5.10,-7.15,-2.37,-2.38,-2.40
260.58,3.05,5.44,3.09,5.48,-5.49,-4.98,-7.06,-2.44,-2.40,-2.39
263.19,2.96,5.34,2.93,5.31,-5.33,-4.85,-6.96,-2.37,-2.40,-2.38
265.82,2.76,5.13,2.78,5.15,-5.17,-4.73,-6.85,-2.41,-2.39,-2.37
268.48,2.68,5.03,2.67,5.03,-5.02,-4.62,-6.74,-2.34,-2.35,-2.35
271.16,2.55,4.88,2.57,4.90,-4.89,-4.50,-6.62,-2.34,-2.33,-2.33
273.87,2.51,4.82,2.48,4.78,-4.79,-4.39,-6.49,-2.28,-2.31,-2.31
276.61,2.38,4.66,2.39,4.67,-4.70,-4.28,-6.36,-2.32,-2.31,-2.28
279.38,2.30,4.56,2.32,4.58,-4.63,-4.17,-6.22,-2.33,-2.30,-2.26
282.17,2.28,4.51,2.28,4.51,-4.56,-4.07,-6.08,-2.28,-2.28,-2.23
284.99,2.28,4.49,2.28,4.49,-4.49,-3.96,-5.93,-2.21,-2.21,-2.21
287.84,2.28,4.46,2.28,4.46,-4.41,-3.86,-5.78,-2.13,-2.12,-2.18
290.72,2.28,4.42,2.26,4.40,-4.31,-3.76,-5.63,-2.03,-2.06,-2.14
293.63,2.17,4.28,2.17,4.28,-4.21,-3.67,-5.48,-2.04,-2.04,-2.11
296.57,2.06,4.15,2.06,4.14,-4.09,-3.57,-5.32,-2.03,-2.04,-2.09
299.53,1.88,3.94,1.91,3.97,-3.98,-3.48,-5.17,-2.10,-2.07,-2.06
302.53,1.82,3.86,1.77,3.81,-3.87,-3.39,-5.01,-2.05,-2.10,-2.04
305.55,1.63,3.63,1.67,3.68,-3.77,-3.30,-4.86,-2.14,-2.10,-2.00
308.61,1.60,3.59,1.61,3.60,-3.68,-3.21,-4.70,-2.08,-2.06,-1.99
311.69,1.60,3.57,1.58,3.55,-3.60,-3.13,-4.54,-2.00,-2.01,-1.97
314.81,1.60,3.54,1.61,3.56,-3.52,-3.04,-4.39,-1.92,-1.91,-1.94
317.96,1.60,3.54,1.60,3.54,-3.45,-2.96,-4.23,-1.85,-1.86,-1.94
321.14,1.59,3.53,1.55,3.48,-3.39,-2.88,-4.08,-1.80,-1.85,-1.94
324.35,1.42,3.35,1.45,3.38,-3.33,-2.80,-3.93,-1.91,-1.89,-1.93
327.59,1.33,3.26,1.32,3.25,-3.28,-2.72,-3.78,-1.95,-1.96,-1.93
330.87,1.19,3.11,1.21,3.13,-3.22,-2.65,-3.63,-2.03,-2.01,-1.92
334.18,1.14,3.05,1.15,3.06,-3.15,-2.57,-3.49,-2.01,-2.00,-1.91
337.52,1.14,3.04,1.13,3.03,-3.08,-2.50,-3.34,-1.94,-1.94,-1.90
340.90,1.14,3.01,1.14,3.03,-2.99,-2.43,-3.20,-1.85,-1.85,-1.87
344.30,1.14,3.00,1.13,2.99,-2.90,-2.35,-3.06,-1.76,-1.77,-1.86
347.75,1.08,2.93,1.07,2.91,-2.81,-2.28,-2.92,-1.73,-1.74,-1.84
351.23,0.95,2.77,0.95,2.77,-2.71,-2.21,-2.78,-1.76,-1.76,-1.82
354.74,0.81,2.61,0.78,2.58,-2.60,-2.14,-2.65,-1.79,-1.82,-1.80
358.28,0.59,2.36,0.62,2.39,-2.47,-2.07,-2.51,-1.88,-1.85,-1.77
361.87,0.48,2.23,0.52,2.27,-2.34,-2.00,-2.38,-1.86,-1.82,-1.75
365.49,0.46,2.18,0.44,2.17,-2.21,-1.93,-2.25,-1.75,-1.76,-1.72
369.14,0.44,2.14,0.39,2.09,-2.07,-1.87,-2.12,-1.63,-1.68,-1.70
372.83,0.29,1.96,0.33,2.00,-1.95,-1.80,-2.00,-1.66,-1.63,-1.67
376.56,0.23,1.88,0.24,1.89,-1.84,-1.73,-1.87,-1.61,-1.61,-1.65
380.33,0.14,1.76,0.12,1.75,-1.74,-1.66,-1.75,-1.60,-1.62,-1.62
384.13,0.03,1.64,0.00,1.61,-1.64,-1.60,-1.63,-1.61,-1.64,-1.61
387.97,-0.15,1.45,-0.11,1.48,-1.52,-1.53,-1.51,-1.67,-1.64,-1.60
391.85,-0.22,1.37,-0.18,1.40,-1.41,-1.46,-1.39,-1.63,-1.59,-1.59
395.77,-0.23,1.35,-0.26,1.32,-1.29,-1.39,-1.28,-1.52,-1.55,-1.58
399.73,-0.29,1.28,-0.35,1.22,-1.19,-1.32,-1.16,-1.48,-1.54,-1.57
403.72,-0.50,1.06,-0.48,1.08,-1.08,-1.25,-1.05,-1.59,-1.56,-1.56
407.76,-0.65,0.90,-0.59,0.96,-0.99,-1.18,-0.94,-1.64,-1.57,-1.55
411.84,-0.68,0.86,-0.68,0.86,-0.88,-1.11,-0.84,-1.56,-1.57,-1.54
415.96,-0.68,0.85,-0.74,0.79,-0.78,-1.03,-0.73,-1.46,-1.52,-1.53
420.12,-0.86,0.67,-0.83,0.70,-0.67,-0.95,-0.63,-1.53,-1.50,-1.53
424.32,-0.93,0.60,-0.94,0.59,-0.57,-0.88,-0.53,-1.50,-1.51,-1.53
428.56,-1.08,0.45,-1.06,0.47,-0.48,-0.80,-0.43,-1.56,-1.54,-1.53
432.85,-1.14,0.39,-1.16,0.37,-0.40,-0.72,-0.34,-1.54,-1.56,-1.53
437.18,-1.25,0.27,-1.26,0.27,-0.31,-0.63,-0.24,-1.56,-1.57,-1.52
441.55,-1.34,0.17,-1.30,0.22,-0.22,-0.55,-0.15,-1.56,-1.52,-1.51
445.96,-1.37,0.15,-1.37,0.14,-0.13,-0.46,-0.07,-1.50,-1.49,-1.52
450.42,-1.37,0.14,-1.43,0.08,-0.03,-0.37,0.01,-1.40,-1.46,-1.51
454.93,-1.55,-0.05,-1.50,-0.01,0.05,-0.27,0.09,-1.50,-1.45,-1.50
459.48,-1.60,-0.11,-1.61,-0.12,0.13,-0.18,0.17,-1.47,-1.47,-1.49
464.07,-1.69,-0.22,-1.71,-0.24,0.21,-0.08,0.24,-1.48,-1.50,-1.47
468.71,-1.79,-0.34,-1.77,-0.32,0.28,0.02,0.30,-1.51,-1.49,-1.45
473.40,-1.82,-0.38,-1.81,-0.38,0.35,0.12,0.37,-1.47,-1.47,-1.44
478.13,-1.82,-0.41,-1.83,-0.42,0.40,0.21,0.42,-1.42,-1.43,-1.41
482.91,-1.82,-0.43,-1.82,-0.44,0.44,0.31,0.48,-1.38,-1.38,-1.39
