frequency,raw,error,smoothed,error_smoothed,equalization,parametric_eq,fixed_band_eq,equalized_raw,equalized_smoothed,target
20.00,-7.85,-9.75,-7.87,-9.77,6.00,6.19,2.83,-1.85,-1.87,1.90
20.20,-7.82,-9.75,-7.81,-9.74,6.00,6.18,2.91,-1.82,-1.81,1.93
20.40,-7.76,-9.72,-7.75,-9.71,6.00,6.17,2.99,-1.76,-1.75,1.96
20.61,-7.66,-9.64,-7.68,-9.66,6.00,6.16,3.08,-1.66,-1.68,1.98
20.81,-7.60,-9.61,-7.59,-9.60,6.00,6.15,3.16,-1.60,-1.59,2.01
21.02,-7.49,-9.53,-7.51,-9.54,6.00,6.14,3.25,-1.49,-1.51,2.04
21.23,-7.43,-9.48,-7.43,-9.48,6.00,6.13,3.34,-1.43,-1.43,2.05
21.44,-7.34,-9.40,-7.35,-9.40,6.00,6.12,3.44,-1.34,-1.35,2.06
21.66,-7.27,-9.34,-7.27,-9.33,6.00,6.10,3.54,-1.27,-1.27,2.07
21.87,-7.19,-9.26,-7.19,-9.26,6.00,6.09,3.64,-1.19,-1.19,2.07
22.09,-7.11,-9.19,-7.12,-9.19,6.00,6.08,3.74,-1.11,-1.12,2.08
22.31,-7.05,-9.13,-7.04,-9.11,6.00,6.07,3.85,-1.05,-1.04,2.07
22.54,-6.95,-9.03,-6.96,-9.04,6.00,6.06,3.96,-0.95,-0.96,2.07
22.76,-6.88,-8.96,-6.88,-8.95,6.00,6.05,4.07,-0.88,-0.88,2.07
22.99,-6.81,-8.88,-6.81,-8.87,6.00,6.04,4.19,-0.81,-0.81,2.06
23.22,-6.72,-8.79,-6.73,-8.79,6.00,6.02,4.30,-0.72,-0.73,2.06
23.45,-6.66,-8.72,-6.65,-8.71,6.00,6.01,4.42,-0.66,-0.65,2.06
23.69,-6.56,-8.62,-6.57,-8.64,6.00,6.00,4.55,-0.56,-0.57,2.06
23.92,-6.50,-8.56,-6.50,-8.56,6.00,5.99,4.67,-0.50,-0.50,2.06
24.16,-6.42,-8.49,-6.42,-8.49,6.00,5.97,4.80,-0.42,-0.42,2.07
24.40,-6.34,-8.41,-6.35,-8.42,6.00,5.96,4.93,-0.34,-0.35,2.07
24.65,-6.28,-8.34,-6.27,-8.33,6.00,5.95,5.06,-0.28,-0.27,2.06
24.89,-6.20,-8.26,-6.20,-8.25,6.00,5.94,5.20,-0.20,-0.20,2.06
25.14,-6.11,-8.17,-6.13,-8.18,6.00,5.92,5.33,-0.11,-0.13,2.05
25.39,-6.05,-8.11,-6.05,-8.10,6.00,5.91,5.47,-0.05,-0.05,2.05
25.65,-5.98,-8.04,-5.97,-8.02,6.00,5.90,5.61,0.02,0.03,2.05
25.91,-5.89,-7.94,-5.90,-7.95,6.00,5.88,5.74,0.11,0.10,2.04
26.16,-5.83,-7.87,-5.83,-7.87,6.00,5.87,5.88,0.17,0.17,2.04
26.43,-5.76,-7.80,-5.76,-7.80,6.00,5.85,6.02,0.24,0.24,2.04
26.69,-5.69,-7.73,-5.69,-7.73,6.00,5.84,6.15,0.31,0.31,2.04
26.96,-5.61,-7.65,-5.62,-7.66,6.00,5.83,6.29,0.39,0.38,2.04
27.23,-5.54,-7.58,-5.54,-7.58,6.00,5.81,6.42,0.46,0.46,2.04
27.50,-5.47,-7.51,-5.47,-7.50,6.00,5.80,6.55,0.53,0.53,2.03
27.77,-5.39,-7.42,-5.40,-7.43,6.00,5.78,6.67,0.61,0.60,2.02
28.05,-5.33,-7.35,-5.33,-7.35,6.00,5.77,6.80,0.67,0.67,2.02
28.33,-5.27,-7.28,-5.26,-7.28,6.00,5.75,6.91,0.73,0.74,2.01
28.62,-5.19,-7.20,-5.20,-7.20,6.00,5.74,7.02,0.81,0.80,2.01
28.90,-5.12,-7.13,-5.12,-7.13,6.00,5.72,7.12,0.88,0.88,2.01
29.19,-5.05,-7.05,-5.05,-7.05,6.00,5.71,7.21,0.95,0.95,2.00
29.48,-4.98,-6.99,-4.99,-6.98,6.00,5.69,7.29,1.02,1.01,2.00
29.78,-4.92,-6.92,-4.92,-6.91,6.00,5.67,7.37,1.08,1.08,1.99
30.08,-4.85,-6.84,-4.85,-6.84,6.00,5.66,7.43,1.15,1.15,1.99
30.38,-4.78,-6.76,-4.79,-6.77,6.00,5.64,7.48,1.22,1.21,1.98
30.68,-4.72,-6.70,-4.72,-6.69,6.00,5.62,7.52,1.28,1.28,1.98
30.99,-4.65,-6.62,-4.65,-6.62,6.00,5.61,7.55,1.35,1.35,1.96
31.30,-4.58,-6.55,-4.59,-6.55,6.00,5.59,7.56,1.42,1.41,1.96
31.61,-4.51,-6.47,-4.51,-6.47,6.00,5.57,7.57,1.49,1.49,1.96
31.93,-4.45,-6.40,-4.45,-6.40,6.00,5.56,7.55,1.55,1.55,1.95
32.24,-4.38,-6.32,-4.39,-6.33,6.00,5.54,7.54,1.62,1.61,1.93
32.57,-4.34,-6.28,-4.34,-6.27,6.01,5.52,7.50,1.66,1.67,1.93
32.89,-4.28,-6.21,-4.28,-6.21,6.01,5.50,7.46,1.73,1.72,1.93
33.22,-4.23,-6.15,-4.23,-6.15,6.00,5.49,7.41,1.77,1.78,1.92
33.55,-4.17,-6.09,-4.17,-6.09,5.99,5.47,7.35,1.82,1.82,1.91
33.89,-4.12,-6.02,-4.13,-6.04,5.98,5.45,7.27,1.86,1.85,1.90
34.23,-4.09,-5.99,-4.09,-5.99,5.96,5.43,7.19,1.87,1.87,1.90
34.57,-4.06,-5.95,-4.05,-5.94,5.93,5.41,7.11,1.87,1.88,1.89
34.92,-4.01,-5.89,-4.02,-5.90,5.90,5.39,7.02,1.89,1.88,1.87
35.27,-3.98,-5.85,-3.99,-5.85,5.87,5.38,6.92,1.88,1.88,1.87
35.62,-3.97,-5.83,-3.96,-5.82,5.83,5.36,6.82,1.86,1.86,1.86
35.97,-3.93,-5.77,-3.94,-5.79,5.79,5.34,6.71,1.86,1.85,1.84
36.33,-3.93,-5.77,-3.92,-5.75,5.75,5.32,6.60,1.82,1.83,1.84
36.70,-3.88,-5.71,-3.90,-5.72,5.72,5.30,6.49,1.84,1.83,1.82
37.06,-3.88,-5.69,-3.87,-5.69,5.69,5.28,6.38,1.81,1.82,1.81
37.43,-3.85,-5.66,-3.86,-5.66,5.66,5.26,6.27,1.81,1.81,1.81
37.81,-3.84,-5.63,-3.85,-5.64,5.64,5.24,6.16,1.79,1.79,1.79
38.19,-3.84,-5.62,-3.83,-5.61,5.61,5.22,6.05,1.77,1.78,1.78
38.57,-3.80,-5.58,-3.82,-5.59,5.58,5.20,5.94,1.78,1.76,1.77
38.95,-3.80,-5.56,-3.80,-5.56,5.56,5.17,5.83,1.75,1.75,1.76
39.34,-3.80,-5.54,-3.79,-5.53,5.53,5.15,5.73,1.72,1.74,1.74
39.74,-3.75,-5.48,-3.77,-5.50,5.50,5.13,5.63,1.75,1.73,1.73
40.14,-3.75,-5.47,-3.75,-5.47,5.47,5.11,5.52,1.72,1.72,1.72
40.54,-3.72,-5.43,-3.72,-5.43,5.44,5.09,5.43,1.72,1.71,1.71
40.94,-3.71,-5.41,-3.71,-5.41,5.41,5.06,5.33,1.69,1.70,1.70
41.35,-3.68,-5.37,-3.69,-5.37,5.37,5.04,5.24,1.69,1.69,1.68
41.76,-3.67,-5.35,-3.66,-5.34,5.34,5.02,5.15,1.67,1.68,1.68
42.18,-3.62,-5.29,-3.64,-5.30,5.30,5.00,5.07,1.68,1.67,1.67
42.60,-3.61,-5.27,-3.61,-5.27,5.26,4.97,4.98,1.65,1.66,1.65
43.03,-3.58,-5.23,-3.58,-5.22,5.22,4.95,4.91,1.64,1.64,1.65
43.46,-3.54,-5.17,-3.55,-5.18,5.17,4.93,4.83,1.63,1.62,1.63
43.90,-3.52,-5.13,-3.52,-5.13,5.12,4.90,4.76,1.60,1.60,1.60
44.33,-3.49,-5.08,-3.49,-5.07,5.07,4.88,4.69,1.58,1.58,1.58
44.78,-3.45,-5.02,-3.45,-5.02,5.02,4.85,4.63,1.57,1.57,1.57
45.23,-3.41,-4.96,-3.42,-4.96,4.97,4.83,4.57,1.56,1.55,1.55
45.68,-3.38,-4.91,-3.38,-4.91,4.92,4.80,4.51,1.54,1.54,1.53
46.13,-3.35,-4.86,-3.35,-4.86,4.87,4.77,4.46,1.52,1.52,1.51
46.60,-3.32,-4.83,-3.33,-4.82,4.83,4.75,4.41,1.50,1.50,1.50
47.06,-3.29,-4.78,-3.30,-4.78,4.78,4.72,4.36,1.48,1.48,1.48
47.53,-3.28,-4.75,-3.27,-4.74,4.73,4.70,4.32,1.45,1.46,1.46
48.01,-3.23,-4.69,-3.25,-4.69,4.68,4.67,4.28,1.45,1.44,1.45
48.49,-3.22,-4.64,-3.22,-4.64,4.63,4.64,4.24,1.41,1.42,1.42
48.97,-3.19,-4.58,-3.19,-4.58,4.58,4.61,4.20,1.39,1.39,1.39
49.46,-3.16,-4.52,-3.17,-4.53,4.53,4.58,4.17,1.37,1.36,1.36
49.96,-3.15,-4.48,-3.14,-4.48,4.48,4.56,4.14,1.33,1.34,1.33
50.46,-3.10,-4.42,-3.12,-4.43,4.43,4.53,4.12,1.33,1.31,1.31
50.96,-3.09,-4.39,-3.09,-4.38,4.38,4.50,4.09,1.28,1.29,1.29
51.47,-3.06,-4.32,-3.06,-4.32,4.32,4.47,4.07,1.26,1.26,1.26
51.99,-3.03,-4.27,-3.04,-4.28,4.27,4.44,4.05,1.24,1.23,1.24
52.51,-3.00,-4.23,-3.00,-4.22,4.22,4.41,4.03,1.21,1.21,1.22
53.03,-2.97,-4.17,-2.97,-4.17,4.16,4.37,4.01,1.19,1.19,1.20
53.56,-2.93,-4.11,-2.93,-4.11,4.10,4.34,3.99,1.17,1.17,1.17
54.10,-2.89,-4.04,-2.90,-4.04,4.05,4.31,3.97,1.15,1.15,1.15
54.64,-2.86,-3.98,-2.86,-3.98,3.99,4.28,3.96,1.12,1.12,1.12
55.18,-2.83,-3.93,-2.83,-3.93,3.93,4.24,3.94,1.10,1.10,1.09
55.74,-2.80,-3.87,-2.80,-3.87,3.87,4.21,3.92,1.07,1.07,1.07
56.29,-2.77,-3.82,-2.77,-3.82,3.82,4.17,3.90,1.04,1.05,1.05
56.86,-2.74,-3.77,-2.74,-3.76,3.77,4.14,3.89,1.02,1.02,1.02
57.42,-2.71,-3.71,-2.72,-3.71,3.72,4.10,3.87,1.01,1.00,0.99
58.00,-2.69,-3.67,-2.69,-3.66,3.67,4.07,3.84,0.98,0.98,0.97
58.58,-2.67,-3.63,-2.67,-3.62,3.63,4.03,3.82,0.95,0.96,0.95
59.16,-2.64,-3.58,-2.65,-3.59,3.58,3.99,3.80,0.94,0.93,0.93
59.76,-2.63,-3.55,-2.63,-3.54,3.54,3.96,3.77,0.90,0.90,0.91
60.35,-2.63,-3.51,-2.61,-3.50,3.49,3.92,3.74,0.86,0.88,0.88
60.96,-2.58,-3.44,-2.60,-3.45,3.45,3.88,3.71,0.86,0.84,0.86
61.57,-2.58,-3.40,-2.58,-3.40,3.40,3.84,3.67,0.82,0.82,0.82
62.18,-2.58,-3.36,-2.57,-3.35,3.36,3.80,3.63,0.77,0.79,0.78
62.80,-2.54,-3.30,-2.56,-3.31,3.31,3.76,3.59,0.77,0.75,0.76
63.43,-2.54,-3.26,-2.54,-3.27,3.27,3.71,3.55,0.73,0.73,0.72
64.07,-2.54,-3.24,-2.53,-3.23,3.23,3.67,3.50,0.69,0.70,0.70
64.71,-2.52,-3.19,-2.53,-3.20,3.20,3.63,3.45,0.67,0.67,0.67
65.35,-2.52,-3.16,-2.53,-3.17,3.17,3.58,3.40,0.64,0.64,0.64
66.01,-2.52,-3.14,-2.53,-3.14,3.14,3.54,3.34,0.62,0.62,0.61
66.67,-2.54,-3.13,-2.53,-3.12,3.12,3.49,3.28,0.58,0.59,0.58
67.33,-2.54,-3.10,-2.55,-3.10,3.10,3.45,3.22,0.56,0.56,0.55
68.01,-2.55,-3.08,-2.56,-3.08,3.09,3.40,3.16,0.53,0.53,0.52
68.69,-2.58,-3.08,-2.58,-3.07,3.08,3.35,3.09,0.49,0.50,0.49
69.37,-2.59,-3.05,-2.60,-3.06,3.06,3.30,3.02,0.47,0.46,0.46
70.07,-2.63,-3.06,-2.62,-3.05,3.05,3.26,2.95,0.42,0.43,0.43
70.77,-2.63,-3.04,-2.64,-3.04,3.04,3.21,2.88,0.40,0.40,0.40
71.48,-2.64,-3.01,-2.65,-3.02,3.02,3.15,2.81,0.38,0.36,0.37
72.19,-2.67,-3.01,-2.67,-3.00,2.99,3.10,2.73,0.32,0.33,0.33
72.91,-2.67,-2.97,-2.67,-2.97,2.96,3.05,2.66,0.29,0.29,0.30
73.64,-2.67,-2.93,-2.67,-2.93,2.92,3.00,2.58,0.25,0.26,0.26
74.38,-2.63,-2.87,-2.65,-2.88,2.88,2.94,2.51,0.24,0.23,0.23
75.12,-2.63,-2.83,-2.62,-2.82,2.82,2.89,2.43,0.19,0.20,0.20
75.87,-2.59,-2.76,-2.60,-2.76,2.76,2.83,2.35,0.17,0.17,0.17
76.63,-2.56,-2.70,-2.57,-2.70,2.70,2.78,2.28,0.13,0.13,0.14
77.40,-2.53,-2.64,-2.53,-2.63,2.63,2.72,2.20,0.10,0.10,0.11
78.17,-2.48,-2.55,-2.49,-2.56,2.56,2.66,2.13,0.08,0.07,0.06
78.95,-2.45,-2.49,-2.45,-2.49,2.49,2.60,2.05,0.04,0.04,0.04
79.74,-2.40,-2.41,-2.41,-2.41,2.42,2.55,1.98,0.02,0.01,0.01
80.54,-2.37,-2.35,-2.37,-2.35,2.35,2.49,1.90,-0.02,-0.02,-0.03
81.35,-2.34,-2.28,-2.34,-2.28,2.28,2.42,1.83,-0.06,-0.06,-0.06
82.16,-2.30,-2.21,-2.31,-2.21,2.21,2.36,1.76,-0.09,-0.10,-0.10
82.98,-2.28,-2.16,-2.28,-2.15,2.14,2.30,1.68,-0.14,-0.14,-0.12
83.81,-2.23,-2.06,-2.24,-2.07,2.06,2.24,1.61,-0.17,-0.17,-0.17
84.65,-2.20,-1.99,-2.20,-1.99,1.99,2.18,1.54,-0.22,-0.21,-0.21
85.50,-2.14,-1.91,-2.15,-1.91,1.91,2.11,1.47,-0.24,-0.24,-0.24
86.35,-2.10,-1.83,-2.10,-1.82,1.82,2.05,1.40,-0.28,-0.27,-0.28
87.22,-2.04,-1.73,-2.05,-1.73,1.74,1.98,1.34,-0.30,-0.31,-0.32
88.09,-2.00,-1.65,-2.00,-1.65,1.65,1.92,1.27,-0.35,-0.35,-0.36
88.97,-1.96,-1.58,-1.96,-1.57,1.57,1.85,1.20,-0.40,-0.39,-0.39
89.86,-1.91,-1.48,-1.92,-1.49,1.48,1.78,1.14,-0.43,-0.44,-0.43
90.76,-1.87,-1.39,-1.87,-1.40,1.40,1.72,1.08,-0.48,-0.48,-0.48
91.66,-1.83,-1.32,-1.83,-1.31,1.31,1.65,1.01,-0.52,-0.52,-0.51
92.58,-1.78,-1.22,-1.78,-1.22,1.23,1.58,0.95,-0.56,-0.56,-0.57
93.51,-1.74,-1.14,-1.74,-1.14,1.14,1.51,0.89,-0.60,-0.60,-0.60
94.44,-1.69,-1.05,-1.70,-1.05,1.05,1.45,0.83,-0.64,-0.65,-0.64
95.39,-1.66,-0.97,-1.66,-0.97,0.97,1.38,0.77,-0.69,-0.69,-0.69
96.34,-1.63,-0.89,-1.63,-0.89,0.89,1.31,0.71,-0.75,-0.74,-0.74
97.30,-1.59,-0.80,-1.59,-0.81,0.80,1.24,0.65,-0.79,-0.79,-0.79
98.28,-1.55,-0.72,-1.56,-0.72,0.72,1.17,0.60,-0.83,-0.83,-0.83
99.26,-1.52,-0.64,-1.52,-0.64,0.65,1.10,0.54,-0.88,-0.87,-0.88
100.25,-1.49,-0.57,-1.49,-0.57,0.57,1.03,0.48,-0.92,-0.92,-0.93
101.25,-1.46,-0.49,-1.47,-0.49,0.50,0.96,0.43,-0.97,-0.97,-0.97
102.27,-1.45,-0.44,-1.45,-0.43,0.42,0.89,0.37,-1.03,-1.02,-1.02
103.29,-1.41,-0.34,-1.42,-0.36,0.36,0.82,0.32,-1.06,-1.07,-1.07
104.32,-1.41,-0.30,-1.40,-0.29,0.29,0.75,0.27,-1.12,-1.12,-1.11
105.37,-1.37,-0.22,-1.38,-0.22,0.22,0.68,0.22,-1.15,-1.16,-1.16
106.42,-1.37,-0.17,-1.36,-0.16,0.16,0.61,0.17,-1.21,-1.20,-1.20
107.48,-1.33,-0.08,-1.34,-0.09,0.10,0.54,0.12,-1.24,-1.25,-1.25
108.56,-1.33,-0.03,-1.34,-0.04,0.03,0.48,0.07,-1.30,-1.31,-1.31
109.64,-1.33,0.02,-1.32,0.02,-0.03,0.41,0.02,-1.36,-1.35,-1.35
110.74,-1.32,0.07,-1.31,0.09,-0.09,0.34,-0.03,-1.41,-1.40,-1.40
111.85,-1.28,0.16,-1.30,0.15,-0.15,0.27,-0.07,-1.43,-1.45,-1.44
112.97,-1.28,0.23,-1.28,0.22,-0.21,0.20,-0.12,-1.49,-1.49,-1.51
114.10,-1.28,0.27,-1.28,0.28,-0.27,0.14,-0.16,-1.55,-1.55,-1.55
115.24,-1.28,0.33,-1.28,0.33,-0.33,0.07,-0.20,-1.61,-1.61,-1.61
116.39,-1.28,0.38,-1.28,0.38,-0.38,0.00,-0.25,-1.67,-1.67,-1.66
117.55,-1.28,0.43,-1.28,0.43,-0.44,-0.06,-0.29,-1.72,-1.72,-1.72
118.73,-1.28,0.49,-1.28,0.49,-0.49,-0.13,-0.33,-1.77,-1.77,-1.77
119.92,-1.28,0.53,-1.28,0.54,-0.54,-0.19,-0.36,-1.83,-1.82,-1.81
121.12,-1.26,0.60,-1.27,0.60,-0.59,-0.25,-0.40,-1.86,-1.86,-1.87
122.33,-1.26,0.66,-1.27,0.65,-0.65,-0.32,-0.44,-1.91,-1.91,-1.92
123.55,-1.27,0.69,-1.27,0.69,-0.69,-0.38,-0.47,-1.97,-1.97,-1.96
124.79,-1.28,0.73,-1.28,0.74,-0.74,-0.44,-0.50,-2.02,-2.02,-2.01
126.03,-1.28,0.78,-1.28,0.78,-0.78,-0.50,-0.53,-2.06,-2.07,-2.06
127.29,-1.28,0.83,-1.29,0.82,-0.82,-0.56,-0.56,-2.10,-2.11,-2.11
128.57,-1.32,0.85,-1.31,0.86,-0.84,-0.62,-0.59,-2.16,-2.15,-2.17
129.85,-1.33,0.89,-1.34,0.88,-0.86,-0.68,-0.62,-2.20,-2.20,-2.22
131.15,-1.37,0.90,-1.38,0.89,-0.88,-0.73,-0.65,-2.26,-2.26,-2.27
132.46,-1.41,0.90,-1.41,0.91,-0.90,-0.79,-0.68,-2.32,-2.31,-2.32
133.79,-1.44,0.91,-1.44,0.92,-0.92,-0.85,-0.70,-2.37,-2.37,-2.35
135.12,-1.46,0.95,-1.48,0.93,-0.95,-0.90,-0.73,-2.41,-2.43,-2.41
136.48,-1.50,0.94,-1.49,0.96,-0.98,-0.95,-0.75,-2.48,-2.47,-2.44
137.84,-1.50,0.98,-1.49,1.00,-1.01,-1.01,-0.77,-2.52,-2.50,-2.49
139.22,-1.46,1.08,-1.48,1.05,-1.06,-1.06,-0.80,-2.52,-2.54,-2.54
140.61,-1.46,1.12,-1.47,1.11,-1.11,-1.11,-0.82,-2.57,-2.57,-2.58
142.02,-1.46,1.14,-1.45,1.17,-1.16,-1.16,-0.84,-2.62,-2.60,-2.61
143.44,-1.43,1.21,-1.44,1.21,-1.21,-1.21,-0.86,-2.64,-2.65,-2.65
144.87,-1.41,1.27,-1.42,1.26,-1.26,-1.25,-0.89,-2.67,-2.68,-2.69
146.32,-1.41,1.31,-1.41,1.31,-1.31,-1.30,-0.91,-2.72,-2.72,-2.73
147.78,-1.41,1.34,-1.41,1.35,-1.35,-1.35,-0.93,-2.76,-2.76,-2.76
149.26,-1.41,1.38,-1.41,1.39,-1.39,-1.39,-0.95,-2.80,-2.80,-2.79
150.75,-1.41,1.43,-1.41,1.42,-1.42,-1.43,-0.98,-2.83,-2.83,-2.84
152.26,-1.41,1.46,-1.42,1.45,-1.45,-1.48,-1.00,-2.87,-2.88,-2.88
153.78,-1.44,1.47,-1.44,1.48,-1.48,-1.52,-1.02,-2.93,-2.92,-2.91
155.32,-1.46,1.49,-1.45,1.50,-1.51,-1.56,-1.05,-2.97,-2.96,-2.96
156.88,-1.46,1.53,-1.47,1.53,-1.53,-1.60,-1.07,-3.00,-3.00,-2.99
158.44,-1.46,1.57,-1.47,1.56,-1.56,-1.63,-1.10,-3.02,-3.03,-3.03
160.03,-1.50,1.57,-1.49,1.59,-1.58,-1.67,-1.13,-3.08,-3.07,-3.08
161.63,-1.50,1.62,-1.51,1.61,-1.60,-1.71,-1.16,-3.10,-3.11,-3.12
163.24,-1.54,1.62,-1.54,1.62,-1.61,-1.74,-1.18,-3.16,-3.15,-3.16
164.88,-1.55,1.64,-1.56,1.64,-1.63,-1.78,-1.21,-3.18,-3.19,-3.19
166.53,-1.59,1.64,-1.58,1.64,-1.65,-1.81,-1.24,-3.24,-3.23,-3.23
168.19,-1.59,1.67,-1.61,1.66,-1.67,-1.84,-1.28,-3.26,-3.27,-3.27
169.87,-1.63,1.67,-1.62,1.68,-1.69,-1.87,-1.31,-3.32,-3.31,-3.30
171.57,-1.63,1.71,-1.64,1.71,-1.72,-1.90,-1.34,-3.36,-3.36,-3.34
173.29,-1.63,1.74,-1.63,1.74,-1.76,-1.93,-1.38,-3.39,-3.39,-3.38
175.02,-1.63,1.78,-1.62,1.80,-1.80,-1.96,-1.41,-3.43,-3.42,-3.41
176.77,-1.59,1.86,-1.61,1.85,-1.85,-1.99,-1.45,-3.44,-3.46,-3.46
178.54,-1.59,1.91,-1.59,1.90,-1.89,-2.01,-1.49,-3.49,-3.49,-3.50
180.32,-1.59,1.94,-1.58,1.95,-1.94,-2.04,-1.53,-3.53,-3.52,-3.53
182.13,-1.57,1.99,-1.58,1.99,-1.98,-2.06,-1.57,-3.56,-3.57,-3.57
183.95,-1.58,2.03,-1.58,2.03,-2.02,-2.09,-1.61,-3.60,-3.60,-3.61
185.79,-1.59,2.05,-1.59,2.06,-2.05,-2.11,-1.66,-3.64,-3.64,-3.64
187.65,-1.59,2.09,-1.60,2.08,-2.07,-2.13,-1.70,-3.66,-3.67,-3.68
189.52,-1.62,2.09,-1.62,2.09,-2.09,-2.15,-1.75,-3.71,-3.71,-3.71
191.42,-1.63,2.11,-1.64,2.11,-2.11,-2.18,-1.79,-3.74,-3.74,-3.74
193.33,-1.65,2.12,-1.66,2.11,-2.12,-2.19,-1.84,-3.78,-3.78,-3.77
195.27,-1.67,2.13,-1.67,2.13,-2.14,-2.21,-1.89,-3.82,-3.81,-3.80
197.22,-1.67,2.15,-1.68,2.15,-2.17,-2.23,-1.94,-3.84,-3.84,-3.83
199.19,-1.67,2.19,-1.67,2.18,-2.19,-2.25,-1.99,-3.86,-3.87,-3.86
201.18,-1.67,2.21,-1.66,2.22,-2.22,-2.26,-2.04,-3.89,-3.88,-3.88
203.19,-1.64,2.25,-1.65,2.25,-2.24,-2.28,-2.09,-3.89,-3.89,-3.90
205.23,-1.63,2.29,-1.64,2.28,-2.27,-2.30,-2.14,-3.90,-3.91,-3.92
207.28,-1.63,2.29,-1.63,2.30,-2.29,-2.31,-2.19,-3.93,-3.92,-3.93
209.35,-1.63,2.32,-1.63,2.32,-2.32,-2.32,-2.24,-3.95,-3.95,-3.95
211.44,-1.63,2.34,-1.63,2.33,-2.33,-2.34,-2.29,-3.97,-3.97,-3.98
213.56,-1.63,2.35,-1.63,2.35,-2.35,-2.35,-2.34,-3.98,-3.98,-3.98
215.69,-1.63,2.35,-1.63,2.35,-2.36,-2.36,-2.39,-3.99,-3.99,-3.98
217.85,-1.63,2.36,-1.63,2.36,-2.37,-2.37,-2.44,-4.00,-4.00,-3.99
220.03,-1.63,2.37,-1.63,2.37,-2.37,-2.38,-2.49,-4.01,-4.01,-4.01
222.23,-1.63,2.39,-1.63,2.38,-2.38,-2.39,-2.53,-4.01,-4.01,-4.02
224.45,-1.63,2.38,-1.63,2.38,-2.38,-2.40,-2.57,-4.01,-4.01,-4.01
226.70,-1.63,2.38,-1.63,2.38,-2.38,-2.41,-2.61,-4.01,-4.01,-4.01
228.96,-1.63,2.38,-1.63,2.38,-2.38,-2.42,-2.65,-4.01,-4.01,-4.01
231.25,-1.63,2.37,-1.63,2.37,-2.38,-2.42,-2.69,-4.01,-4.01,-4.00
233.57,-1.63,2.37,-1.63,2.37,-2.37,-2.43,-2.72,-4.01,-4.01,-4.00
235.90,-1.63,2.37,-1.63,2.37,-2.37,-2.44,-2.75,-4.00,-4.00,-4.00
238.26,-1.63,2.37,-1.63,2.37,-2.36,-2.44,-2.78,-4.00,-4.00,-4.00
240.64,-1.63,2.36,-1.63,2.36,-2.36,-2.45,-2.80,-3.99,-3.99,-3.99
243.05,-1.63,2.35,-1.63,2.35,-2.35,-2.45,-2.82,-3.98,-3.98,-3.98
245.48,-1.63,2.33,-1.63,2.34,-2.34,-2.46,-2.83,-3.97,-3.97,-3.97
247.93,-1.63,2.32,-1.63,2.33,-2.33,-2.46,-2.85,-3.96,-3.96,-3.96
250.41,-1.63,2.32,-1.63,2.31,-2.31,-2.46,-2.85,-3.94,-3.94,-3.95
252.92,-1.63,2.30,-1.63,2.30,-2.30,-2.47,-2.86,-3.93,-3.93,-3.93
255.45,-1.63,2.28,-1.63,2.28,-2.28,-2.47,-2.85,-3.91,-3.91,-3.91
258.00,-1.63,2.26,-1.63,2.26,-2.26,-2.47,-2.85,-3.90,-3.90,-3.90
260.58,-1.63,2.25,-1.63,2.25,-2.25,-2.47,-2.84,-3.88,-3.88,-3.88
263.19,-1.63,2.23,-1.64,2.23,-2.23,-2.47,-2.83,-3.86,-3.87,-3.86
265.82,-1.63,2.21,-1.63,2.21,-2.22,-2.47,-2.81,-3.85,-3.85,-3.85
268.48,-1.63,2.19,-1.62,2.20,-2.20,-2.48,-2.80,-3.83,-3.82,-3.82
271.16,-1.59,2.20,-1.61,2.19,-2.19,-2.47,-2.77,-3.78,-3.80,-3.80
273.87,-1.59,2.19,-1.60,2.18,-2.18,-2.47,-2.75,-3.77,-3.78,-3.78
276.61,-1.59,2.17,-1.59,2.18,-2.17,-2.47,-2.72,-3.77,-3.76,-3.76
279.38,-1.59,2.15,-1.58,2.16,-2.17,-2.47,-2.69,-3.76,-3.75,-3.74
282.17,-1.54,2.19,-1.56,2.16,-2.17,-2.47,-2.66,-3.71,-3.73,-3.73
284.99,-1.54,2.16,-1.54,2.17,-2.17,-2.47,-2.63,-3.71,-3.70,-3.70
287.84,-1.51,2.18,-1.51,2.18,-2.17,-2.47,-2.59,-3.69,-3.68,-3.69
290.72,-1.48,2.18,-1.48,2.18,-2.19,-2.46,-2.56,-3.67,-3.67,-3.66
293.63,-1.44,2.20,-1.44,2.20,-2.21,-2.46,-2.52,-3.65,-3.65,-3.65
296.57,-1.40,2.22,-1.40,2.22,-2.24,-2.46,-2.48,-3.64,-3.64,-3.62
299.53,-1.35,2.25,-1.35,2.26,-2.27,-2.45,-2.45,-3.63,-3.62,-3.61
302.53,-1.29,2.30,-1.29,2.30,-2.32,-2.45,-2.41,-3.61,-3.60,-3.59
305.55,-1.20,2.35,-1.21,2.35,-2.36,-2.45,-2.37,-3.56,-3.57,-3.55
308.61,-1.14,2.39,-1.13,2.40,-2.40,-2.44,-2.34,-3.54,-3.53,-3.54
311.69,-1.06,2.45,-1.06,2.44,-2.43,-2.44,-2.30,-3.49,-3.49,-3.51
314.81,-1.00,2.47,-1.01,2.47,-2.45,-2.43,-2.26,-3.45,-3.46,-3.47
317.96,-0.98,2.47,-0.98,2.48,-2.45,-2.42,-2.23,-3.43,-3.43,-3.46
321.14,-0.98,2.46,-0.99,2.45,-2.42,-2.42,-2.19,-3.41,-3.41,-3.44
324.35,-1.01,2.41,-1.02,2.40,-2.38,-2.41,-2.16,-3.40,-3.40,-3.42
327.59,-1.07,2.32,-1.07,2.33,-2.32,-2.41,-2.13,-3.39,-3.39,-3.40
330.87,-1.13,2.25,-1.13,2.25,-2.25,-2.40,-2.10,-3.38,-3.38,-3.38
334.18,-1.20,2.16,-1.21,2.15,-2.16,-2.39,-2.07,-3.37,-3.37,-3.36
337.52,-1.28,2.06,-1.28,2.06,-2.08,-2.39,-2.04,-3.36,-3.36,-3.35
340.90,-1.35,1.96,-1.34,1.98,-2.00,-2.38,-2.01,-3.35,-3.34,-3.32
344.30,-1.38,1.92,-1.39,1.91,-1.93,-2.37,-1.99,-3.31,-3.32,-3.30
347.75,-1.43,1.85,-1.43,1.85,-1.86,-2.36,-1.97,-3.29,-3.29,-3.28
351.23,-1.46,1.80,-1.46,1.80,-1.81,-2.35,-1.94,-3.27,-3.27,-3.26
354.74,-1.48,1.76,-1.48,1.76,-1.76,-2.35,-1.92,-3.24,-3.24,-3.25
358.28,-1.50,1.73,-1.50,1.73,-1.72,-2.34,-1.90,-3.23,-3.22,-3.23
361.87,-1.50,1.71,-1.52,1.69,-1.69,-2.33,-1.89,-3.19,-3.21,-3.21
365.49,-1.54,1.65,-1.53,1.66,-1.67,-2.32,-1.87,-3.21,-3.20,-3.19
369.14,-1.54,1.64,-1.54,1.64,-1.64,-2.31,-1.86,-3.19,-3.18,-3.18
372.83,-1.54,1.62,-1.55,1.62,-1.62,-2.30,-1.84,-3.17,-3.17,-3.17
376.56,-1.54,1.62,-1.54,1.61,-1.61,-2.29,-1.83,-3.15,-3.15,-3.16
380.33,-1.54,1.59,-1.54,1.59,-1.59,-2.28,-1.82,-3.13,-3.13,-3.13
384.13,-1.54,1.58,-1.54,1.58,-1.58,-2.27,-1.81,-3.12,-3.12,-3.12
387.97,-1.54,1.57,-1.54,1.57,-1.57,-2.26,-1.81,-3.11,-3.11,-3.11
391.85,-1.54,1.56,-1.54,1.56,-1.56,-2.25,-1.80,-3.10,-3.10,-3.10
395.77,-1.54,1.54,-1.54,1.55,-1.55,-2.24,-1.79,-3.09,-3.09,-3.09
399.73,-1.54,1.53,-1.54,1.54,-1.53,-2.23,-1.79,-3.08,-3.08,-3.08
403.72,-1.54,1.53,-1.54,1.52,-1.52,-2.21,-1.79,-3.07,-3.07,-3.07
407.76,-1.54,1.52,-1.54,1.51,-1.51,-2.20,-1.79,-3.06,-3.06,-3.06
411.84,-1.54,1.50,-1.54,1.50,-1.50,-2.19,-1.78,-3.05,-3.05,-3.04
415.96,-1.54,1.49,-1.54,1.49,-1.49,-2.18,-1.78,-3.04,-3.04,-3.03
420.12,-1.54,1.48,-1.54,1.48,-1.48,-2.17,-1.78,-3.03,-3.03,-3.02
424.32,-1.54,1.47,-1.54,1.47,-1.47,-2.16,-1.78,-3.02,-3.02,-3.02
428.56,-1.54,1.46,-1.54,1.46,-1.46,-2.14,-1.79,-3.00,-3.00,-3.01
432.85,-1.54,1.45,-1.54,1.45,-1.45,-2.13,-1.79,-2.99,-2.99,-3.00
437.18,-1.54,1.45,-1.54,1.44,-1.43,-2.12,-1.79,-2.97,-2.97,-2.99
441.55,-1.54,1.43,-1.54,1.43,-1.42,-2.10,-1.79,-2.96,-2.96,-2.97
445.96,-1.54,1.42,-1.55,1.42,-1.41,-2.09,-1.79,-2.95,-2.95,-2.96
450.42,-1.54,1.41,-1.55,1.40,-1.41,-2.08,-1.79,-2.95,-2.96,-2.95
454.93,-1.54,1.39,-1.54,1.39,-1.42,-2.06,-1.79,-2.96,-2.96,-2.93
459.48,-1.52,1.40,-1.52,1.40,-1.44,-2.05,-1.79,-2.97,-2.96,-2.92
