frequency,raw
20,17.80
21,17.83
22,17.85
23,17.87
24,17.88
25,17.89
26,17.89
27,17.90
28,17.89
29,17.89
30,17.88
31,17.86
32,17.85
33,17.82
34,17.80
35,17.76
36,17.73
37,17.70
38,17.66
39,17.64
40,17.62
41,17.59
42,17.56
43,17.53
44,17.50
45,17.47
46,17.45
47,17.43
48,17.42
49,17.39
50,17.36
51,17.32
52,17.28
53,17.23
54,17.18
55,17.14
56,17.09
57,17.06
58,17.04
59,17.02
60,16.99
61,16.95
62,16.90
63,16.85
64,16.81
65,16.77
66,16.75
67,16.72
68,16.69
69,16.65
70,16.60
71,16.55
72,16.50
73,16.45
74,16.42
75,16.39
76,16.36
77,16.34
78,16.30
79,16.26
80,16.21
81,16.17
82,16.14
83,16.11
84,16.08
85,16.05
86,16.01
87,15.96
88,15.90
89,15.85
90,15.82
91,15.78
92,15.73
93,15.69
94,15.65
95,15.60
96,15.56
97,15.51
98,15.47
99,15.43
100,15.38
101,15.34
102,15.29
104,15.25
105,15.20
106,15.16
107,15.12
108,15.07
109,15.03
110,14.99
111,14.95
112,14.91
113,14.87
114,14.81
115,14.76
117,14.71
118,14.67
119,14.63
120,14.58
121,14.52
123,14.45
124,14.39
125,14.34
126,14.30
128,14.25
129,14.20
130,14.14
131,14.08
133,14.03
134,13.97
135,13.92
137,13.87
138,13.80
140,13.73
141,13.66
142,13.59
144,13.52
145,13.46
147,13.39
148,13.32
150,13.24
151,13.16
153,13.10
154,13.04
156,12.97
157,12.91
159,12.85
160,12.79
162,12.74
164,12.67
165,12.62
167,12.58
169,12.54
170,12.50
172,12.46
174,12.42
175,12.38
177,12.35
179,12.30
181,12.25
183,12.21
184,12.18
186,12.16
188,12.14
190,12.12
192,12.08
194,12.05
196,12.01
198,11.98
200,11.93
202,11.89
204,11.85
206,11.81
208,11.76
210,11.70
212,11.63
214,11.56
216,11.48
218,11.40
221,11.32
223,11.25
225,11.18
227,11.11
229,11.03
232,10.95
234,10.88
236,10.81
239,10.74
241,10.66
244,10.58
246,10.52
248,10.47
251,10.41
253,10.34
256,10.27
259,10.20
261,10.14
264,10.08
266,10.02
269,9.97
272,9.91
274,9.85
277,9.78
280,9.72
283,9.68
286,9.65
288,9.61
291,9.56
294,9.51
297,9.48
300,9.45
303,9.41
306,9.35
309,9.30
312,9.24
316,9.20
319,9.15
322,9.10
325,9.03
328,8.96
332,8.89
335,8.82
338,8.75
342,8.69
345,8.63
349,8.58
352,8.50
356,8.43
359,8.36
363,8.30
366,8.24
370,8.16
374,8.09
377,8.02
381,7.94
385,7.87
389,7.78
393,7.70
397,7.62
401,7.55
405,7.47
409,7.38
413,7.29
417,7.21
421,7.13
425,7.03
430,6.94
434,6.85
438,6.76
443,6.66
447,6.57
451,6.48
456,6.39
460,6.30
465,6.21
470,6.12
474,6.04
479,5.95
484,5.86
489,5.77
494,5.68
499,5.59
504,5.50
509,5.40
514,5.31
519,5.21
524,5.12
529,5.03
535,4.93
540,4.84
545,4.75
551,4.66
556,4.57
562,4.49
568,4.41
573,4.32
579,4.24
585,4.15
591,4.06
596,3.97
602,3.89
608,3.80
615,3.71
621,3.62
627,3.53
633,3.44
639,3.35
646,3.25
652,3.15
659,3.05
665,2.95
672,2.85
679,2.76
686,2.66
692,2.57
699,2.49
706,2.40
713,2.30
721,2.22
728,2.15
735,2.07
742,1.99
750,1.92
757,1.85
765,1.77
773,1.70
780,1.63
788,1.55
796,1.46
804,1.37
812,1.30
820,1.21
828,1.11
837,1.02
845,0.94
853,0.85
862,0.77
871,0.70
879,0.62
888,0.55
897,0.47
906,0.40
915,0.34
924,0.28
933,0.22
943,0.18
952,0.14
962,0.09
971,0.06
981,0.04
991,0.02
1001,-0.00
1011,-0.02
1021,-0.03
1031,-0.02
1041,0.01
1052,0.04
1062,0.06
1073,0.07
1084,0.10
1094,0.14
1105,0.19
1116,0.24
1128,0.29
1139,0.34
1150,0.39
1162,0.45
1173,0.51
1185,0.56
1197,0.62
1209,0.67
1221,0.72
1233,0.76
1246,0.80
1258,0.84
1271,0.89
1283,0.93
1296,0.96
1309,1.00
1322,1.05
1335,1.10
1349,1.14
1362,1.17
1376,1.20
1390,1.22
1404,1.25
1418,1.28
1432,1.30
1446,1.32
1461,1.33
1475,1.34
1490,1.33
1505,1.33
1520,1.32
1535,1.31
1550,1.31
1566,1.30
1582,1.29
1597,1.29
1613,1.31
1629,1.32
1646,1.35
1662,1.37
1679,1.40
1696,1.44
1713,1.47
1730,1.50
1747,1.54
1764,1.57
1782,1.60
1800,1.62
1818,1.64
1836,1.65
1854,1.65
1873,1.64
1892,1.63
1911,1.63
1930,1.64
1949,1.66
1969,1.69
1988,1.72
2008,1.75
2028,1.78
2048,1.82
2069,1.85
2090,1.88
2111,1.90
2132,1.92
2153,1.94
2175,1.96
2196,1.99
2218,2.01
2240,2.03
2263,2.05
2285,2.07
2308,2.11
2331,2.14
2355,2.18
2378,2.21
2402,2.24
2426,2.26
2450,2.29
2475,2.30
2500,2.31
2525,2.31
2550,2.30
2575,2.30
2601,2.30
2627,2.31
2653,2.31
2680,2.31
2707,2.30
2734,2.28
2761,2.26
2789,2.24
2817,2.22
2845,2.19
2873,2.15
2902,2.10
2931,2.06
2960,2.01
2990,1.95
3020,1.89
3050,1.82
3080,1.76
3111,1.71
3142,1.65
3174,1.60
3206,1.54
3238,1.47
3270,1.40
3303,1.34
3336,1.29
3369,1.23
3403,1.18
3437,1.12
3471,1.05
3506,0.98
3541,0.92
3576,0.86
3612,0.81
3648,0.77
3685,0.75
3721,0.74
3759,0.74
3796,0.76
3834,0.78
3873,0.79
3911,0.81
3950,0.84
3990,0.88
4030,0.92
4070,0.97
4111,1.01
4152,1.05
4193,1.08
4235,1.10
4278,1.13
4321,1.15
4364,1.18
4407,1.22
4451,1.27
4496,1.32
4541,1.38
4586,1.44
4632,1.50
4679,1.56
4725,1.63
4773,1.71
4820,1.83
4868,1.98
4917,2.16
4966,2.37
5016,2.63
5066,2.93
5117,3.27
5168,3.68
5220,4.15
5272,4.65
5325,5.18
5378,5.74
5432,6.32
5486,6.87
5541,7.40
5596,7.90
5652,8.36
5709,8.77
5766,9.12
5823,9.41
5882,9.64
5940,9.82
6000,9.94
6060,10.01
6120,10.04
6182,10.04
6244,10.01
6306,9.97
6369,9.89
6433,9.78
6497,9.61
6562,9.37
6628,9.04
6694,8.61
6761,8.09
6828,7.48
6897,6.75
6966,5.93
7035,5.01
7106,4.03
7177,3.02
7249,1.98
7321,0.94
7394,-0.08
7468,-1.06
7543,-2.00
7618,-2.86
7694,-3.65
7771,-4.36
7849,-5.00
7928,-5.57
8007,-6.10
8087,-6.60
8168,-7.03
8250,-7.43
8332,-7.80
8415,-8.15
8499,-8.45
8584,-8.72
8670,-8.95
8757,-9.16
8845,-9.34
8933,-9.50
9022,-9.64
9113,-9.75
9204,-9.83
9296,-9.89
9389,-9.93
9483,-9.95
9577,-9.94
9673,-9.90
9770,-9.83
9868,-9.72
9966,-9.57
10066,-9.39
10167,-9.19
10268,-8.95
10371,-8.71
10475,-8.47
10579,-8.24
10685,-8.04
10792,-7.86
10900,-7.70
11009,-7.59
11119,-7.52
11230,-7.47
11343,-7.48
11456,-7.52
11571,-7.58
11686,-7.68
11803,-7.80
11921,-7.95
12040,-8.11
12161,-8.31
12282,-8.54
12405,-8.82
12529,-9.17
12655,-9.59
12781,-10.09
12909,-10.69
13038,-11.38
13168,-12.13
13300,-12.97
13433,-13.88
13567,-14.82
13703,-15.76
13840,-16.71
13978,-17.65
14118,-18.54
14259,-19.39
14402,-20.18
14546,-20.88
14692,-21.49
14838,-22.03
14987,-22.49
15137,-22.89
15288,-23.23
15441,-23.50
15595,-23.71
15751,-23.81
15909,-23.78
16068,-23.61
16229,-23.31
16391,-22.86
16555,-22.29
16720,-21.59
16888,-20.80
17056,-19.95
17227,-19.05
17399,-18.16
17573,-17.28
17749,-16.45
17926,-15.68
18106,-15.02
18287,-14.52
18470,-14.10
18654,-13.76
18841,-13.49
19029,-13.30
19220,-13.19
19412,-13.15
19606,-13.19
19802,-13.31
20000,-13.51
