frequency,raw,error,smoothed,error_smoothed,equalization,parametric_eq,equalized_raw,equalized_smoothed,target
20,-5.24,-7.22,-5.26,-7.24,6.00,2.67,0.76,0.74,1.98
21,-5.13,-7.11,-5.10,-7.08,6.00,3.07,0.87,0.90,1.98
22,-4.97,-6.95,-4.95,-6.93,6.00,3.49,1.03,1.05,1.98
23,-4.81,-6.79,-4.83,-6.81,6.00,3.95,1.19,1.17,1.98
24,-4.70,-6.67,-4.73,-6.71,6.00,4.44,1.30,1.27,1.97
25,-4.61,-6.58,-4.66,-6.63,6.00,4.94,1.39,1.34,1.97
26,-4.57,-6.54,-4.60,-6.57,6.00,5.44,1.43,1.40,1.97
27,-4.57,-6.54,-4.56,-6.53,6.00,5.92,1.43,1.44,1.97
28,-4.57,-6.53,-4.54,-6.50,6.00,6.35,1.43,1.46,1.96
29,-4.53,-6.49,-4.52,-6.48,6.00,6.70,1.47,1.48,1.96
30,-4.53,-6.48,-4.50,-6.46,6.00,6.96,1.47,1.50,1.95
31,-4.50,-6.45,-4.49,-6.43,6.00,7.10,1.50,1.51,1.95
32,-4.48,-6.42,-4.46,-6.40,6.00,7.14,1.52,1.54,1.94
33,-4.44,-6.37,-4.44,-6.37,6.00,7.09,1.56,1.56,1.93
34,-4.40,-6.33,-4.40,-6.33,6.00,6.96,1.60,1.60,1.93
35,-4.35,-6.27,-4.36,-6.28,6.00,6.79,1.65,1.64,1.92
36,-4.31,-6.22,-4.32,-6.23,6.00,6.59,1.69,1.68,1.91
37,-4.29,-6.19,-4.27,-6.17,6.00,6.38,1.71,1.73,1.90
38,-4.22,-6.11,-4.22,-6.11,5.99,6.18,1.77,1.77,1.89
39,-4.18,-6.06,-4.16,-6.05,5.97,5.99,1.79,1.80,1.88
40,-4.12,-5.99,-4.11,-5.98,5.93,5.82,1.81,1.82,1.87
41,-4.06,-5.92,-4.06,-5.92,5.90,5.67,1.84,1.84,1.86
42,-4.01,-5.86,-4.02,-5.87,5.86,5.55,1.85,1.84,1.85
43,-3.96,-5.80,-3.98,-5.82,5.82,5.45,1.86,1.84,1.84
44,-3.92,-5.74,-3.96,-5.78,5.78,5.38,1.86,1.82,1.82
45,-3.92,-5.73,-3.95,-5.75,5.75,5.33,1.83,1.81,1.81
46,-3.92,-5.71,-3.94,-5.73,5.73,5.30,1.81,1.79,1.79
47,-3.93,-5.71,-3.94,-5.71,5.71,5.28,1.78,1.78,1.78
48,-3.96,-5.72,-3.93,-5.69,5.69,5.29,1.73,1.76,1.76
49,-3.96,-5.70,-3.93,-5.67,5.67,5.31,1.71,1.74,1.74
50,-3.94,-5.66,-3.91,-5.64,5.64,5.34,1.70,1.72,1.72
51,-3.92,-5.62,-3.89,-5.59,5.59,5.38,1.67,1.70,1.70
52,-3.88,-5.56,-3.86,-5.54,5.54,5.43,1.66,1.68,1.68
53,-3.83,-5.49,-3.83,-5.49,5.49,5.48,1.66,1.66,1.66
54,-3.78,-5.42,-3.79,-5.42,5.42,5.53,1.64,1.64,1.64
55,-3.73,-5.34,-3.75,-5.36,5.36,5.58,1.63,1.61,1.61
56,-3.68,-5.27,-3.71,-5.30,5.30,5.63,1.62,1.59,1.59
57,-3.66,-5.22,-3.68,-5.25,5.25,5.67,1.59,1.56,1.56
58,-3.66,-5.20,-3.66,-5.20,5.20,5.70,1.54,1.54,1.54
59,-3.64,-5.15,-3.65,-5.16,5.16,5.71,1.52,1.51,1.51
60,-3.64,-5.12,-3.65,-5.13,5.13,5.72,1.49,1.48,1.48
61,-3.66,-5.11,-3.65,-5.10,5.10,5.71,1.44,1.45,1.45
62,-3.66,-5.08,-3.65,-5.08,5.08,5.69,1.42,1.42,1.42
63,-3.66,-5.05,-3.66,-5.06,5.06,5.65,1.40,1.39,1.39
64,-3.66,-5.02,-3.67,-5.04,5.04,5.60,1.38,1.36,1.36
65,-3.70,-5.03,-3.68,-5.01,5.01,5.54,1.31,1.33,1.33
66,-3.70,-5.00,-3.69,-4.99,4.99,5.47,1.29,1.30,1.30
67,-3.70,-4.96,-3.70,-4.96,4.96,5.38,1.26,1.26,1.26
68,-3.70,-4.93,-3.70,-4.93,4.93,5.29,1.23,1.23,1.23
69,-3.70,-4.89,-3.70,-4.89,4.89,5.20,1.19,1.19,1.19
70,-3.70,-4.86,-3.70,-4.86,4.86,5.10,1.16,1.16,1.16
71,-3.70,-4.82,-3.70,-4.82,4.82,4.99,1.12,1.12,1.12
72,-3.70,-4.78,-3.70,-4.79,4.79,4.88,1.09,1.08,1.08
73,-3.70,-4.75,-3.70,-4.75,4.75,4.78,1.05,1.05,1.05
74,-3.70,-4.71,-3.70,-4.71,4.71,4.67,1.01,1.01,1.01
75,-3.70,-4.67,-3.70,-4.67,4.67,4.56,0.97,0.97,0.97
76,-3.70,-4.63,-3.70,-4.63,4.63,4.46,0.93,0.93,0.93
77,-3.70,-4.59,-3.70,-4.59,4.59,4.36,0.89,0.89,0.89
78,-3.70,-4.55,-3.70,-4.55,4.55,4.26,0.85,0.85,0.85
79,-3.70,-4.51,-3.69,-4.50,4.50,4.17,0.80,0.81,0.81
80,-3.70,-4.47,-3.69,-4.46,4.46,4.08,0.76,0.77,0.77
81,-3.68,-4.41,-3.69,-4.41,4.41,3.99,0.73,0.73,0.73
82,-3.68,-4.37,-3.68,-4.37,4.37,3.91,0.69,0.69,0.69
83,-3.68,-4.33,-3.67,-4.32,4.32,3.83,0.64,0.65,0.65
84,-3.66,-4.26,-3.67,-4.27,4.27,3.76,0.61,0.60,0.60
85,-3.66,-4.22,-3.67,-4.23,4.23,3.69,0.57,0.56,0.56
86,-3.66,-4.18,-3.66,-4.18,4.18,3.63,0.52,0.52,0.52
87,-3.66,-4.14,-3.66,-4.14,4.14,3.57,0.48,0.48,0.48
88,-3.66,-4.10,-3.66,-4.10,4.10,3.51,0.44,0.44,0.44
89,-3.66,-4.06,-3.66,-4.05,4.05,3.46,0.39,0.40,0.40
90,-3.66,-4.01,-3.66,-4.01,4.01,3.41,0.35,0.35,0.35
91,-3.66,-3.97,-3.66,-3.97,3.97,3.37,0.31,0.31,0.31
92,-3.66,-3.93,-3.66,-3.93,3.93,3.33,0.27,0.27,0.27
93,-3.66,-3.89,-3.66,-3.89,3.89,3.29,0.23,0.23,0.23
94,-3.66,-3.85,-3.66,-3.85,3.85,3.26,0.19,0.19,0.19
95,-3.66,-3.81,-3.66,-3.81,3.81,3.23,0.15,0.15,0.15
96,-3.66,-3.77,-3.66,-3.77,3.77,3.20,0.11,0.11,0.11
97,-3.66,-3.73,-3.66,-3.73,3.73,3.17,0.07,0.07,0.07
98,-3.66,-3.69,-3.66,-3.69,3.69,3.15,0.03,0.03,0.03
99,-3.66,-3.65,-3.66,-3.65,3.65,3.13,-0.01,-0.01,-0.01
100,-3.66,-3.61,-3.66,-3.61,3.61,3.11,-0.05,-0.05,-0.05
101,-3.66,-3.57,-3.66,-3.56,3.56,3.10,-0.10,-0.10,-0.09
102,-3.66,-3.54,-3.66,-3.52,3.52,3.08,-0.14,-0.14,-0.12
104,-3.66,-3.46,-3.66,-3.48,3.48,3.06,-0.18,-0.18,-0.20
105,-3.66,-3.43,-3.66,-3.44,3.44,3.05,-0.22,-0.22,-0.23
106,-3.66,-3.39,-3.66,-3.40,3.40,3.04,-0.26,-0.26,-0.27
107,-3.66,-3.36,-3.66,-3.36,3.36,3.03,-0.30,-0.30,-0.30
108,-3.66,-3.32,-3.66,-3.32,3.32,3.03,-0.34,-0.34,-0.34
109,-3.66,-3.29,-3.66,-3.29,3.29,3.02,-0.37,-0.37,-0.37
110,-3.66,-3.25,-3.66,-3.25,3.25,3.01,-0.41,-0.41,-0.41
111,-3.66,-3.22,-3.66,-3.22,3.22,3.01,-0.44,-0.44,-0.44
112,-3.66,-3.19,-3.66,-3.19,3.19,3.00,-0.47,-0.48,-0.47
113,-3.66,-3.15,-3.66,-3.15,3.15,3.00,-0.51,-0.51,-0.51
114,-3.66,-3.12,-3.66,-3.11,3.11,2.99,-0.55,-0.54,-0.54
115,-3.66,-3.09,-3.66,-3.08,3.08,2.99,-0.58,-0.58,-0.57
117,-3.66,-3.03,-3.65,-3.03,3.03,2.97,-0.63,-0.62,-0.63
118,-3.65,-2.99,-3.64,-2.99,2.99,2.97,-0.66,-0.65,-0.66
119,-3.62,-2.93,-3.63,-2.94,2.94,2.96,-0.68,-0.69,-0.69
120,-3.62,-2.90,-3.62,-2.90,2.90,2.95,-0.72,-0.72,-0.72
121,-3.62,-2.88,-3.61,-2.85,2.85,2.94,-0.77,-0.75,-0.74
123,-3.57,-2.77,-3.59,-2.81,2.81,2.93,-0.76,-0.79,-0.80
124,-3.57,-2.75,-3.58,-2.76,2.76,2.91,-0.81,-0.82,-0.82
125,-3.57,-2.72,-3.57,-2.71,2.71,2.90,-0.86,-0.85,-0.85
126,-3.57,-2.70,-3.55,-2.67,2.67,2.89,-0.90,-0.88,-0.87
128,-3.53,-2.61,-3.53,-2.62,2.62,2.86,-0.91,-0.91,-0.92
129,-3.53,-2.58,-3.52,-2.57,2.57,2.85,-0.96,-0.94,-0.95
130,-3.49,-2.52,-3.50,-2.52,2.52,2.83,-0.97,-0.97,-0.97
131,-3.49,-2.50,-3.48,-2.48,2.48,2.82,-1.01,-1.00,-0.99
133,-3.44,-2.40,-3.46,-2.43,2.43,2.79,-1.01,-1.03,-1.04
134,-3.44,-2.38,-3.44,-2.38,2.38,2.77,-1.06,-1.06,-1.06
135,-3.44,-2.36,-3.42,-2.34,2.34,2.75,-1.10,-1.09,-1.08
137,-3.40,-2.28,-3.41,-2.30,2.30,2.72,-1.10,-1.11,-1.12
138,-3.40,-2.26,-3.41,-2.27,2.27,2.70,-1.13,-1.14,-1.14
140,-3.40,-2.23,-3.41,-2.24,2.24,2.66,-1.16,-1.17,-1.17
141,-3.40,-2.21,-3.41,-2.22,2.22,2.64,-1.18,-1.19,-1.19
142,-3.41,-2.20,-3.42,-2.21,2.21,2.62,-1.20,-1.22,-1.21
144,-3.44,-2.20,-3.43,-2.19,2.19,2.59,-1.25,-1.24,-1.24
145,-3.44,-2.18,-3.45,-2.18,2.18,2.57,-1.26,-1.26,-1.26
147,-3.49,-2.20,-3.46,-2.18,2.18,2.54,-1.31,-1.29,-1.29
148,-3.49,-2.18,-3.48,-2.17,2.17,2.52,-1.32,-1.31,-1.31
150,-3.49,-2.15,-3.49,-2.16,2.16,2.49,-1.33,-1.33,-1.34
151,-3.49,-2.14,-3.50,-2.15,2.15,2.47,-1.34,-1.35,-1.35
153,-3.53,-2.15,-3.51,-2.14,2.14,2.44,-1.39,-1.37,-1.38
154,-3.53,-2.14,-3.52,-2.13,2.13,2.42,-1.40,-1.39,-1.39
156,-3.53,-2.11,-3.53,-2.12,2.12,2.40,-1.41,-1.41,-1.42
157,-3.53,-2.10,-3.54,-2.10,2.10,2.38,-1.43,-1.43,-1.43
159,-3.53,-2.08,-3.55,-2.10,2.10,2.36,-1.43,-1.45,-1.45
160,-3.57,-2.11,-3.56,-2.09,2.09,2.35,-1.48,-1.47,-1.46
162,-3.57,-2.08,-3.58,-2.10,2.10,2.33,-1.47,-1.49,-1.49
164,-3.60,-2.09,-3.60,-2.10,2.10,2.31,-1.50,-1.50,-1.51
165,-3.62,-2.10,-3.63,-2.11,2.11,2.30,-1.51,-1.52,-1.52
167,-3.66,-2.12,-3.66,-2.13,2.13,2.29,-1.53,-1.54,-1.54
169,-3.71,-2.16,-3.70,-2.15,2.15,2.27,-1.56,-1.55,-1.55
170,-3.73,-2.17,-3.74,-2.17,2.17,2.27,-1.56,-1.57,-1.56
172,-3.78,-2.20,-3.78,-2.20,2.20,2.26,-1.58,-1.58,-1.58
174,-3.82,-2.22,-3.81,-2.22,2.22,2.25,-1.60,-1.60,-1.60
175,-3.85,-2.24,-3.85,-2.24,2.24,2.25,-1.61,-1.61,-1.61
177,-3.88,-2.26,-3.88,-2.26,2.26,2.25,-1.62,-1.62,-1.62
179,-3.92,-2.28,-3.92,-2.28,2.28,2.25,-1.64,-1.64,-1.64
181,-3.96,-2.31,-3.94,-2.29,2.29,2.25,-1.67,-1.65,-1.65
183,-3.96,-2.30,-3.97,-2.31,2.31,2.25,-1.65,-1.66,-1.66
184,-3.99,-2.32,-3.99,-2.31,2.31,2.25,-1.68,-1.67,-1.67
186,-4.01,-2.33,-4.00,-2.32,2.32,2.26,-1.69,-1.69,-1.68
188,-4.01,-2.31,-4.02,-2.32,2.32,2.27,-1.69,-1.70,-1.70
190,-4.01,-2.30,-4.03,-2.32,2.32,2.28,-1.69,-1.71,-1.71
192,-4.05,-2.33,-4.03,-2.31,2.31,2.29,-1.74,-1.72,-1.72
194,-4.05,-2.32,-4.04,-2.31,2.31,2.30,-1.74,-1.73,-1.73
196,-4.05,-2.31,-4.05,-2.31,2.31,2.31,-1.74,-1.74,-1.74
198,-4.05,-2.30,-4.06,-2.31,2.31,2.33,-1.74,-1.75,-1.75
200,-4.05,-2.29,-4.07,-2.31,2.31,2.34,-1.74,-1.76,-1.76
202,-4.09,-2.32,-4.08,-2.31,2.31,2.36,-1.78,-1.77,-1.77
204,-4.09,-2.31,-4.09,-2.31,2.31,2.37,-1.78,-1.78,-1.78
206,-4.09,-2.30,-4.11,-2.32,2.32,2.39,-1.77,-1.79,-1.79
208,-4.14,-2.34,-4.12,-2.32,2.32,2.41,-1.82,-1.80,-1.80
210,-4.14,-2.34,-4.13,-2.33,2.33,2.43,-1.81,-1.80,-1.80
212,-4.14,-2.33,-4.15,-2.34,2.34,2.45,-1.80,-1.81,-1.81
214,-4.18,-2.36,-4.16,-2.35,2.35,2.47,-1.83,-1.82,-1.82
216,-4.18,-2.36,-4.18,-2.36,2.36,2.49,-1.82,-1.82,-1.82
218,-4.18,-2.36,-4.19,-2.37,2.37,2.51,-1.81,-1.83,-1.82
221,-4.22,-2.39,-4.21,-2.38,2.38,2.54,-1.84,-1.83,-1.83
223,-4.22,-2.39,-4.23,-2.40,2.40,2.55,-1.82,-1.83,-1.83
225,-4.26,-2.43,-4.25,-2.42,2.42,2.57,-1.84,-1.83,-1.83
227,-4.27,-2.44,-4.28,-2.44,2.44,2.59,-1.83,-1.83,-1.83
229,-4.31,-2.48,-4.31,-2.47,2.47,2.61,-1.84,-1.83,-1.83
232,-4.33,-2.50,-4.34,-2.51,2.51,2.63,-1.82,-1.83,-1.83
234,-4.36,-2.53,-4.38,-2.54,2.54,2.65,-1.82,-1.83,-1.83
236,-4.40,-2.57,-4.41,-2.59,2.59,2.66,-1.81,-1.83,-1.83
239,-4.46,-2.64,-4.45,-2.63,2.63,2.68,-1.83,-1.82,-1.82
241,-4.49,-2.67,-4.49,-2.67,2.67,2.69,-1.82,-1.82,-1.82
244,-4.55,-2.74,-4.53,-2.71,2.71,2.71,-1.84,-1.81,-1.81
246,-4.57,-2.76,-4.56,-2.75,2.75,2.72,-1.82,-1.81,-1.81
248,-4.57,-2.77,-4.58,-2.78,2.78,2.72,-1.79,-1.80,-1.80
251,-4.61,-2.82,-4.60,-2.81,2.81,2.73,-1.80,-1.79,-1.79
253,-4.61,-2.83,-4.61,-2.83,2.83,2.74,-1.78,-1.78,-1.78
256,-4.61,-2.84,-4.62,-2.85,2.85,2.75,-1.76,-1.77,-1.77
259,-4.63,-2.87,-4.61,-2.86,2.86,2.75,-1.77,-1.76,-1.76
261,-4.61,-2.87,-4.61,-2.86,2.86,2.75,-1.75,-1.75,-1.74
264,-4.61,-2.88,-4.60,-2.87,2.87,2.75,-1.74,-1.73,-1.73
266,-4.58,-2.86,-4.59,-2.87,2.87,2.75,-1.71,-1.72,-1.72
269,-4.57,-2.87,-4.57,-2.87,2.87,2.75,-1.70,-1.70,-1.70
272,-4.55,-2.86,-4.56,-2.87,2.87,2.75,-1.68,-1.69,-1.69
274,-4.53,-2.86,-4.55,-2.88,2.88,2.75,-1.65,-1.67,-1.67
277,-4.53,-2.87,-4.54,-2.88,2.88,2.75,-1.65,-1.66,-1.66
280,-4.53,-2.89,-4.54,-2.89,2.89,2.74,-1.64,-1.64,-1.64
283,-4.53,-2.91,-4.53,-2.91,2.91,2.74,-1.62,-1.62,-1.62
286,-4.53,-2.92,-4.52,-2.92,2.92,2.74,-1.61,-1.61,-1.61
288,-4.53,-2.94,-4.52,-2.93,2.93,2.73,-1.60,-1.59,-1.59
291,-4.52,-2.95,-4.50,-2.93,2.93,2.73,-1.59,-1.57,-1.57
294,-4.48,-2.93,-4.49,-2.94,2.94,2.73,-1.54,-1.55,-1.55
297,-4.46,-2.93,-4.46,-2.93,2.93,2.73,-1.53,-1.53,-1.53
300,-4.42,-2.91,-4.44,-2.92,2.92,2.73,-1.50,-1.51,-1.51
303,-4.40,-2.91,-4.40,-2.91,2.91,2.73,-1.49,-1.49,-1.49
306,-4.40,-2.93,-4.36,-2.89,2.89,2.73,-1.51,-1.47,-1.47
309,-4.36,-2.91,-4.32,-2.87,2.87,2.73,-1.49,-1.45,-1.45
312,-4.29,-2.86,-4.27,-2.84,2.84,2.74,-1.45,-1.43,-1.43
316,-4.20,-2.79,-4.23,-2.82,2.82,2.74,-1.38,-1.41,-1.41
319,-4.15,-2.76,-4.19,-2.80,2.80,2.75,-1.35,-1.39,-1.39
322,-4.14,-2.77,-4.16,-2.80,2.80,2.76,-1.34,-1.37,-1.37
325,-4.14,-2.79,-4.14,-2.80,2.80,2.77,-1.34,-1.35,-1.35
328,-4.14,-2.81,-4.14,-2.81,2.81,2.78,-1.33,-1.33,-1.33
332,-4.14,-2.83,-4.14,-2.83,2.83,2.80,-1.31,-1.31,-1.31
335,-4.14,-2.85,-4.15,-2.86,2.86,2.82,-1.28,-1.29,-1.29
338,-4.18,-2.91,-4.17,-2.91,2.91,2.83,-1.28,-1.27,-1.27
342,-4.20,-2.95,-4.20,-2.95,2.95,2.86,-1.25,-1.25,-1.25
345,-4.22,-2.99,-4.23,-3.00,3.00,2.88,-1.22,-1.23,-1.23
349,-4.26,-3.05,-4.27,-3.06,3.06,2.91,-1.20,-1.21,-1.21
352,-4.30,-3.11,-4.30,-3.11,3.11,2.94,-1.19,-1.19,-1.19
356,-4.34,-3.17,-4.34,-3.16,3.16,2.97,-1.18,-1.17,-1.17
359,-4.38,-3.22,-4.37,-3.21,3.21,3.00,-1.17,-1.16,-1.16
363,-4.42,-3.28,-4.40,-3.26,3.26,3.04,-1.16,-1.14,-1.14
366,-4.44,-3.32,-4.42,-3.29,3.29,3.07,-1.15,-1.12,-1.12
370,-4.44,-3.33,-4.43,-3.32,3.32,3.11,-1.12,-1.11,-1.11
374,-4.44,-3.34,-4.45,-3.35,3.35,3.15,-1.09,-1.10,-1.10
377,-4.44,-3.36,-4.46,-3.37,3.37,3.19,-1.07,-1.08,-1.08
381,-4.45,-3.38,-4.47,-3.39,3.39,3.24,-1.06,-1.07,-1.07
385,-4.48,-3.42,-4.48,-3.42,3.42,3.29,-1.06,-1.06,-1.06
389,-4.48,-3.43,-4.49,-3.44,3.44,3.34,-1.04,-1.05,-1.05
393,-4.48,-3.44,-4.50,-3.46,3.46,3.39,-1.02,-1.04,-1.04
397,-4.53,-3.50,-4.52,-3.49,3.49,3.44,-1.04,-1.03,-1.03
401,-4.53,-3.51,-4.53,-3.51,3.51,3.49,-1.02,-1.02,-1.02
405,-4.54,-3.53,-4.54,-3.53,3.53,3.55,-1.01,-1.01,-1.01
409,-4.57,-3.56,-4.56,-3.55,3.55,3.60,-1.02,-1.01,-1.01
413,-4.57,-3.57,-4.57,-3.57,3.57,3.65,-1.00,-1.00,-1.00
417,-4.57,-3.58,-4.57,-3.58,3.58,3.71,-0.99,-0.99,-0.99
421,-4.58,-3.60,-4.57,-3.59,3.59,3.76,-0.99,-0.98,-0.98
425,-4.59,-3.61,-4.57,-3.60,3.60,3.81,-0.99,-0.98,-0.98
430,-4.57,-3.60,-4.57,-3.60,3.60,3.88,-0.97,-0.97,-0.97
434,-4.57,-3.61,-4.57,-3.61,3.61,3.93,-0.96,-0.96,-0.96
438,-4.57,-3.62,-4.56,-3.61,3.61,3.97,-0.96,-0.95,-0.95
443,-4.54,-3.60,-4.57,-3.62,3.62,4.03,-0.92,-0.94,-0.94
447,-4.53,-3.59,-4.57,-3.64,3.64,4.07,-0.89,-0.94,-0.94
451,-4.57,-3.64,-4.58,-3.65,3.65,4.11,-0.92,-0.93,-0.93
456,-4.57,-3.65,-4.59,-3.67,3.67,4.16,-0.90,-0.92,-0.92
460,-4.61,-3.70,-4.59,-3.69,3.69,4.19,-0.92,-0.91,-0.91
465,-4.61,-3.72,-4.59,-3.70,3.70,4.23,-0.91,-0.89,-0.89
470,-4.65,-3.77,-4.59,-3.71,3.71,4.26,-0.94,-0.88,-0.88
474,-4.63,-3.76,-4.58,-3.71,3.71,4.29,-0.92,-0.87,-0.87
479,-4.58,-3.72,-4.57,-3.71,3.71,4.31,-0.87,-0.86,-0.86
484,-4.55,-3.71,-4.56,-3.72,3.72,4.32,-0.83,-0.84,-0.84
489,-4.50,-3.67,-4.55,-3.72,3.72,4.33,-0.78,-0.83,-0.83
494,-4.48,-3.67,-4.55,-3.74,3.74,4.33,-0.74,-0.81,-0.81
499,-4.50,-3.71,-4.55,-3.76,3.76,4.33,-0.74,-0.79,-0.79
504,-4.55,-3.77,-4.56,-3.79,3.79,4.32,-0.76,-0.78,-0.78
509,-4.59,-3.83,-4.58,-3.82,3.82,4.31,-0.77,-0.76,-0.76
514,-4.64,-3.90,-4.59,-3.85,3.85,4.29,-0.79,-0.74,-0.74
519,-4.64,-3.92,-4.60,-3.88,3.88,4.26,-0.76,-0.72,-0.72
524,-4.62,-3.92,-4.60,-3.89,3.89,4.23,-0.73,-0.70,-0.70
529,-4.59,-3.91,-4.58,-3.90,3.90,4.20,-0.69,-0.68,-0.68
535,-4.55,-3.89,-4.55,-3.89,3.89,4.15,-0.66,-0.66,-0.66
540,-4.52,-3.88,-4.51,-3.87,3.87,4.11,-0.65,-0.64,-0.64
545,-4.48,-3.86,-4.46,-3.84,3.84,4.06,-0.64,-0.62,-0.62
551,-4.40,-3.80,-4.41,-3.81,3.81,4.00,-0.59,-0.60,-0.60
556,-4.35,-3.77,-4.36,-3.78,3.78,3.95,-0.57,-0.58,-0.58
562,-4.29,-3.73,-4.31,-3.75,3.75,3.88,-0.54,-0.56,-0.56
568,-4.24,-3.70,-4.26,-3.72,3.72,3.81,-0.52,-0.54,-0.54
573,-4.22,-3.70,-4.22,-3.70,3.70,3.75,-0.52,-0.52,-0.52
579,-4.18,-3.68,-4.19,-3.69,3.69,3.68,-0.49,-0.50,-0.50
585,-4.17,-3.69,-4.17,-3.68,3.68,3.61,-0.49,-0.48,-0.48
591,-4.14,-3.67,-4.15,-3.68,3.68,3.54,-0.46,-0.47,-0.47
596,-4.14,-3.69,-4.13,-3.68,3.68,3.48,-0.46,-0.45,-0.45
602,-4.13,-3.70,-4.12,-3.69,3.69,3.40,-0.44,-0.43,-0.43
608,-4.09,-3.68,-4.10,-3.69,3.69,3.33,-0.40,-0.41,-0.41
615,-4.09,-3.69,-4.09,-3.69,3.69,3.25,-0.40,-0.40,-0.40
621,-4.05,-3.67,-4.07,-3.69,3.69,3.17,-0.36,-0.38,-0.38
627,-4.05,-3.69,-4.04,-3.68,3.68,3.10,-0.37,-0.36,-0.36
633,-4.03,-3.68,-4.01,-3.66,3.66,3.04,-0.37,-0.35,-0.35
639,-3.99,-3.65,-3.97,-3.64,3.64,2.97,-0.35,-0.34,-0.34
646,-3.94,-3.62,-3.93,-3.60,3.60,2.89,-0.34,-0.32,-0.32
652,-3.89,-3.58,-3.87,-3.56,3.56,2.83,-0.33,-0.31,-0.31
659,-3.82,-3.52,-3.81,-3.52,3.52,2.76,-0.30,-0.30,-0.30
665,-3.75,-3.46,-3.75,-3.47,3.47,2.70,-0.28,-0.29,-0.29
672,-3.67,-3.40,-3.69,-3.41,3.41,2.63,-0.26,-0.27,-0.27
679,-3.60,-3.34,-3.63,-3.36,3.36,2.56,-0.24,-0.26,-0.26
686,-3.55,-3.30,-3.57,-3.31,3.31,2.50,-0.24,-0.25,-0.25
692,-3.50,-3.26,-3.51,-3.27,3.27,2.44,-0.23,-0.24,-0.24
699,-3.47,-3.24,-3.46,-3.22,3.22,2.39,-0.25,-0.23,-0.23
706,-3.41,-3.19,-3.41,-3.18,3.18,2.33,-0.23,-0.22,-0.22
713,-3.35,-3.13,-3.36,-3.14,3.14,2.27,-0.21,-0.22,-0.22
721,-3.31,-3.10,-3.31,-3.10,3.10,2.21,-0.21,-0.21,-0.21
728,-3.25,-3.05,-3.26,-3.06,3.06,2.16,-0.19,-0.20,-0.20
735,-3.21,-3.02,-3.20,-3.01,3.01,2.11,-0.20,-0.19,-0.19
742,-3.16,-2.97,-3.14,-2.95,2.95,2.07,-0.21,-0.19,-0.19
750,-3.07,-2.89,-3.07,-2.89,2.89,2.02,-0.18,-0.18,-0.18
757,-3.01,-2.84,-3.00,-2.83,2.83,1.98,-0.18,-0.17,-0.17
765,-2.91,-2.74,-2.92,-2.76,2.76,1.93,-0.15,-0.17,-0.17
773,-2.84,-2.68,-2.84,-2.68,2.68,1.89,-0.16,-0.16,-0.16
780,-2.75,-2.60,-2.76,-2.61,2.61,1.85,-0.14,-0.15,-0.15
788,-2.69,-2.54,-2.68,-2.53,2.53,1.81,-0.16,-0.15,-0.15
796,-2.58,-2.43,-2.59,-2.44,2.44,1.77,-0.14,-0.15,-0.15
804,-2.50,-2.36,-2.50,-2.36,2.36,1.74,-0.14,-0.14,-0.14
812,-2.42,-2.28,-2.42,-2.28,2.28,1.70,-0.14,-0.14,-0.14
820,-2.32,-2.19,-2.33,-2.20,2.20,1.67,-0.12,-0.13,-0.13
828,-2.22,-2.09,-2.24,-2.11,2.11,1.64,-0.11,-0.13,-0.13
837,-2.15,-2.02,-2.15,-2.02,2.02,1.61,-0.13,-0.13,-0.13
845,-2.05,-1.93,-2.05,-1.93,1.93,1.59,-0.12,-0.13,-0.12
853,-1.96,-1.84,-1.94,-1.82,1.82,1.57,-0.14,-0.12,-0.12
862,-1.84,-1.72,-1.82,-1.70,1.70,1.54,-0.14,-0.12,-0.12
871,-1.70,-1.58,-1.69,-1.58,1.58,1.52,-0.12,-0.12,-0.12
879,-1.60,-1.49,-1.55,-1.44,1.44,1.50,-0.16,-0.11,-0.11
888,-1.42,-1.31,-1.40,-1.29,1.29,1.49,-0.13,-0.11,-0.11
897,-1.26,-1.16,-1.24,-1.14,1.14,1.47,-0.12,-0.10,-0.10
906,-1.07,-0.97,-1.08,-0.98,0.98,1.46,-0.09,-0.10,-0.10
915,-0.89,-0.80,-0.93,-0.84,0.84,1.45,-0.05,-0.09,-0.09
924,-0.74,-0.66,-0.79,-0.70,0.70,1.44,-0.04,-0.08,-0.08
933,-0.61,-0.53,-0.66,-0.58,0.58,1.44,-0.03,-0.08,-0.08
943,-0.52,-0.45,-0.54,-0.47,0.47,1.43,-0.05,-0.07,-0.07
952,-0.44,-0.38,-0.43,-0.37,0.37,1.43,-0.07,-0.06,-0.06
962,-0.36,-0.32,-0.33,-0.28,0.28,1.43,-0.08,-0.04,-0.04
971,-0.28,-0.25,-0.23,-0.20,0.20,1.44,-0.08,-0.03,-0.03
981,-0.20,-0.18,-0.15,-0.13,0.13,1.44,-0.07,-0.02,-0.02
991,-0.09,-0.09,-0.07,-0.07,0.07,1.45,-0.02,0.00,0.00
1001,0.01,-0.01,-0.00,-0.02,0.02,1.46,0.03,0.02,0.02
1011,0.07,0.03,0.05,0.01,-0.01,1.48,0.06,0.04,0.04
1021,0.14,0.08,0.07,0.02,-0.02,1.50,0.12,0.06,0.06
1031,0.14,0.06,0.08,-0.00,0.00,1.51,0.14,0.08,0.08
1041,0.09,-0.01,0.06,-0.04,0.04,1.54,0.13,0.10,0.10
1052,0.02,-0.11,0.02,-0.11,0.11,1.56,0.13,0.13,0.13
1062,-0.06,-0.22,-0.04,-0.20,0.20,1.59,0.14,0.16,0.16
1073,-0.14,-0.32,-0.11,-0.30,0.30,1.62,0.16,0.18,0.18
1084,-0.23,-0.44,-0.19,-0.40,0.40,1.65,0.17,0.21,0.21
1094,-0.32,-0.56,-0.28,-0.52,0.52,1.68,0.20,0.24,0.24
1105,-0.37,-0.65,-0.36,-0.64,0.64,1.72,0.27,0.28,0.28
1116,-0.45,-0.76,-0.45,-0.76,0.76,1.76,0.31,0.31,0.31
1128,-0.52,-0.86,-0.55,-0.89,0.89,1.80,0.37,0.34,0.34
1139,-0.63,-1.01,-0.65,-1.03,1.03,1.85,0.40,0.38,0.38
1150,-0.73,-1.15,-0.76,-1.17,1.17,1.89,0.44,0.42,0.42
1162,-0.87,-1.33,-0.87,-1.33,1.33,1.94,0.46,0.46,0.46
1173,-1.00,-1.50,-1.00,-1.50,1.50,1.99,0.50,0.50,0.50
1185,-1.13,-1.67,-1.13,-1.67,1.67,2.04,0.54,0.54,0.54
1197,-1.29,-1.88,-1.27,-1.85,1.85,2.10,0.56,0.59,0.59
1209,-1.42,-2.05,-1.41,-2.04,2.04,2.16,0.62,0.63,0.63
1221,-1.57,-2.25,-1.55,-2.24,2.24,2.22,0.67,0.68,0.68
1233,-1.69,-2.42,-1.70,-2.44,2.44,2.28,0.75,0.73,0.73
1246,-1.84,-2.62,-1.86,-2.64,2.64,2.35,0.80,0.79,0.78
1258,-1.98,-2.82,-2.02,-2.85,2.85,2.41,0.87,0.84,0.84
1271,-2.17,-3.06,-2.18,-3.07,3.07,2.48,0.90,0.89,0.89
1283,-2.35,-3.30,-2.34,-3.29,3.29,2.55,0.94,0.95,0.95
1296,-2.55,-3.56,-2.50,-3.51,3.51,2.62,0.96,1.01,1.01
1309,-2.74,-3.81,-2.67,-3.74,3.74,2.70,1.00,1.07,1.07
1322,-2.85,-3.98,-2.85,-3.98,3.98,2.77,1.13,1.13,1.13
1335,-2.95,-4.14,-3.02,-4.22,4.22,2.85,1.27,1.19,1.19
1349,-3.10,-4.36,-3.20,-4.46,4.46,2.94,1.36,1.26,1.26
1362,-3.31,-4.64,-3.37,-4.70,4.70,3.02,1.39,1.32,1.33
1376,-3.58,-4.97,-3.55,-4.94,4.94,3.11,1.36,1.39,1.39
1390,-3.81,-5.27,-3.72,-5.18,5.18,3.20,1.37,1.46,1.46
1404,-4.02,-5.55,-3.88,-5.41,5.41,3.30,1.39,1.53,1.53
1418,-4.12,-5.72,-4.04,-5.64,5.60,3.39,1.48,1.56,1.60
1432,-4.09,-5.76,-4.19,-5.86,5.75,3.49,1.66,1.56,1.67
1446,-4.17,-5.92,-4.34,-6.09,5.86,3.59,1.69,1.51,1.75
1461,-4.43,-6.25,-4.49,-6.31,5.93,3.69,1.50,1.44,1.82
1475,-4.61,-6.51,-4.64,-6.53,5.98,3.79,1.37,1.34,1.89
1490,-4.92,-6.89,-4.78,-6.76,6.00,3.90,1.08,1.22,1.97
1505,-5.07,-7.12,-4.93,-6.98,6.00,4.01,0.93,1.07,2.05
1520,-5.08,-7.21,-5.07,-7.20,6.00,4.12,0.92,0.93,2.13
1535,-5.09,-7.30,-5.20,-7.41,6.00,4.24,0.91,0.80,2.21
1550,-5.26,-7.56,-5.33,-7.62,6.00,4.35,0.74,0.67,2.30
1566,-5.40,-7.78,-5.45,-7.84,6.00,4.47,0.60,0.55,2.38
1582,-5.63,-8.10,-5.57,-8.04,6.00,4.60,0.37,0.43,2.47
1597,-5.75,-8.31,-5.69,-8.25,6.00,4.71,0.25,0.31,2.56
1613,-5.80,-8.45,-5.79,-8.45,6.00,4.83,0.20,0.21,2.65
1629,-5.86,-8.61,-5.90,-8.64,6.00,4.96,0.14,0.10,2.75
1646,-5.98,-8.83,-5.99,-8.83,6.00,5.09,0.02,0.01,2.85
