frequency,raw,error,smoothed,error_smoothed,equalization,equalized_raw,equalized_smoothed,target
20,-5.170805755402921,-6.818649510872268,-5.137704431410833,-6.785532840213064,6.860874714143456,1.690068958740535,1.7231702827326236,1.647843755469347
21,-4.582254178630296,-6.230078974648475,-4.612876355899168,-6.260703506068209,6.303510617103356,1.72125643847306,1.6906342612041882,1.6478247960181784
22,-4.073796564264258,-5.721596562749601,-4.1060802149476086,-5.753892527353001,5.775399805756178,1.7016032414919202,1.6693195908085698,1.6477999984853424
23,-3.6063153702461976,-5.254083326888171,-3.617316008556156,-5.265099904067439,5.27379630037644,1.6674809301302425,1.6564802918202841,1.6477679566419732
24,-3.17259913988214,-4.820326151220987,-3.146583736724804,-4.794325636211516,4.796316931218995,1.6237177913368552,1.6497331944941913,1.647727011338847
25,-2.7501853467786908,-4.397860565838865,-2.693192813767123,-4.3408806144166,4.3408806144166,1.590695267637909,1.6476878006494768,1.647675219060174
26,-2.2483423312341158,-3.8959526494141135,-2.2580396227570496,-3.90565976725937,3.905659767259368,1.6573174360252523,1.6476201445023184,1.6476103181799977
27,-1.8091640948135623,-3.4566937880138533,-1.8418638167536745,-3.489401179181481,3.489401179181481,1.6802370843679189,1.6475373624278067,1.647529693200291
28,-1.4367407877438438,-3.084171123255201,-1.4455654139206673,-3.093002284699687,3.093002284699687,1.6562614969558433,1.64743687077902,1.6474303355113573
29,-1.0668375283607845,-2.7141463312860528,-1.0700159018407853,-2.7173309516304918,2.7173309516304918,1.6504934232697073,1.6473150497897064,1.6473088029252683
30,-0.6984488940309941,-2.3456100701327407,-0.7156040287769844,-2.3627718489378706,2.3627718489378706,1.6643229549068765,1.6471678201608864,1.6471611761017466
31,-0.38209394269635766,-2.0290769552945003,-0.3823451364241302,-2.0293355722389252,2.0293355722389252,1.6472416295425676,1.646990435814795,1.6469830125981426
32,-0.0481220463117909,-1.6948913447282725,-0.06983881159322426,-1.716616453753082,1.7166164537530815,1.6684944074412906,1.6467776421598572,1.6467692984164817
33,0.1417716642469236,-1.5047427328132708,0.22263567981644902,-1.4238879949515209,1.4238879949515215,1.565659659198445,1.6465236747679706,1.6465143970601943
34,0.5067563078084344,-1.1394556883660036,0.4959715600747795,-1.1502505953697515,1.1502505953697515,1.657006903178186,1.6462221554445309,1.6462119961744381
35,0.8215555640225743,-0.8242994876935047,0.7511622277078747,-0.8947038150769636,0.8947038150769636,1.716259379099538,1.6458660427848382,1.645855051716079
36,0.9613979077510052,-0.6840378220598883,0.9892305162682534,-0.6562170133204919,0.6562170133204918,1.617614921071497,1.6454475295887452,1.6454357298108935
37,1.2198240562582303,-0.4251212900919292,1.2111861638468904,-0.43377179427332957,0.43377179427332957,1.65359585053156,1.6449579581202198,1.6449453463501595
38,1.4261484365924124,-0.2182258678500517,1.417983287026372,-0.22640446346810686,0.22640446346810694,1.6525529000605195,1.644387750494479,1.6443743044424641
39,1.5755194611353516,-0.06819256871793034,1.6104565093586545,-0.03326982906657707,0.03326982906657707,1.6087892902019287,1.6437263384252316,1.643712029853282
40,1.7555617796580758,0.11261487506948842,1.789255936657268,0.14629383496620554,-0.1462938349662055,1.6092679446918703,1.6429621016910625,1.6429469045885874
41,2.0059031745324383,0.3638369757229052,1.954803338698103,0.31272103410563695,-0.3127210341056369,1.6931821404268015,1.6420823045924662,1.642066198809533
42,2.0874643526896866,0.4464083514034227,2.107299248607829,0.4662262194957635,-0.4662262194957635,1.621238133193923,1.6410730291120652,1.6410560012862638
43,2.2584353428779753,0.6185341942414615,2.2467938011433812,0.6068746953185278,-0.6068746953185278,1.6515606475594475,1.6399191058248535,1.6399011486365138
44,2.3590100555252653,0.7204249018927515,2.37330549549025,0.7347014536295561,-0.734701453629556,1.6243086018957094,1.638604041860694,1.6385851536325138
45,2.530250599827903,0.8931604669197957,2.4869529113689213,0.8498429635257143,-0.8498429635257141,1.680407636302189,1.6371099478432072,1.6370901329081073
46,2.56015948079735,0.9247627463391468,2.588058642578827,0.952641177912419,-0.9526411779124189,1.6075183028849311,1.635417464666408,1.6353967344582032
47,2.660734193397245,1.0272501279989714,2.677196906820999,1.0436912161562182,-1.0436912161562184,1.6170429772410266,1.6335056906647807,1.6334840653982736
48,2.761308905991195,1.1299792854447808,2.7551789166126,1.1238268067338508,-1.123826806733851,1.637482099257344,1.631352109878749,1.6313296205464143
49,2.8819985611960672,1.2530893486890635,2.8229913507454936,1.1940588288527407,-1.1940588288527405,1.6879397323433267,1.628932521892753,1.6289092125070037
50,2.862643180625448,1.2364462765496302,2.8817136929698464,1.255492718963716,-1.255492718963716,1.6071504616617323,1.6262209740061304,1.626196904075818
51,2.861883619461941,1.2387186755093142,2.9324376312228706,1.3092479344921122,-1.3092479344921122,1.5526356849698288,1.6231896967307584,1.6231649439526268
52,2.9859441419138504,1.3661604349757104,2.97620226805876,1.3563932242433652,-1.356393224243365,1.6295509176704854,1.619809043815395,1.61978370693814
53,3.0630330453393277,1.4470114053346967,3.013950287528151,1.3979028492757086,-1.3979028492757093,1.6651301960636185,1.6160474382524417,1.616021640004631
54,3.0630330435624558,1.4511878277044588,3.046505816122907,1.4346344901920793,-1.4346344901920793,1.6283985533703764,1.6118713259308275,1.611845215857997
55,3.063033039070542,1.4558141432257963,3.0745724434123654,1.467327304589769,-1.467327304589769,1.5957057344807728,1.6072451388225963,1.6072188958447455
56,3.0630330322310386,1.4609279279423193,3.0987458161302093,1.4966145463160716,-1.496614546316072,1.5664184859149666,1.6021312698141372,1.6021051042887193
57,3.063033026195793,1.4665688096410476,3.1195268150804303,1.5230367535901403,-1.5230367535901401,1.5399962726056529,1.5964900614902902,1.5964642165547454
58,3.2038376255696783,1.6135830622568008,3.13731217882904,1.5470323674846664,-1.5470323674846669,1.6568052580850114,1.5902798113443732,1.5902545633128775
59,3.163607759794384,1.5801753061953874,3.1523405237291042,1.5688837277370575,-1.5688837277370578,1.5947240320573264,1.5834567959920465,1.5834324535989968
60,3.1636078057200305,1.5876555864034496,3.1645920651962594,1.5886167482014608,-1.5886167482014608,1.5749910575185697,1.5759753169947985,1.575952219316581
61,3.1636078786446453,1.5958415948620148,3.173677337679517,1.6058895668442257,-1.6058895668442257,1.5577183118004196,1.5677877708352912,1.5677662837826305
62,3.163607959321698,1.6047827025483672,3.178786479917359,1.619941734499322,-1.6199417344993223,1.5436662248223756,1.5588447454180365,1.5588252567733307
63,3.163607998568104,1.6145299403063564,3.178780617651679,1.629685472466163,-1.6296854724661631,1.533922526101941,1.5490951451855157,1.5490780582617476
64,3.1636079146798464,1.6251358420228867,3.1724716353835545,1.6339852888063349,-1.6339852888063349,1.5296226258735115,1.5384863465772196,1.5384720726569596
65,3.1636076082957616,1.6366542734400742,3.1590566825718476,1.6320922976811503,-1.6320922976811503,1.5315153106146113,1.5269643848906973,1.5269533348556874
66,3.1636070036502626,1.6491402548331875,3.138578845316702,1.624104671986919,-1.6241046719869197,1.539502331663343,1.5144741733297822,1.514466748817075
67,3.163606118798984,1.662649780107107,3.112224925649455,1.6112651712229968,-1.6112651712229966,1.5523409475759875,1.5009597544264586,1.5009563386918772
68,3.2038350395823976,1.7174695077707955,3.082287943368863,1.5959233608360452,-1.595923360836045,1.6079116787463525,1.486364582532818,1.486365531811602
69,2.9500255994723217,1.4793881273600893,3.051726844292107,1.5810950092988756,-1.5810950092988756,1.368930590173446,1.4706318349932312,1.4706374721122324
70,2.9441686073865005,1.490453245507927,3.0234163604026074,1.569711609905102,-1.5697116099051023,1.3744569974813983,1.4537047504975051,1.4537153618785736
71,2.9624583088879968,1.5269154797880304,2.9993285223610644,1.5638015273722736,-1.5638015273722736,1.3986567815157231,1.4355269949887908,1.4355428290999663
72,2.962463840708472,1.5463995234320063,2.9799512838342173,1.5639082290713975,-1.5639082290713977,1.398555611637074,1.4160430547628196,1.4160643172764655
73,2.9624726039566402,1.5672471097046459,2.9641860723593365,1.5689874228648037,-1.5689874228648037,1.3934851810918365,1.3951986494945328,1.3952254942519944
74,2.962483744406597,1.5895100677939333,2.949790881208533,1.576849728399179,-1.5768497283991791,1.3856340160074179,1.3729411528093538,1.3729736766126637
75,2.962494587794602,1.6132363213997998,2.9342192559799143,1.5849992515449116,-1.5849992515449114,1.3774953362496904,1.349220004435003,1.349258266394802
76,3.0027300682211853,1.678698870922121,2.9155412873054676,1.5915541812484133,-1.5915541812484135,1.4111758869727717,1.323987106057054,1.3240311972990644
77,2.8922221801484214,1.594974791866289,2.893094785046516,1.5958975560517281,-1.5958975560517286,1.2963246240966928,1.2971972289947873,1.2972473882821323
78,2.8618908697351646,1.5930256664863434,2.867623670607935,1.59881515617777,-1.5988151561777697,1.263075713557395,1.2688085144301653,1.2688652032488212
79,2.8618342932301672,1.62298737670798,2.840870751477273,1.6020875956533318,-1.6020875956533323,1.259746697576835,1.2387831558239408,1.2388469165221871
80,2.7280056991395014,1.5208465144078946,2.8148122137986817,1.6077239681974735,-1.6077239681974735,1.1202817309420279,1.2070882456012082,1.2071591847316068
81,2.740751453977186,1.5669779273632782,2.790855686568463,1.61715914786635,-1.6171591478663503,1.1235923061108357,1.1736965387021128,1.1737735266139078
82,2.760919817285929,1.6222530044427068,2.7693193079672485,1.6307326358874228,-1.6307326358874228,1.1301871813985063,1.1385866720798257,1.1386668128432222
83,2.7608063910317164,1.6589846227706695,2.7493745854461498,1.6476322061580393,-1.6476322061580397,1.1131741848736767,1.10174237928811,1.101821768261047
84,2.8009896137130177,1.7377621250669315,2.729434743518877,1.6662840354665693,-1.6662840354665698,1.134705578246448,1.0631507080523073,1.0632274886460862
85,2.731130465172284,1.708250491831953,2.707792410210103,1.6849921462337552,-1.6849921462337556,1.0461383189385285,1.0228002639763476,1.022879973340331
86,2.660551681975127,1.679769008413619,2.6832305155419323,1.7025488454440236,-1.7025488454440234,0.9580028365311035,0.9806816700979089,0.980782673561508
87,2.6611012113745844,1.7241541573212928,2.6553734254277277,1.7185805916012926,-1.718580591601293,0.9425206197732914,0.9367928338264346,0.9369470540532916
88,2.652245964566115,1.7608528016889342,2.624680282243558,1.73353002504324,-1.7335300250432404,0.9187159395228748,0.8911502572003176,0.891393162877181
89,2.5301692722534685,1.6860190715370211,2.5921400645795485,1.7483358770021904,-1.7483358770021904,0.7818333952512782,0.8438041875773581,0.8441502007164474
90,2.58918655068526,1.7939294734966973,2.5588375153527485,1.7639866704573328,-1.7639866704573328,0.825199880227927,0.7948508448954157,0.7952570771885625
91,2.497721138598706,1.7529582010442488,2.525578982027625,1.7811474990840956,-1.7811474990840952,0.716573639514611,0.7444314829435297,0.7447629375544573
92,2.466274303869332,1.7735466647376734,2.492701437712897,1.799992807971888,-1.7999928079718879,0.6662814958974443,0.692708629741009,0.6927276391316588
93,2.4671626086500327,1.8279404556822758,2.4600814720005406,1.820264910288508,-1.8202649102885082,0.6468976983615244,0.6398165617120324,0.6392221529677569
94,2.467149497771812,1.8828206345312886,2.427273072275093,1.8414779192202522,-1.8414779192202524,0.6256715785515594,0.5857951530548406,0.5843288632405232
95,2.4265573309169235,1.8984155961599583,2.393673426905473,1.8631440388247968,-1.8631440388247968,0.5634132920921266,0.5305293880806761,0.5281417347569652
96,2.361910863121313,1.8911445449789048,2.3586475713796293,1.884923099928411,-1.8849230999284108,0.47698776319290226,0.47372447145121854,0.4707663181424082
97,2.2674822023632832,1.8551626392479097,2.3216036760458922,1.906660958950436,-1.9066609589504357,0.3608212434128475,0.4149427170954565,0.41231956311537354
98,2.2473619212235496,1.8944325083854685,2.2820567698299943,1.928345534644849,-1.9283455346448493,0.31901638657870035,0.353711235185145,0.3529294128380811
99,2.236007045215316,1.9432728883887886,2.239719175644792,1.9500363781644372,-1.9500363781644374,0.28597066705087837,0.28968279748035464,0.29273415682652715
100,2.221560940068822,1.9896794137714071,2.1946136759729793,1.971807703480628,-1.9718077034806283,0.24975323658819382,0.222805972492351,0.23188152629741499
101,2.204127058853092,2.033599534857218,2.1471546680811184,1.9937081324784198,-1.99370813247842,0.21041892637467186,0.1534465356026984,0.17052752399587412
102,2.164726091749704,2.0558911015183354,2.0981254532883864,2.0157167908864446,-2.015716790886444,0.14900930086326003,0.08240866240194222,0.10883499023136878
104,2.0058746355844272,2.020867343079779,2.0485165737211237,2.037684640553479,-2.037684640553479,-0.03181000496905195,0.010831933167644525,-0.014992707495351976
105,1.9367737743108129,2.013709740840793,1.999265270514936,2.0592849175022567,-2.0592849175022567,-0.12251114319144385,-0.06001964698732065,-0.07693596652998025
106,1.9122566314588527,2.0508403197476452,1.9510053181323175,2.0800272757760965,-2.080027275776096,-0.1677706443172433,-0.12902195764377855,-0.1385836882887923
107,1.8878806102830457,2.087647858499623,1.9039528099046015,2.0993847571577438,-2.0993847571577438,-0.2115041468746981,-0.19543194725314228,-0.19976724821657754
108,1.8645122556097695,2.1248345713834826,1.8579976865280803,2.1170310041437075,-2.1170310041437075,-0.25251874853393796,-0.2590333176156272,-0.2603223157737129
109,1.860010574805374,2.180101721726924,1.8129669583505086,2.1331104099619775,-2.1331104099619775,-0.27309983515660363,-0.32014345161146895,-0.32009114692155016
110,1.8440621721391788,2.222986996484252,1.7689298027507394,2.1484118403982597,-2.1484118403982593,-0.3043496682590805,-0.37948203764751987,-0.3789248243450736
111,1.7342696432149531,2.1709550195826304,1.7263824374034362,2.1643269248685124,-2.164326924868513,-0.4300572816535597,-0.43794448746507664,-0.43668537636767724
112,1.6777658905496844,2.171013597104965,1.686203256970465,2.1825534705282754,-2.1825534705282754,-0.504787579978591,-0.4963502135578104,-0.4932477065552807
113,1.5665410977080796,2.1150423680816077,1.6493810243693994,2.204619567744622,-2.2046195677446216,-0.6380784700365421,-0.5552385433752223,-0.5485012703735279
114,1.562311530833069,2.164662973712713,1.6166323727699543,2.2313963101121126,-2.2313963101121135,-0.6690847792790444,-0.6147639373421592,-0.6023514428796437
115,1.5782332774067118,2.2329538094236185,1.588080288547364,2.262786568140431,-2.2627865681404313,-0.6845532907337195,-0.6747062795930674,-0.6547205320169067
117,1.5899048591363358,2.350165980394122,1.5631359035710375,2.2977109491437853,-2.297710949143785,-0.707806090007449,-0.7345750455727473,-0.7602611212577859
118,1.602806918430574,2.411187736188393,1.540630846730433,2.334391800479538,-2.3343918004795374,-0.7315848820489634,-0.7937609537491044,-0.8083808177578189
119,1.5560472951788102,2.4108927042514128,1.5191381460635835,2.3708206106447935,-2.3708206106447935,-0.8147733154659833,-0.85168246458121,-0.8548454090726025
120,1.4941514277406418,2.3938055213297114,1.4973493789701071,2.4052362434557892,-2.405236243455789,-0.911084815715147,-0.9078868644856817,-0.8996540935890698
121,1.4360600204829446,2.3788819630500986,1.474371271691044,2.43646102332675,-2.43646102332675,-1.0004010028438053,-0.9620897516357059,-0.942821942567154
123,1.3955247913586335,2.4273017719056247,1.4498570626399956,2.4640187697168,-2.4640187697168,-1.0684939783581664,-1.0141617070768043,-1.031776980546991
124,1.416594959260388,2.4870537369394388,1.4239624596290026,2.4880493241079105,-2.488049324107911,-1.071454364847523,-1.0640868644789083,-1.0704587776790508
125,1.441822171142864,2.5494388588522785,1.397176074822431,2.509096253557898,-2.509096253557898,-1.0672740824150337,-1.111920178735467,-1.1076166877094145
126,1.4512600870544343,2.5945791434184975,1.37009970948729,2.5278600259504764,-2.527860025950476,-1.0765999388960417,-1.157760316463186,-1.1433190563640632
128,1.3371589565572526,2.5556238617257905,1.3432464269763904,2.5449866419671108,-2.5449866419671117,-1.207827685409859,-1.2017402149907213,-1.218464905168538
129,1.2628796434017413,2.513061662076745,1.3168997245845264,2.560925052408911,-2.560925052408912,-1.2980454090071707,-1.2440253278243856,-1.2501820186750034
130,1.2282333004769463,2.508928574367121,1.291051179242002,2.5758571562793637,-2.5758571562793646,-1.3476238558024183,-1.2848059770373625,-1.2806952738901747
131,1.2412232649520465,2.55131590675102,1.2654142298087532,2.5896902105343163,-2.5896902105343167,-1.3484669455822702,-1.3242759807255635,-1.3100926417989736
133,1.2756698499991956,2.6485830575450913,1.239497859985052,2.6020983722223106,-2.6020983722223114,-1.3264285222231158,-1.3626005122372595,-1.3729132075458956
134,1.2828141986957942,2.6819375857868937,1.21271425130143,2.612599488383215,-2.612599488383216,-1.3297852896874218,-1.399885237081786,-1.3991233870910995
135,1.2262721723223158,2.650767973907883,1.1844904552462205,2.6206513502545725,-2.6206513502545734,-1.3943791779322576,-1.4361608950083529,-1.424495801585567
137,1.118048108823388,2.596905587061496,1.1543592839385326,2.625750907729397,-2.625750907729396,-1.5077027989060081,-1.4713916237908635,-1.4788574782381079
138,1.0511817376950077,2.5528565009291153,1.122019086737039,2.627523942456735,-2.627523942456736,-1.5763422047617281,-1.5055048557196968,-1.5016747632341079
140,1.072910347827995,2.6233273897242357,1.0873701676598286,2.6258009069430486,-2.6258009069430486,-1.5528905591150535,-1.53843073928322,-1.5504170418962406
141,1.0746258683767484,2.6457111022136606,1.0505469310883475,2.6206817511974227,-2.6206817511974227,-1.5460558828206743,-1.5701348201090752,-1.5710852338369121
142,1.0892794727488906,2.680572740885384,1.0119608226997125,2.6125921390239437,-2.6125921390239446,-1.523312666275054,-1.600631316324232,-1.5912932681364933
144,0.9750281045990974,2.6087501819991816,0.9723498677897324,2.6023235454154108,-2.60232354541541,-1.6272954408163125,-1.6299736776256775,-1.6337220774000842
145,0.8936826198734933,2.5459030743142383,0.9328073869002627,2.591036730816315,-2.591036730816315,-1.6973541109428216,-1.6582293439160523,-1.6522204544407448
147,0.8792535348008454,2.5696824936651037,0.8947510427973202,2.5802028487133355,-2.580202848713335,-1.7009493139124896,-1.6854518059160148,-1.6904289588642585
148,0.8924488175142189,2.5998819820403454,0.8598036004505611,2.5714663697697837,-2.5714663697697833,-1.6790175522555644,-1.7116627693192221,-1.7074331645261265
150,0.8232716183131159,2.5651276642132532,0.8295856470621081,2.566436923795032,-2.5664369237950324,-1.7431653054819165,-1.7368512767329243,-1.7418560459001373
151,0.7728089203975348,2.530289843688527,0.8054545609170416,2.5664425706373004,-2.5664425706373004,-1.7936336502397656,-1.7609880097202588,-1.7574809232909923
153,0.7730792250876124,2.5615137345256622,0.7882465005995076,2.572292502061721,-2.572292502061721,-1.7992132769741087,-1.7840460014622135,-1.78843450943805
154,0.7736108704622353,2.5763015021251956,0.7780784787328388,2.584095265713746,-2.584095265713746,-1.8104843952515108,-1.8060167869809074,-1.8026906316629603
156,0.7742998361151032,2.6046702173930383,0.7742469336262893,2.601161062221812,-2.6011610622218124,-1.8268612261067092,-1.826914128595523,-1.8303703812779348
157,0.7749613496522825,2.618131936256854,0.7752299166844271,2.621993789057295,-2.6219937890572944,-1.847032439405012,-1.8467638723728674,-1.8431705866045713
159,0.7753431417731864,2.6430049587417357,0.7787771598864823,2.6443621441344027,-2.6443621441344027,-1.8690190023612163,-1.8655849842479204,-1.8676618169685493
