frequency,raw
20.00,6.74
20.20,6.78
20.40,6.82
20.61,6.86
20.81,6.89
21.02,6.93
21.23,6.96
21.44,6.99
21.66,7.01
21.87,7.04
22.09,7.06
22.31,7.08
22.54,7.11
22.76,7.13
22.99,7.15
23.22,7.16
23.45,7.17
23.69,7.17
23.92,7.17
24.16,7.16
24.40,7.16
24.65,7.15
24.89,7.15
25.14,7.15
25.39,7.15
25.65,7.15
25.91,7.15
26.16,7.15
26.43,7.15
26.69,7.15
26.96,7.15
27.23,7.15
27.50,7.15
27.77,7.15
28.05,7.15
28.33,7.15
28.62,7.16
28.90,7.17
29.19,7.17
29.48,7.18
29.78,7.17
30.08,7.16
30.38,7.14
30.68,7.12
30.99,7.10
31.30,7.07
31.61,7.04
31.93,7.01
32.24,6.98
32.57,6.95
32.89,6.92
33.22,6.89
33.55,6.86
33.89,6.84
34.23,6.82
34.57,6.81
34.92,6.81
35.27,6.81
35.62,6.83
35.97,6.84
36.33,6.85
36.70,6.84
37.06,6.83
37.43,6.82
37.81,6.80
38.19,6.77
38.57,6.74
38.95,6.71
39.34,6.68
39.74,6.65
40.14,6.62
40.54,6.59
40.94,6.57
41.35,6.55
41.76,6.54
42.18,6.53
42.60,6.51
43.03,6.49
43.46,6.48
43.90,6.46
44.33,6.44
44.78,6.42
45.23,6.39
45.68,6.36
46.13,6.33
46.60,6.30
47.06,6.27
47.53,6.25
48.01,6.23
48.49,6.22
48.97,6.20
49.46,6.18
49.96,6.16
50.46,6.15
50.96,6.14
51.47,6.13
51.99,6.10
52.51,6.06
53.03,6.02
53.56,5.97
54.10,5.93
54.64,5.88
55.18,5.83
55.74,5.76
56.29,5.70
56.86,5.64
57.42,5.58
58.00,5.54
58.58,5.49
59.16,5.44
59.76,5.40
60.35,5.35
60.96,5.30
61.57,5.24
62.18,5.18
62.80,5.13
63.43,5.08
64.07,5.02
64.71,4.95
65.35,4.88
66.01,4.81
66.67,4.76
67.33,4.70
68.01,4.62
68.69,4.55
69.37,4.48
70.07,4.41
70.77,4.35
71.48,4.28
72.19,4.22
72.91,4.15
73.64,4.08
74.38,4.01
75.12,3.95
75.87,3.88
76.63,3.80
77.40,3.72
78.17,3.65
78.95,3.58
79.74,3.49
80.54,3.41
81.35,3.33
82.16,3.26
82.98,3.17
83.81,3.09
84.65,3.01
85.50,2.93
86.35,2.84
87.22,2.76
88.09,2.67
88.97,2.58
89.86,2.49
90.76,2.41
91.66,2.32
92.58,2.23
93.51,2.16
94.44,2.06
95.39,1.96
96.34,1.87
97.30,1.78
98.28,1.69
99.26,1.59
100.25,1.49
101.25,1.39
102.27,1.29
103.29,1.18
104.32,1.08
105.37,0.97
106.42,0.86
107.48,0.74
108.56,0.62
109.64,0.50
110.74,0.37
111.85,0.24
112.97,0.13
114.10,0.00
115.24,-0.12
116.39,-0.25
117.55,-0.39
118.73,-0.52
119.92,-0.66
121.12,-0.79
122.33,-0.92
123.55,-1.05
124.79,-1.19
126.03,-1.32
127.29,-1.44
128.57,-1.57
129.85,-1.71
131.15,-1.85
132.46,-1.99
133.79,-2.13
135.12,-2.26
136.48,-2.40
137.84,-2.56
139.22,-2.71
140.61,-2.85
142.02,-3.00
143.44,-3.15
144.87,-3.31
146.32,-3.48
147.78,-3.65
149.26,-3.82
150.75,-3.98
152.26,-4.15
153.78,-4.32
155.32,-4.49
156.88,-4.66
158.44,-4.83
160.03,-5.01
161.63,-5.20
163.24,-5.38
164.88,-5.56
166.53,-5.75
168.19,-5.95
169.87,-6.16
171.57,-6.37
173.29,-6.58
175.02,-6.79
176.77,-7.01
178.54,-7.23
180.32,-7.47
182.13,-7.70
183.95,-7.93
185.79,-8.16
187.65,-8.38
189.52,-8.62
191.42,-8.85
193.33,-9.08
195.27,-9.30
197.22,-9.53
199.19,-9.75
201.18,-9.96
203.19,-10.16
205.23,-10.35
207.28,-10.53
209.35,-10.71
211.44,-10.88
213.56,-11.04
215.69,-11.19
217.85,-11.33
220.03,-11.45
222.23,-11.57
224.45,-11.67
226.70,-11.76
228.96,-11.84
231.25,-11.90
233.57,-11.94
235.90,-11.97
238.26,-11.98
240.64,-11.96
243.05,-11.93
245.48,-11.90
247.93,-11.83
250.41,-11.75
252.92,-11.66
255.45,-11.55
258.00,-11.44
260.58,-11.33
263.19,-11.21
265.82,-11.07
268.48,-10.92
271.16,-10.77
273.87,-10.63
276.61,-10.49
279.38,-10.34
282.17,-10.17
284.99,-10.00
287.84,-9.84
290.72,-9.67
293.63,-9.50
296.57,-9.32
299.53,-9.15
302.53,-8.99
305.55,-8.83
308.61,-8.67
311.69,-8.49
314.81,-8.33
317.96,-8.17
321.14,-8.02
324.35,-7.86
327.59,-7.69
330.87,-7.52
334.18,-7.35
337.52,-7.20
340.90,-7.05
344.30,-6.90
347.75,-6.74
351.23,-6.58
354.74,-6.43
358.28,-6.29
361.87,-6.14
365.49,-5.99
369.14,-5.85
372.83,-5.72
376.56,-5.60
380.33,-5.47
384.13,-5.33
387.97,-5.21
391.85,-5.08
395.77,-4.96
399.73,-4.83
403.72,-4.71
407.76,-4.59
411.84,-4.48
415.96,-4.38
420.12,-4.28
424.32,-4.18
428.56,-4.08
432.85,-3.98
437.18,-3.89
441.55,-3.80
445.96,-3.70
450.42,-3.62
454.93,-3.54
459.48,-3.44
464.07,-3.35
468.71,-3.27
473.40,-3.19
478.13,-3.11
482.91,-3.03
487.74,-2.93
492.62,-2.85
497.55,-2.78
502.52,-2.71
507.55,-2.64
512.62,-2.57
517.75,-2.50
522.93,-2.43
528.16,-2.36
533.44,-2.30
538.77,-2.24
544.16,-2.17
549.60,-2.10
555.10,-2.03
560.65,-1.97
566.25,-1.92
571.92,-1.86
577.64,-1.81
583.41,-1.76
589.25,-1.71
595.14,-1.66
601.09,-1.61
607.10,-1.57
613.17,-1.53
619.30,-1.50
625.50,-1.45
631.75,-1.41
638.07,-1.36
644.45,-1.32
650.89,-1.28
657.40,-1.23
663.98,-1.19
670.62,-1.15
677.32,-1.11
684.10,-1.07
690.94,-1.02
697.85,-0.99
704.83,-0.95
711.87,-0.90
718.99,-0.86
726.18,-0.82
733.44,-0.78
740.78,-0.76
748.19,-0.74
755.67,-0.73
763.23,-0.70
770.86,-0.67
778.57,-0.63
786.35,-0.60
794.22,-0.56
802.16,-0.53
810.18,-0.50
818.28,-0.48
826.46,-0.46
834.73,-0.43
843.08,-0.41
851.51,-0.39
860.02,-0.37
868.62,-0.34
877.31,-0.32
886.08,-0.30
894.94,-0.27
903.89,-0.25
912.93,-0.23
922.06,-0.21
931.28,-0.19
940.59,-0.16
950.00,-0.13
959.50,-0.10
969.09,-0.07
978.78,-0.04
988.57,-0.02
998.46,-0.00
1008.44,0.01
1018.53,0.02
1028.71,0.02
1039.00,0.02
1049.39,0.02
1059.88,0.03
1070.48,0.05
1081.19,0.07
1092.00,0.09
1102.92,0.12
1113.95,0.15
1125.09,0.19
1136.34,0.22
1147.70,0.25
1159.18,0.27
1170.77,0.30
1182.48,0.32
1194.30,0.34
1206.25,0.35
1218.31,0.36
1230.49,0.36
1242.80,0.36
1255.22,0.35
1267.78,0.35
1280.45,0.34
1293.26,0.34
1306.19,0.34
1319.25,0.34
1332.45,0.34
1345.77,0.35
1359.23,0.36
1372.82,0.36
1386.55,0.37
1400.41,0.36
1414.42,0.35
1428.56,0.33
1442.85,0.31
1457.28,0.30
1471.85,0.28
1486.57,0.25
1501.43,0.21
1516.45,0.17
1531.61,0.13
1546.93,0.09
1562.40,0.05
1578.02,-0.01
1593.80,-0.06
1609.74,-0.12
1625.84,-0.17
1642.10,-0.23
1658.52,-0.28
1675.10,-0.34
1691.85,-0.40
1708.77,-0.47
1725.86,-0.56
1743.12,-0.64
1760.55,-0.73
1778.15,-0.83
1795.94,-0.91
1813.90,-1.01
1832.03,-1.12
1850.36,-1.23
1868.86,-1.35
1887.55,-1.46
1906.42,-1.57
1925.49,-1.69
1944.74,-1.81
1964.19,-1.92
1983.83,-2.02
2003.67,-2.11
2023.71,-2.21
2043.94,-2.29
2064.38,-2.37
2085.03,-2.45
2105.88,-2.52
2126.94,-2.59
2148.20,-2.65
2169.69,-2.69
2191.38,-2.74
2213.30,-2.78
2235.43,-2.80
2257.78,-2.83
2280.36,-2.86
2303.17,-2.87
2326.20,-2.89
2349.46,-2.90
2372.95,-2.90
2396.68,-2.90
2420.65,-2.90
2444.86,-2.90
2469.31,-2.90
2494.00,-2.91
2518.94,-2.93
2544.13,-2.95
2569.57,-2.98
2595.27,-3.01
2621.22,-3.04
2647.43,-3.07
2673.90,-3.10
2700.64,-3.14
2727.65,-3.18
2754.93,-3.21
2782.48,-3.24
2810.30,-3.25
2838.40,-3.25
2866.79,-3.24
2895.46,-3.23
2924.41,-3.20
2953.65,-3.17
2983.19,-3.13
3013.02,-3.09
3043.15,-3.04
3073.58,-2.99
3104.32,-2.94
3135.36,-2.88
3166.72,-2.83
3198.38,-2.78
3230.37,-2.72
3262.67,-2.66
3295.30,-2.62
3328.25,-2.59
3361.53,-2.57
3395.15,-2.57
3429.10,-2.57
3463.39,-2.58
3498.03,-2.61
3533.01,-2.65
3568.34,-2.70
3604.02,-2.77
3640.06,-2.85
3676.46,-2.94
3713.22,-3.05
3750.36,-3.18
3787.86,-3.31
3825.74,-3.45
3864.00,-3.61
3902.64,-3.78
3941.66,-3.95
3981.08,-4.12
4020.89,-4.28
4061.10,-4.45
4101.71,-4.61
4142.73,-4.74
4184.15,-4.87
4226.00,-4.99
4268.26,-5.08
4310.94,-5.13
4354.05,-5.16
4397.59,-5.15
4441.56,-5.11
4485.98,-5.04
4530.84,-4.96
4576.15,-4.86
4621.91,-4.75
4668.13,-4.61
4714.81,-4.47
4761.96,-4.34
4809.58,-4.21
4857.67,-4.08
4906.25,-3.96
4955.31,-3.84
5004.87,-3.74
5054.91,-3.66
5105.46,-3.60
5156.52,-3.56
5208.08,-3.55
5260.16,-3.56
5312.77,-3.58
5365.89,-3.61
5419.55,-3.67
5473.75,-3.75
5528.49,-3.84
5583.77,-3.95
5639.61,-4.07
5696.00,-4.19
5752.96,-4.30
5810.49,-4.41
5868.60,-4.51
5927.28,-4.61
5986.56,-4.69
6046.42,-4.76
6106.89,-4.80
6167.96,-4.84
6229.64,-4.86
6291.93,-4.87
6354.85,-4.86
6418.40,-4.84
6482.58,-4.80
6547.41,-4.78
6612.88,-4.78
6679.01,-4.78
6745.80,-4.82
6813.26,-4.87
6881.39,-4.95
6950.21,-5.06
7019.71,-5.17
7089.91,-5.32
7160.81,-5.50
7232.41,-5.70
7304.74,-5.93
7377.79,-6.21
7451.56,-6.53
7526.08,-6.90
7601.34,-7.31
7677.35,-7.76
7754.13,-8.25
7831.67,-8.77
7909.98,-9.31
7989.08,-9.88
8068.98,-10.50
8149.67,-11.13
8231.16,-11.77
8313.47,-12.41
8396.61,-13.05
8480.57,-13.66
8565.38,-14.22
8651.03,-14.73
8737.54,-15.18
8824.92,-15.59
8913.17,-15.93
9002.30,-16.22
9092.32,-16.45
9183.25,-16.64
9275.08,-16.80
9367.83,-16.93
9461.51,-17.04
9556.12,-17.13
9651.68,-17.20
9748.20,-17.27
9845.68,-17.33
9944.14,-17.36
10043.58,-17.37
10144.02,-17.34
10245.46,-17.28
10347.91,-17.16
10451.39,-16.98
10555.91,-16.74
10661.46,-16.45
10768.08,-16.10
10875.76,-15.72
10984.52,-15.30
11094.36,-14.86
11205.31,-14.40
11317.36,-13.93
11430.53,-13.48
11544.84,-13.05
11660.29,-12.65
11776.89,-12.28
11894.66,-11.95
12013.60,-11.65
12133.74,-11.39
12255.08,-11.16
12377.63,-10.95
12501.41,-10.76
12626.42,-10.59
12752.68,-10.42
12880.21,-10.23
13009.01,-10.02
13139.10,-9.80
13270.49,-9.56
13403.20,-9.31
13537.23,-9.03
13672.60,-8.74
13809.33,-8.44
13947.42,-8.14
14086.90,-7.83
14227.77,-7.54
14370.04,-7.25
14513.74,-6.99
14658.88,-6.75
14805.47,-6.54
14953.52,-6.36
15103.06,-6.22
15254.09,-6.13
15406.63,-6.08
15560.70,-6.07
15716.30,-6.09
15873.47,-6.12
16032.20,-6.18
16192.52,-6.26
16354.45,-6.36
16517.99,-6.48
16683.17,-6.67
16850.01,-6.90
17018.51,-7.21
17188.69,-7.62
17360.58,-8.19
17534.18,-8.92
17709.53,-9.84
17886.62,-10.93
18065.49,-12.18
18246.14,-13.57
18428.60,-15.12
18612.89,-16.81
18799.02,-18.65
18987.01,-20.64
19176.88,-22.78
19368.65,-25.06
19562.33,-27.50
19757.96,-30.09
19955.54,-32.82
