frequency,raw,error,smoothed,error_smoothed,equalization,parametric_eq,fixed_band_eq,equalized_raw,equalized_smoothed,target
20.00,-3.45,0.62,-3.45,0.62,-0.62,-0.01,-0.21,-4.07,-4.08,-4.07
20.20,-3.43,0.59,-3.43,0.59,-0.59,-0.01,-0.21,-4.02,-4.02,-4.02
20.40,-3.41,0.56,-3.41,0.56,-0.56,-0.01,-0.22,-3.98,-3.97,-3.97
20.61,-3.39,0.55,-3.39,0.54,-0.54,-0.01,-0.23,-3.93,-3.93,-3.94
20.81,-3.37,0.52,-3.37,0.52,-0.51,-0.01,-0.23,-3.89,-3.89,-3.89
21.02,-3.35,0.50,-3.36,0.50,-0.49,-0.01,-0.24,-3.84,-3.85,-3.85
21.23,-3.35,0.48,-3.35,0.48,-0.47,-0.01,-0.25,-3.83,-3.82,-3.83
21.44,-3.35,0.46,-3.35,0.46,-0.46,-0.01,-0.25,-3.81,-3.81,-3.81
21.66,-3.35,0.44,-3.35,0.44,-0.44,-0.01,-0.26,-3.79,-3.79,-3.79
21.87,-3.35,0.43,-3.35,0.43,-0.43,-0.01,-0.27,-3.78,-3.78,-3.78
22.09,-3.35,0.41,-3.35,0.41,-0.42,-0.01,-0.28,-3.77,-3.77,-3.76
22.31,-3.35,0.40,-3.35,0.40,-0.41,-0.01,-0.29,-3.76,-3.76,-3.75
22.54,-3.35,0.40,-3.35,0.40,-0.41,-0.01,-0.30,-3.76,-3.76,-3.75
22.76,-3.35,0.40,-3.35,0.40,-0.40,-0.01,-0.30,-3.76,-3.76,-3.75
22.99,-3.35,0.41,-3.35,0.41,-0.40,-0.01,-0.31,-3.75,-3.75,-3.76
23.22,-3.35,0.41,-3.35,0.41,-0.40,-0.01,-0.32,-3.75,-3.75,-3.76
23.45,-3.35,0.41,-3.35,0.41,-0.40,-0.01,-0.33,-3.75,-3.75,-3.76
23.69,-3.35,0.40,-3.35,0.41,-0.40,-0.01,-0.34,-3.75,-3.75,-3.75
23.92,-3.35,0.40,-3.35,0.40,-0.40,-0.01,-0.35,-3.75,-3.75,-3.75
24.16,-3.35,0.39,-3.35,0.39,-0.40,-0.02,-0.36,-3.75,-3.75,-3.74
24.40,-3.35,0.38,-3.35,0.39,-0.39,-0.02,-0.37,-3.75,-3.75,-3.74
24.65,-3.35,0.39,-3.35,0.39,-0.39,-0.02,-0.38,-3.74,-3.74,-3.75
24.89,-3.35,0.39,-3.35,0.39,-0.39,-0.02,-0.39,-3.74,-3.74,-3.75
25.14,-3.35,0.40,-3.35,0.39,-0.39,-0.02,-0.40,-3.74,-3.74,-3.75
25.39,-3.35,0.39,-3.35,0.39,-0.39,-0.02,-0.41,-3.74,-3.74,-3.74
25.65,-3.35,0.39,-3.35,0.39,-0.39,-0.02,-0.42,-3.74,-3.74,-3.74
25.91,-3.35,0.40,-3.35,0.39,-0.39,-0.02,-0.43,-3.74,-3.74,-3.75
26.16,-3.35,0.40,-3.35,0.40,-0.39,-0.02,-0.44,-3.74,-3.74,-3.75
26.43,-3.35,0.40,-3.35,0.40,-0.39,-0.02,-0.45,-3.74,-3.74,-3.75
26.69,-3.35,0.40,-3.35,0.40,-0.39,-0.02,-0.46,-3.74,-3.74,-3.75
26.96,-3.35,0.39,-3.35,0.39,-0.39,-0.02,-0.47,-3.74,-3.74,-3.74
27.23,-3.35,0.39,-3.35,0.39,-0.39,-0.02,-0.48,-3.75,-3.75,-3.74
27.50,-3.35,0.39,-3.35,0.39,-0.41,-0.02,-0.49,-3.76,-3.76,-3.74
27.77,-3.35,0.40,-3.35,0.40,-0.43,-0.02,-0.50,-3.78,-3.78,-3.75
28.05,-3.34,0.41,-3.33,0.42,-0.45,-0.02,-0.51,-3.79,-3.78,-3.75
28.33,-3.30,0.46,-3.30,0.46,-0.47,-0.02,-0.52,-3.77,-3.77,-3.76
28.62,-3.25,0.51,-3.25,0.51,-0.49,-0.02,-0.52,-3.74,-3.74,-3.77
28.90,-3.21,0.54,-3.22,0.54,-0.51,-0.02,-0.53,-3.72,-3.73,-3.76
29.19,-3.20,0.57,-3.21,0.55,-0.52,-0.02,-0.54,-3.72,-3.73,-3.77
29.48,-3.22,0.53,-3.22,0.54,-0.53,-0.02,-0.54,-3.75,-3.75,-3.75
29.78,-3.24,0.52,-3.24,0.52,-0.53,-0.02,-0.55,-3.77,-3.77,-3.76
30.08,-3.25,0.50,-3.25,0.51,-0.53,-0.02,-0.55,-3.78,-3.78,-3.75
30.38,-3.25,0.51,-3.25,0.51,-0.52,-0.02,-0.55,-3.77,-3.77,-3.76
30.68,-3.25,0.51,-3.25,0.51,-0.51,-0.02,-0.56,-3.76,-3.76,-3.76
30.99,-3.25,0.51,-3.26,0.51,-0.49,-0.02,-0.56,-3.75,-3.75,-3.76
31.30,-3.27,0.49,-3.27,0.49,-0.48,-0.03,-0.56,-3.75,-3.75,-3.76
31.61,-3.29,0.47,-3.29,0.48,-0.47,-0.03,-0.56,-3.76,-3.76,-3.77
31.93,-3.31,0.46,-3.31,0.46,-0.46,-0.03,-0.56,-3.77,-3.77,-3.77
32.24,-3.32,0.46,-3.32,0.45,-0.45,-0.03,-0.56,-3.78,-3.78,-3.78
32.57,-3.33,0.44,-3.34,0.44,-0.44,-0.03,-0.56,-3.78,-3.78,-3.77
32.89,-3.35,0.42,-3.35,0.43,-0.44,-0.03,-0.55,-3.79,-3.78,-3.77
33.22,-3.35,0.43,-3.35,0.43,-0.43,-0.03,-0.55,-3.79,-3.79,-3.78
33.55,-3.35,0.43,-3.35,0.43,-0.43,-0.03,-0.54,-3.79,-3.79,-3.78
33.89,-3.35,0.44,-3.35,0.44,-0.44,-0.03,-0.54,-3.79,-3.79,-3.80
34.23,-3.35,0.44,-3.35,0.44,-0.44,-0.03,-0.53,-3.79,-3.79,-3.79
34.57,-3.35,0.45,-3.35,0.45,-0.45,-0.03,-0.53,-3.80,-3.80,-3.80
34.92,-3.35,0.45,-3.35,0.45,-0.45,-0.03,-0.52,-3.81,-3.81,-3.80
35.27,-3.35,0.45,-3.35,0.45,-0.46,-0.03,-0.51,-3.81,-3.81,-3.80
35.62,-3.35,0.45,-3.35,0.45,-0.46,-0.03,-0.51,-3.81,-3.81,-3.81
35.97,-3.35,0.46,-3.35,0.45,-0.45,-0.03,-0.50,-3.81,-3.80,-3.81
36.33,-3.35,0.45,-3.35,0.46,-0.44,-0.03,-0.49,-3.79,-3.78,-3.80
36.70,-3.35,0.46,-3.35,0.46,-0.42,-0.03,-0.48,-3.77,-3.77,-3.81
37.06,-3.36,0.45,-3.38,0.43,-0.40,-0.04,-0.47,-3.76,-3.78,-3.81
37.43,-3.42,0.37,-3.43,0.38,-0.38,-0.04,-0.47,-3.80,-3.81,-3.80
37.81,-3.49,0.31,-3.47,0.33,-0.36,-0.04,-0.46,-3.85,-3.84,-3.80
38.19,-3.51,0.29,-3.50,0.30,-0.34,-0.04,-0.45,-3.86,-3.84,-3.80
38.57,-3.48,0.31,-3.49,0.31,-0.33,-0.04,-0.44,-3.81,-3.82,-3.79
38.95,-3.45,0.34,-3.46,0.33,-0.32,-0.04,-0.43,-3.77,-3.79,-3.79
39.34,-3.45,0.34,-3.45,0.34,-0.32,-0.04,-0.42,-3.77,-3.77,-3.79
39.74,-3.45,0.34,-3.45,0.34,-0.32,-0.04,-0.41,-3.77,-3.77,-3.79
40.14,-3.45,0.34,-3.45,0.34,-0.33,-0.04,-0.41,-3.78,-3.78,-3.79
40.54,-3.45,0.34,-3.45,0.34,-0.34,-0.04,-0.40,-3.79,-3.79,-3.79
40.94,-3.45,0.34,-3.45,0.34,-0.35,-0.04,-0.39,-3.81,-3.81,-3.79
41.35,-3.45,0.35,-3.45,0.34,-0.36,-0.04,-0.38,-3.81,-3.82,-3.80
41.76,-3.45,0.35,-3.45,0.35,-0.36,-0.04,-0.37,-3.82,-3.81,-3.80
42.18,-3.44,0.35,-3.43,0.37,-0.36,-0.05,-0.37,-3.80,-3.79,-3.80
42.60,-3.41,0.40,-3.41,0.39,-0.36,-0.05,-0.36,-3.77,-3.77,-3.81
43.03,-3.39,0.42,-3.42,0.39,-0.36,-0.05,-0.35,-3.75,-3.78,-3.81
43.46,-3.46,0.36,-3.46,0.36,-0.36,-0.05,-0.34,-3.82,-3.82,-3.82
43.90,-3.53,0.31,-3.51,0.33,-0.36,-0.05,-0.34,-3.89,-3.87,-3.84
44.33,-3.55,0.31,-3.55,0.31,-0.35,-0.05,-0.33,-3.90,-3.89,-3.86
44.78,-3.55,0.32,-3.56,0.31,-0.33,-0.05,-0.33,-3.88,-3.88,-3.87
45.23,-3.55,0.33,-3.55,0.34,-0.30,-0.05,-0.32,-3.85,-3.85,-3.88
45.68,-3.55,0.34,-3.56,0.34,-0.29,-0.05,-0.31,-3.84,-3.84,-3.89
46.13,-3.57,0.34,-3.60,0.30,-0.28,-0.05,-0.31,-3.85,-3.88,-3.91
46.60,-3.66,0.24,-3.66,0.26,-0.28,-0.06,-0.30,-3.94,-3.94,-3.90
47.06,-3.73,0.19,-3.69,0.22,-0.28,-0.06,-0.30,-4.02,-3.98,-3.92
47.53,-3.69,0.23,-3.70,0.22,-0.28,-0.06,-0.30,-3.98,-3.98,-3.93
48.01,-3.65,0.27,-3.65,0.28,-0.28,-0.06,-0.29,-3.93,-3.93,-3.92
48.49,-3.61,0.33,-3.61,0.33,-0.28,-0.06,-0.29,-3.89,-3.89,-3.94
48.97,-3.57,0.38,-3.61,0.34,-0.29,-0.06,-0.28,-3.86,-3.90,-3.96
49.46,-3.65,0.32,-3.65,0.32,-0.29,-0.06,-0.28,-3.94,-3.94,-3.97
49.96,-3.74,0.25,-3.71,0.28,-0.29,-0.06,-0.28,-4.03,-4.00,-3.99
50.46,-3.75,0.24,-3.75,0.24,-0.28,-0.07,-0.27,-4.03,-4.03,-3.99
50.96,-3.75,0.24,-3.75,0.25,-0.26,-0.07,-0.27,-4.01,-4.01,-4.00
51.47,-3.75,0.26,-3.75,0.26,-0.23,-0.07,-0.27,-3.98,-3.98,-4.01
51.99,-3.75,0.27,-3.79,0.23,-0.21,-0.07,-0.27,-3.96,-4.00,-4.02
52.51,-3.84,0.18,-3.84,0.18,-0.20,-0.07,-0.26,-4.04,-4.04,-4.02
53.03,-3.93,0.09,-3.87,0.15,-0.18,-0.07,-0.26,-4.12,-4.06,-4.02
53.56,-3.87,0.16,-3.88,0.15,-0.17,-0.07,-0.26,-4.05,-4.05,-4.03
54.10,-3.83,0.21,-3.86,0.17,-0.16,-0.08,-0.26,-3.99,-4.03,-4.04
54.64,-3.86,0.19,-3.86,0.19,-0.15,-0.08,-0.26,-4.01,-4.01,-4.05
55.18,-3.89,0.16,-3.89,0.16,-0.14,-0.08,-0.25,-4.03,-4.03,-4.05
55.74,-3.93,0.13,-3.93,0.13,-0.14,-0.08,-0.25,-4.08,-4.07,-4.06
56.29,-3.95,0.11,-3.95,0.12,-0.15,-0.08,-0.25,-4.10,-4.09,-4.06
56.86,-3.95,0.12,-3.95,0.12,-0.15,-0.08,-0.25,-4.10,-4.10,-4.07
57.42,-3.95,0.14,-3.95,0.14,-0.14,-0.08,-0.25,-4.09,-4.09,-4.09
58.00,-3.95,0.15,-3.95,0.15,-0.12,-0.09,-0.25,-4.07,-4.07,-4.10
58.58,-3.95,0.15,-3.96,0.15,-0.11,-0.09,-0.25,-4.06,-4.06,-4.10
59.16,-3.97,0.14,-3.98,0.13,-0.10,-0.09,-0.25,-4.07,-4.08,-4.11
59.76,-4.03,0.10,-4.03,0.10,-0.09,-0.09,-0.25,-4.13,-4.13,-4.13
60.35,-4.09,0.07,-4.09,0.07,-0.09,-0.09,-0.25,-4.18,-4.18,-4.16
60.96,-4.15,0.03,-4.13,0.05,-0.10,-0.09,-0.25,-4.25,-4.23,-4.19
61.57,-4.15,0.07,-4.16,0.06,-0.11,-0.10,-0.25,-4.26,-4.26,-4.22
62.18,-4.15,0.10,-4.16,0.10,-0.12,-0.10,-0.25,-4.27,-4.28,-4.26
62.80,-4.15,0.14,-4.14,0.15,-0.14,-0.10,-0.25,-4.29,-4.28,-4.29
63.43,-4.13,0.20,-4.13,0.20,-0.16,-0.10,-0.25,-4.30,-4.30,-4.33
64.07,-4.12,0.24,-4.14,0.23,-0.19,-0.10,-0.25,-4.31,-4.33,-4.37
64.71,-4.17,0.23,-4.17,0.23,-0.21,-0.11,-0.25,-4.38,-4.38,-4.40
65.35,-4.21,0.22,-4.21,0.23,-0.22,-0.11,-0.25,-4.43,-4.43,-4.43
66.01,-4.26,0.21,-4.24,0.23,-0.23,-0.11,-0.25,-4.49,-4.47,-4.47
66.67,-4.26,0.25,-4.29,0.21,-0.24,-0.11,-0.25,-4.50,-4.53,-4.51
67.33,-4.31,0.24,-4.33,0.21,-0.24,-0.12,-0.26,-4.55,-4.57,-4.55
68.01,-4.42,0.16,-4.35,0.23,-0.25,-0.12,-0.26,-4.67,-4.60,-4.58
68.69,-4.34,0.28,-4.37,0.25,-0.26,-0.12,-0.26,-4.60,-4.62,-4.62
69.37,-4.34,0.32,-4.38,0.28,-0.27,-0.12,-0.26,-4.61,-4.65,-4.66
70.07,-4.40,0.30,-4.39,0.31,-0.28,-0.12,-0.26,-4.68,-4.67,-4.70
70.77,-4.45,0.28,-4.43,0.31,-0.30,-0.13,-0.26,-4.75,-4.72,-4.73
71.48,-4.46,0.32,-4.48,0.30,-0.31,-0.13,-0.27,-4.78,-4.79,-4.78
72.19,-4.49,0.34,-4.51,0.31,-0.33,-0.13,-0.27,-4.82,-4.84,-4.83
72.91,-4.59,0.28,-4.53,0.34,-0.34,-0.13,-0.27,-4.93,-4.87,-4.88
73.64,-4.54,0.38,-4.57,0.35,-0.36,-0.14,-0.27,-4.90,-4.93,-4.92
74.38,-4.56,0.40,-4.60,0.37,-0.37,-0.14,-0.28,-4.94,-4.97,-4.97
75.12,-4.66,0.35,-4.62,0.39,-0.39,-0.14,-0.28,-5.05,-5.01,-5.01
75.87,-4.66,0.40,-4.66,0.40,-0.40,-0.15,-0.28,-5.06,-5.06,-5.06
76.63,-4.66,0.43,-4.67,0.42,-0.41,-0.15,-0.29,-5.07,-5.09,-5.10
77.40,-4.68,0.45,-4.69,0.45,-0.42,-0.15,-0.29,-5.10,-5.10,-5.13
78.17,-4.72,0.46,-4.73,0.44,-0.42,-0.15,-0.29,-5.14,-5.15,-5.18
78.95,-4.78,0.42,-4.78,0.42,-0.43,-0.16,-0.30,-5.21,-5.21,-5.20
79.74,-4.84,0.40,-4.83,0.41,-0.44,-0.16,-0.30,-5.28,-5.27,-5.24
80.54,-4.86,0.41,-4.86,0.41,-0.45,-0.16,-0.31,-5.31,-5.31,-5.27
81.35,-4.86,0.45,-4.87,0.44,-0.47,-0.17,-0.31,-5.33,-5.34,-5.31
82.16,-4.86,0.48,-4.86,0.48,-0.48,-0.17,-0.31,-5.34,-5.34,-5.34
82.98,-4.86,0.50,-4.85,0.52,-0.50,-0.17,-0.32,-5.36,-5.35,-5.36
83.81,-4.84,0.56,-4.85,0.56,-0.52,-0.18,-0.32,-5.36,-5.36,-5.41
84.65,-4.84,0.60,-4.87,0.57,-0.54,-0.18,-0.33,-5.38,-5.40,-5.44
85.50,-4.90,0.56,-4.90,0.57,-0.56,-0.18,-0.34,-5.46,-5.46,-5.46
86.35,-4.96,0.53,-4.94,0.56,-0.59,-0.19,-0.34,-5.55,-5.53,-5.50
87.22,-4.96,0.57,-4.96,0.57,-0.61,-0.19,-0.35,-5.57,-5.58,-5.53
88.09,-4.96,0.60,-4.97,0.60,-0.63,-0.20,-0.35,-5.59,-5.60,-5.57
88.97,-4.96,0.64,-4.96,0.64,-0.64,-0.20,-0.36,-5.60,-5.60,-5.60
89.86,-4.96,0.67,-4.94,0.69,-0.65,-0.20,-0.37,-5.61,-5.59,-5.64
90.76,-4.94,0.73,-4.95,0.72,-0.66,-0.21,-0.37,-5.60,-5.61,-5.67
91.66,-4.96,0.74,-5.00,0.71,-0.67,-0.21,-0.38,-5.63,-5.67,-5.70
92.58,-5.08,0.66,-5.07,0.67,-0.68,-0.21,-0.39,-5.76,-5.75,-5.75
93.51,-5.16,0.61,-5.13,0.64,-0.69,-0.22,-0.40,-5.85,-5.82,-5.77
94.44,-5.16,0.64,-5.17,0.64,-0.69,-0.22,-0.41,-5.85,-5.86,-5.80
95.39,-5.15,0.68,-5.16,0.67,-0.69,-0.23,-0.41,-5.84,-5.85,-5.83
96.34,-5.16,0.71,-5.15,0.72,-0.68,-0.23,-0.42,-5.85,-5.83,-5.87
97.30,-5.15,0.74,-5.16,0.73,-0.69,-0.24,-0.43,-5.84,-5.85,-5.90
98.28,-5.18,0.74,-5.20,0.72,-0.70,-0.24,-0.44,-5.88,-5.90,-5.92
99.26,-5.27,0.68,-5.25,0.70,-0.71,-0.25,-0.45,-5.98,-5.96,-5.95
100.25,-5.31,0.67,-5.30,0.68,-0.72,-0.25,-0.46,-6.03,-6.02,-5.98
101.25,-5.33,0.68,-5.33,0.68,-0.72,-0.26,-0.47,-6.05,-6.05,-6.01
102.27,-5.34,0.70,-5.34,0.70,-0.70,-0.26,-0.48,-6.04,-6.04,-6.04
103.29,-5.35,0.73,-5.35,0.73,-0.69,-0.27,-0.49,-6.04,-6.03,-6.08
104.32,-5.37,0.73,-5.39,0.71,-0.67,-0.27,-0.50,-6.04,-6.06,-6.10
105.37,-5.44,0.69,-5.46,0.67,-0.65,-0.28,-0.51,-6.09,-6.11,-6.13
106.42,-5.57,0.59,-5.55,0.61,-0.63,-0.28,-0.52,-6.20,-6.18,-6.16
107.48,-5.64,0.56,-5.62,0.58,-0.61,-0.29,-0.53,-6.25,-6.23,-6.20
108.56,-5.66,0.58,-5.67,0.56,-0.59,-0.29,-0.54,-6.25,-6.26,-6.24
109.64,-5.69,0.57,-5.72,0.55,-0.56,-0.30,-0.55,-6.25,-6.28,-6.27
110.74,-5.77,0.53,-5.76,0.54,-0.54,-0.30,-0.56,-6.31,-6.30,-6.31
111.85,-5.82,0.50,-5.80,0.53,-0.53,-0.31,-0.57,-6.35,-6.33,-6.32
112.97,-5.83,0.54,-5.84,0.53,-0.52,-0.32,-0.58,-6.35,-6.35,-6.37
114.10,-5.85,0.55,-5.87,0.53,-0.51,-0.32,-0.59,-6.36,-6.38,-6.40
115.24,-5.92,0.51,-5.92,0.51,-0.51,-0.33,-0.60,-6.43,-6.43,-6.43
116.39,-5.99,0.48,-5.98,0.48,-0.50,-0.33,-0.61,-6.49,-6.48,-6.47
117.55,-6.03,0.45,-6.02,0.47,-0.50,-0.34,-0.62,-6.53,-6.52,-6.49
118.73,-6.03,0.48,-6.03,0.48,-0.49,-0.35,-0.63,-6.52,-6.52,-6.51
119.92,-6.03,0.49,-6.03,0.50,-0.47,-0.35,-0.64,-6.51,-6.51,-6.52
121.12,-6.03,0.51,-6.05,0.49,-0.46,-0.36,-0.65,-6.49,-6.51,-6.55
122.33,-6.09,0.47,-6.10,0.46,-0.44,-0.37,-0.66,-6.53,-6.54,-6.56
123.55,-6.16,0.41,-6.14,0.43,-0.42,-0.37,-0.67,-6.58,-6.57,-6.57
124.79,-6.20,0.38,-6.19,0.40,-0.41,-0.38,-0.67,-6.61,-6.60,-6.58
126.03,-6.19,0.41,-6.22,0.37,-0.40,-0.39,-0.68,-6.59,-6.62,-6.60
127.29,-6.25,0.35,-6.25,0.36,-0.39,-0.40,-0.69,-6.64,-6.63,-6.60
128.57,-6.28,0.35,-6.27,0.36,-0.38,-0.40,-0.70,-6.66,-6.64,-6.63
129.85,-6.27,0.37,-6.28,0.36,-0.37,-0.41,-0.71,-6.64,-6.65,-6.64
131.15,-6.27,0.38,-6.27,0.39,-0.37,-0.42,-0.72,-6.64,-6.64,-6.65
132.46,-6.26,0.41,-6.26,0.41,-0.37,-0.43,-0.73,-6.63,-6.63,-6.67
133.79,-6.26,0.42,-6.28,0.40,-0.37,-0.43,-0.73,-6.64,-6.65,-6.68
135.12,-6.30,0.40,-6.30,0.39,-0.38,-0.44,-0.74,-6.68,-6.68,-6.70
136.48,-6.34,0.36,-6.33,0.38,-0.39,-0.45,-0.75,-6.73,-6.72,-6.70
137.84,-6.35,0.37,-6.36,0.37,-0.40,-0.46,-0.76,-6.75,-6.75,-6.72
139.22,-6.35,0.39,-6.35,0.39,-0.41,-0.47,-0.77,-6.76,-6.76,-6.74
140.61,-6.34,0.42,-6.32,0.43,-0.44,-0.48,-0.77,-6.78,-6.76,-6.76
142.02,-6.27,0.49,-6.29,0.47,-0.47,-0.49,-0.78,-6.74,-6.77,-6.76
143.44,-6.25,0.53,-6.26,0.52,-0.52,-0.49,-0.79,-6.77,-6.78,-6.78
144.87,-6.24,0.56,-6.22,0.58,-0.58,-0.50,-0.80,-6.82,-6.80,-6.80
146.32,-6.17,0.66,-6.18,0.64,-0.65,-0.51,-0.81,-6.82,-6.84,-6.83
147.78,-6.14,0.71,-6.13,0.72,-0.73,-0.52,-0.82,-6.87,-6.86,-6.85
149.26,-6.08,0.80,-6.08,0.81,-0.81,-0.53,-0.83,-6.89,-6.89,-6.88
150.75,-6.04,0.90,-6.05,0.88,-0.88,-0.54,-0.84,-6.93,-6.94,-6.94
152.26,-6.04,0.95,-6.04,0.95,-0.96,-0.55,-0.85,-7.00,-7.00,-6.99
153.78,-6.04,1.00,-6.03,1.01,-1.02,-0.56,-0.86,-7.06,-7.05,-7.05
155.32,-6.04,1.07,-6.03,1.07,-1.06,-0.57,-0.88,-7.11,-7.10,-7.11
156.88,-6.04,1.13,-6.05,1.12,-1.08,-0.58,-0.89,-7.13,-7.14,-7.17
158.44,-6.09,1.15,-6.10,1.14,-1.08,-0.59,-0.90,-7.17,-7.18,-7.24
160.03,-6.19,1.12,-6.19,1.12,-1.06,-0.60,-0.92,-7.25,-7.25,-7.31
161.63,-6.30,1.07,-6.31,1.07,-1.04,-0.62,-0.93,-7.34,-7.34,-7.38
163.24,-6.44,0.98,-6.43,0.99,-1.01,-0.63,-0.95,-7.45,-7.44,-7.43
164.88,-6.52,0.94,-6.53,0.94,-0.99,-0.64,-0.96,-7.52,-7.52,-7.47
166.53,-6.61,0.89,-6.60,0.91,-0.99,-0.65,-0.98,-7.60,-7.59,-7.51
168.19,-6.59,0.94,-6.59,0.94,-1.01,-0.66,-1.00,-7.60,-7.60,-7.53
169.87,-6.56,1.00,-6.54,1.02,-1.04,-0.67,-1.01,-7.60,-7.58,-7.56
171.57,-6.43,1.14,-6.46,1.11,-1.10,-0.69,-1.03,-7.53,-7.56,-7.57
173.29,-6.37,1.21,-6.38,1.20,-1.18,-0.70,-1.05,-7.55,-7.55,-7.58
175.02,-6.30,1.27,-6.28,1.29,-1.26,-0.71,-1.07,-7.56,-7.55,-7.57
176.77,-6.21,1.37,-6.21,1.36,-1.34,-0.72,-1.09,-7.56,-7.56,-7.58
178.54,-6.12,1.45,-6.14,1.43,-1.42,-0.74,-1.12,-7.54,-7.55,-7.58
180.32,-6.08,1.48,-6.07,1.49,-1.47,-0.75,-1.14,-7.55,-7.54,-7.56
182.13,-6.02,1.52,-6.02,1.53,-1.52,-0.76,-1.16,-7.54,-7.54,-7.54
183.95,-5.97,1.58,-5.98,1.56,-1.56,-0.78,-1.19,-7.53,-7.54,-7.55
185.79,-5.96,1.58,-5.95,1.59,-1.59,-0.79,-1.21,-7.55,-7.54,-7.54
187.65,-5.94,1.61,-5.94,1.61,-1.62,-0.80,-1.24,-7.57,-7.56,-7.56
189.52,-5.92,1.64,-5.93,1.63,-1.66,-0.82,-1.27,-7.58,-7.59,-7.56
191.42,-5.91,1.66,-5.90,1.67,-1.70,-0.83,-1.29,-7.61,-7.60,-7.57
193.33,-5.87,1.71,-5.86,1.72,-1.73,-0.85,-1.32,-7.60,-7.60,-7.58
195.27,-5.81,1.78,-5.82,1.78,-1.77,-0.86,-1.35,-7.58,-7.59,-7.60
197.22,-5.77,1.84,-5.78,1.83,-1.81,-0.88,-1.38,-7.58,-7.59,-7.61
199.19,-5.76,1.87,-5.76,1.86,-1.84,-0.89,-1.41,-7.60,-7.60,-7.63
201.18,-5.75,1.89,-5.75,1.89,-1.87,-0.91,-1.44,-7.62,-7.62,-7.64
203.19,-5.75,1.90,-5.75,1.90,-1.90,-0.92,-1.47,-7.66,-7.65,-7.65
205.23,-5.74,1.93,-5.75,1.91,-1.93,-0.94,-1.50,-7.67,-7.68,-7.67
207.28,-5.74,1.93,-5.74,1.93,-1.96,-0.96,-1.53,-7.70,-7.70,-7.67
209.35,-5.74,1.95,-5.73,1.96,-1.98,-0.97,-1.56,-7.72,-7.71,-7.69
211.44,-5.70,2.01,-5.70,2.00,-2.01,-0.99,-1.59,-7.71,-7.71,-7.72
213.56,-5.66,2.05,-5.67,2.04,-2.03,-1.00,-1.62,-7.69,-7.70,-7.71
215.69,-5.65,2.07,-5.66,2.07,-2.05,-1.02,-1.66,-7.70,-7.71,-7.72
217.85,-5.66,2.07,-5.65,2.08,-2.07,-1.04,-1.69,-7.73,-7.72,-7.73
220.03,-5.66,2.08,-5.66,2.08,-2.08,-1.06,-1.72,-7.74,-7.74,-7.74
222.23,-5.66,2.09,-5.66,2.08,-2.08,-1.07,-1.74,-7.74,-7.74,-7.76
224.45,-5.66,2.08,-5.66,2.08,-2.08,-1.09,-1.77,-7.74,-7.74,-7.74
226.70,-5.66,2.08,-5.66,2.08,-2.07,-1.11,-1.80,-7.74,-7.74,-7.74
228.96,-5.66,2.06,-5.66,2.07,-2.07,-1.13,-1.83,-7.73,-7.73,-7.73
231.25,-5.65,2.06,-5.66,2.06,-2.07,-1.15,-1.85,-7.73,-7.73,-7.71
233.57,-5.64,2.06,-5.64,2.06,-2.08,-1.17,-1.88,-7.72,-7.72,-7.70
235.90,-5.63,2.05,-5.61,2.07,-2.09,-1.18,-1.90,-7.72,-7.70,-7.69
238.26,-5.57,2.10,-5.57,2.09,-2.09,-1.20,-1.92,-7.67,-7.67,-7.67
240.64,-5.51,2.13,-5.53,2.12,-2.10,-1.22,-1.94,-7.61,-7.63,-7.65
243.05,-5.49,2.12,-5.48,2.13,-2.11,-1.24,-1.96,-7.60,-7.60,-7.61
245.48,-5.46,2.13,-5.46,2.13,-2.12,-1.26,-1.97,-7.58,-7.57,-7.59
247.93,-5.43,2.12,-5.44,2.12,-2.12,-1.28,-1.99,-7.55,-7.56,-7.55
250.41,-5.42,2.11,-5.42,2.11,-2.12,-1.30,-2.00,-7.54,-7.53,-7.54
252.92,-5.40,2.10,-5.40,2.10,-2.11,-1.32,-2.01,-7.51,-7.51,-7.50
255.45,-5.39,2.08,-5.39,2.09,-2.09,-1.34,-2.02,-7.48,-7.48,-7.48
258.00,-5.38,2.07,-5.38,2.07,-2.07,-1.36,-2.03,-7.45,-7.45,-7.45
260.58,-5.37,2.06,-5.37,2.05,-2.05,-1.38,-2.03,-7.42,-7.42,-7.43
263.19,-5.37,2.03,-5.37,2.03,-2.03,-1.41,-2.04,-7.40,-7.40,-7.40
265.82,-5.37,2.01,-5.37,2.01,-2.00,-1.43,-2.04,-7.37,-7.37,-7.38
268.48,-5.38,1.97,-5.38,1.97,-1.97,-1.45,-2.04,-7.35,-7.35,-7.36
271.16,-5.38,1.94,-5.39,1.94,-1.93,-1.47,-2.04,-7.32,-7.32,-7.32
273.87,-5.41,1.89,-5.40,1.90,-1.90,-1.49,-2.04,-7.31,-7.30,-7.30
276.61,-5.39,1.87,-5.40,1.87,-1.87,-1.51,-2.04,-7.26,-7.27,-7.27
279.38,-5.39,1.85,-5.39,1.85,-1.85,-1.53,-2.04,-7.24,-7.24,-7.24
282.17,-5.38,1.83,-5.39,1.82,-1.83,-1.55,-2.03,-7.22,-7.22,-7.21
284.99,-5.38,1.79,-5.38,1.80,-1.82,-1.58,-2.03,-7.20,-7.21,-7.17
287.84,-5.37,1.79,-5.35,1.80,-1.82,-1.60,-2.02,-7.19,-7.17,-7.16
290.72,-5.31,1.81,-5.31,1.81,-1.81,-1.62,-2.02,-7.12,-7.12,-7.12
293.63,-5.24,1.85,-5.26,1.83,-1.81,-1.64,-2.01,-7.05,-7.07,-7.09
296.57,-5.23,1.82,-5.23,1.83,-1.80,-1.66,-2.01,-7.04,-7.03,-7.06
299.53,-5.22,1.81,-5.22,1.81,-1.80,-1.68,-2.01,-7.02,-7.01,-7.03
302.53,-5.21,1.80,-5.21,1.79,-1.79,-1.70,-2.00,-7.00,-7.00,-7.01
305.55,-5.20,1.76,-5.20,1.77,-1.77,-1.72,-2.00,-6.98,-6.97,-6.96
308.61,-5.19,1.75,-5.19,1.75,-1.76,-1.74,-2.00,-6.95,-6.95,-6.94
311.69,-5.18,1.73,-5.18,1.73,-1.73,-1.76,-2.00,-6.92,-6.92,-6.92
314.81,-5.18,1.71,-5.18,1.71,-1.71,-1.78,-2.00,-6.90,-6.89,-6.89
317.96,-5.18,1.69,-5.18,1.69,-1.69,-1.79,-2.00,-6.88,-6.88,-6.87
321.14,-5.18,1.68,-5.18,1.67,-1.68,-1.81,-2.00,-6.86,-6.86,-6.86
324.35,-5.18,1.66,-5.18,1.66,-1.66,-1.83,-2.00,-6.84,-6.84,-6.84
327.59,-5.18,1.64,-5.18,1.65,-1.64,-1.84,-2.00,-6.83,-6.83,-6.83
330.87,-5.18,1.64,-5.18,1.63,-1.63,-1.85,-2.01,-6.81,-6.81,-6.82
334.18,-5.18,1.62,-5.18,1.62,-1.61,-1.86,-2.01,-6.79,-6.79,-6.80
337.52,-5.18,1.61,-5.18,1.60,-1.60,-1.87,-2.02,-6.78,-6.78,-6.79
340.90,-5.19,1.58,-5.19,1.58,-1.58,-1.88,-2.03,-6.77,-6.77,-6.77
344.30,-5.19,1.57,-5.19,1.58,-1.57,-1.88,-2.04,-6.77,-6.76,-6.76
347.75,-5.19,1.57,-5.19,1.57,-1.57,-1.88,-2.05,-6.76,-6.76,-6.76
351.23,-5.18,1.57,-5.20,1.56,-1.58,-1.88,-2.07,-6.76,-6.78,-6.76
354.74,-5.19,1.56,-5.19,1.57,-1.59,-1.88,-2.08,-6.78,-6.78,-6.76
358.28,-5.19,1.56,-5.16,1.59,-1.60,-1.87,-2.10,-6.80,-6.76,-6.75
361.87,-5.10,1.65,-5.12,1.62,-1.62,-1.86,-2.12,-6.72,-6.74,-6.75
365.49,-5.07,1.67,-5.08,1.66,-1.64,-1.84,-2.14,-6.71,-6.72,-6.74
369.14,-5.06,1.69,-5.05,1.69,-1.66,-1.82,-2.16,-6.72,-6.71,-6.75
372.83,-5.05,1.70,-5.05,1.70,-1.68,-1.80,-2.18,-6.73,-6.73,-6.75
376.56,-5.04,1.71,-5.05,1.70,-1.70,-1.78,-2.21,-6.74,-6.75,-6.75
380.33,-5.04,1.70,-5.04,1.70,-1.72,-1.76,-2.23,-6.76,-6.76,-6.74
384.13,-5.03,1.71,-5.02,1.73,-1.74,-1.75,-2.26,-6.77,-6.76,-6.74
387.97,-5.00,1.75,-4.99,1.76,-1.77,-1.74,-2.29,-6.77,-6.76,-6.76
391.85,-4.93,1.83,-4.97,1.79,-1.81,-1.74,-2.32,-6.75,-6.78,-6.77
395.77,-4.92,1.84,-4.92,1.84,-1.87,-1.76,-2.35,-6.79,-6.79,-6.76
399.73,-4.92,1.85,-4.87,1.90,-1.92,-1.79,-2.38,-6.84,-6.79,-6.77
403.72,-4.77,2.00,-4.80,1.97,-1.97,-1.83,-2.41,-6.74,-6.77,-6.77
407.76,-4.71,2.07,-4.71,2.07,-2.02,-1.89,-2.45,-6.73,-6.73,-6.78
411.84,-4.62,2.16,-4.63,2.15,-2.07,-1.97,-2.48,-6.69,-6.70,-6.78
415.96,-4.59,2.19,-4.61,2.17,-2.13,-2.05,-2.52,-6.72,-6.74,-6.78
420.12,-4.61,2.17,-4.62,2.17,-2.19,-2.14,-2.56,-6.80,-6.81,-6.78
424.32,-4.63,2.15,-4.61,2.17,-2.25,-2.23,-2.60,-6.89,-6.86,-6.78
