frequency,raw,error,smoothed,error_smoothed,equalization,parametric_eq,fixed_band_eq,equalized_raw,equalized_smoothed,target
20.00,2.71,-3.24,2.71,-3.24,3.24,2.94,0.56,5.95,5.95,5.95
20.20,2.78,-3.21,2.78,-3.21,3.21,2.94,0.58,5.99,5.99,5.99
20.40,2.84,-3.19,2.84,-3.18,3.18,2.94,0.60,6.02,6.03,6.03
20.61,2.91,-3.15,2.91,-3.15,3.15,2.93,0.62,6.06,6.06,6.05
20.81,2.98,-3.12,2.98,-3.12,3.12,2.91,0.64,6.10,6.09,6.10
21.02,3.05,-3.09,3.05,-3.08,3.08,2.89,0.66,6.13,6.12,6.13
21.23,3.11,-3.04,3.11,-3.04,3.04,2.87,0.68,6.15,6.15,6.15
21.44,3.18,-2.99,3.18,-3.00,2.99,2.84,0.71,6.17,6.17,6.17
21.66,3.25,-2.95,3.25,-2.95,2.95,2.80,0.73,6.19,6.19,6.19
21.87,3.31,-2.89,3.31,-2.89,2.90,2.76,0.75,6.21,6.21,6.20
22.09,3.38,-2.84,3.38,-2.84,2.84,2.71,0.78,6.22,6.22,6.22
22.31,3.45,-2.78,3.45,-2.79,2.78,2.66,0.80,6.23,6.23,6.23
22.54,3.51,-2.73,3.51,-2.73,2.73,2.61,0.83,6.24,6.24,6.24
22.76,3.58,-2.67,3.58,-2.67,2.67,2.55,0.86,6.25,6.25,6.25
22.99,3.65,-2.60,3.65,-2.61,2.61,2.49,0.88,6.26,6.26,6.25
23.22,3.71,-2.55,3.71,-2.55,2.56,2.43,0.91,6.26,6.27,6.26
23.45,3.78,-2.49,3.78,-2.49,2.50,2.37,0.94,6.28,6.28,6.27
23.69,3.84,-2.44,3.84,-2.44,2.44,2.30,0.97,6.28,6.28,6.28
23.92,3.91,-2.38,3.91,-2.39,2.39,2.24,1.00,6.30,6.29,6.29
24.16,3.97,-2.34,3.97,-2.34,2.33,2.17,1.03,6.30,6.30,6.31
24.40,4.04,-2.29,4.04,-2.28,2.28,2.10,1.06,6.32,6.32,6.33
24.65,4.11,-2.22,4.11,-2.23,2.22,2.04,1.09,6.33,6.33,6.33
24.89,4.17,-2.17,4.17,-2.17,2.17,1.97,1.12,6.34,6.34,6.34
25.14,4.24,-2.11,4.24,-2.11,2.12,1.90,1.15,6.36,6.35,6.35
25.39,4.30,-2.06,4.30,-2.06,2.06,1.84,1.19,6.36,6.36,6.36
25.65,4.36,-2.02,4.36,-2.01,2.01,1.78,1.22,6.36,6.37,6.38
25.91,4.43,-1.95,4.42,-1.95,1.95,1.71,1.25,6.38,6.38,6.38
26.16,4.49,-1.90,4.49,-1.90,1.90,1.65,1.28,6.39,6.39,6.39
26.43,4.55,-1.85,4.55,-1.84,1.85,1.59,1.31,6.39,6.40,6.40
26.69,4.62,-1.79,4.62,-1.79,1.79,1.53,1.34,6.41,6.41,6.40
26.96,4.68,-1.75,4.68,-1.74,1.74,1.47,1.37,6.42,6.42,6.42
27.23,4.74,-1.69,4.74,-1.69,1.69,1.41,1.40,6.43,6.43,6.43
27.50,4.80,-1.64,4.80,-1.64,1.64,1.36,1.42,6.44,6.44,6.44
27.77,4.86,-1.58,4.86,-1.59,1.59,1.31,1.45,6.45,6.45,6.44
28.05,4.92,-1.54,4.92,-1.54,1.53,1.25,1.47,6.45,6.45,6.46
28.33,4.98,-1.48,4.98,-1.48,1.48,1.20,1.49,6.46,6.46,6.46
28.62,5.04,-1.43,5.04,-1.43,1.43,1.15,1.51,6.47,6.47,6.47
28.90,5.10,-1.38,5.10,-1.38,1.38,1.11,1.53,6.48,6.48,6.48
29.19,5.16,-1.32,5.16,-1.33,1.33,1.06,1.54,6.49,6.49,6.48
29.48,5.21,-1.30,5.21,-1.29,1.28,1.02,1.56,6.49,6.50,6.51
29.78,5.27,-1.24,5.27,-1.24,1.23,0.97,1.57,6.50,6.50,6.51
30.08,5.32,-1.20,5.32,-1.19,1.19,0.93,1.57,6.51,6.51,6.51
30.38,5.38,-1.14,5.38,-1.14,1.14,0.89,1.58,6.52,6.52,6.51
30.68,5.43,-1.10,5.43,-1.10,1.10,0.85,1.58,6.53,6.53,6.53
30.99,5.49,-1.04,5.48,-1.05,1.05,0.81,1.58,6.54,6.54,6.53
31.30,5.53,-1.01,5.53,-1.01,1.01,0.77,1.57,6.54,6.54,6.54
31.61,5.58,-0.97,5.58,-0.97,0.97,0.74,1.57,6.55,6.55,6.55
31.93,5.62,-0.94,5.62,-0.94,0.93,0.70,1.55,6.55,6.55,6.56
32.24,5.66,-0.90,5.66,-0.90,0.90,0.67,1.54,6.56,6.56,6.56
32.57,5.71,-0.87,5.71,-0.86,0.86,0.64,1.52,6.57,6.57,6.57
32.89,5.76,-0.82,5.75,-0.83,0.83,0.60,1.50,6.59,6.58,6.58
33.22,5.79,-0.80,5.79,-0.80,0.80,0.57,1.48,6.59,6.60,6.59
33.55,5.83,-0.77,5.83,-0.77,0.77,0.54,1.45,6.60,6.60,6.60
33.89,5.87,-0.74,5.87,-0.74,0.75,0.51,1.43,6.61,6.61,6.61
34.23,5.90,-0.72,5.90,-0.72,0.72,0.49,1.39,6.62,6.62,6.62
34.57,5.93,-0.70,5.93,-0.69,0.69,0.46,1.36,6.62,6.62,6.63
34.92,5.96,-0.66,5.96,-0.67,0.66,0.43,1.33,6.62,6.62,6.62
35.27,6.00,-0.63,6.00,-0.63,0.63,0.41,1.29,6.63,6.63,6.63
35.62,6.04,-0.60,6.04,-0.60,0.60,0.38,1.25,6.64,6.64,6.64
35.97,6.08,-0.56,6.08,-0.56,0.57,0.36,1.21,6.65,6.64,6.64
36.33,6.11,-0.54,6.11,-0.53,0.53,0.33,1.17,6.64,6.65,6.65
36.70,6.15,-0.49,6.15,-0.50,0.50,0.31,1.13,6.65,6.65,6.64
37.06,6.19,-0.46,6.19,-0.46,0.46,0.28,1.08,6.65,6.65,6.65
37.43,6.23,-0.43,6.23,-0.43,0.42,0.26,1.04,6.65,6.65,6.66
37.81,6.27,-0.39,6.27,-0.39,0.38,0.24,1.00,6.65,6.65,6.66
38.19,6.31,-0.34,6.31,-0.34,0.34,0.22,0.95,6.64,6.65,6.65
38.57,6.36,-0.29,6.36,-0.29,0.29,0.20,0.90,6.65,6.65,6.65
38.95,6.41,-0.24,6.41,-0.24,0.24,0.18,0.86,6.65,6.65,6.65
39.34,6.46,-0.18,6.46,-0.19,0.19,0.16,0.81,6.65,6.65,6.64
39.74,6.50,-0.14,6.50,-0.14,0.14,0.14,0.77,6.64,6.65,6.64
40.14,6.55,-0.10,6.55,-0.10,0.10,0.12,0.72,6.65,6.64,6.65
40.54,6.59,-0.06,6.59,-0.05,0.05,0.10,0.67,6.64,6.64,6.64
40.94,6.63,-0.01,6.63,-0.01,0.01,0.08,0.63,6.64,6.64,6.64
41.35,6.68,0.04,6.68,0.04,-0.03,0.06,0.58,6.65,6.65,6.64
41.76,6.72,0.08,6.72,0.07,-0.07,0.04,0.53,6.65,6.65,6.64
42.18,6.75,0.10,6.75,0.10,-0.10,0.02,0.49,6.65,6.65,6.65
42.60,6.78,0.13,6.78,0.13,-0.14,0.01,0.44,6.64,6.64,6.65
43.03,6.81,0.16,6.81,0.16,-0.17,-0.01,0.40,6.64,6.64,6.65
43.46,6.85,0.20,6.85,0.20,-0.21,-0.03,0.35,6.64,6.64,6.65
43.90,6.88,0.25,6.88,0.24,-0.24,-0.05,0.30,6.64,6.64,6.63
44.33,6.91,0.27,6.91,0.28,-0.27,-0.06,0.26,6.64,6.64,6.64
44.78,6.94,0.31,6.94,0.31,-0.30,-0.08,0.22,6.63,6.63,6.63
45.23,6.97,0.34,6.97,0.34,-0.34,-0.10,0.17,6.63,6.63,6.63
45.68,7.00,0.37,7.00,0.37,-0.37,-0.12,0.13,6.63,6.63,6.63
46.13,7.03,0.40,7.03,0.40,-0.39,-0.13,0.08,6.64,6.64,6.63
46.60,7.06,0.42,7.06,0.42,-0.42,-0.15,0.04,6.64,6.64,6.64
47.06,7.08,0.44,7.08,0.45,-0.45,-0.16,-0.00,6.63,6.64,6.64
47.53,7.11,0.48,7.11,0.47,-0.47,-0.18,-0.05,6.63,6.63,6.63
48.01,7.13,0.49,7.13,0.50,-0.50,-0.20,-0.09,6.63,6.63,6.64
48.49,7.15,0.52,7.15,0.53,-0.53,-0.21,-0.13,6.62,6.62,6.63
48.97,7.18,0.57,7.18,0.56,-0.56,-0.23,-0.18,6.62,6.61,6.61
49.46,7.20,0.60,7.20,0.60,-0.59,-0.25,-0.22,6.61,6.61,6.60
49.96,7.22,0.63,7.22,0.63,-0.62,-0.26,-0.26,6.59,6.60,6.59
50.46,7.24,0.65,7.24,0.65,-0.65,-0.28,-0.30,6.58,6.58,6.59
50.96,7.26,0.68,7.26,0.69,-0.68,-0.29,-0.34,6.57,6.57,6.58
51.47,7.27,0.72,7.27,0.71,-0.71,-0.31,-0.38,6.56,6.56,6.55
51.99,7.29,0.75,7.29,0.74,-0.74,-0.33,-0.42,6.55,6.55,6.54
52.51,7.31,0.76,7.31,0.77,-0.76,-0.34,-0.46,6.54,6.54,6.54
53.03,7.32,0.79,7.32,0.79,-0.79,-0.36,-0.50,6.53,6.53,6.53
53.56,7.33,0.81,7.33,0.81,-0.82,-0.38,-0.54,6.51,6.51,6.52
54.10,7.34,0.84,7.34,0.84,-0.85,-0.39,-0.58,6.49,6.49,6.50
54.64,7.36,0.87,7.36,0.88,-0.88,-0.41,-0.62,6.48,6.48,6.49
55.18,7.38,0.91,7.38,0.91,-0.92,-0.42,-0.65,6.46,6.46,6.47
55.74,7.40,0.95,7.40,0.95,-0.95,-0.44,-0.69,6.45,6.45,6.44
56.29,7.42,0.98,7.42,0.98,-0.98,-0.46,-0.72,6.44,6.44,6.44
56.86,7.44,1.02,7.44,1.02,-1.01,-0.47,-0.76,6.43,6.43,6.42
57.42,7.45,1.05,7.45,1.05,-1.04,-0.49,-0.79,6.41,6.41,6.40
58.00,7.46,1.07,7.46,1.07,-1.06,-0.51,-0.83,6.40,6.40,6.39
58.58,7.46,1.08,7.46,1.09,-1.08,-0.52,-0.86,6.38,6.38,6.37
59.16,7.46,1.10,7.46,1.10,-1.10,-0.54,-0.89,6.36,6.36,6.36
59.76,7.45,1.10,7.45,1.10,-1.11,-0.56,-0.92,6.34,6.34,6.35
60.35,7.44,1.12,7.44,1.11,-1.12,-0.58,-0.94,6.32,6.32,6.32
60.96,7.42,1.12,7.42,1.12,-1.13,-0.59,-0.97,6.29,6.29,6.30
61.57,7.40,1.13,7.40,1.13,-1.14,-0.61,-1.00,6.26,6.26,6.26
62.18,7.38,1.15,7.38,1.14,-1.15,-0.63,-1.02,6.23,6.23,6.23
62.80,7.36,1.15,7.36,1.15,-1.16,-0.64,-1.05,6.20,6.20,6.21
63.43,7.34,1.16,7.34,1.16,-1.16,-0.66,-1.07,6.17,6.18,6.18
64.07,7.33,1.18,7.32,1.17,-1.17,-0.68,-1.09,6.16,6.15,6.15
64.71,7.30,1.18,7.30,1.18,-1.18,-0.70,-1.11,6.12,6.13,6.12
65.35,7.28,1.18,7.28,1.18,-1.18,-0.72,-1.13,6.10,6.10,6.09
66.01,7.25,1.18,7.25,1.18,-1.18,-0.73,-1.15,6.07,6.07,6.07
66.67,7.22,1.17,7.22,1.18,-1.18,-0.75,-1.17,6.04,6.04,6.05
67.33,7.19,1.17,7.19,1.17,-1.17,-0.77,-1.18,6.01,6.02,6.02
68.01,7.16,1.17,7.15,1.17,-1.17,-0.79,-1.20,5.99,5.98,5.99
68.69,7.12,1.16,7.12,1.17,-1.17,-0.81,-1.21,5.95,5.95,5.96
69.37,7.08,1.15,7.08,1.16,-1.16,-0.82,-1.23,5.92,5.92,5.92
70.07,7.06,1.17,7.05,1.16,-1.16,-0.84,-1.24,5.90,5.89,5.89
70.77,7.02,1.15,7.02,1.15,-1.16,-0.86,-1.26,5.86,5.87,5.87
71.48,7.00,1.15,7.00,1.15,-1.15,-0.88,-1.27,5.85,5.84,5.85
72.19,6.97,1.16,6.97,1.15,-1.15,-0.90,-1.29,5.82,5.82,5.81
72.91,6.94,1.15,6.94,1.15,-1.15,-0.91,-1.30,5.79,5.79,5.79
73.64,6.91,1.14,6.91,1.14,-1.14,-0.93,-1.32,5.76,5.76,5.76
74.38,6.88,1.13,6.88,1.14,-1.14,-0.95,-1.33,5.74,5.74,5.75
75.12,6.86,1.14,6.86,1.13,-1.13,-0.97,-1.35,5.73,5.72,5.72
75.87,6.83,1.12,6.83,1.12,-1.12,-0.98,-1.36,5.71,5.71,5.71
76.63,6.80,1.11,6.80,1.11,-1.11,-1.00,-1.38,5.69,5.70,5.69
77.40,6.77,1.10,6.77,1.09,-1.09,-1.01,-1.40,5.68,5.68,5.67
78.17,6.73,1.08,6.73,1.07,-1.06,-1.03,-1.41,5.66,5.66,5.65
78.95,6.68,1.03,6.68,1.04,-1.04,-1.04,-1.43,5.64,5.65,5.64
79.74,6.64,1.00,6.64,1.00,-1.01,-1.05,-1.45,5.63,5.63,5.64
80.54,6.60,0.97,6.59,0.97,-0.98,-1.06,-1.47,5.62,5.62,5.62
81.35,6.55,0.94,6.55,0.94,-0.94,-1.07,-1.49,5.61,5.61,5.61
82.16,6.51,0.91,6.51,0.90,-0.90,-1.08,-1.52,5.60,5.61,5.60
82.98,6.47,0.87,6.46,0.87,-0.87,-1.08,-1.54,5.60,5.60,5.60
83.81,6.42,0.83,6.42,0.83,-0.83,-1.08,-1.57,5.59,5.59,5.59
84.65,6.37,0.79,6.37,0.79,-0.78,-1.07,-1.59,5.58,5.59,5.58
85.50,6.33,0.75,6.33,0.75,-0.74,-1.06,-1.62,5.59,5.58,5.58
86.35,6.28,0.70,6.28,0.70,-0.70,-1.04,-1.65,5.58,5.58,5.58
87.22,6.24,0.67,6.23,0.66,-0.66,-1.02,-1.68,5.58,5.58,5.57
88.09,6.19,0.62,6.19,0.62,-0.62,-0.98,-1.71,5.57,5.57,5.57
88.97,6.15,0.58,6.15,0.58,-0.59,-0.94,-1.74,5.56,5.57,5.57
89.86,6.13,0.55,6.13,0.55,-0.56,-0.88,-1.78,5.57,5.57,5.58
90.76,6.11,0.55,6.11,0.54,-0.54,-0.82,-1.81,5.57,5.57,5.56
91.66,6.10,0.53,6.10,0.54,-0.53,-0.76,-1.85,5.57,5.57,5.57
92.58,6.10,0.54,6.10,0.53,-0.53,-0.70,-1.89,5.57,5.56,5.56
93.51,6.11,0.54,6.11,0.54,-0.55,-0.65,-1.93,5.56,5.56,5.57
94.44,6.13,0.57,6.13,0.57,-0.58,-0.64,-1.97,5.55,5.55,5.56
95.39,6.18,0.61,6.18,0.62,-0.63,-0.66,-2.01,5.55,5.55,5.57
96.34,6.24,0.69,6.24,0.69,-0.70,-0.73,-2.05,5.54,5.54,5.55
97.30,6.31,0.77,6.31,0.77,-0.77,-0.83,-2.10,5.54,5.54,5.54
98.28,6.38,0.85,6.38,0.85,-0.85,-0.95,-2.14,5.53,5.53,5.53
99.26,6.47,0.95,6.47,0.95,-0.94,-1.08,-2.19,5.53,5.53,5.52
100.25,6.57,1.06,6.57,1.06,-1.04,-1.21,-2.23,5.53,5.53,5.51
101.25,6.67,1.17,6.66,1.16,-1.14,-1.34,-2.28,5.53,5.52,5.50
102.27,6.75,1.26,6.74,1.25,-1.25,-1.45,-2.33,5.50,5.49,5.48
103.29,6.81,1.34,6.82,1.35,-1.36,-1.56,-2.38,5.45,5.46,5.46
104.32,6.89,1.43,6.90,1.45,-1.47,-1.66,-2.43,5.42,5.43,5.46
105.37,7.01,1.57,7.01,1.57,-1.59,-1.75,-2.47,5.42,5.42,5.44
106.42,7.13,1.72,7.12,1.71,-1.71,-1.83,-2.52,5.42,5.41,5.41
107.48,7.23,1.84,7.23,1.85,-1.83,-1.90,-2.57,5.40,5.40,5.39
108.56,7.32,1.97,7.32,1.97,-1.96,-1.97,-2.62,5.36,5.36,5.35
109.64,7.40,2.08,7.40,2.08,-2.08,-2.04,-2.67,5.32,5.32,5.32
110.74,7.49,2.20,7.49,2.20,-2.21,-2.10,-2.71,5.28,5.28,5.29
111.85,7.57,2.32,7.57,2.32,-2.33,-2.17,-2.76,5.24,5.24,5.25
112.97,7.66,2.46,7.66,2.45,-2.44,-2.22,-2.80,5.22,5.21,5.20
114.10,7.73,2.56,7.73,2.56,-2.55,-2.28,-2.84,5.18,5.18,5.17
115.24,7.80,2.67,7.79,2.66,-2.66,-2.34,-2.88,5.14,5.13,5.13
116.39,7.83,2.75,7.84,2.76,-2.76,-2.39,-2.92,5.07,5.08,5.08
117.55,7.88,2.84,7.88,2.85,-2.85,-2.44,-2.96,5.03,5.03,5.04
118.73,7.93,2.94,7.93,2.93,-2.94,-2.50,-2.99,4.99,4.99,4.99
119.92,7.98,3.01,7.98,3.02,-3.01,-2.55,-3.02,4.96,4.96,4.97
121.12,8.02,3.10,8.01,3.09,-3.09,-2.60,-3.05,4.93,4.93,4.92
122.33,8.04,3.16,8.04,3.16,-3.15,-2.65,-3.08,4.89,4.89,4.88
123.55,8.06,3.20,8.06,3.21,-3.21,-2.70,-3.10,4.85,4.85,4.86
124.79,8.08,3.26,8.08,3.26,-3.26,-2.75,-3.12,4.82,4.81,4.82
126.03,8.09,3.30,8.09,3.30,-3.31,-2.80,-3.14,4.78,4.78,4.79
127.29,8.10,3.35,8.10,3.35,-3.35,-2.85,-3.15,4.75,4.75,4.75
128.57,8.10,3.39,8.10,3.39,-3.38,-2.90,-3.16,4.72,4.72,4.71
129.85,8.10,3.42,8.10,3.42,-3.41,-2.95,-3.17,4.69,4.69,4.68
131.15,8.09,3.44,8.09,3.44,-3.44,-3.00,-3.17,4.65,4.65,4.65
132.46,8.08,3.45,8.08,3.45,-3.46,-3.05,-3.18,4.62,4.62,4.63
133.79,8.08,3.47,8.08,3.48,-3.49,-3.10,-3.18,4.59,4.59,4.61
135.12,8.08,3.50,8.08,3.50,-3.51,-3.15,-3.18,4.57,4.57,4.57
136.48,8.08,3.53,8.08,3.53,-3.53,-3.20,-3.17,4.55,4.55,4.55
137.84,8.08,3.56,8.08,3.56,-3.55,-3.25,-3.17,4.53,4.53,4.52
139.22,8.08,3.59,8.08,3.58,-3.58,-3.30,-3.16,4.50,4.50,4.49
140.61,8.08,3.61,8.08,3.61,-3.60,-3.35,-3.15,4.48,4.48,4.46
142.02,8.08,3.62,8.08,3.63,-3.62,-3.40,-3.15,4.46,4.46,4.46
143.44,8.08,3.64,8.08,3.65,-3.65,-3.45,-3.14,4.43,4.43,4.44
144.87,8.08,3.67,8.08,3.67,-3.67,-3.50,-3.13,4.41,4.41,4.41
146.32,8.08,3.70,8.08,3.69,-3.69,-3.54,-3.12,4.39,4.39,4.38
147.78,8.08,3.71,8.08,3.72,-3.72,-3.59,-3.11,4.36,4.36,4.37
149.26,8.08,3.74,8.08,3.74,-3.74,-3.64,-3.10,4.33,4.33,4.34
150.75,8.08,3.78,8.08,3.77,-3.77,-3.69,-3.10,4.31,4.31,4.30
152.26,8.08,3.81,8.08,3.81,-3.80,-3.73,-3.09,4.28,4.28,4.27
153.78,8.08,3.83,8.08,3.84,-3.83,-3.78,-3.09,4.25,4.25,4.25
155.32,8.08,3.87,8.08,3.87,-3.87,-3.82,-3.08,4.21,4.21,4.21
156.88,8.08,3.90,8.08,3.90,-3.90,-3.87,-3.08,4.18,4.18,4.18
158.44,8.08,3.93,8.08,3.93,-3.93,-3.91,-3.08,4.14,4.14,4.15
160.03,8.08,3.97,8.08,3.97,-3.97,-3.95,-3.08,4.11,4.11,4.11
161.63,8.08,4.01,8.08,4.01,-4.01,-4.00,-3.08,4.07,4.07,4.07
163.24,8.09,4.05,8.09,4.05,-4.05,-4.04,-3.09,4.04,4.04,4.04
164.88,8.09,4.08,8.09,4.09,-4.09,-4.08,-3.10,4.00,4.00,4.01
166.53,8.10,4.13,8.10,4.13,-4.13,-4.12,-3.11,3.97,3.97,3.97
168.19,8.10,4.17,8.10,4.17,-4.16,-4.16,-3.12,3.93,3.93,3.93
169.87,8.10,4.21,8.10,4.21,-4.20,-4.19,-3.13,3.90,3.90,3.89
171.57,8.09,4.23,8.09,4.24,-4.23,-4.23,-3.15,3.86,3.86,3.86
173.29,8.08,4.27,8.07,4.26,-4.26,-4.26,-3.17,3.82,3.81,3.81
175.02,8.04,4.27,8.05,4.28,-4.28,-4.29,-3.19,3.76,3.77,3.77
176.77,8.02,4.30,8.02,4.30,-4.30,-4.32,-3.22,3.72,3.72,3.72
178.54,8.00,4.33,7.99,4.32,-4.32,-4.35,-3.24,3.68,3.68,3.67
180.32,7.96,4.33,7.96,4.34,-4.33,-4.38,-3.27,3.63,3.63,3.62
182.13,7.93,4.35,7.92,4.34,-4.35,-4.41,-3.31,3.58,3.58,3.58
183.95,7.88,4.35,7.89,4.36,-4.36,-4.43,-3.34,3.52,3.52,3.53
185.79,7.85,4.37,7.85,4.38,-4.38,-4.45,-3.38,3.47,3.47,3.48
187.65,7.83,4.41,7.82,4.40,-4.40,-4.47,-3.42,3.43,3.42,3.42
189.52,7.80,4.42,7.80,4.43,-4.43,-4.49,-3.46,3.37,3.38,3.38
191.42,7.79,4.46,7.79,4.45,-4.46,-4.50,-3.50,3.33,3.33,3.33
193.33,7.77,4.48,7.77,4.48,-4.49,-4.52,-3.55,3.28,3.28,3.29
195.27,7.76,4.51,7.76,4.51,-4.52,-4.53,-3.60,3.24,3.24,3.25
197.22,7.75,4.55,7.75,4.55,-4.56,-4.54,-3.65,3.19,3.19,3.20
199.19,7.74,4.59,7.74,4.59,-4.59,-4.54,-3.70,3.15,3.15,3.15
201.18,7.73,4.62,7.73,4.62,-4.62,-4.54,-3.75,3.11,3.11,3.11
203.19,7.72,4.64,7.72,4.65,-4.64,-4.55,-3.80,3.08,3.08,3.08
205.23,7.71,4.68,7.70,4.66,-4.66,-4.54,-3.86,3.05,3.04,3.03
207.28,7.67,4.66,7.67,4.67,-4.67,-4.54,-3.91,3.00,3.00,3.01
209.35,7.63,4.67,7.63,4.67,-4.67,-4.53,-3.96,2.96,2.96,2.96
211.44,7.58,4.67,7.58,4.66,-4.66,-4.52,-4.02,2.92,2.92,2.91
213.56,7.53,4.65,7.53,4.64,-4.65,-4.51,-4.07,2.88,2.88,2.88
215.69,7.48,4.62,7.47,4.62,-4.63,-4.49,-4.12,2.85,2.85,2.86
217.85,7.41,4.58,7.42,4.60,-4.60,-4.47,-4.17,2.81,2.82,2.82
220.03,7.37,4.58,7.36,4.57,-4.57,-4.45,-4.22,2.80,2.79,2.79
222.23,7.31,4.55,7.30,4.54,-4.54,-4.43,-4.26,2.77,2.77,2.76
224.45,7.24,4.50,7.24,4.50,-4.50,-4.40,-4.30,2.73,2.74,2.74
226.70,7.18,4.45,7.18,4.46,-4.47,-4.37,-4.34,2.71,2.71,2.73
228.96,7.12,4.42,7.13,4.42,-4.43,-4.34,-4.37,2.69,2.69,2.70
231.25,7.08,4.39,7.07,4.39,-4.39,-4.30,-4.40,2.69,2.68,2.69
233.57,7.03,4.35,7.02,4.35,-4.34,-4.27,-4.42,2.68,2.68,2.68
235.90,6.96,4.30,6.97,4.30,-4.29,-4.23,-4.44,2.67,2.67,2.66
238.26,6.91,4.26,6.90,4.25,-4.24,-4.18,-4.45,2.67,2.66,2.65
240.64,6.83,4.18,6.84,4.19,-4.18,-4.13,-4.45,2.65,2.66,2.65
243.05,6.77,4.12,6.76,4.11,-4.11,-4.09,-4.45,2.66,2.65,2.65
245.48,6.69,4.04,6.69,4.04,-4.04,-4.03,-4.44,2.65,2.65,2.65
247.93,6.60,3.95,6.61,3.96,-3.96,-3.98,-4.42,2.64,2.65,2.65
250.41,6.54,3.89,6.53,3.88,-3.88,-3.92,-4.39,2.65,2.65,2.65
252.92,6.46,3.80,6.46,3.80,-3.81,-3.86,-4.35,2.65,2.66,2.66
255.45,6.40,3.72,6.40,3.73,-3.73,-3.80,-4.31,2.67,2.67,2.68
258.00,6.34,3.65,6.34,3.65,-3.65,-3.73,-4.26,2.69,2.68,2.69
260.58,6.27,3.58,6.28,3.58,-3.58,-3.67,-4.20,2.69,2.70,2.69
263.19,6.22,3.51,6.21,3.51,-3.50,-3.60,-4.13,2.72,2.71,2.71
265.82,6.15,3.44,6.15,3.43,-3.43,-3.52,-4.06,2.72,2.72,2.71
268.48,6.08,3.34,6.09,3.35,-3.35,-3.45,-3.98,2.73,2.73,2.74
271.16,6.03,3.27,6.02,3.27,-3.28,-3.37,-3.90,2.75,2.74,2.76
273.87,5.96,3.20,5.96,3.19,-3.21,-3.29,-3.80,2.75,2.76,2.76
276.61,5.91,3.12,5.91,3.12,-3.13,-3.21,-3.71,2.78,2.78,2.79
279.38,5.85,3.05,5.85,3.05,-3.06,-3.13,-3.60,2.79,2.80,2.80
282.17,5.80,2.99,5.80,2.98,-2.98,-3.04,-3.50,2.82,2.82,2.81
284.99,5.74,2.91,5.73,2.91,-2.89,-2.95,-3.39,2.85,2.84,2.83
287.84,5.66,2.82,5.66,2.82,-2.80,-2.86,-3.27,2.86,2.86,2.84
290.72,5.57,2.71,5.57,2.71,-2.71,-2.77,-3.15,2.86,2.86,2.85
293.63,5.48,2.61,5.48,2.60,-2.61,-2.67,-3.03,2.87,2.87,2.87
296.57,5.38,2.49,5.38,2.50,-2.51,-2.57,-2.91,2.87,2.88,2.89
299.53,5.29,2.39,5.29,2.39,-2.40,-2.47,-2.79,2.89,2.89,2.90
302.53,5.20,2.29,5.20,2.28,-2.29,-2.37,-2.66,2.91,2.91,2.91
305.55,5.10,2.17,5.10,2.17,-2.18,-2.27,-2.54,2.92,2.92,2.93
308.61,5.00,2.06,5.00,2.06,-2.06,-2.16,-2.41,2.94,2.94,2.94
311.69,4.90,1.95,4.90,1.95,-1.95,-2.05,-2.28,2.95,2.96,2.95
314.81,4.81,1.83,4.81,1.84,-1.82,-1.94,-2.15,2.98,2.98,2.98
317.96,4.70,1.72,4.69,1.72,-1.70,-1.82,-2.02,3.00,2.99,2.97
321.14,4.57,1.59,4.56,1.58,-1.57,-1.70,-1.89,2.99,2.99,2.98
324.35,4.42,1.44,4.42,1.44,-1.45,-1.59,-1.76,2.97,2.98,2.98
327.59,4.28,1.28,4.29,1.30,-1.32,-1.46,-1.63,2.96,2.98,3.00
330.87,4.18,1.18,4.17,1.17,-1.19,-1.34,-1.50,2.99,2.98,3.00
334.18,4.06,1.06,4.05,1.05,-1.05,-1.21,-1.38,3.01,3.00,3.00
337.52,3.92,0.91,3.93,0.93,-0.92,-1.08,-1.25,3.00,3.01,3.01
340.90,3.81,0.80,3.80,0.79,-0.78,-0.95,-1.12,3.03,3.02,3.01
344.30,3.66,0.65,3.66,0.65,-0.65,-0.82,-0.99,3.01,3.02,3.01
347.75,3.53,0.52,3.53,0.51,-0.51,-0.68,-0.86,3.02,3.02,3.01
351.23,3.38,0.37,3.38,0.37,-0.37,-0.54,-0.74,3.01,3.01,3.01
354.74,3.23,0.22,3.23,0.22,-0.22,-0.40,-0.61,3.01,3.01,3.01
358.28,3.07,0.07,3.07,0.07,-0.07,-0.26,-0.49,3.00,3.00,3.00
361.87,2.92,-0.08,2.91,-0.08,0.07,-0.12,-0.36,2.99,2.99,3.00
365.49,2.76,-0.24,2.76,-0.23,0.22,0.03,-0.24,2.98,2.99,3.00
369.14,2.61,-0.37,2.62,-0.37,0.37,0.18,-0.11,2.98,2.99,2.98
372.83,2.49,-0.49,2.47,-0.51,0.51,0.33,0.01,3.00,2.99,2.98
376.56,2.32,-0.65,2.33,-0.65,0.66,0.48,0.13,2.97,2.98,2.97
380.33,2.18,-0.79,2.18,-0.79,0.80,0.63,0.26,2.97,2.97,2.97
384.13,2.02,-0.94,2.03,-0.93,0.93,0.79,0.38,2.95,2.96,2.96
387.97,1.89,-1.06,1.88,-1.07,1.06,0.94,0.50,2.95,2.95,2.95
391.85,1.75,-1.19,1.75,-1.20,1.19,1.09,0.62,2.94,2.94,2.94
395.77,1.61,-1.34,1.61,-1.33,1.32,1.25,0.74,2.93,2.93,2.95
399.73,1.49,-1.45,1.49,-1.45,1.44,1.40,0.86,2.93,2.93,2.94
403.72,1.37,-1.56,1.37,-1.56,1.56,1.54,0.98,2.93,2.93,2.93
407.76,1.26,-1.66,1.26,-1.66,1.68,1.69,1.09,2.94,2.94,2.92
411.84,1.15,-1.78,1.14,-1.77,1.79,1.83,1.21,2.94,2.93,2.93
415.96,1.03,-1.89,1.03,-1.89,1.89,1.97,1.32,2.92,2.92,2.91
420.12,0.91,-2.00,0.92,-2.00,1.99,2.10,1.44,2.90,2.91,2.91
424.32,0.81,-2.10,0.81,-2.10,2.09,2.23,1.55,2.90,2.90,2.91
428.56,0.73,-2.17,0.72,-2.18,2.17,2.35,1.65,2.90,2.89,2.90
432.85,0.64,-2.26,0.64,-2.26,2.25,2.46,1.76,2.89,2.90,2.90
437.18,0.57,-2.33,0.58,-2.33,2.33,2.56,1.86,2.90,2.90,2.90
441.55,0.52,-2.39,0.51,-2.39,2.39,2.65,1.96,2.91,2.90,2.91
445.96,0.46,-2.45,0.46,-2.45,2.45,2.74,2.06,2.91,2.91,2.91
450.42,0.40,-2.50,0.40,-2.50,2.51,2.81,2.15,2.91,2.92,2.90
454.93,0.35,-2.56,0.35,-2.56,2.57,2.87,2.24,2.92,2.92,2.91
459.48,0.29,-2.62,0.29,-2.62,2.63,2.92,2.32,2.92,2.92,2.91
464.07,0.24,-2.68,0.24,-2.68,2.69,2.96,2.40,2.93,2.93,2.92
468.71,0.19,-2.74,0.19,-2.74,2.74,2.98,2.48,2.93,2.93,2.93
473.40,0.14,-2.79,0.14,-2.79,2.79,3.00,2.55,2.93,2.93,2.93
478.13,0.09,-2.85,0.09,-2.84,2.83,3.00,2.61,2.92,2.93,2.94
482.91,0.06,-2.88,0.06,-2.88,2.87,3.00,2.67,2.93,2.93,2.94
487.74,0.04,-2.91,0.04,-2.91,2.90,2.98,2.73,2.94,2.94,2.95
492.62,0.03,-2.93,0.03,-2.92,2.93,2.96,2.77,2.96,2.96,2.96
497.55,0.03,-2.93,0.03,-2.93,2.94,2.93,2.81,2.97,2.97,2.96
502.52,0.03,-2.94,0.03,-2.94,2.94,2.89,2.85,2.97,2.97,2.97
507.55,0.03,-2.94,0.03,-2.94,2.93,2.84,2.88,2.96,2.96,2.97
512.62,0.04,-2.93,0.04,-2.93,2.92,2.79,2.90,2.96,2.96,2.97
517.75,0.07,-2.91,0.07,-2.90,2.89,2.73,2.92,2.96,2.96,2.98
522.93,0.11,-2.87,0.11,-2.86,2.86,2.67,2.93,2.96,2.97,2.98
528.16,0.17,-2.81,0.16,-2.81,2.81,2.61,2.94,2.98,2.98,2.97
533.44,0.22,-2.76,0.21,-2.76,2.77,2.54,2.94,2.99,2.98,2.97
538.77,0.26,-2.72,0.27,-2.71,2.71,2.48,2.94,2.97,2.98,2.97
544.16,0.32,-2.66,0.32,-2.65,2.66,2.41,2.93,2.98,2.98,2.97
549.60,0.38,-2.59,0.37,-2.60,2.60,2.34,2.92,2.98,2.98,2.97
555.10,0.43,-2.53,0.43,-2.54,2.55,2.27,2.90,2.97,2.97,2.96
560.65,0.48,-2.48,0.48,-2.49,2.49,2.21,2.89,2.97,2.97,2.96
