frequency,raw,error,smoothed,error_smoothed,equalization,equalized_raw,equalized_smoothed,target
20,-3.568371634526569,-4.354257835372437,-3.5178891323722077,-4.303759985991934,4.303759985991934,0.7353883514653647,0.7858708536197261,0.785886200845868
21,-3.1826967033970854,-3.9685639520053666,-3.251238789091077,-4.037108391950964,4.037108391950963,0.8544116885538777,0.7858696028598859,0.7858672486082812
22,-2.989859237832346,-3.775701694468779,-2.9998057117141537,-3.7856604827554414,3.785660482755441,0.7958012449230951,0.7858547710412873,0.7858424566364333
23,-2.797021772267599,-3.5828321909690577,-2.7635899002414366,-3.5494162584053655,3.549416258405366,0.7523944861377667,0.7858263581639293,0.7858104187014585
24,-2.507765573920489,-3.2935350495746216,-2.5425913546729224,-3.328375718900733,3.328375718900732,0.8206101449802432,0.7857843642278097,0.7857694756541327
25,-2.3149281083557463,-3.1006457923344124,-2.3379218507709347,-3.1236521163385804,3.123652116338581,0.8087240079828346,0.7857302655676461,0.7857176839786661
26,-2.1220906427910045,-2.9077434248401124,-2.1482183966646216,-2.933881004282152,2.933881004282152,0.8117903614911475,0.7856626076175304,0.7856527820491079
27,-2.0200436949742735,-2.8056158490118137,-1.9722817731844575,-2.75786159491268,2.7578615949126806,0.7378178999384071,0.785579821728223,0.7855721540375402
28,-1.8328344444438909,-2.618307235872602,-1.8085386210431205,-2.5940179453186882,2.5940179453186873,0.7611835008747965,0.7854793242755669,0.785472791428711
29,-1.6399969788791489,-2.4253482309806014,-1.655294072327811,-2.440651567964424,2.4406515679644243,0.8006545890852754,0.7853574956366134,0.7853512521014525
30,-1.4743966686387786,-2.2596002855837907,-1.5114154171383043,-2.296625674003768,2.296625674003769,0.8222290053649903,0.7852102568654646,0.7852036169450121
31,-1.4256016961409912,-2.2106271401278104,-1.376177347761157,-2.161210210275951,2.1612102102759505,0.7356085141349593,0.7850328625147935,0.785025443986819
32,-1.2543220477496702,-2.039133767768256,-1.2493068779306096,-2.034126936903045,2.0341269369030446,0.7798048891533744,0.784820058972435,0.784811720018586
33,-1.1579033149673017,-1.942460124687083,-1.1307803064742956,-1.9153463896571792,1.9153463896571796,0.7574430746898779,0.784566083182884,0.7845568097197813
34,-0.9650658494025626,-1.7493202516943764,-1.020508741412172,-1.804773300133545,1.8047733001335446,0.8397074507309821,0.7842645587213726,0.7842544022918139
35,-0.8686471166201947,-1.6525445722532748,-0.9181469996605106,-1.7020554459618804,1.7020554459618806,0.833408329341686,0.78390844630137,0.7838974556330802
36,-0.8686471166201948,-1.6521252547248275,-0.8229896249826318,-1.6064795660497269,1.6064795660497266,0.7378324494295319,0.7834899410670948,0.7834781381046327
37,-0.7294119864078578,-1.5123997543669216,-0.7340463856888488,-1.5170467733349804,1.5170467733349802,0.7876347869271224,0.7830003876461313,0.7829877679590638
38,-0.6758096510554555,-1.4582264015871313,-0.6502635781018511,-1.4326937883380964,1.4326937883380966,0.756884137282641,0.7824302102362455,0.7824167505316759
39,-0.5764952672078195,-1.3582497805312777,-0.5708031810256123,-1.352572022984645,1.3525720229846447,0.7760767557768252,0.7817688419590324,0.7817545133234582
40,-0.5223737211978176,-1.3033631603382538,-0.4952986964366446,-1.2763033592890711,1.276303359289071,0.7539296380912534,0.7810046628524263,0.7809894391404364
41,-0.3865534527085633,-1.1666622502024326,-0.42399531647674377,-1.2041202522777514,1.2041202522777512,0.817566799569188,0.7801249358010074,0.7801087974938694
42,-0.3803549688141113,-1.1594536433253047,-0.35772370794818015,-1.1368394471098957,1.1368394471098962,0.7564844782957849,0.7791157391617161,0.7790986745111934
43,-0.2901347199245046,-1.0680786215834268,-0.29770211128399215,-1.0756640084791953,1.0756640084791953,0.7855292885546907,0.7779618971952031,0.7779439016589222
44,-0.2266711379362259,-1.0032991215726244,-0.24520293065492932,-1.021849838340771,1.0218498383407708,0.795178700404545,0.7766469076858415,0.7766279836363985
45,-0.19371598713790047,-0.9688490130017412,-0.20115867492524375,-0.9763115436948324,0.9763115436948322,0.7825955565569317,0.7751528687695884,0.7751330258638407
46,-0.194741137087392,-0.9681807991472351,-0.1658046564376502,-0.9392650623721275,0.9392650623721275,0.7445239252847355,0.7734604059344773,0.7734396620598432
47,-0.09729725441520716,-0.8688242368980136,-0.13846223058051538,-0.9100108304326857,0.9100108304326857,0.8127135760174785,0.7715485998521703,0.7715269824828064
48,-0.09729725446493473,-0.8666697179627542,-0.11754969105903969,-0.8869446068917994,0.8869446068917994,0.7896473524268647,0.7693949158327598,0.7693724634978194
49,-0.09729725443247557,-0.8642491536579872,-0.10086200574741018,-0.8678371411905257,0.8678371411905255,0.7705398867580499,0.7669751354431152,0.7669518992255115
50,-0.09729725417974763,-0.8615365903119283,-0.08608853412192252,-0.8503518251903455,0.8503518251903455,0.7530545710105978,0.764263291068423,0.7642393361321806
51,-0.09729725363786897,-0.858504265168777,-0.07145328222807557,-0.8326848865975203,0.8326848865975202,0.7353876329596511,0.7612316043694446,0.761207011530908
52,-0.09729725302593668,-0.8551225501068028,-0.056293213921202415,-0.8141436436380106,0.8141436436380104,0.7168463906120737,0.7578504297168079,0.7578252970808661
53,-0.09729725304783804,-0.8513599015436069,-0.04136979723262983,-0.795458001081393,0.7954580010813934,0.6981607480335554,0.7540882038487636,0.7540626484957689
54,0.00023615911059509444,-0.7496494036906878,-0.028760199227667198,-0.7786716023356738,0.7786716023356738,0.7789077614462688,0.7499114031080066,0.7498855628012828
55,-0.0008785265342558602,-0.7461370711478814,-0.021295420630299447,-0.7665799303681285,0.7665799303681285,0.7657014038338726,0.7452845097378291,0.7452585446136255
56,-0.0008785333737589352,-0.741022616419129,-0.021670104819165814,-0.7618400936706589,0.7618400936706591,0.7609615602969001,0.7401699888514932,0.74014408304537
57,-0.0008785394090040166,-0.7353811803861496,-0.0314868245781942,-0.7660151023963773,0.766015102396377,0.765136562987373,0.7345282778181829,0.7345026409771456
58,-0.0008785377362697321,-0.7291711962983841,-0.0505579772533713,-0.7788757671943922,0.7788757671943923,0.7779972294581226,0.728317789941021,0.7282926585621143
59,-0.04375785569942153,-0.7652284286494238,-0.07673524442825377,-0.7982301788522509,0.7982301788522511,0.7544723231528296,0.7214949344239974,0.7214705729500022
60,-0.09729720531081237,-0.8112880616351774,-0.10637655866535364,-0.8203907133967157,0.8203907133967157,0.7230935080859033,0.714014154731362,0.7139908563243651
61,-0.17236335769995645,-0.8781694321353103,-0.13534376551902738,-0.8411717530502449,0.8411717530502452,0.6688083953502887,0.7058279875312178,0.7058060744353538
62,-0.29013451727388406,-0.9870014851482349,-0.16022763420361932,-0.857114778681512,0.8571147786815119,0.5669802614076278,0.6968871444778926,0.6968669678743509
63,-0.19371574524510732,-0.8808383036147618,-0.17939517332375707,-0.8665357924405246,0.8665357924405246,0.6728200471954173,0.6871406191167675,0.6871225583696545
64,-0.19371582913336455,-0.8702361115096349,-0.19348989736333871,-0.8700257185830689,0.8700257185830689,0.6763098894497044,0.6765358212197301,0.6765202823762704
65,-0.19798786678831043,-0.8629940209681184,-0.20518220384617397,-0.8702009444844375,0.8702009444844373,0.6722130776961268,0.6650187406382633,0.665006154179808
66,-0.19371674016294835,-0.8462417007888171,-0.21820964487038547,-0.8707437878409668,0.8707437878409673,0.6770270476780189,0.6525341429705818,0.6525249606258687
67,-0.19500782727972013,-0.8340283166932062,-0.23598284084050314,-0.875008640067088,0.8750086400670879,0.6800008127873678,0.6390257992265848,0.6390204894134861
68,-0.1909092891529583,-0.8153450817984231,-0.26018204561010433,-0.8846187962414913,0.8846187962414913,0.6937095070885331,0.624436750631387,0.6244357926454649
69,-0.24927048308655114,-0.8579839700883516,-0.2897823255630691,-0.898491934543642,0.898491934543642,0.6492214514570909,0.6087096089805728,0.6087134870018005
70,-0.29013735480743114,-0.8819334462948709,-0.3208193310626145,-0.9126062251312088,0.912606225131209,0.622468870323778,0.5917868940685945,0.5917960914874398
71,-0.3865534752025992,-0.9601798783994124,-0.34698596668316617,-0.9205973782901675,0.9205973782901676,0.5340439030875684,0.5736114116070015,0.5736264031968132
72,-0.38654794338212267,-0.9406958543130741,-0.3609052504492216,-0.9150319245383773,0.9150319245383772,0.5284839811562545,0.5541266740891556,0.5541479109309515
73,-0.38653918013395516,-0.9198444259317208,-0.3557334555409226,-0.8890108151892349,0.8890108151892347,0.5024716350552796,0.5332773596483121,0.5333052457977656
74,-0.3917747411031105,-0.9028194082274081,-0.3266660439822949,-0.8376758419969095,0.8376758419969095,0.445901100893799,0.5110097980146147,0.5110446671242976
75,-0.3652737641383716,-0.8525883452563547,-0.2719649227864771,-0.7592373907383196,0.7592373907383194,0.3939636265999478,0.4872724679518423,0.4873145811179831
76,-0.19997916939717447,-0.6620452581402119,-0.19327658775736967,-0.6552930849518864,0.6552930849518865,0.45531391555471207,0.4620164971945169,0.46206608874303745
77,-0.08443686320355187,-0.5196904214477542,-0.09521413127974583,-0.5304103214712219,0.530410321471222,0.44597345826767015,0.4351961901914762,0.4352535582442023
78,0.06005827927666968,-0.3467769373981378,0.015631527381857163,-0.3911381323018439,0.39113813230184385,0.45119641157851353,0.40676965968370105,0.4068352166748075
79,0.142142056520223,-0.23463169717660642,0.13195814843737946,-0.2447414966287706,0.2447414966287707,0.3868835531489937,0.37669964506615017,0.3767737536968294
80,0.26645302386406006,-0.07858390598593107,0.24696894107929418,-0.09798554991768871,0.09798554991768871,0.36443857378174876,0.3449544909969829,0.3450369298499911
81,0.38749467656151754,0.07589649608863552,0.35526803264524465,0.04375900415455903,-0.04375900415455904,0.3437356724069585,0.3115090284906856,0.311598180472882
82,0.4606277352358475,0.1841905296924305,0.4532818949809292,0.17693700914544158,-0.1769370091454416,0.2836907260904059,0.27634488583548755,0.276437205543417
83,0.5300809853992233,0.2905404504657362,0.5391960099968137,0.2997462541192438,-0.2997462541192438,0.2303347312799795,0.2394497558775699,0.23954053493348715
84,0.6358964633036118,0.43499440531433387,0.612522186447541,0.4117065716579422,-0.4117065716579423,0.22418989164566955,0.2008156147895987,0.20090205798927796
85,0.6735865778862217,0.5130630718869308,0.6734925519939678,0.5130556486536506,-0.5130556486536506,0.16053092923257106,0.16043690334031724,0.16052350599929088
86,0.6996301103315102,0.5812152342933247,0.7224962960131798,0.6041854462156605,-0.6041854462156604,0.09544466411584984,0.11831084979751938,0.11841487603818557
87,0.7708383586034553,0.6962435736919614,0.7597349670111855,0.6852924490700646,-0.6852924490700646,0.0855459095333907,0.07444251794112089,0.07459478491149385
88,0.7690236776725005,0.7399329351715317,0.7851849407735549,0.7563291292319219,-0.7563291292319219,0.012694548440578601,0.02885581154163308,0.02909074250096877
89,0.7728657517449579,0.7909264170067877,0.7988453761761729,0.8172371439852741,-0.8172371439852743,-0.04437139224031639,-0.018391767809101345,-0.01806066526182981
90,0.8644334978053274,0.9312471900884771,0.8011486028437702,0.868345971369707,-0.8683459713697071,-0.003912473564379737,-0.06719736852593694,-0.0668136922831497
91,0.8290112806907615,0.9461247346111705,0.7933505287660481,0.9107648034084724,-0.9107648034084723,-0.08175352271771086,-0.11741427464242427,-0.11711345392040906
92,0.7771608763855576,0.9460569356342393,0.7777239108090145,0.9466001786859315,-0.9466001786859313,-0.16943930230037363,-0.16887626787691679,-0.16889605924868167
93,0.7774181435939315,0.9995070002976557,0.7574479846422881,0.9788957742028404,-0.9788957742028405,-0.201477630608909,-0.22144778956055233,-0.22208885670372425
94,0.7283514500584289,1.00496224347411,0.736200163365252,1.0112908973181625,-1.0112908973181627,-0.28293944725973375,-0.2750907339529107,-0.27661079341568096
95,0.660940530502535,0.9933134165096474,0.7175668436848496,1.0474923975014572,-1.0474923975014567,-0.38655186699892174,-0.32992555381660715,-0.33237288600711246
96,0.6721878720358573,1.0614666700784587,0.7044551584813168,1.0907118674406604,-1.0907118674406602,-0.4185239954048029,-0.3862567089593434,-0.38927879804260135
97,0.6713350818343095,1.1185605986103866,0.6986781660524133,1.143214407249614,-1.1432144072496138,-0.4718793254153043,-0.4445362411972005,-0.447225516776077
98,0.6629791862447649,1.1690833056845773,0.7008085852319477,1.2060650062996934,-1.2060650062996934,-0.5430858200549284,-0.5052564210677457,-0.5061041194398124
99,0.7866105361318451,1.3524111532784167,0.7102891288618627,1.2790781820742927,-1.2790781820742927,-0.49246764594244763,-0.56878905321243,-0.5658006171465715
100,0.7721644309853513,1.3983612936019438,0.7257019993461744,1.3609173201907565,-1.3609173201907563,-0.588752889205405,-0.6352153208445819,-0.6261968626165926
101,0.7161630566566751,1.4033345631212764,0.7450743091695662,1.4492784518664634,-1.4492784518664636,-0.7331153952097885,-0.7042041426968975,-0.6871715064646011
102,0.6960494606706891,1.4446504464144319,0.76613689255953,1.541127413772358,-1.5411274137723578,-0.8450779531016688,-0.7749905212128279,-0.7486009857437428
104,0.7951324683205405,1.6674576213608299,0.78653173826318,1.6330095893257786,-1.6330095893257783,-0.8378771210052378,-0.8464778510625983,-0.8723251530402893
105,0.8490044429981729,1.7833751014269932,0.8040268399230721,1.721474831354803,-1.7214748313548032,-0.8724703883566303,-0.9174479914317311,-0.9343706584288203
106,0.7797120270015812,1.776086595772197,0.8168037711030489,1.8036282379204769,-1.8036282379204767,-1.0239162109188955,-0.9868244668174277,-0.9963745687706158
107,0.8620371205785706,1.9202541592035574,0.8238243899044286,1.8777367617897898,-1.8777367617897898,-1.0156996412112191,-1.0539123718853611,-1.0582170386249867
108,0.8669538770478158,1.9867355707394632,0.8251909490741527,1.943733595998228,-1.943733595998228,-1.0767797189504122,-1.1185426469240753,-1.1197816936916474
109,0.8454072640633912,2.0263636642707503,0.8223438919584705,2.003421408435404,-2.0034214084354045,-1.1580141443720133,-1.181077516476934,-1.1809564002073594
110,0.8263888510484891,2.068022804649162,0.8179431446127312,2.0602207454363217,-2.060220745436321,-1.2338318943878317,-1.2422776008235896,-1.2416339536006729
111,0.8104518130895431,2.112164492858758,0.8153684611795988,2.1184423182632623,-2.118442318263263,-1.3079905051737197,-1.303073857083664,-1.301712679769215
112,0.7979633422454453,2.1590602868156994,0.8179219681331515,2.1822364453494423,-2.1822364453494423,-1.384273103103997,-1.3643144772162907,-1.3610969445702543
113,0.7794868472017853,2.1991844164988015,0.8279549403836834,2.25451451920176,-2.2545145192017597,-1.4750276719999744,-1.4265595788180763,-1.419697569297016
114,0.7644999677901783,2.241932119772426,0.8462027492999524,2.336178158308009,-2.3361781583080092,-1.571678190517831,-1.4899754090080568,-1.4774321519822475
115,0.8087733468693946,2.342998643140673,0.8715614940930971,2.4259053692423027,-2.4259053692423036,-1.617132022372909,-1.5543438751492065,-1.5342252962712783
117,0.9949451040877183,2.6396665714954524,0.9013921880059312,2.5205584285051197,-2.5205584285051192,-1.5256133244174008,-1.619166240499188,-1.644721467407734
118,0.9865757490007984,2.6848853228638014,0.9322522677265014,2.616066880906117,-2.6160668809061165,-1.629491131905318,-1.683814613179615,-1.698309573863003
119,0.9844762261543628,2.7352025115050718,0.9608063553858914,2.7084849542109835,-2.7084849542109826,-1.7240087280566199,-1.7476785988250911,-1.750726285350709
120,0.9911546526744596,2.7930863977134455,0.984619026937229,2.794885874608343,-2.7948858746083425,-1.8037312219338828,-1.8102668476711135,-1.8019317450389858
121,0.9986195366950992,2.8505123487876336,1.0025970749873323,2.8738443673277225,-2.873844367327722,-1.875224830632623,-1.8712472923403898,-1.8518928120925344
123,1.0064114338588142,2.954392620493738,1.0149924299215813,2.945427257036598,-2.9454272570365982,-1.939015823177784,-1.930434827115017,-1.947981186634924
124,1.0141728968378831,3.0082461623150287,1.0230357312152938,3.010786830643041,-3.0107868306430405,-1.9966139338051574,-1.9877510994277467,-1.9940732654771458
125,1.0216575198825735,3.0605073294906706,1.0283819338344828,3.071565097982736,-3.071565097982736,-2.0499075781001626,-2.043183164148253,-2.038849809608097
126,1.0287230821031939,3.1110297735050736,1.032577614497232,3.1293354847761146,-3.1293354847761146,-2.1006124026729207,-2.0967578702788825,-2.0823066914018797
128,1.035311606778425,3.2005797761810215,1.0367074222208101,3.1852413950315075,-3.1852413950315093,-2.1499297882530843,-2.148533972810699,-2.1652681694025966
129,1.0414211974211363,3.2462077620959393,1.0412794737211282,3.2398814105194247,-3.2398814105194256,-2.198460213098289,-2.1986019367982976,-2.204786564674803
130,1.0470756058705315,3.290087735802084,1.0463138059560864,3.2933916149823808,-3.2933916149823808,-2.2463160091118493,-2.2470778090262944,-2.2430121299315524
131,1.0522973974443879,3.332257900183794,1.0515402500861286,3.3456235386324242,-3.3456235386324247,-2.293326141188037,-2.294083288546296,-2.279960502739406
133,1.0570893440723719,3.4071914055680304,1.0566039691737814,3.3963188948752383,-3.3963188948752387,-2.339229550802867,-2.3397149257014576,-2.3501020614956585
134,1.0614266190319115,3.4447659646403013,1.0612080520906404,3.4452225309634095,-3.44522253096341,-2.3837959119314984,-2.3840144788727695,-2.38333934560839
135,1.065259966458152,3.4806469623651055,1.0651701008402437,3.4921246906917336,-3.4921246906917345,-2.4268647242335826,-2.4269545898514906,-2.4153869959069536
137,1.0685277876386658,3.5445486762927207,1.0684107803958771,3.536858856979368,-3.5368588569793675,-2.4683310693407017,-2.46844807658349,-2.476020888654055
138,1.071173468375951,3.5758373292194108,1.0709132810731243,3.579291964232457,-3.579291964232458,-2.5081184958565066,-2.5083786831593335,-2.5046638608434595
140,1.073163557169674,3.631913695765011,1.0726920586945163,3.6193333109725154,-3.6193333109725154,-2.5461697538028414,-2.546641252277999,-2.558750138595337
141,1.0745026565289564,3.658757110550109,1.0737935798133382,3.6569686474909826,-3.6569686474909826,-2.5824659909620262,-2.5831750676776446,-2.5842544540211527
142,1.0752419297581883,3.6840160003303097,1.0743295655304146,3.6923072780295074,-3.6923072780295088,-2.6170653482713204,-2.617977712499094,-2.6087740705721214
144,1.0754796053949824,3.7304628700222437,1.0745213703657104,3.725617508360135,-3.7256175083601337,-2.6501379029651515,-2.6510961379944233,-2.6549832646272615
145,1.0753533851903623,3.7520879922127985,1.0747187919170254,3.757320647265934,-3.757320647265934,-2.681967262075572,-2.682601855348909,-2.6767346070224365
147,1.075025903513926,3.7927091243239768,1.075353820726138,3.787917160782783,-3.787917160782782,-2.712891257268856,-2.712563340056644,-2.7176832208100508
148,1.0746651899469615,3.8116054734002613,1.076804921871556,3.8178333488270164,-3.8178333488270164,-2.7431681588800547,-2.7410284269554603,-2.7369402834532996
150,1.0744224796956687,3.847588017121451,1.0791817611743815,3.8472052780127983,-3.847205278012799,-2.7727827983171305,-2.7680235168384177,-2.773165537425782
151,1.0744098464807783,3.8646000321292187,1.0820868170993427,3.875654592767205,-3.875654592767205,-2.801244746286427,-2.7935677756678623,-2.79019018564844
153,1.074680151170856,3.896879815757048,1.084451834509818,3.9021453452822654,-3.902145345282265,-2.827465194111409,-2.817693510772447,-2.8221996645861918
154,1.0752117965454788,3.912448614123668,1.084560409865182,3.925022114007228,-3.9250221140072283,-2.8498103174617495,-2.8404617041420464,-2.837236817578189
156,1.0759007621983467,3.9414019341236077,1.0803336910397863,3.942298488933047,-3.9422984889330475,-2.866397726734701,-2.861964797893261,-2.8655011719252608
