frequency,raw,error,smoothed,error_smoothed,equalization,equalized_raw,equalized_smoothed,target
20,0.6029388162461964,-1.0449049392231506,0.6494962070364926,-0.9983322017657378,0.9983322017657374,1.6012710180119338,1.64782840880223,1.647843755469347
21,1.0062932075003321,-0.6415315885178463,1.0045376730760998,-0.6432894770929403,0.6432894770929402,1.6495826845932724,1.6478271501690398,1.6478247960181784
22,1.4008810212006049,-0.24691897728473755,1.3358320371051011,-0.31198027530028916,0.3119802753002891,1.712861296500894,1.6478123124053903,1.6477999984853424
23,1.6816506509243583,0.033882694282385106,1.6433792991234963,-0.004404596387784232,0.0044045963877841834,1.6860552473121424,1.6477838955112805,1.6477679566419732
24,1.9188580719989459,0.27113106066009895,1.9271794591312836,0.2794375596445744,-0.2794375596445743,1.6394205123543717,1.6477418994867095,1.647727011338847
25,2.231820191935869,0.5841449728756949,2.1856604775138213,0.5379726768643458,-0.5379726768643458,1.693847515071523,1.6476878006494755,1.647675219060174
26,2.4066281476374036,0.7590178294574059,2.4205335109372146,0.7729133664348943,-0.7729133664348944,1.6337147812025092,1.6476201445023202,1.6476103181799977
27,2.595865686479378,0.9483359932790871,2.633507686897693,0.9859703244698863,-0.9859703244698864,1.6098953620094916,1.6475373624278067,1.647529693200291
28,2.8528275590484182,1.205397223537061,2.827166215151535,1.179729344372515,-1.1797293443725148,1.6730982146759035,1.6474368707790201,1.6474303355113573
29,3.0096654848162663,1.362356681890998,3.004790855686217,1.3574758058965108,-1.3574758058965113,1.652189678919755,1.6473150497897056,1.6473088029252683
30,3.185648019765609,1.5384868436638626,3.1695007754524083,1.5223329552915226,-1.5223329552915226,1.6633150644740866,1.6471678201608857,1.6471611761017466
31,3.311800561430516,1.6648175488323735,3.324271003253223,1.6772805674384288,-1.6772805674384283,1.6345199939920878,1.6469904358147947,1.6469830125981426
32,3.4233173546754374,1.7765480562589557,3.4715489497072376,1.8247713075473797,-1.8247713075473793,1.5985460471280581,1.6467776421598583,1.6467692984164817
33,3.5840903330448897,1.9375759359846954,3.613098766872227,1.966575092104257,-1.9665750921042573,1.6175152409406324,1.6465236747679697,1.6465143970601943
34,3.8750189522351124,2.2288069560606742,3.750030149900482,2.1038079944559507,-2.1038079944559493,1.771210957779163,1.6462221554445327,1.6462119961744381
35,3.7565134752846534,2.1106584235685744,3.882844367704765,2.2369783249199267,-2.2369783249199267,1.5195351503647267,1.6458660427848382,1.645855051716079
36,3.967714534460631,2.3222788046497373,4.011608267180208,2.3661607375914624,-2.3661607375914624,1.6015537968691684,1.6454475295887452,1.6454357298108935
37,4.277317802809826,2.632372456459666,4.136135192649112,2.491177234528892,-2.491177234528891,1.7861405682809348,1.6449579581202212,1.6449453463501595
38,4.1612384489218215,2.5168641444793574,4.2561258143589615,2.611738063864482,-2.6117380638644825,1.549500385057339,1.644387750494479,1.6443743044424641
39,4.478467228097184,2.834755198243902,4.37124693199212,2.7275205935668883,-2.7275205935668883,1.7509466345302958,1.6437263384252319,1.643712029853282
40,4.357777572924738,2.714830668336151,4.481129197332654,2.838167095641592,-2.838167095641591,1.5196104772831474,1.6429621016910634,1.6429469045885874
41,4.679616653384323,3.03755045457479,4.585329171124953,2.943246866532487,-2.943246866532486,1.7363697868518368,1.642082304592467,1.642066198809533
42,4.558926998211993,2.917870996925729,4.683316137356394,3.042243108244329,-3.0422431082443304,1.5166838899676622,1.6410730291120639,1.6410560012862638
43,4.880766078673372,3.2408649300368584,4.77453648913913,3.1346173833142785,-3.1346173833142785,1.7461486953590937,1.639919105824852,1.6399011486365138
44,4.82729270299386,3.1887075493613466,4.8585719813748955,3.2199679395142033,-3.219967939514203,1.6073247634796575,1.6386040418606926,1.6385851536325138
45,4.920995963735075,3.283905830826968,4.935350068200018,3.2982401203568115,-3.2982401203568115,1.6227558433782638,1.6371099478432063,1.6370901329081073
46,5.067349178273678,3.4319524438154745,5.005321456918063,3.369903992251656,-3.3699039922516554,1.6974451860220223,1.6354174646664075,1.6353967344582032
47,5.0810024382639005,3.447518372865627,5.069512049505856,3.436006358841075,-3.4360063588410754,1.644996079422825,1.6335056906647805,1.6334840653982736
48,5.1221453889130295,3.4908157683666152,5.129393031766657,3.498040921887908,-3.498040921887908,1.6241044670251217,1.6313521098787493,1.6313296205464143
49,5.163505919740255,3.5345967072332516,5.186582472463963,3.557649950571209,-3.5576499505712076,1.6058559691690477,1.628932521892755,1.6289092125070037
50,5.186206530352845,3.5600096262770267,5.242463649838612,3.6162426758324804,-3.61624267583248,1.5699638545203647,1.6262209740061322,1.626196904075818
51,5.323294815027452,3.7001298710748256,5.297848059489036,3.6746583627582776,-3.6746583627582776,1.6486364522691748,1.6231896967307584,1.6231649439526268
52,5.323294815639384,3.7035111087012442,5.352804857033016,3.73299581321762,-3.7329958132176198,1.5902990024217645,1.6198090438153963,1.61978370693814
53,5.400156799955279,3.784135159950648,5.406724885668186,3.790677447415744,-3.790677447415744,1.6094793525395348,1.6160474382524423,1.616021640004631
54,5.524444239127967,3.91259902326997,5.458605346250936,3.846734020320108,-3.846734020320108,1.6777102188078592,1.611871325930828,1.611845215857997
55,5.524444234636053,3.917225338791307,5.507461647161173,3.900216508338576,-3.900216508338576,1.6242277262974767,1.6072451388225968,1.6072188958447455
56,5.5244442277965495,3.92233912350783,5.552724254795459,3.9505929849813217,-3.9505929849813235,1.573851242815226,1.6021312698141355,1.6021051042887193
57,5.571610317391343,3.975146100836598,5.59447852266813,3.9979884611778402,-3.9979884611778393,1.5736218562135038,1.5964900614902904,1.5964642165547454
58,5.6250189360777165,4.034764372764839,5.633455779313255,4.043175967968883,-4.0431759679688835,1.581842968108833,1.590279811344372,1.5902545633128775
59,5.725593668003574,4.142161214404577,5.670768948090006,4.087312152097961,-4.087312152097961,1.6382815159056134,1.5834567959920456,1.5834324535989968
60,5.725593713929223,4.149641494612642,5.707479342196276,4.131504025201478,-4.131504025201478,1.5940896887277454,1.575975316994798,1.575952219316581
61,5.725593786853835,4.157827503071205,5.744150570331659,4.176362799496366,-4.176362799496367,1.5492309873574683,1.5677877708352916,1.5677662837826305
62,5.72559386753089,4.166768610757559,5.780561607085634,4.2217168616675975,-4.2217168616675975,1.5038770058632922,1.5588447454180363,1.5588252567733307
63,5.685364021719821,4.136285963458073,5.815702529447593,4.266607384262078,-4.2666073842620795,1.4187566374577418,1.5490951451855137,1.5490780582617476
64,5.966973133233863,4.428501060576904,5.848074547319848,4.309588200742628,-4.309588200742627,1.6573849324912366,1.538486346577221,1.5384720726569596
65,5.926742941792308,4.39978960693662,5.876197047189747,4.349232662299049,-4.349232662299048,1.5775102794932598,1.5269643848906984,1.5269533348556874
66,5.926742337146809,4.412275588329734,5.899136291755003,4.38466211842522,-4.384662118425222,1.542080218721587,1.5144741733297806,1.514466748817075
67,5.92674145229553,4.425785113603652,5.916853444643547,4.415893690217089,-4.4158936902170876,1.5108477620784422,1.500959754426459,1.5009563386918772
68,5.926740488021469,4.440374956209867,5.9302380948162305,4.443873512283413,-4.443873512283412,1.482866975738057,1.4863645825328184,1.486365531811602
69,5.926739906936763,4.45610243482453,5.940821441298693,4.470189606305462,-4.470189606305461,1.4565503006313012,1.470631834993232,1.4706374721122324
70,5.926740455284697,4.4730250934061235,5.9502951109979705,4.4965903605004645,-4.496590360500465,1.4301500947842314,1.4537047504975051,1.4537153618785736
71,5.892053913705842,4.456511084605876,5.960038291063524,4.524511296074732,-4.524511296074732,1.36754261763111,1.435526994988792,1.4355428290999663
72,5.971319008609005,4.555254691332539,5.97084172752989,4.5547986727670695,-4.55479867276707,1.416520335841935,1.4160430547628193,1.4160643172764655
73,6.0273320753842174,4.6321065811322235,5.982919039361967,4.587720389867435,-4.587720389867435,1.4396116855167822,1.3951986494945317,1.3952254942519944
74,6.027343215834176,4.654369539221513,5.996160049138853,4.623218896329501,-4.623218896329501,1.4041243195046755,1.3729411528093518,1.3729736766126637
75,6.02735405922218,4.678095792827378,6.010472124564435,4.661252120129433,-4.661252120129432,1.366101939092748,1.3492200044350033,1.349258266394802
76,6.027359654591294,4.70332845729223,6.0260255509684715,4.702038444911418,-4.702038444911418,1.3253212096798759,1.3239871060570536,1.3240311972990644
77,6.027352824398887,4.730105436116755,6.043277311892118,4.746080082897331,-4.746080082897331,1.2812727415015566,1.2971972289947873,1.2972473882821323
78,6.027325053806421,4.7584598505576,6.0627620629538965,4.793953548523733,-4.793953548523732,1.2333715052826886,1.2688085144301642,1.2688652032488212
79,6.027268477301424,4.788421560779236,6.084753662097647,4.845970506273707,-4.845970506273708,1.1812979710277158,1.2387831558239393,1.2388469165221871
80,6.167983621945631,4.960824437214025,6.108961988374759,4.90187374277355,-4.901873742773551,1.2661098791720802,1.2070882456012075,1.2071591847316068
81,6.146761073961326,4.972987547347418,6.134412771548982,4.9607162328468695,-4.96071623284687,1.1860448411144553,1.1736965387021119,1.1737735266139078
82,6.097283295726983,4.958616482883761,6.159575648024681,5.020988975944855,-5.020988975944856,1.0762943197821278,1.1385866720798257,1.1386668128432222
83,6.2279647130340114,5.1261429447729645,6.182700134285751,5.080957754997639,-5.08095775499764,1.1470069580363713,1.101742379288111,1.101821768261047
84,6.227918050657838,5.164690562011751,6.202239245857873,5.139088537805565,-5.139088537805566,1.0888295128522714,1.0631507080523068,1.0632274886460862
85,6.228001198085692,5.20512122474536,6.217215365033759,5.194415101057411,-5.1944151010574116,1.0335860970282802,1.0228002639763476,1.022879973340331
86,6.228284716621102,5.247502043059594,6.227415579586344,5.2467339094884355,-5.2467339094884355,0.9815508071326668,0.9806816700979084,0.980782673561508
87,6.228834246020558,5.291887191967266,6.233373115778204,5.296580281951769,-5.296580281951768,0.9322539640687895,0.936792833826436,0.9369470540532916
88,6.229693125787112,5.3382999629099315,6.236164348996718,5.345014091796401,-5.345014091796401,0.8846790339907118,0.8911502572003176,0.891393162877181
89,6.230861639162059,5.386711438445612,6.237099025529721,5.393294837952363,-5.3932948379523635,0.8375668012096957,0.8438041875773576,0.8441502007164474
90,6.232275596697607,5.437018519509045,6.237393324565103,5.442542479669687,-5.442542479669685,0.7897331170279225,0.7948508448954179,0.7952570771885625
91,6.233787859497687,5.48902492194323,6.237898233663425,5.493466750719896,-5.493466750719895,0.7403211087777919,0.7444314829435301,0.7447629375544573
92,6.235156763802659,5.542429124671001,6.238925485235218,5.546216855494209,-5.546216855494206,0.6889399083084529,0.6927086297410119,0.6927276391316588
93,6.236045068583361,5.596822915615604,6.240184200426202,5.60036763871417,-5.600367638714171,0.6356774298691903,0.6398165617120313,0.6392221529677569
94,6.236031957705139,5.651703094464615,6.240821692678665,5.655026539623824,-5.655026539623825,0.5810054180813138,0.58579515305484,0.5843288632405232
95,6.234638897258481,5.706497162501516,6.239551041268351,5.7090216531876745,-5.7090216531876745,0.5256172440708067,0.5305293880806765,0.5281417347569652
96,6.231368035698322,5.7606017175559145,6.234840579030342,5.761116107579125,-5.761116107579124,0.4702519281191986,0.4737244714512183,0.4707663181424082
97,6.225749702033778,5.813430138918404,6.225132879730343,5.810190162634886,-5.810190162634887,0.4155595393988909,0.4149427170954558,0.41231956311537354
98,6.217393806444234,5.864464393606152,6.209054968375677,5.855343733190532,-5.855343733190531,0.36205007325370264,0.3537112351851457,0.3529294128380811
99,6.206038930436,5.913304773609473,6.185583457055012,5.895900659574657,-5.895900659574657,0.3101382708613425,0.28968279748035464,0.29273415682652715
100,6.191592825289508,5.959711298992093,6.154141645069874,5.931335672577523,-5.931335672577524,0.2602571527119837,0.2228059724923499,0.23188152629741499
101,6.096340733966385,5.925813209970511,6.1146273992535605,5.961180863650862,-5.9611808636508625,0.13515987031552257,0.15344653560269794,0.17052752399587412
102,6.01324075038664,5.904405760155271,6.067391963079511,5.98498330067757,-5.984983300677569,0.028257449709070848,0.08240866240194222,0.10883499023136878
104,6.0714097118962025,6.086402419391554,6.013198550192568,6.002366617024923,-6.002366617024922,0.06904309487128035,0.010831933167645857,-0.014992707495351976
105,5.941844590304897,6.018780556834877,5.953180234349338,6.013199881336659,-6.013199881336658,-0.07135529103176097,-0.06001964698732021,-0.07693596652998025
106,5.882288516679535,6.020872204968327,5.88879470180893,6.017816659452709,-6.017816659452708,-0.1355281427731736,-0.12902195764377833,-0.1385836882887923
107,5.857912495503728,6.057679743720305,5.821752819600254,6.017184766853397,-6.017184766853397,-0.15927227134966948,-0.19543194725314272,-0.19976724821657754
108,5.705695620684032,5.966017936457744,5.753894389881577,6.012927707497203,-6.012927707497203,-0.3072320868131717,-0.25903331761562676,-0.2603223157737129
109,5.708047479384862,6.028138626306412,5.687003938299934,6.0071473899114025,-6.0071473899114025,-0.2990999105265404,-0.32014345161146895,-0.32009114692155016
110,5.6813707349813285,6.060295559326402,5.622594030199476,6.002076067846996,-6.002076067846996,-0.3207053328656677,-0.3794820376475201,-0.3789248243450736
111,5.493030768957637,5.929716145325314,5.561713679370543,5.999658166835619,-5.999658166835622,-0.5066273978779847,-0.43794448746507886,-0.43668537636767724
112,5.423599583039574,5.916847289594855,5.504843662796443,6.001193876354252,-6.001193876354253,-0.5775942933146787,-0.49635021355781017,-0.4932477065552807
113,5.443391201991451,5.991892472364979,5.451913457769253,6.007152001144475,-6.007152001144474,-0.5637607991530231,-0.5552385433752214,-0.5485012703735279
114,5.457311169464724,6.0596626123443675,5.402428161249041,6.017192098591199,-6.0171920985912,-0.5598809291264759,-0.6147639373421585,-0.6023514428796437
115,5.487276001469857,6.141996533486763,5.355651857692231,6.030358137285298,-6.0303581372853,-0.5430821358154434,-0.6747062795930692,-0.6547205320169067
117,5.210396977027188,5.970658098284974,5.310780004134921,6.045355049707668,-6.045355049707666,-0.834958072680478,-0.7345750455727451,-0.7602611212577859
118,5.24769463936634,6.056075457124159,5.267055620789004,6.060816574538109,-6.060816574538108,-0.8131219351717673,-0.7937609537491035,-0.8083808177578189
119,5.231284045418924,6.086129454491527,5.223829925838946,6.0755123904201564,-6.0755123904201564,-0.8442283450012322,-0.8516824645812102,-0.8548454090726025
120,5.162459175030293,6.062113268619362,5.180608970212301,6.088495834697984,-6.088495834697984,-0.926036659667691,-0.9078868644856826,-0.8996540935890698
121,5.135128800116243,6.077950742683397,5.137136691431335,6.099226443067042,-6.099226443067043,-0.9640976429507999,-0.9620897516357081,-0.942821942567154
123,5.1004114809561365,6.1321884615031275,5.093535720707521,6.107697427784327,-6.107697427784328,-1.0072859468281914,-1.0141617070768065,-1.031776980546991
124,5.125132591607509,6.195591369286559,5.050475475055764,6.114562339534673,-6.114562339534672,-0.9894297479271632,-1.0640868644789077,-1.0704587776790508
125,5.0696789716150805,6.1772956593244945,5.009291964146702,6.121212142882168,-6.121212142882168,-1.0515331712670877,-1.111920178735466,-1.1076166877094145
126,4.895567498897456,6.038886555261518,4.971974095726933,6.129734412190119,-6.1297344121901185,-1.234166913292663,-1.1577603164631851,-1.1433190563640632
128,4.890010228629249,6.108475133797787,4.940968084351903,6.142708299342624,-6.142708299342628,-1.2526980707133788,-1.2017402149907248,-1.218464905168538
129,4.911001581845934,6.161183600520937,4.918821158779752,6.162846486604137,-6.1628464866041375,-1.2518449047582036,-1.2440253278243851,-1.2501820186750034
130,4.949976050961539,6.2306713248517145,4.907754687134679,6.19256066417204,-6.192560664172041,-1.2425846132105018,-1.2848059770373625,-1.2806952738901747
131,4.93808312203687,6.248175763835844,4.9092914959598986,6.233567476685462,-6.233567476685462,-1.2954843546485915,-1.324275980725563,-1.3100926417989736
133,4.853901883527512,6.226815091073408,4.924046899559009,6.286647411796267,-6.2866474117962685,-1.4327455282687565,-1.3626005122372593,-1.3729132075458956
134,4.92678460022038,6.32590798731148,4.951733462380445,6.351618699462231,-6.351618699462231,-1.424834099241851,-1.3998852370817856,-1.3991233870910995
135,4.934840350882949,6.359336152468516,4.991351275207353,6.427512170215705,-6.427512170215704,-1.492671819332755,-1.436160895008351,-1.424495801585567
137,5.13925759735082,6.618115075588928,5.041471530879473,6.512863154670338,-6.512863154670335,-1.3736055573195145,-1.4713916237908613,-1.4788574782381079
138,5.1419032780881055,6.643578041322213,5.100496109340138,6.606000965059835,-6.6060009650598355,-1.46409768697173,-1.505504855719697,-1.5016747632341079
140,5.143893366881828,6.694310408778069,5.16679561945241,6.705226358735631,-6.70522635873563,-1.561332991853802,-1.5384307392832204,-1.5504170418962406
141,5.19551982256295,6.766605056399863,5.238679346037221,6.808814166146298,-6.8088141661463,-1.61329434358335,-1.5701348201090788,-1.5710852338369121
142,5.2319152437807785,6.823208511917272,5.31421114993559,6.914842466259822,-6.914842466259823,-1.6829272224790444,-1.6006313163242325,-1.5912932681364933
144,5.447933553038169,7.081655630438253,5.390935496803542,7.020909174429221,-7.020909174429219,-1.5729756213910502,-1.629973677625677,-1.6337220774000842
145,5.465920461634666,7.118140916075411,5.465605130042242,7.123834473958295,-7.123834473958294,-1.6579140123236282,-1.6582293439160525,-1.6522204544407448
147,5.547293053256421,7.237722012120679,5.534005739403916,7.219457545319932,-7.219457545319931,-1.6721644920635095,-1.6854518059160144,-1.6904289588642585
148,5.547693850233829,7.255127014759955,5.590958985887704,7.302621755206927,-7.302621755206925,-1.754927904973096,-1.7116627693192212,-1.7074331645261265
150,5.6407666217477095,7.382622667647847,5.630559173903627,7.367410450636552,-7.367410450636553,-1.726643828888844,-1.736851276732926,-1.7418560459001373
151,5.648013219411324,7.405494142702317,5.64666267316176,7.407650682882019,-7.40765068288202,-1.7596374634706953,-1.7609880097202595,-1.7574809232909923
153,5.648283524101402,7.436718033539453,5.633602543515158,7.41764854497737,-7.417648544977368,-1.7693650208759655,-1.78404600146221,-1.78843450943805
154,5.648815169476025,7.451505801138985,5.587047373221145,7.3930641602020515,-7.393064160202051,-1.7442489907260255,-1.8060167869809058,-1.8026906316629603
156,5.530311255559673,7.360681636837608,5.504872113010386,7.33178624160591,-7.3317862416059105,-1.8014749860462373,-1.8269141285955248,-1.8303703812779348
157,5.469407500903612,7.312578087508184,5.387874660691079,7.234638533063947,-7.234638533063947,-1.7652310321603348,-1.8467638723728683,-1.8431705866045713
159,5.247251791217542,7.114913608186091,5.240171452196454,7.1057564364443735,-7.1057564364443735,-1.858504645226832,-1.8655849842479197,-1.8676618169685493
160,5.1644191962120685,7.043259321225746,5.069146030786676,6.952516612541137,-6.952516612541137,-1.7880974163290686,-1.8833705817544608,-1.878840125013678
162,4.834517904441137,6.734661034845459,4.8849012485530885,6.784978747168906,-6.784978747168905,-1.950460842727768,-1.9000774986158167,-1.900143130404322
164,4.643765579428933,6.563176619737538,4.699260885941287,6.614889778788182,-6.614889778788182,-1.9711241993592488,-1.915628892846895,-1.9194110403086042
