frequency,raw,error,smoothed,error_smoothed,equalization,parametric_eq,equalized_raw,equalized_smoothed,target
20,10.81,3.93,10.82,3.95,-3.95,-1.82,6.86,6.87,6.87
21,10.84,3.97,10.85,3.99,-3.99,-2.10,6.85,6.86,6.86
22,10.88,4.02,10.87,4.02,-4.02,-2.40,6.86,6.85,6.85
23,10.91,4.06,10.90,4.06,-4.06,-2.72,6.85,6.84,6.84
24,10.93,4.10,10.92,4.09,-4.09,-3.07,6.84,6.83,6.83
25,10.95,4.13,10.94,4.12,-4.12,-3.43,6.82,6.82,6.82
26,10.97,4.16,10.96,4.16,-4.16,-3.78,6.81,6.81,6.81
27,10.99,4.20,10.98,4.19,-4.19,-4.12,6.80,6.79,6.79
28,11.00,4.22,11.00,4.22,-4.22,-4.43,6.78,6.78,6.78
29,11.01,4.25,11.01,4.25,-4.25,-4.69,6.76,6.76,6.76
30,11.02,4.27,11.02,4.28,-4.28,-4.88,6.74,6.74,6.74
31,11.03,4.30,11.03,4.31,-4.31,-5.01,6.72,6.72,6.72
32,11.04,4.33,11.04,4.33,-4.33,-5.07,6.70,6.70,6.70
33,11.05,4.36,11.04,4.36,-4.36,-5.08,6.69,6.68,6.68
34,11.05,4.39,11.05,4.38,-4.38,-5.03,6.66,6.66,6.66
35,11.05,4.41,11.05,4.41,-4.41,-4.96,6.64,6.64,6.64
36,11.05,4.43,11.05,4.44,-4.44,-4.87,6.61,6.61,6.61
37,11.05,4.46,11.05,4.46,-4.46,-4.77,6.59,6.59,6.59
38,11.05,4.49,11.05,4.49,-4.49,-4.68,6.56,6.56,6.56
39,11.05,4.51,11.04,4.51,-4.51,-4.60,6.54,6.53,6.53
40,11.04,4.53,11.04,4.54,-4.54,-4.53,6.50,6.50,6.50
41,11.04,4.56,11.03,4.57,-4.57,-4.48,6.47,6.47,6.47
42,11.03,4.59,11.03,4.59,-4.59,-4.44,6.43,6.44,6.44
43,11.02,4.61,11.03,4.62,-4.62,-4.43,6.40,6.41,6.41
44,11.02,4.64,11.02,4.65,-4.65,-4.43,6.37,6.38,6.37
45,11.01,4.67,11.02,4.68,-4.68,-4.45,6.33,6.34,6.34
46,11.00,4.69,11.00,4.70,-4.70,-4.48,6.30,6.30,6.30
47,10.99,4.72,10.99,4.73,-4.73,-4.53,6.26,6.26,6.27
48,10.98,4.75,10.98,4.75,-4.75,-4.59,6.22,6.22,6.23
49,10.97,4.78,10.96,4.78,-4.78,-4.67,6.19,6.19,6.19
50,10.99,4.84,10.95,4.80,-4.80,-4.75,6.19,6.14,6.15
51,10.98,4.87,10.93,4.82,-4.82,-4.84,6.15,6.10,6.11
52,10.91,4.85,10.90,4.85,-4.85,-4.94,6.06,6.06,6.06
53,10.83,4.81,10.88,4.87,-4.87,-5.03,5.96,6.01,6.02
54,10.82,4.84,10.86,4.89,-4.89,-5.13,5.93,5.97,5.97
55,10.84,4.91,10.84,4.92,-4.92,-5.23,5.92,5.92,5.93
56,10.85,4.97,10.82,4.94,-4.94,-5.32,5.90,5.88,5.88
57,10.82,4.98,10.80,4.97,-4.97,-5.40,5.85,5.83,5.84
58,10.77,4.98,10.78,5.00,-5.00,-5.48,5.77,5.78,5.79
59,10.73,4.99,10.76,5.03,-5.03,-5.54,5.70,5.73,5.74
60,10.74,5.05,10.75,5.06,-5.06,-5.60,5.67,5.68,5.69
61,10.74,5.10,10.73,5.10,-5.10,-5.64,5.64,5.63,5.64
62,10.74,5.15,10.72,5.13,-5.13,-5.67,5.61,5.59,5.59
63,10.72,5.18,10.71,5.17,-5.17,-5.68,5.55,5.54,5.54
64,10.70,5.21,10.69,5.20,-5.20,-5.69,5.49,5.48,5.49
65,10.68,5.24,10.67,5.24,-5.24,-5.68,5.44,5.43,5.43
66,10.66,5.28,10.65,5.28,-5.28,-5.67,5.38,5.37,5.38
67,10.63,5.30,10.64,5.32,-5.32,-5.64,5.31,5.33,5.33
68,10.61,5.33,10.63,5.35,-5.35,-5.61,5.26,5.28,5.28
69,10.59,5.37,10.61,5.39,-5.39,-5.58,5.20,5.22,5.22
70,10.58,5.41,10.58,5.42,-5.42,-5.54,5.16,5.16,5.17
71,10.56,5.44,10.56,5.45,-5.45,-5.50,5.11,5.11,5.11
72,10.55,5.49,10.53,5.48,-5.48,-5.46,5.07,5.05,5.06
73,10.54,5.53,10.51,5.51,-5.51,-5.42,5.03,5.00,5.01
74,10.52,5.57,10.48,5.54,-5.54,-5.38,4.98,4.94,4.95
75,10.47,5.57,10.46,5.57,-5.57,-5.34,4.90,4.89,4.90
76,10.43,5.59,10.43,5.60,-5.60,-5.31,4.83,4.83,4.84
77,10.38,5.59,10.41,5.62,-5.62,-5.27,4.75,4.78,4.79
78,10.35,5.61,10.38,5.65,-5.65,-5.25,4.69,4.73,4.73
79,10.33,5.65,10.36,5.68,-5.68,-5.23,4.65,4.67,4.68
80,10.32,5.69,10.33,5.71,-5.71,-5.21,4.61,4.62,4.63
81,10.31,5.74,10.30,5.74,-5.74,-5.20,4.57,4.57,4.57
82,10.29,5.77,10.28,5.77,-5.77,-5.19,4.52,4.51,4.52
83,10.27,5.80,10.25,5.80,-5.80,-5.19,4.47,4.46,4.47
84,10.25,5.83,10.23,5.83,-5.83,-5.19,4.42,4.40,4.41
85,10.24,5.88,10.21,5.86,-5.86,-5.20,4.38,4.35,4.36
86,10.20,5.89,10.19,5.89,-5.89,-5.21,4.31,4.30,4.31
87,10.17,5.91,10.17,5.92,-5.92,-5.23,4.25,4.25,4.26
88,10.14,5.93,10.15,5.95,-5.95,-5.26,4.19,4.20,4.21
89,10.11,5.95,10.13,5.98,-5.98,-5.29,4.13,4.15,4.15
90,10.09,5.98,10.10,6.00,-6.00,-5.32,4.08,4.10,4.10
91,10.07,6.01,10.08,6.03,-6.03,-5.36,4.04,4.05,4.05
92,10.06,6.05,10.05,6.05,-6.05,-5.40,4.01,4.00,4.00
93,10.04,6.08,10.03,6.08,-6.08,-5.45,3.96,3.95,3.95
94,10.01,6.10,10.00,6.10,-6.10,-5.50,3.91,3.90,3.91
95,9.99,6.13,9.97,6.12,-6.12,-5.55,3.87,3.85,3.86
96,9.96,6.15,9.94,6.14,-6.14,-5.61,3.82,3.80,3.81
97,9.93,6.16,9.91,6.16,-6.16,-5.67,3.77,3.76,3.76
98,9.89,6.17,9.88,6.17,-6.17,-5.73,3.71,3.71,3.72
99,9.85,6.18,9.85,6.19,-6.19,-5.80,3.66,3.66,3.67
100,9.80,6.17,9.82,6.21,-6.21,-5.87,3.59,3.61,3.63
101,9.76,6.18,9.79,6.23,-6.23,-5.94,3.53,3.56,3.58
102,9.74,6.20,9.75,6.24,-6.24,-6.01,3.50,3.51,3.54
104,9.71,6.26,9.72,6.26,-6.26,-6.15,3.45,3.46,3.45
105,9.69,6.28,9.69,6.27,-6.27,-6.23,3.42,3.41,3.41
106,9.67,6.30,9.66,6.29,-6.29,-6.30,3.38,3.37,3.37
107,9.64,6.31,9.62,6.30,-6.30,-6.37,3.34,3.32,3.33
108,9.62,6.33,9.60,6.31,-6.31,-6.44,3.30,3.28,3.29
109,9.58,6.33,9.57,6.33,-6.33,-6.51,3.25,3.24,3.25
110,9.53,6.32,9.54,6.34,-6.34,-6.58,3.19,3.20,3.21
111,9.50,6.33,9.51,6.35,-6.35,-6.65,3.14,3.16,3.17
112,9.47,6.34,9.49,6.36,-6.36,-6.71,3.10,3.12,3.13
113,9.45,6.36,9.45,6.37,-6.37,-6.77,3.07,3.08,3.09
114,9.43,6.37,9.42,6.38,-6.38,-6.82,3.04,3.04,3.06
115,9.41,6.39,9.39,6.39,-6.39,-6.88,3.01,3.00,3.02
117,9.36,6.41,9.36,6.40,-6.40,-6.97,2.96,2.96,2.95
118,9.34,6.42,9.33,6.41,-6.41,-7.01,2.93,2.92,2.91
119,9.30,6.42,9.29,6.42,-6.42,-7.04,2.88,2.88,2.88
120,9.28,6.43,9.26,6.43,-6.43,-7.07,2.85,2.84,2.85
121,9.24,6.42,9.23,6.44,-6.44,-7.09,2.80,2.80,2.81
123,9.18,6.43,9.20,6.44,-6.44,-7.12,2.74,2.76,2.75
124,9.16,6.44,9.17,6.45,-6.45,-7.13,2.71,2.72,2.72
125,9.13,6.44,9.14,6.45,-6.45,-7.13,2.67,2.68,2.69
126,9.10,6.44,9.10,6.46,-6.46,-7.13,2.64,2.65,2.66
128,9.06,6.46,9.07,6.46,-6.46,-7.11,2.60,2.61,2.60
129,9.04,6.47,9.04,6.46,-6.46,-7.09,2.58,2.57,2.57
130,9.01,6.46,9.00,6.46,-6.46,-7.07,2.55,2.54,2.54
131,8.99,6.47,8.96,6.46,-6.46,-7.04,2.53,2.50,2.52
133,8.93,6.46,8.92,6.45,-6.45,-6.98,2.48,2.47,2.46
134,8.90,6.46,8.88,6.44,-6.44,-6.94,2.45,2.43,2.44
135,8.85,6.43,8.84,6.43,-6.43,-6.90,2.41,2.40,2.41
137,8.78,6.41,8.79,6.42,-6.42,-6.81,2.36,2.37,2.36
138,8.74,6.40,8.74,6.41,-6.41,-6.76,2.33,2.33,2.34
140,8.68,6.38,8.70,6.40,-6.40,-6.66,2.28,2.30,2.29
141,8.64,6.37,8.65,6.38,-6.38,-6.61,2.26,2.27,2.27
142,8.60,6.35,8.60,6.37,-6.37,-6.56,2.23,2.24,2.25
144,8.55,6.34,8.56,6.35,-6.35,-6.45,2.20,2.20,2.21
145,8.52,6.33,8.51,6.34,-6.34,-6.40,2.18,2.17,2.18
147,8.47,6.32,8.47,6.32,-6.32,-6.29,2.15,2.15,2.14
148,8.43,6.30,8.42,6.31,-6.31,-6.23,2.12,2.12,2.12
150,8.38,6.29,8.38,6.29,-6.29,-6.13,2.09,2.09,2.09
151,8.35,6.28,8.34,6.28,-6.28,-6.08,2.07,2.06,2.07
153,8.30,6.27,8.30,6.26,-6.26,-5.98,2.04,2.04,2.03
154,8.27,6.26,8.25,6.24,-6.24,-5.93,2.02,2.01,2.01
156,8.20,6.22,8.21,6.23,-6.23,-5.84,1.97,1.98,1.98
157,8.17,6.21,8.16,6.21,-6.21,-5.79,1.96,1.96,1.96
159,8.11,6.18,8.12,6.19,-6.19,-5.70,1.92,1.93,1.93
160,8.09,6.17,8.07,6.17,-6.17,-5.66,1.92,1.90,1.91
162,8.02,6.13,8.03,6.15,-6.15,-5.59,1.87,1.88,1.88
164,7.97,6.11,7.98,6.13,-6.13,-5.52,1.84,1.86,1.85
165,7.94,6.10,7.94,6.10,-6.10,-5.48,1.84,1.83,1.84
167,7.88,6.07,7.89,6.08,-6.08,-5.42,1.80,1.81,1.81
169,7.83,6.04,7.84,6.05,-6.05,-5.36,1.78,1.79,1.78
170,7.80,6.03,7.79,6.02,-6.02,-5.34,1.77,1.77,1.77
172,7.75,6.00,7.74,5.99,-5.99,-5.29,1.75,1.75,1.75
174,7.69,5.97,7.69,5.96,-5.96,-5.25,1.73,1.72,1.72
175,7.66,5.95,7.63,5.93,-5.93,-5.23,1.73,1.70,1.71
177,7.60,5.91,7.57,5.89,-5.89,-5.20,1.70,1.68,1.69
179,7.53,5.86,7.52,5.86,-5.86,-5.17,1.67,1.66,1.66
181,7.46,5.81,7.46,5.82,-5.82,-5.15,1.64,1.64,1.64
183,7.38,5.76,7.41,5.78,-5.78,-5.13,1.59,1.62,1.62
184,7.34,5.73,7.35,5.75,-5.75,-5.13,1.59,1.60,1.61
186,7.28,5.69,7.29,5.71,-5.71,-5.12,1.57,1.59,1.59
188,7.23,5.65,7.24,5.67,-5.67,-5.11,1.56,1.57,1.57
190,7.17,5.61,7.18,5.63,-5.63,-5.11,1.54,1.55,1.56
192,7.13,5.59,7.13,5.60,-5.60,-5.11,1.53,1.53,1.54
194,7.08,5.56,7.07,5.56,-5.56,-5.12,1.52,1.51,1.52
196,7.04,5.53,7.02,5.52,-5.52,-5.13,1.52,1.50,1.50
198,6.99,5.50,6.97,5.49,-5.49,-5.14,1.50,1.48,1.49
200,6.93,5.45,6.92,5.45,-5.45,-5.16,1.48,1.47,1.47
202,6.87,5.41,6.87,5.41,-5.41,-5.17,1.45,1.46,1.46
204,6.81,5.36,6.82,5.37,-5.37,-5.19,1.43,1.45,1.44
206,6.76,5.33,6.77,5.33,-5.33,-5.21,1.42,1.43,1.43
208,6.71,5.29,6.71,5.29,-5.29,-5.23,1.41,1.42,1.42
210,6.66,5.25,6.65,5.25,-5.25,-5.26,1.41,1.40,1.40
212,6.61,5.22,6.59,5.21,-5.21,-5.28,1.40,1.39,1.39
214,6.56,5.18,6.54,5.16,-5.16,-5.30,1.40,1.37,1.38
216,6.51,5.14,6.48,5.12,-5.12,-5.32,1.39,1.36,1.37
218,6.44,5.08,6.42,5.07,-5.07,-5.35,1.36,1.35,1.36
221,6.35,5.01,6.37,5.03,-5.03,-5.38,1.32,1.34,1.34
223,6.29,4.96,6.31,4.99,-4.99,-5.39,1.30,1.33,1.33
225,6.24,4.92,6.26,4.95,-4.95,-5.41,1.29,1.31,1.32
227,6.20,4.89,6.21,4.91,-4.91,-5.42,1.29,1.30,1.31
229,6.16,4.86,6.17,4.87,-4.87,-5.43,1.28,1.29,1.30
232,6.12,4.83,6.12,4.84,-4.84,-5.44,1.28,1.28,1.29
234,6.09,4.81,6.08,4.81,-4.81,-5.45,1.28,1.27,1.28
236,6.05,4.78,6.04,4.78,-4.78,-5.45,1.27,1.26,1.27
239,6.01,4.75,6.01,4.75,-4.75,-5.44,1.26,1.25,1.26
241,5.98,4.73,5.97,4.72,-4.72,-5.43,1.25,1.25,1.25
244,5.94,4.70,5.94,4.70,-4.70,-5.41,1.24,1.24,1.24
246,5.91,4.68,5.90,4.67,-4.67,-5.39,1.24,1.23,1.23
248,5.87,4.64,5.87,4.64,-4.64,-5.36,1.23,1.23,1.23
251,5.83,4.61,5.83,4.62,-4.62,-5.32,1.21,1.22,1.22
253,5.80,4.59,5.79,4.59,-4.59,-5.29,1.21,1.21,1.21
256,5.76,4.56,5.76,4.56,-4.56,-5.23,1.20,1.20,1.20
259,5.71,4.52,5.72,4.52,-4.52,-5.16,1.18,1.19,1.19
261,5.68,4.49,5.67,4.49,-4.49,-5.11,1.19,1.18,1.18
264,5.63,4.45,5.63,4.45,-4.45,-5.03,1.17,1.18,1.18
266,5.60,4.43,5.58,4.42,-4.42,-4.98,1.18,1.17,1.17
269,5.54,4.37,5.54,4.38,-4.38,-4.89,1.16,1.16,1.16
272,5.49,4.33,5.49,4.33,-4.33,-4.80,1.15,1.16,1.16
274,5.45,4.30,5.44,4.29,-4.29,-4.73,1.16,1.15,1.15
277,5.39,4.24,5.39,4.24,-4.24,-4.63,1.14,1.14,1.14
280,5.33,4.19,5.33,4.19,-4.19,-4.53,1.13,1.14,1.14
283,5.27,4.14,5.28,4.14,-4.14,-4.42,1.12,1.13,1.13
286,5.21,4.08,5.22,4.09,-4.09,-4.31,1.12,1.13,1.12
288,5.17,4.05,5.16,4.04,-4.04,-4.24,1.13,1.12,1.12
291,5.10,3.98,5.10,3.98,-3.98,-4.13,1.12,1.11,1.11
294,5.04,3.93,5.03,3.92,-3.92,-4.02,1.11,1.11,1.11
297,4.97,3.86,4.97,3.86,-3.86,-3.90,1.10,1.10,1.10
300,4.90,3.80,4.90,3.80,-3.80,-3.79,1.09,1.10,1.10
303,4.84,3.74,4.83,3.74,-3.74,-3.68,1.10,1.09,1.09
306,4.77,3.68,4.77,3.68,-3.68,-3.57,1.09,1.09,1.09
309,4.70,3.61,4.70,3.62,-3.62,-3.47,1.08,1.08,1.08
312,4.64,3.56,4.63,3.55,-3.55,-3.36,1.08,1.08,1.08
316,4.55,3.47,4.56,3.49,-3.49,-3.22,1.06,1.07,1.07
319,4.49,3.42,4.49,3.42,-3.42,-3.12,1.06,1.07,1.07
322,4.42,3.35,4.43,3.36,-3.36,-3.02,1.06,1.07,1.07
325,4.36,3.29,4.36,3.29,-3.29,-2.92,1.06,1.06,1.06
328,4.30,3.24,4.29,3.23,-3.23,-2.82,1.07,1.06,1.06
332,4.21,3.15,4.22,3.16,-3.16,-2.69,1.05,1.05,1.05
335,4.15,3.10,4.14,3.09,-3.09,-2.60,1.05,1.05,1.05
338,4.09,3.04,4.07,3.03,-3.03,-2.51,1.06,1.05,1.05
342,4.00,2.95,4.00,2.96,-2.96,-2.39,1.04,1.04,1.04
345,3.94,2.90,3.93,2.89,-2.89,-2.31,1.05,1.04,1.04
349,3.86,2.82,3.86,2.82,-2.82,-2.20,1.03,1.04,1.04
352,3.79,2.75,3.79,2.76,-2.76,-2.12,1.03,1.03,1.03
356,3.71,2.68,3.72,2.69,-2.69,-2.01,1.02,1.03,1.03
359,3.65,2.62,3.65,2.62,-2.62,-1.93,1.03,1.03,1.03
363,3.57,2.54,3.58,2.55,-2.55,-1.83,1.02,1.02,1.03
366,3.51,2.49,3.51,2.48,-2.48,-1.76,1.02,1.02,1.02
370,3.44,2.42,3.43,2.42,-2.42,-1.66,1.02,1.02,1.02
374,3.36,2.34,3.36,2.35,-2.35,-1.57,1.01,1.02,1.02
377,3.30,2.28,3.29,2.28,-2.28,-1.51,1.02,1.01,1.01
381,3.23,2.22,3.22,2.21,-2.21,-1.42,1.02,1.01,1.01
385,3.15,2.14,3.15,2.14,-2.14,-1.33,1.01,1.01,1.01
389,3.08,2.07,3.08,2.07,-2.07,-1.25,1.01,1.01,1.01
393,3.01,2.00,3.01,2.00,-2.00,-1.17,1.01,1.01,1.00
397,2.93,1.93,2.93,1.93,-1.93,-1.09,1.00,1.00,1.00
401,2.86,1.86,2.86,1.86,-1.86,-1.01,1.00,1.00,1.00
405,2.78,1.78,2.78,1.79,-1.79,-0.94,0.99,1.00,1.00
409,2.71,1.71,2.71,1.71,-1.71,-0.87,0.99,0.99,1.00
413,2.64,1.64,2.63,1.64,-1.64,-0.80,1.00,0.99,0.99
417,2.56,1.57,2.56,1.57,-1.57,-0.73,0.99,0.99,0.99
421,2.49,1.50,2.48,1.50,-1.50,-0.66,0.99,0.99,0.99
425,2.42,1.43,2.41,1.42,-1.42,-0.60,1.00,0.98,0.99
430,2.33,1.34,2.33,1.35,-1.35,-0.52,0.98,0.98,0.98
434,2.25,1.27,2.25,1.27,-1.27,-0.46,0.98,0.98,0.98
438,2.18,1.20,2.18,1.20,-1.20,-0.40,0.98,0.98,0.98
443,2.09,1.11,2.10,1.12,-1.12,-0.33,0.96,0.98,0.98
447,2.03,1.05,2.03,1.05,-1.05,-0.27,0.98,0.98,0.98
451,1.96,0.97,1.96,0.97,-0.97,-0.22,0.99,0.98,0.98
456,1.88,0.89,1.88,0.90,-0.90,-0.15,0.98,0.99,0.99
460,1.81,0.81,1.81,0.82,-0.82,-0.10,0.99,0.99,0.99
465,1.74,0.74,1.74,0.74,-0.74,-0.04,1.00,1.00,1.00
470,1.67,0.66,1.67,0.66,-0.66,0.02,1.01,1.01,1.01
474,1.60,0.58,1.60,0.58,-0.58,0.06,1.02,1.02,1.02
479,1.53,0.50,1.52,0.49,-0.49,0.12,1.04,1.03,1.03
484,1.45,0.41,1.45,0.40,-0.40,0.17,1.04,1.04,1.04
489,1.37,0.32,1.37,0.31,-0.31,0.22,1.05,1.06,1.05
494,1.30,0.23,1.29,0.22,-0.22,0.27,1.08,1.07,1.07
499,1.22,0.14,1.20,0.13,-0.13,0.32,1.09,1.08,1.08
504,1.14,0.04,1.12,0.03,-0.03,0.36,1.11,1.09,1.10
509,1.05,-0.06,1.04,-0.07,0.07,0.40,1.12,1.10,1.11
514,0.96,-0.17,0.95,-0.17,0.17,0.45,1.13,1.12,1.13
519,0.87,-0.28,0.87,-0.27,0.27,0.49,1.14,1.14,1.14
524,0.77,-0.39,0.79,-0.37,0.37,0.52,1.14,1.16,1.16
529,0.69,-0.49,0.71,-0.47,0.47,0.56,1.16,1.18,1.18
535,0.60,-0.60,0.63,-0.57,0.57,0.61,1.17,1.20,1.20
540,0.53,-0.69,0.55,-0.67,0.67,0.64,1.20,1.22,1.22
545,0.47,-0.77,0.47,-0.77,0.77,0.67,1.24,1.24,1.24
551,0.41,-0.86,0.39,-0.87,0.87,0.71,1.27,1.26,1.27
556,0.34,-0.95,0.32,-0.96,0.96,0.75,1.30,1.29,1.29
562,0.27,-1.05,0.25,-1.06,1.06,0.78,1.33,1.31,1.32
568,0.19,-1.16,0.18,-1.16,1.16,0.82,1.35,1.34,1.34
573,0.12,-1.25,0.11,-1.26,1.26,0.85,1.38,1.37,1.37
579,0.04,-1.36,0.05,-1.36,1.36,0.89,1.40,1.40,1.40
585,-0.04,-1.47,-0.02,-1.46,1.46,0.92,1.41,1.43,1.43
591,-0.10,-1.56,-0.09,-1.56,1.56,0.96,1.45,1.46,1.46
596,-0.16,-1.65,-0.17,-1.66,1.66,0.99,1.49,1.49,1.49
602,-0.22,-1.74,-0.24,-1.76,1.76,1.03,1.53,1.52,1.52
608,-0.29,-1.84,-0.31,-1.86,1.86,1.06,1.57,1.54,1.55
615,-0.36,-1.95,-0.38,-1.96,1.96,1.10,1.60,1.57,1.58
621,-0.44,-2.06,-0.45,-2.05,2.05,1.14,1.61,1.61,1.61
627,-0.51,-2.16,-0.51,-2.15,2.15,1.18,1.64,1.64,1.65
633,-0.59,-2.27,-0.57,-2.25,2.25,1.21,1.65,1.67,1.68
639,-0.66,-2.37,-0.63,-2.34,2.34,1.25,1.68,1.71,1.71
646,-0.72,-2.46,-0.69,-2.43,2.43,1.30,1.71,1.74,1.74
652,-0.76,-2.54,-0.74,-2.52,2.52,1.34,1.75,1.77,1.78
659,-0.80,-2.61,-0.80,-2.60,2.60,1.38,1.80,1.80,1.81
665,-0.82,-2.67,-0.85,-2.68,2.68,1.42,1.86,1.84,1.84
672,-0.86,-2.74,-0.89,-2.77,2.77,1.47,1.90,1.87,1.88
679,-0.91,-2.83,-0.93,-2.84,2.84,1.52,1.93,1.91,1.92
686,-0.97,-2.92,-0.97,-2.92,2.92,1.57,1.95,1.95,1.95
692,-1.01,-3.00,-1.01,-3.00,3.00,1.61,1.98,1.99,1.99
699,-1.05,-3.08,-1.04,-3.07,3.07,1.67,2.02,2.03,2.03
706,-1.09,-3.16,-1.07,-3.14,3.14,1.72,2.05,2.07,2.07
713,-1.12,-3.23,-1.11,-3.22,3.22,1.77,2.09,2.11,2.11
721,-1.14,-3.29,-1.14,-3.29,3.29,1.83,2.14,2.15,2.14
728,-1.16,-3.34,-1.17,-3.36,3.36,1.89,2.19,2.18,2.18
735,-1.18,-3.40,-1.21,-3.42,3.42,1.94,2.24,2.22,2.22
742,-1.20,-3.46,-1.23,-3.49,3.49,2.00,2.29,2.25,2.26
750,-1.24,-3.54,-1.26,-3.55,3.55,2.07,2.31,2.29,2.30
757,-1.27,-3.61,-1.27,-3.61,3.61,2.12,2.34,2.33,2.34
765,-1.30,-3.68,-1.29,-3.66,3.66,2.19,2.36,2.37,2.38
773,-1.32,-3.74,-1.30,-3.71,3.71,2.26,2.39,2.41,2.41
780,-1.33,-3.78,-1.31,-3.76,3.76,2.32,2.42,2.44,2.45
788,-1.33,-3.82,-1.32,-3.79,3.79,2.38,2.46,2.48,2.49
796,-1.33,-3.85,-1.31,-3.83,3.83,2.45,2.49,2.51,2.52
804,-1.30,-3.86,-1.31,-3.85,3.85,2.52,2.55,2.55,2.55
812,-1.29,-3.88,-1.30,-3.87,3.87,2.59,2.58,2.58,2.59
820,-1.26,-3.88,-1.28,-3.89,3.89,2.66,2.63,2.61,2.62
828,-1.25,-3.90,-1.25,-3.90,3.90,2.72,2.65,2.65,2.65
837,-1.21,-3.89,-1.22,-3.90,3.90,2.80,2.69,2.68,2.68
845,-1.18,-3.89,-1.18,-3.90,3.90,2.86,2.72,2.71,2.71
853,-1.15,-3.90,-1.15,-3.89,3.89,2.93,2.74,2.74,2.74
862,-1.10,-3.88,-1.10,-3.88,3.88,3.00,2.77,2.77,2.77
871,-1.05,-3.85,-1.06,-3.86,3.86,3.06,2.81,2.80,2.80
879,-1.01,-3.84,-1.01,-3.83,3.83,3.12,2.82,2.83,2.83
888,-0.95,-3.81,-0.95,-3.80,3.80,3.19,2.85,2.85,2.86
897,-0.89,-3.78,-0.89,-3.77,3.77,3.25,2.88,2.88,2.89
906,-0.82,-3.74,-0.83,-3.73,3.73,3.30,2.91,2.91,2.91
915,-0.76,-3.70,-0.75,-3.69,3.69,3.35,2.93,2.93,2.94
924,-0.69,-3.66,-0.68,-3.64,3.64,3.40,2.95,2.96,2.97
933,-0.62,-3.62,-0.60,-3.59,3.59,3.45,2.97,2.99,2.99
943,-0.52,-3.54,-0.52,-3.54,3.54,3.50,3.01,3.02,3.02
952,-0.44,-3.49,-0.43,-3.48,3.48,3.53,3.04,3.05,3.05
962,-0.34,-3.41,-0.35,-3.42,3.42,3.57,3.08,3.07,3.07
971,-0.25,-3.35,-0.27,-3.37,3.37,3.59,3.11,3.10,3.10
981,-0.16,-3.29,-0.18,-3.31,3.31,3.62,3.14,3.12,3.12
991,-0.07,-3.22,-0.10,-3.25,3.25,3.64,3.18,3.15,3.15
1001,0.01,-3.17,-0.01,-3.19,3.19,3.65,3.20,3.18,3.18
1011,0.08,-3.13,0.07,-3.13,3.13,3.66,3.21,3.20,3.20
1021,0.16,-3.07,0.16,-3.07,3.07,3.66,3.23,3.23,3.23
1031,0.22,-3.04,0.24,-3.01,3.01,3.66,3.23,3.25,3.26
1041,0.31,-2.98,0.33,-2.95,2.95,3.66,3.26,3.28,3.29
1052,0.40,-2.92,0.42,-2.89,2.89,3.65,3.29,3.31,3.31
1062,0.48,-2.86,0.50,-2.83,2.83,3.63,3.31,3.34,3.34
1073,0.58,-2.79,0.59,-2.78,2.78,3.61,3.35,3.37,3.37
1084,0.68,-2.72,0.68,-2.72,2.72,3.59,3.40,3.40,3.40
1094,0.76,-2.67,0.76,-2.66,2.66,3.57,3.42,3.43,3.43
1105,0.86,-2.60,0.85,-2.61,2.61,3.54,3.47,3.46,3.46
1116,0.95,-2.54,0.93,-2.56,2.56,3.50,3.51,3.50,3.49
1128,1.04,-2.48,1.01,-2.52,2.52,3.47,3.56,3.53,3.52
1139,1.11,-2.45,1.08,-2.48,2.48,3.43,3.59,3.56,3.55
1150,1.17,-2.42,1.15,-2.44,2.44,3.39,3.61,3.59,3.59
1162,1.22,-2.40,1.21,-2.41,2.41,3.35,3.63,3.62,3.62
1173,1.27,-2.38,1.26,-2.38,2.38,3.31,3.65,3.65,3.65
1185,1.32,-2.36,1.32,-2.36,2.36,3.27,3.68,3.68,3.68
1197,1.37,-2.35,1.37,-2.34,2.34,3.23,3.71,3.71,3.71
1209,1.42,-2.33,1.42,-2.32,2.32,3.19,3.74,3.74,3.74
1221,1.46,-2.32,1.47,-2.30,2.30,3.14,3.76,3.77,3.78
1233,1.49,-2.32,1.52,-2.28,2.28,3.10,3.77,3.80,3.81
1246,1.55,-2.29,1.57,-2.27,2.27,3.06,3.81,3.84,3.84
1258,1.60,-2.28,1.62,-2.25,2.25,3.02,3.85,3.87,3.87
1271,1.67,-2.24,1.67,-2.23,2.23,2.98,3.90,3.90,3.91
1283,1.74,-2.20,1.73,-2.21,2.21,2.95,3.95,3.94,3.94
1296,1.81,-2.17,1.78,-2.19,2.19,2.91,4.00,3.97,3.98
1309,1.86,-2.16,1.83,-2.17,2.17,2.88,4.03,4.01,4.01
1322,1.91,-2.14,1.89,-2.15,2.15,2.85,4.06,4.04,4.05
1335,1.95,-2.14,1.95,-2.14,2.14,2.81,4.08,4.08,4.09
1349,1.99,-2.13,2.01,-2.12,2.12,2.78,4.11,4.12,4.12
1362,2.03,-2.13,2.06,-2.10,2.10,2.76,4.13,4.16,4.16
1376,2.09,-2.11,2.11,-2.09,2.09,2.73,4.18,4.20,4.20
1390,2.15,-2.09,2.16,-2.08,2.08,2.71,4.22,4.24,4.24
1404,2.22,-2.06,2.21,-2.06,2.06,2.69,4.28,4.27,4.27
1418,2.28,-2.04,2.25,-2.05,2.05,2.67,4.33,4.31,4.31
1432,2.34,-2.01,2.30,-2.05,2.05,2.65,4.38,4.34,4.35
1446,2.37,-2.02,2.34,-2.04,2.04,2.64,4.41,4.38,4.39
1461,2.41,-2.02,2.39,-2.04,2.04,2.62,4.44,4.42,4.43
1475,2.43,-2.04,2.43,-2.03,2.03,2.61,4.46,4.46,4.47
1490,2.45,-2.06,2.48,-2.03,2.03,2.61,4.48,4.51,4.51
1505,2.49,-2.06,2.52,-2.03,2.03,2.60,4.52,4.55,4.55
1520,2.53,-2.06,2.56,-2.03,2.03,2.60,4.55,4.58,4.59
1535,2.59,-2.04,2.60,-2.02,2.02,2.59,4.61,4.62,4.63
1550,2.64,-2.04,2.64,-2.02,2.02,2.59,4.66,4.66,4.67
1566,2.70,-2.02,2.68,-2.02,2.02,2.59,4.72,4.70,4.72
1582,2.74,-2.02,2.72,-2.02,2.02,2.60,4.76,4.75,4.76
1597,2.79,-2.02,2.77,-2.02,2.02,2.60,4.81,4.79,4.81
1613,2.82,-2.03,2.81,-2.02,2.02,2.61,4.84,4.83,4.85
1629,2.87,-2.03,2.86,-2.02,2.02,2.62,4.89,4.88,4.90
1646,2.91,-2.04,2.91,-2.02,2.02,2.63,4.93,4.92,4.94
1662,2.95,-2.04,2.95,-2.02,2.02,2.64,4.96,4.97,4.99
1679,2.99,-2.05,3.00,-2.02,2.02,2.65,5.00,5.01,5.04
1696,3.04,-2.04,3.04,-2.01,2.01,2.66,5.05,5.06,5.08
1713,3.08,-2.05,3.09,-2.01,2.01,2.68,5.09,5.10,5.13
1730,3.13,-2.05,3.14,-2.02,2.02,2.69,5.14,5.15,5.18
1747,3.18,-2.05,3.18,-2.02,2.02,2.71,5.20,5.20,5.23
1764,3.23,-2.05,3.23,-2.02,2.02,2.72,5.25,5.25,5.28
1782,3.29,-2.04,3.28,-2.03,2.03,2.74,5.32,5.31,5.33
1800,3.34,-2.04,3.33,-2.03,2.03,2.76,5.37,5.37,5.38
1818,3.40,-2.03,3.38,-2.04,2.04,2.77,5.44,5.43,5.43
1836,3.44,-2.05,3.43,-2.06,2.06,2.79,5.49,5.49,5.49
1854,3.48,-2.07,3.48,-2.07,2.07,2.81,5.55,5.55,5.55
1873,3.53,-2.08,3.52,-2.09,2.09,2.83,5.62,5.61,5.61
1892,3.58,-2.10,3.57,-2.11,2.11,2.84,5.68,5.68,5.68
1911,3.62,-2.13,3.62,-2.13,2.13,2.86,5.75,5.74,5.74
1930,3.67,-2.15,3.66,-2.15,2.15,2.88,5.82,5.81,5.82
1949,3.72,-2.18,3.71,-2.18,2.18,2.89,5.89,5.89,5.89
1969,3.75,-2.22,3.76,-2.20,2.20,2.91,5.95,5.96,5.97
1988,3.80,-2.26,3.81,-2.23,2.23,2.92,6.03,6.05,6.05
2008,3.85,-2.29,3.87,-2.26,2.26,2.93,6.11,6.13,6.14
2028,3.90,-2.33,3.92,-2.30,2.30,2.95,6.19,6.22,6.23
2048,3.97,-2.35,3.98,-2.34,2.34,2.96,6.30,6.31,6.32
2069,4.03,-2.39,4.03,-2.38,2.38,2.97,6.41,6.41,6.42
