frequency,raw,smoothed,error,error_smoothed,equalization,parametric_eq,fixed_band_eq,equalized_raw,equalized_smoothed,target
20.00,3.44,3.44,-3.71,-3.71,3.71,2.78,1.26,7.15,7.15,7.15
20.20,3.45,3.45,-3.69,-3.69,3.69,2.78,1.30,7.14,7.14,7.14
20.40,3.47,3.47,-3.66,-3.66,3.66,2.77,1.34,7.13,7.13,7.13
20.61,3.48,3.48,-3.64,-3.64,3.63,2.77,1.38,7.11,7.12,7.12
20.81,3.50,3.50,-3.61,-3.61,3.61,2.77,1.42,7.11,7.10,7.11
21.02,3.51,3.51,-3.59,-3.58,3.58,2.77,1.46,7.09,7.09,7.10
21.23,3.53,3.53,-3.56,-3.56,3.55,2.77,1.50,7.08,7.08,7.09
21.44,3.55,3.55,-3.52,-3.53,3.53,2.76,1.55,7.08,7.07,7.07
21.66,3.56,3.56,-3.50,-3.50,3.50,2.76,1.59,7.06,7.06,7.06
21.87,3.58,3.58,-3.47,-3.47,3.47,2.76,1.64,7.05,7.05,7.05
22.09,3.60,3.60,-3.44,-3.45,3.45,2.76,1.69,7.04,7.04,7.04
22.31,3.61,3.61,-3.42,-3.41,3.42,2.76,1.74,7.03,7.03,7.03
22.54,3.63,3.63,-3.39,-3.39,3.39,2.75,1.79,7.02,7.02,7.02
22.76,3.65,3.65,-3.36,-3.37,3.36,2.75,1.84,7.01,7.01,7.01
22.99,3.66,3.66,-3.35,-3.34,3.34,2.75,1.90,7.00,7.00,7.01
23.22,3.68,3.68,-3.32,-3.31,3.31,2.75,1.95,6.99,6.99,7.00
23.45,3.70,3.70,-3.28,-3.29,3.28,2.75,2.01,6.98,6.98,6.98
23.69,3.71,3.71,-3.26,-3.26,3.26,2.74,2.07,6.97,6.97,6.97
23.92,3.73,3.73,-3.23,-3.23,3.23,2.74,2.12,6.96,6.96,6.96
24.16,3.75,3.75,-3.20,-3.20,3.21,2.74,2.18,6.96,6.95,6.95
24.40,3.76,3.76,-3.18,-3.18,3.19,2.74,2.24,6.95,6.95,6.94
24.65,3.77,3.77,-3.17,-3.16,3.16,2.73,2.31,6.93,6.94,6.94
24.89,3.79,3.79,-3.15,-3.15,3.14,2.73,2.37,6.93,6.93,6.94
25.14,3.80,3.80,-3.13,-3.13,3.12,2.73,2.43,6.92,6.93,6.93
25.39,3.82,3.82,-3.10,-3.10,3.10,2.72,2.49,6.92,6.92,6.92
25.65,3.84,3.84,-3.08,-3.08,3.09,2.72,2.55,6.93,6.92,6.92
25.91,3.85,3.85,-3.07,-3.06,3.07,2.72,2.62,6.92,6.92,6.92
26.16,3.87,3.87,-3.05,-3.05,3.05,2.72,2.68,6.92,6.92,6.92
26.43,3.88,3.88,-3.03,-3.03,3.03,2.71,2.74,6.91,6.91,6.91
26.69,3.90,3.90,-3.01,-3.01,3.02,2.71,2.80,6.92,6.91,6.91
26.96,3.91,3.91,-3.00,-3.00,3.00,2.71,2.86,6.91,6.91,6.91
27.23,3.93,3.93,-2.98,-2.98,2.98,2.70,2.92,6.91,6.90,6.91
27.50,3.94,3.94,-2.97,-2.96,2.96,2.70,2.98,6.90,6.90,6.91
27.77,3.96,3.96,-2.94,-2.94,2.94,2.70,3.03,6.90,6.90,6.90
28.05,3.98,3.98,-2.91,-2.91,2.91,2.69,3.09,6.89,6.89,6.89
28.33,4.00,4.00,-2.89,-2.89,2.89,2.69,3.14,6.89,6.89,6.89
28.62,4.02,4.02,-2.86,-2.86,2.86,2.68,3.18,6.88,6.88,6.88
28.90,4.03,4.03,-2.84,-2.84,2.84,2.68,3.23,6.87,6.87,6.87
29.19,4.05,4.05,-2.81,-2.81,2.81,2.68,3.27,6.86,6.86,6.86
29.48,4.06,4.06,-2.79,-2.79,2.79,2.67,3.30,6.85,6.85,6.85
29.78,4.07,4.07,-2.77,-2.77,2.77,2.67,3.34,6.84,6.84,6.84
30.08,4.08,4.08,-2.75,-2.75,2.76,2.66,3.36,6.84,6.84,6.83
30.38,4.08,4.08,-2.75,-2.74,2.74,2.66,3.39,6.82,6.83,6.83
30.68,4.09,4.09,-2.73,-2.73,2.73,2.65,3.41,6.82,6.82,6.82
30.99,4.09,4.09,-2.73,-2.73,2.72,2.65,3.42,6.81,6.81,6.82
31.30,4.10,4.10,-2.72,-2.72,2.71,2.64,3.43,6.81,6.81,6.82
31.61,4.11,4.11,-2.70,-2.71,2.70,2.64,3.43,6.81,6.81,6.81
31.93,4.12,4.12,-2.70,-2.69,2.70,2.63,3.43,6.82,6.82,6.82
32.24,4.13,4.13,-2.68,-2.68,2.69,2.63,3.43,6.82,6.82,6.81
32.57,4.14,4.14,-2.67,-2.68,2.68,2.62,3.42,6.82,6.81,6.81
32.89,4.14,4.14,-2.67,-2.67,2.67,2.61,3.40,6.81,6.81,6.81
33.22,4.15,4.15,-2.66,-2.66,2.66,2.61,3.38,6.81,6.81,6.81
33.55,4.16,4.16,-2.64,-2.65,2.64,2.60,3.36,6.80,6.80,6.80
33.89,4.16,4.16,-2.63,-2.63,2.63,2.60,3.33,6.79,6.79,6.79
34.23,4.17,4.17,-2.61,-2.62,2.62,2.59,3.30,6.79,6.79,6.78
34.57,4.17,4.17,-2.61,-2.60,2.60,2.58,3.27,6.77,6.78,6.78
34.92,4.18,4.18,-2.58,-2.59,2.59,2.58,3.24,6.77,6.76,6.76
35.27,4.18,4.18,-2.57,-2.57,2.57,2.57,3.20,6.75,6.75,6.75
35.62,4.18,4.18,-2.55,-2.55,2.55,2.56,3.16,6.73,6.73,6.73
35.97,4.19,4.19,-2.53,-2.53,2.53,2.55,3.12,6.72,6.71,6.71
36.33,4.19,4.19,-2.51,-2.51,2.50,2.55,3.07,6.69,6.69,6.70
36.70,4.19,4.19,-2.48,-2.48,2.48,2.54,3.03,6.67,6.67,6.67
37.06,4.20,4.20,-2.45,-2.46,2.45,2.53,2.98,6.65,6.65,6.65
37.43,4.20,4.20,-2.43,-2.43,2.43,2.52,2.94,6.63,6.63,6.63
37.81,4.20,4.20,-2.41,-2.40,2.40,2.52,2.89,6.60,6.61,6.61
38.19,4.21,4.21,-2.37,-2.38,2.38,2.51,2.85,6.59,6.59,6.58
38.57,4.21,4.21,-2.35,-2.35,2.36,2.50,2.80,6.57,6.57,6.56
38.95,4.21,4.21,-2.34,-2.33,2.34,2.49,2.76,6.55,6.55,6.55
39.34,4.21,4.21,-2.32,-2.32,2.32,2.48,2.72,6.53,6.53,6.53
39.74,4.21,4.21,-2.30,-2.30,2.30,2.47,2.67,6.51,6.51,6.51
40.14,4.20,4.20,-2.29,-2.29,2.29,2.46,2.63,6.49,6.49,6.49
40.54,4.20,4.20,-2.28,-2.28,2.28,2.45,2.59,6.48,6.48,6.48
40.94,4.20,4.20,-2.27,-2.27,2.27,2.44,2.55,6.47,6.46,6.47
41.35,4.19,4.19,-2.26,-2.26,2.26,2.43,2.52,6.45,6.45,6.45
41.76,4.19,4.19,-2.25,-2.25,2.25,2.42,2.48,6.44,6.44,6.44
42.18,4.19,4.19,-2.25,-2.24,2.24,2.41,2.45,6.43,6.43,6.44
42.60,4.19,4.19,-2.23,-2.24,2.24,2.40,2.42,6.43,6.42,6.42
43.03,4.18,4.18,-2.23,-2.23,2.23,2.39,2.39,6.41,6.42,6.41
43.46,4.18,4.18,-2.23,-2.23,2.23,2.38,2.36,6.41,6.41,6.41
43.90,4.18,4.18,-2.23,-2.23,2.23,2.36,2.33,6.41,6.40,6.41
44.33,4.17,4.17,-2.22,-2.22,2.22,2.35,2.30,6.39,6.40,6.39
44.78,4.17,4.17,-2.22,-2.22,2.22,2.34,2.28,6.39,6.39,6.39
45.23,4.16,4.16,-2.23,-2.22,2.22,2.33,2.26,6.38,6.38,6.38
45.68,4.16,4.16,-2.21,-2.21,2.21,2.32,2.24,6.37,6.37,6.37
46.13,4.15,4.15,-2.21,-2.21,2.21,2.30,2.22,6.36,6.36,6.35
46.60,4.14,4.14,-2.21,-2.20,2.21,2.29,2.21,6.35,6.35,6.35
47.06,4.13,4.13,-2.20,-2.20,2.20,2.28,2.19,6.33,6.33,6.33
47.53,4.12,4.12,-2.20,-2.20,2.19,2.27,2.18,6.31,6.31,6.32
48.01,4.11,4.11,-2.19,-2.19,2.19,2.25,2.17,6.30,6.30,6.30
48.49,4.10,4.10,-2.18,-2.18,2.18,2.24,2.16,6.28,6.28,6.28
48.97,4.09,4.09,-2.17,-2.17,2.17,2.23,2.15,6.26,6.26,6.26
49.46,4.08,4.08,-2.16,-2.16,2.16,2.22,2.15,6.24,6.24,6.24
49.96,4.07,4.07,-2.14,-2.15,2.15,2.20,2.14,6.22,6.21,6.21
50.46,4.05,4.05,-2.14,-2.13,2.14,2.19,2.14,6.19,6.19,6.19
50.96,4.04,4.04,-2.12,-2.12,2.12,2.18,2.13,6.16,6.16,6.16
51.47,4.03,4.03,-2.11,-2.11,2.11,2.16,2.13,6.14,6.14,6.14
51.99,4.01,4.01,-2.10,-2.10,2.10,2.15,2.13,6.11,6.12,6.11
52.51,4.00,4.00,-2.09,-2.09,2.09,2.13,2.13,6.09,6.09,6.09
53.03,3.98,3.98,-2.09,-2.08,2.08,2.12,2.13,6.06,6.06,6.07
53.56,3.97,3.97,-2.07,-2.07,2.07,2.11,2.12,6.04,6.04,6.04
54.10,3.95,3.95,-2.06,-2.06,2.06,2.09,2.12,6.01,6.01,6.01
54.64,3.94,3.94,-2.05,-2.05,2.05,2.08,2.12,5.99,5.99,5.99
55.18,3.92,3.92,-2.04,-2.04,2.04,2.07,2.12,5.96,5.96,5.96
55.74,3.90,3.90,-2.03,-2.03,2.03,2.05,2.12,5.93,5.93,5.93
56.29,3.89,3.89,-2.01,-2.02,2.02,2.04,2.12,5.91,5.90,5.90
56.86,3.87,3.87,-2.00,-2.00,2.00,2.02,2.11,5.87,5.87,5.87
57.42,3.85,3.85,-1.99,-1.99,1.99,2.01,2.11,5.84,5.84,5.84
58.00,3.83,3.83,-1.98,-1.98,1.98,1.99,2.10,5.81,5.81,5.81
58.58,3.81,3.81,-1.97,-1.97,1.96,1.98,2.10,5.77,5.77,5.78
59.16,3.79,3.79,-1.95,-1.95,1.95,1.96,2.09,5.74,5.74,5.74
59.76,3.77,3.77,-1.94,-1.93,1.93,1.94,2.08,5.70,5.70,5.71
60.35,3.76,3.76,-1.91,-1.91,1.91,1.93,2.07,5.67,5.67,5.67
60.96,3.74,3.74,-1.89,-1.89,1.89,1.91,2.05,5.63,5.63,5.63
61.57,3.72,3.72,-1.87,-1.87,1.87,1.89,2.03,5.59,5.59,5.59
62.18,3.70,3.70,-1.85,-1.85,1.85,1.88,2.02,5.55,5.55,5.55
62.80,3.68,3.68,-1.83,-1.82,1.82,1.86,1.99,5.50,5.50,5.51
63.43,3.66,3.66,-1.79,-1.80,1.80,1.84,1.97,5.46,5.46,5.45
64.07,3.64,3.64,-1.77,-1.77,1.77,1.82,1.95,5.41,5.42,5.41
64.71,3.62,3.62,-1.75,-1.75,1.75,1.80,1.92,5.37,5.37,5.37
65.35,3.60,3.60,-1.72,-1.73,1.73,1.78,1.89,5.33,5.32,5.32
66.01,3.57,3.57,-1.71,-1.70,1.70,1.76,1.86,5.27,5.28,5.28
66.67,3.55,3.55,-1.68,-1.68,1.68,1.74,1.82,5.23,5.23,5.23
67.33,3.53,3.53,-1.65,-1.66,1.66,1.71,1.78,5.19,5.18,5.18
68.01,3.50,3.50,-1.63,-1.63,1.63,1.69,1.75,5.13,5.14,5.13
68.69,3.48,3.48,-1.60,-1.61,1.61,1.67,1.71,5.09,5.09,5.08
69.37,3.45,3.45,-1.58,-1.58,1.58,1.64,1.67,5.03,5.04,5.03
70.07,3.43,3.43,-1.56,-1.56,1.56,1.62,1.62,4.99,4.99,4.99
70.77,3.40,3.40,-1.54,-1.53,1.53,1.59,1.58,4.93,4.93,4.94
71.48,3.38,3.38,-1.50,-1.51,1.51,1.57,1.53,4.89,4.88,4.88
72.19,3.35,3.35,-1.48,-1.48,1.48,1.54,1.49,4.83,4.83,4.83
72.91,3.32,3.32,-1.46,-1.45,1.45,1.51,1.44,4.77,4.78,4.78
73.64,3.30,3.30,-1.42,-1.42,1.42,1.48,1.39,4.72,4.72,4.72
74.38,3.27,3.27,-1.39,-1.39,1.39,1.45,1.35,4.66,4.66,4.66
75.12,3.24,3.24,-1.36,-1.36,1.36,1.42,1.30,4.60,4.60,4.60
75.87,3.21,3.21,-1.34,-1.34,1.33,1.39,1.25,4.54,4.54,4.55
76.63,3.18,3.18,-1.30,-1.30,1.30,1.36,1.20,4.48,4.48,4.48
77.40,3.15,3.15,-1.27,-1.27,1.27,1.33,1.15,4.42,4.42,4.42
78.17,3.13,3.13,-1.23,-1.23,1.23,1.29,1.10,4.36,4.36,4.35
78.95,3.10,3.10,-1.20,-1.19,1.20,1.26,1.05,4.30,4.30,4.30
79.74,3.07,3.07,-1.16,-1.16,1.16,1.22,1.00,4.23,4.23,4.23
80.54,3.04,3.04,-1.12,-1.13,1.12,1.18,0.95,4.16,4.16,4.16
81.35,3.01,3.01,-1.09,-1.09,1.09,1.15,0.91,4.10,4.10,4.10
82.16,2.98,2.98,-1.05,-1.05,1.05,1.11,0.86,4.03,4.03,4.03
82.98,2.95,2.95,-1.01,-1.01,1.02,1.07,0.81,3.97,3.97,3.96
83.81,2.92,2.92,-0.98,-0.98,0.98,1.03,0.76,3.90,3.90,3.90
84.65,2.89,2.89,-0.94,-0.94,0.94,0.99,0.71,3.83,3.83,3.82
85.50,2.85,2.85,-0.91,-0.91,0.91,0.95,0.67,3.76,3.76,3.76
86.35,2.82,2.82,-0.88,-0.87,0.87,0.91,0.62,3.69,3.69,3.70
87.22,2.79,2.79,-0.83,-0.83,0.83,0.86,0.57,3.62,3.62,3.62
88.09,2.76,2.76,-0.79,-0.79,0.79,0.82,0.53,3.55,3.55,3.55
88.97,2.73,2.73,-0.74,-0.75,0.75,0.77,0.48,3.48,3.48,3.47
89.86,2.70,2.70,-0.71,-0.71,0.71,0.73,0.44,3.41,3.40,3.41
90.76,2.66,2.66,-0.67,-0.67,0.67,0.68,0.39,3.33,3.33,3.33
91.66,2.63,2.63,-0.63,-0.62,0.62,0.63,0.35,3.25,3.25,3.26
92.58,2.60,2.60,-0.58,-0.58,0.58,0.58,0.31,3.18,3.17,3.18
93.51,2.57,2.57,-0.53,-0.53,0.53,0.53,0.26,3.10,3.10,3.10
94.44,2.53,2.53,-0.48,-0.48,0.48,0.48,0.22,3.01,3.02,3.01
95.39,2.50,2.50,-0.43,-0.44,0.44,0.43,0.18,2.94,2.93,2.93
96.34,2.46,2.46,-0.39,-0.39,0.39,0.38,0.13,2.85,2.85,2.85
97.30,2.42,2.42,-0.35,-0.34,0.34,0.33,0.09,2.76,2.76,2.77
98.28,2.39,2.39,-0.28,-0.29,0.29,0.28,0.05,2.68,2.67,2.67
99.26,2.35,2.35,-0.24,-0.24,0.24,0.22,0.01,2.59,2.59,2.59
100.25,2.31,2.31,-0.20,-0.19,0.19,0.17,-0.03,2.50,2.50,2.51
101.25,2.28,2.28,-0.13,-0.14,0.14,0.11,-0.07,2.42,2.41,2.41
102.27,2.24,2.24,-0.09,-0.08,0.09,0.06,-0.11,2.33,2.33,2.33
103.29,2.21,2.21,-0.03,-0.03,0.04,0.00,-0.15,2.25,2.24,2.24
104.32,2.17,2.17,0.01,0.01,-0.01,-0.05,-0.19,2.16,2.16,2.16
105.37,2.13,2.13,0.06,0.06,-0.06,-0.11,-0.23,2.07,2.07,2.07
106.42,2.09,2.09,0.10,0.11,-0.10,-0.17,-0.27,1.99,1.99,1.99
107.48,2.06,2.06,0.16,0.15,-0.15,-0.22,-0.31,1.91,1.91,1.90
108.56,2.02,2.02,0.20,0.20,-0.19,-0.28,-0.34,1.83,1.83,1.82
109.64,1.98,1.98,0.23,0.24,-0.23,-0.34,-0.38,1.74,1.74,1.75
110.74,1.94,1.94,0.28,0.28,-0.28,-0.40,-0.41,1.66,1.66,1.66
111.85,1.90,1.90,0.32,0.32,-0.33,-0.46,-0.45,1.57,1.57,1.58
112.97,1.87,1.87,0.38,0.38,-0.39,-0.52,-0.48,1.48,1.48,1.49
114.10,1.85,1.85,0.44,0.44,-0.45,-0.58,-0.51,1.40,1.40,1.41
115.24,1.84,1.84,0.51,0.51,-0.51,-0.63,-0.54,1.33,1.32,1.33
116.39,1.82,1.82,0.58,0.58,-0.58,-0.69,-0.57,1.24,1.24,1.24
117.55,1.80,1.80,0.65,0.65,-0.65,-0.75,-0.60,1.15,1.16,1.15
118.73,1.78,1.78,0.72,0.72,-0.71,-0.81,-0.63,1.07,1.07,1.06
119.92,1.76,1.75,0.79,0.78,-0.77,-0.87,-0.66,0.99,0.98,0.97
121.12,1.72,1.72,0.84,0.84,-0.83,-0.93,-0.68,0.89,0.89,0.88
122.33,1.68,1.68,0.89,0.89,-0.88,-0.98,-0.71,0.80,0.80,0.79
123.55,1.64,1.64,0.94,0.93,-0.93,-1.04,-0.73,0.71,0.71,0.70
124.79,1.59,1.59,0.97,0.97,-0.97,-1.10,-0.75,0.62,0.62,0.62
126.03,1.53,1.53,1.00,1.01,-1.01,-1.15,-0.77,0.52,0.52,0.53
127.29,1.48,1.48,1.05,1.04,-1.05,-1.21,-0.79,0.43,0.43,0.43
128.57,1.43,1.43,1.08,1.08,-1.09,-1.26,-0.81,0.34,0.34,0.35
129.85,1.39,1.39,1.13,1.13,-1.13,-1.32,-0.83,0.26,0.26,0.26
131.15,1.35,1.35,1.17,1.17,-1.17,-1.37,-0.84,0.18,0.18,0.18
132.46,1.31,1.31,1.21,1.22,-1.21,-1.42,-0.86,0.10,0.10,0.10
133.79,1.28,1.28,1.26,1.26,-1.26,-1.47,-0.87,0.02,0.02,0.02
135.12,1.25,1.25,1.31,1.30,-1.30,-1.52,-0.89,-0.05,-0.05,-0.06
136.48,1.21,1.21,1.34,1.34,-1.34,-1.57,-0.90,-0.13,-0.12,-0.13
137.84,1.18,1.18,1.38,1.38,-1.37,-1.61,-0.91,-0.19,-0.19,-0.20
139.22,1.15,1.15,1.41,1.41,-1.41,-1.66,-0.92,-0.26,-0.26,-0.26
140.61,1.11,1.11,1.44,1.44,-1.44,-1.70,-0.94,-0.33,-0.33,-0.33
142.02,1.08,1.08,1.48,1.48,-1.48,-1.74,-0.95,-0.40,-0.40,-0.40
143.44,1.05,1.05,1.51,1.51,-1.51,-1.78,-0.96,-0.46,-0.46,-0.46
144.87,1.02,1.02,1.54,1.54,-1.54,-1.82,-0.97,-0.52,-0.52,-0.52
146.32,0.99,0.99,1.58,1.57,-1.58,-1.85,-0.98,-0.59,-0.59,-0.59
147.78,0.96,0.96,1.61,1.61,-1.61,-1.89,-0.99,-0.65,-0.65,-0.65
149.26,0.93,0.93,1.64,1.64,-1.64,-1.92,-1.00,-0.71,-0.71,-0.71
150.75,0.91,0.91,1.68,1.67,-1.67,-1.95,-1.01,-0.76,-0.76,-0.77
152.26,0.88,0.88,1.70,1.70,-1.70,-1.97,-1.02,-0.82,-0.82,-0.82
153.78,0.85,0.85,1.73,1.73,-1.73,-2.00,-1.04,-0.88,-0.88,-0.88
155.32,0.82,0.82,1.75,1.75,-1.75,-2.02,-1.05,-0.94,-0.94,-0.94
156.88,0.79,0.79,1.78,1.78,-1.78,-2.04,-1.06,-0.99,-0.99,-0.99
158.44,0.76,0.76,1.80,1.80,-1.81,-2.06,-1.08,-1.05,-1.04,-1.04
160.03,0.73,0.73,1.82,1.83,-1.83,-2.08,-1.09,-1.10,-1.10,-1.09
161.63,0.70,0.70,1.85,1.85,-1.85,-2.09,-1.11,-1.15,-1.15,-1.15
163.24,0.66,0.66,1.87,1.87,-1.87,-2.10,-1.12,-1.21,-1.21,-1.21
164.88,0.63,0.63,1.89,1.89,-1.89,-2.11,-1.14,-1.26,-1.26,-1.26
166.53,0.60,0.60,1.91,1.91,-1.91,-2.12,-1.16,-1.31,-1.31,-1.31
168.19,0.57,0.57,1.93,1.93,-1.93,-2.12,-1.18,-1.36,-1.36,-1.36
169.87,0.54,0.54,1.94,1.94,-1.95,-2.13,-1.20,-1.41,-1.41,-1.40
171.57,0.51,0.51,1.96,1.96,-1.96,-2.13,-1.22,-1.45,-1.45,-1.45
173.29,0.48,0.48,1.98,1.98,-1.97,-2.13,-1.24,-1.49,-1.49,-1.50
175.02,0.45,0.45,1.99,1.99,-1.98,-2.13,-1.26,-1.53,-1.54,-1.54
176.77,0.41,0.41,1.99,1.99,-1.99,-2.12,-1.29,-1.58,-1.58,-1.58
178.54,0.38,0.38,2.00,2.00,-2.00,-2.12,-1.31,-1.62,-1.62,-1.62
180.32,0.34,0.34,2.00,2.00,-2.00,-2.11,-1.34,-1.66,-1.66,-1.66
182.13,0.31,0.31,2.00,2.00,-2.00,-2.10,-1.37,-1.69,-1.69,-1.69
183.95,0.27,0.27,2.00,2.00,-2.00,-2.09,-1.39,-1.73,-1.73,-1.73
185.79,0.23,0.23,2.00,2.00,-2.00,-2.08,-1.42,-1.77,-1.77,-1.77
187.65,0.20,0.20,2.00,2.00,-2.00,-2.07,-1.45,-1.80,-1.80,-1.80
189.52,0.16,0.16,1.99,2.00,-2.00,-2.05,-1.48,-1.84,-1.84,-1.83
191.42,0.12,0.12,2.00,2.00,-2.00,-2.04,-1.52,-1.88,-1.87,-1.88
193.33,0.09,0.09,2.00,1.99,-1.99,-2.02,-1.55,-1.90,-1.91,-1.91
195.27,0.05,0.05,1.99,1.99,-1.99,-2.01,-1.58,-1.94,-1.94,-1.94
197.22,0.02,0.02,1.99,1.99,-1.99,-1.99,-1.62,-1.97,-1.97,-1.97
199.19,-0.02,-0.02,1.98,1.98,-1.98,-1.97,-1.65,-2.00,-2.00,-2.00
201.18,-0.05,-0.05,1.97,1.97,-1.97,-1.95,-1.69,-2.02,-2.02,-2.02
203.19,-0.08,-0.08,1.97,1.97,-1.97,-1.94,-1.72,-2.05,-2.05,-2.05
205.23,-0.12,-0.12,1.96,1.96,-1.96,-1.92,-1.76,-2.08,-2.08,-2.08
207.28,-0.15,-0.15,1.95,1.95,-1.95,-1.90,-1.79,-2.10,-2.10,-2.10
209.35,-0.19,-0.19,1.94,1.94,-1.94,-1.88,-1.83,-2.13,-2.13,-2.13
211.44,-0.23,-0.23,1.92,1.93,-1.93,-1.86,-1.86,-2.16,-2.16,-2.15
213.56,-0.26,-0.26,1.92,1.92,-1.92,-1.84,-1.90,-2.18,-2.18,-2.19
215.69,-0.30,-0.30,1.91,1.91,-1.91,-1.82,-1.93,-2.21,-2.21,-2.21
217.85,-0.34,-0.34,1.89,1.89,-1.89,-1.80,-1.96,-2.23,-2.23,-2.23
220.03,-0.37,-0.37,1.88,1.88,-1.88,-1.78,-1.99,-2.25,-2.25,-2.25
222.23,-0.41,-0.41,1.86,1.86,-1.86,-1.76,-2.02,-2.27,-2.27,-2.27
224.45,-0.45,-0.45,1.84,1.84,-1.84,-1.75,-2.05,-2.29,-2.29,-2.29
226.70,-0.48,-0.48,1.83,1.82,-1.83,-1.73,-2.07,-2.31,-2.31,-2.31
228.96,-0.52,-0.52,1.81,1.81,-1.81,-1.71,-2.09,-2.33,-2.33,-2.33
231.25,-0.56,-0.56,1.79,1.79,-1.79,-1.69,-2.11,-2.35,-2.35,-2.35
233.57,-0.59,-0.59,1.77,1.78,-1.78,-1.67,-2.13,-2.37,-2.37,-2.36
235.90,-0.63,-0.63,1.77,1.76,-1.76,-1.66,-2.14,-2.39,-2.39,-2.40
238.26,-0.67,-0.67,1.75,1.75,-1.74,-1.64,-2.16,-2.41,-2.41,-2.42
240.64,-0.71,-0.71,1.72,1.73,-1.72,-1.63,-2.16,-2.43,-2.43,-2.43
243.05,-0.74,-0.74,1.71,1.70,-1.70,-1.61,-2.17,-2.44,-2.44,-2.45
245.48,-0.78,-0.78,1.68,1.68,-1.68,-1.59,-2.17,-2.46,-2.46,-2.46
247.93,-0.82,-0.82,1.65,1.66,-1.66,-1.58,-2.16,-2.48,-2.47,-2.47
250.41,-0.86,-0.86,1.63,1.63,-1.63,-1.56,-2.15,-2.49,-2.49,-2.49
252.92,-0.89,-0.89,1.61,1.61,-1.61,-1.55,-2.14,-2.50,-2.50,-2.50
255.45,-0.93,-0.93,1.58,1.58,-1.58,-1.53,-2.13,-2.51,-2.51,-2.51
258.00,-0.97,-0.97,1.56,1.56,-1.56,-1.51,-2.11,-2.53,-2.53,-2.53
260.58,-1.00,-1.00,1.54,1.54,-1.54,-1.50,-2.08,-2.54,-2.54,-2.54
263.19,-1.04,-1.04,1.52,1.51,-1.51,-1.48,-2.06,-2.55,-2.55,-2.56
265.82,-1.08,-1.08,1.49,1.49,-1.49,-1.46,-2.03,-2.57,-2.57,-2.57
268.48,-1.12,-1.12,1.46,1.47,-1.47,-1.45,-1.99,-2.59,-2.59,-2.58
271.16,-1.15,-1.15,1.45,1.44,-1.45,-1.43,-1.95,-2.60,-2.60,-2.60
273.87,-1.19,-1.19,1.42,1.42,-1.43,-1.41,-1.91,-2.62,-2.61,-2.61
276.61,-1.22,-1.22,1.41,1.41,-1.40,-1.39,-1.87,-2.62,-2.62,-2.63
279.38,-1.26,-1.26,1.38,1.38,-1.38,-1.36,-1.83,-2.64,-2.64,-2.64
282.17,-1.29,-1.29,1.37,1.36,-1.35,-1.34,-1.78,-2.64,-2.65,-2.66
284.99,-1.33,-1.33,1.33,1.33,-1.33,-1.32,-1.73,-2.66,-2.66,-2.66
287.84,-1.37,-1.37,1.29,1.30,-1.30,-1.29,-1.68,-2.67,-2.67,-2.66
290.72,-1.41,-1.41,1.27,1.27,-1.27,-1.26,-1.62,-2.68,-2.68,-2.68
293.63,-1.44,-1.44,1.25,1.25,-1.25,-1.24,-1.57,-2.69,-2.69,-2.69
296.57,-1.48,-1.48,1.22,1.22,-1.22,-1.21,-1.51,-2.70,-2.70,-2.70
299.53,-1.51,-1.51,1.18,1.19,-1.19,-1.18,-1.46,-2.70,-2.70,-2.69
302.53,-1.55,-1.55,1.16,1.16,-1.16,-1.14,-1.40,-2.71,-2.71,-2.71
305.55,-1.58,-1.58,1.13,1.13,-1.13,-1.11,-1.34,-2.71,-2.71,-2.71
308.61,-1.62,-1.62,1.10,1.10,-1.10,-1.08,-1.28,-2.72,-2.72,-2.72
311.69,-1.65,-1.65,1.07,1.07,-1.07,-1.05,-1.22,-2.72,-2.73,-2.72
314.81,-1.69,-1.69,1.05,1.04,-1.04,-1.01,-1.16,-2.73,-2.73,-2.74
317.96,-1.72,-1.72,1.01,1.01,-1.01,-0.98,-1.10,-2.73,-2.73,-2.73
321.14,-1.76,-1.76,0.98,0.98,-0.98,-0.94,-1.04,-2.74,-2.74,-2.74
324.35,-1.80,-1.80,0.94,0.94,-0.94,-0.90,-0.98,-2.74,-2.74,-2.74
327.59,-1.84,-1.84,0.90,0.90,-0.90,-0.87,-0.92,-2.74,-2.74,-2.74
330.87,-1.88,-1.88,0.86,0.86,-0.87,-0.83,-0.86,-2.75,-2.75,-2.74
334.18,-1.92,-1.92,0.83,0.83,-0.83,-0.79,-0.81,-2.75,-2.75,-2.75
337.52,-1.96,-1.96,0.79,0.79,-0.79,-0.76,-0.75,-2.75,-2.75,-2.75
340.90,-2.00,-2.00,0.76,0.75,-0.75,-0.72,-0.69,-2.75,-2.75,-2.76
344.30,-2.04,-2.04,0.71,0.71,-0.71,-0.68,-0.63,-2.75,-2.75,-2.75
347.75,-2.08,-2.08,0.67,0.67,-0.67,-0.64,-0.57,-2.75,-2.75,-2.75
351.23,-2.12,-2.12,0.64,0.63,-0.63,-0.61,-0.51,-2.75,-2.75,-2.76
354.74,-2.17,-2.17,0.57,0.58,-0.58,-0.57,-0.46,-2.75,-2.75,-2.74
358.28,-2.21,-2.21,0.55,0.54,-0.54,-0.53,-0.40,-2.75,-2.75,-2.76
361.87,-2.26,-2.26,0.49,0.49,-0.50,-0.49,-0.34,-2.76,-2.75,-2.75
365.49,-2.30,-2.30,0.45,0.45,-0.45,-0.45,-0.28,-2.75,-2.75,-2.75
369.14,-2.35,-2.35,0.41,0.41,-0.41,-0.41,-0.23,-2.76,-2.75,-2.76
372.83,-2.39,-2.39,0.36,0.36,-0.36,-0.37,-0.17,-2.75,-2.75,-2.75
376.56,-2.44,-2.44,0.31,0.31,-0.31,-0.33,-0.12,-2.75,-2.76,-2.75
380.33,-2.49,-2.49,0.27,0.27,-0.27,-0.29,-0.06,-2.76,-2.76,-2.76
384.13,-2.54,-2.54,0.23,0.22,-0.22,-0.25,-0.01,-2.76,-2.76,-2.77
387.97,-2.59,-2.59,0.17,0.17,-0.17,-0.21,0.04,-2.76,-2.76,-2.76
391.85,-2.64,-2.64,0.11,0.12,-0.12,-0.16,0.10,-2.76,-2.76,-2.75
395.77,-2.69,-2.69,0.07,0.06,-0.07,-0.12,0.15,-2.76,-2.76,-2.76
399.73,-2.75,-2.75,0.01,0.01,-0.01,-0.07,0.20,-2.77,-2.76,-2.76
403.72,-2.80,-2.80,-0.04,-0.04,0.04,-0.03,0.25,-2.76,-2.76,-2.76
407.76,-2.85,-2.85,-0.09,-0.09,0.09,0.02,0.30,-2.76,-2.76,-2.76
411.84,-2.91,-2.91,-0.14,-0.14,0.15,0.07,0.35,-2.76,-2.76,-2.77
415.96,-2.96,-2.96,-0.20,-0.20,0.20,0.12,0.40,-2.76,-2.77,-2.76
420.12,-3.02,-3.02,-0.25,-0.25,0.25,0.18,0.45,-2.77,-2.77,-2.77
424.32,-3.08,-3.08,-0.31,-0.31,0.30,0.23,0.50,-2.78,-2.77,-2.77
428.56,-3.13,-3.13,-0.36,-0.36,0.36,0.28,0.54,-2.77,-2.78,-2.77
432.85,-3.19,-3.19,-0.41,-0.41,0.41,0.34,0.58,-2.78,-2.78,-2.78
437.18,-3.25,-3.25,-0.46,-0.46,0.47,0.40,0.63,-2.78,-2.78,-2.79
441.55,-3.30,-3.30,-0.51,-0.52,0.52,0.46,0.67,-2.78,-2.79,-2.79
445.96,-3.36,-3.36,-0.57,-0.57,0.57,0.52,0.70,-2.79,-2.79,-2.79
450.42,-3.41,-3.41,-0.63,-0.62,0.62,0.58,0.74,-2.79,-2.79,-2.78
454.93,-3.46,-3.46,-0.68,-0.68,0.67,0.64,0.78,-2.79,-2.79,-2.78
459.48,-3.51,-3.51,-0.72,-0.72,0.72,0.70,0.81,-2.79,-2.79,-2.79
464.07,-3.56,-3.56,-0.76,-0.76,0.76,0.76,0.84,-2.80,-2.79,-2.80
468.71,-3.60,-3.60,-0.80,-0.81,0.81,0.81,0.86,-2.79,-2.80,-2.80
473.40,-3.65,-3.65,-0.85,-0.85,0.85,0.87,0.89,-2.80,-2.80,-2.80
478.13,-3.69,-3.69,-0.89,-0.89,0.89,0.92,0.91,-2.80,-2.80,-2.80
482.91,-3.72,-3.72,-0.92,-0.93,0.93,0.97,0.93,-2.79,-2.80,-2.80
487.74,-3.76,-3.76,-0.97,-0.96,0.96,1.01,0.94,-2.80,-2.80,-2.79
492.62,-3.79,-3.79,-1.00,-0.99,0.99,1.04,0.95,-2.80,-2.80,-2.79
497.55,-3.82,-3.82,-1.02,-1.02,1.02,1.07,0.96,-2.80,-2.79,-2.80
502.52,-3.84,-3.84,-1.04,-1.05,1.05,1.09,0.97,-2.79,-2.79,-2.80
507.55,-3.86,-3.86,-1.07,-1.07,1.07,1.11,0.97,-2.79,-2.79,-2.79
512.62,-3.88,-3.88,-1.09,-1.09,1.09,1.11,0.97,-2.79,-2.79,-2.79
