frequency,raw,error,smoothed,error_smoothed,equalization,parametric_eq,fixed_band_eq,equalized_raw,equalized_smoothed,target
20.00,2.52,-4.52,2.51,-4.55,4.55,3.67,-0.83,7.07,7.06,7.04
20.20,2.75,-4.29,2.74,-4.31,4.31,3.49,-0.85,7.06,7.05,7.04
20.40,2.97,-4.07,2.97,-4.07,4.07,3.31,-0.87,7.04,7.05,7.04
20.61,3.19,-3.85,3.20,-3.84,3.84,3.12,-0.89,7.03,7.04,7.04
20.81,3.42,-3.62,3.42,-3.60,3.60,2.93,-0.92,7.02,7.03,7.04
21.02,3.64,-3.40,3.64,-3.37,3.37,2.73,-0.94,7.01,7.01,7.04
21.23,3.86,-3.16,3.86,-3.14,3.14,2.54,-0.97,7.00,7.00,7.02
21.44,4.07,-2.94,4.07,-2.92,2.92,2.34,-0.99,6.99,6.99,7.01
21.66,4.27,-2.71,4.28,-2.69,2.69,2.15,-1.02,6.97,6.97,6.99
21.87,4.48,-2.49,4.49,-2.47,2.47,1.95,-1.05,6.95,6.96,6.97
22.09,4.70,-2.26,4.69,-2.25,2.25,1.76,-1.07,6.95,6.94,6.96
22.31,4.89,-2.04,4.89,-2.04,2.04,1.56,-1.10,6.93,6.93,6.93
22.54,5.08,-1.82,5.09,-1.82,1.82,1.37,-1.13,6.90,6.91,6.91
22.76,5.29,-1.60,5.28,-1.60,1.60,1.18,-1.16,6.89,6.88,6.89
22.99,5.48,-1.38,5.47,-1.39,1.39,0.99,-1.19,6.86,6.86,6.86
23.22,5.66,-1.17,5.66,-1.18,1.18,0.80,-1.22,6.84,6.84,6.82
23.45,5.85,-0.96,5.84,-0.98,0.98,0.62,-1.25,6.82,6.82,6.80
23.69,6.01,-0.78,6.02,-0.78,0.78,0.44,-1.29,6.79,6.80,6.79
23.92,6.20,-0.57,6.20,-0.58,0.58,0.26,-1.32,6.78,6.78,6.77
24.16,6.38,-0.38,6.37,-0.39,0.39,0.08,-1.35,6.77,6.76,6.76
24.40,6.53,-0.21,6.54,-0.20,0.20,-0.10,-1.39,6.73,6.74,6.74
24.65,6.70,-0.03,6.70,-0.02,0.02,-0.27,-1.42,6.72,6.72,6.72
24.89,6.86,0.16,6.86,0.16,-0.16,-0.44,-1.46,6.70,6.70,6.70
25.14,7.02,0.33,7.01,0.33,-0.33,-0.60,-1.49,6.69,6.69,6.69
25.39,7.17,0.50,7.16,0.49,-0.49,-0.77,-1.53,6.68,6.67,6.67
25.65,7.31,0.65,7.31,0.66,-0.66,-0.93,-1.57,6.65,6.66,6.66
25.91,7.45,0.82,7.45,0.81,-0.81,-1.09,-1.60,6.64,6.64,6.63
26.16,7.60,0.98,7.59,0.97,-0.97,-1.24,-1.64,6.63,6.62,6.62
26.43,7.72,1.12,7.73,1.12,-1.12,-1.39,-1.68,6.61,6.61,6.61
26.69,7.86,1.27,7.86,1.26,-1.26,-1.54,-1.71,6.59,6.59,6.59
26.96,7.99,1.41,7.98,1.41,-1.41,-1.69,-1.75,6.58,6.58,6.58
27.23,8.11,1.54,8.10,1.54,-1.54,-1.83,-1.79,6.56,6.56,6.57
27.50,8.22,1.66,8.22,1.67,-1.67,-1.97,-1.82,6.54,6.55,6.56
27.77,8.34,1.80,8.34,1.80,-1.80,-2.11,-1.86,6.54,6.54,6.54
28.05,8.45,1.92,8.44,1.92,-1.92,-2.24,-1.89,6.52,6.52,6.52
28.33,8.55,2.04,8.55,2.04,-2.04,-2.37,-1.92,6.51,6.51,6.50
28.62,8.66,2.16,8.65,2.16,-2.16,-2.50,-1.96,6.50,6.50,6.49
28.90,8.75,2.27,8.75,2.26,-2.26,-2.62,-1.99,6.48,6.48,6.48
29.19,8.84,2.38,8.84,2.37,-2.37,-2.75,-2.02,6.47,6.47,6.46
29.48,8.94,2.48,8.93,2.47,-2.47,-2.86,-2.05,6.46,6.46,6.46
29.78,9.02,2.57,9.02,2.57,-2.57,-2.97,-2.08,6.44,6.45,6.45
30.08,9.11,2.67,9.10,2.67,-2.67,-3.08,-2.11,6.44,6.43,6.44
30.38,9.18,2.76,9.18,2.76,-2.76,-3.19,-2.13,6.41,6.42,6.42
30.68,9.26,2.85,9.25,2.85,-2.85,-3.29,-2.16,6.41,6.40,6.41
30.99,9.33,2.94,9.32,2.94,-2.94,-3.39,-2.18,6.39,6.39,6.38
31.30,9.39,3.01,9.39,3.02,-3.02,-3.48,-2.20,6.37,6.37,6.37
31.61,9.46,3.09,9.45,3.10,-3.10,-3.57,-2.22,6.36,6.35,6.36
31.93,9.51,3.16,9.51,3.18,-3.18,-3.66,-2.24,6.33,6.34,6.34
32.24,9.57,3.26,9.57,3.25,-3.25,-3.74,-2.26,6.32,6.32,6.31
32.57,9.63,3.33,9.62,3.32,-3.32,-3.81,-2.28,6.31,6.30,6.30
32.89,9.67,3.38,9.67,3.39,-3.39,-3.89,-2.29,6.28,6.28,6.29
33.22,9.72,3.46,9.72,3.46,-3.46,-3.96,-2.31,6.26,6.26,6.26
33.55,9.76,3.51,9.76,3.52,-3.52,-4.02,-2.32,6.24,6.24,6.24
33.89,9.80,3.57,9.80,3.58,-3.58,-4.08,-2.33,6.22,6.22,6.22
34.23,9.84,3.64,9.84,3.63,-3.63,-4.14,-2.35,6.20,6.20,6.20
34.57,9.88,3.70,9.87,3.69,-3.69,-4.19,-2.36,6.19,6.18,6.18
34.92,9.91,3.75,9.90,3.74,-3.74,-4.24,-2.37,6.17,6.16,6.16
35.27,9.93,3.78,9.93,3.79,-3.79,-4.28,-2.38,6.14,6.14,6.14
35.62,9.96,3.83,9.96,3.83,-3.83,-4.32,-2.40,6.12,6.12,6.12
35.97,9.98,3.88,9.98,3.88,-3.88,-4.36,-2.41,6.10,6.10,6.10
36.33,10.01,3.92,10.00,3.92,-3.92,-4.39,-2.42,6.09,6.08,6.09
36.70,10.02,3.95,10.02,3.96,-3.96,-4.42,-2.44,6.06,6.06,6.07
37.06,10.04,3.99,10.04,3.99,-3.99,-4.45,-2.45,6.05,6.05,6.04
37.43,10.06,4.03,10.05,4.02,-4.02,-4.47,-2.46,6.03,6.03,6.03
37.81,10.06,4.05,10.06,4.06,-4.06,-4.49,-2.48,6.00,6.01,6.01
38.19,10.08,4.09,10.07,4.08,-4.08,-4.51,-2.50,5.99,5.99,5.99
38.57,10.08,4.10,10.08,4.11,-4.11,-4.52,-2.52,5.97,5.97,5.97
38.95,10.09,4.14,10.08,4.13,-4.13,-4.54,-2.54,5.95,5.95,5.95
39.34,10.09,4.16,10.09,4.16,-4.16,-4.55,-2.56,5.93,5.93,5.93
39.74,10.09,4.18,10.09,4.17,-4.17,-4.55,-2.58,5.91,5.92,5.90
40.14,10.09,4.19,10.09,4.19,-4.19,-4.56,-2.61,5.90,5.90,5.90
40.54,10.09,4.21,10.09,4.21,-4.21,-4.57,-2.63,5.88,5.88,5.88
40.94,10.09,4.22,10.08,4.22,-4.22,-4.57,-2.66,5.87,5.87,5.86
41.35,10.08,4.24,10.08,4.23,-4.23,-4.57,-2.69,5.85,5.85,5.84
41.76,10.08,4.24,10.07,4.24,-4.24,-4.57,-2.73,5.84,5.83,5.84
42.18,10.07,4.24,10.06,4.25,-4.25,-4.57,-2.76,5.82,5.81,5.82
42.60,10.05,4.25,10.05,4.25,-4.25,-4.57,-2.80,5.79,5.80,5.80
43.03,10.04,4.24,10.04,4.26,-4.26,-4.57,-2.84,5.78,5.78,5.79
43.46,10.03,4.26,10.03,4.26,-4.26,-4.57,-2.88,5.76,5.77,5.77
43.90,10.02,4.27,10.02,4.27,-4.27,-4.56,-2.92,5.75,5.75,5.75
44.33,10.01,4.28,10.00,4.27,-4.27,-4.56,-2.97,5.74,5.73,5.73
44.78,9.99,4.27,9.99,4.27,-4.27,-4.56,-3.02,5.72,5.72,5.72
45.23,9.97,4.28,9.97,4.27,-4.27,-4.55,-3.07,5.70,5.70,5.69
45.68,9.95,4.27,9.95,4.27,-4.27,-4.55,-3.12,5.68,5.68,5.68
46.13,9.94,4.28,9.93,4.27,-4.27,-4.54,-3.18,5.67,5.67,5.66
46.60,9.92,4.26,9.91,4.26,-4.26,-4.54,-3.23,5.65,5.65,5.65
47.06,9.90,4.26,9.89,4.26,-4.26,-4.53,-3.29,5.64,5.63,5.64
47.53,9.88,4.25,9.87,4.26,-4.26,-4.53,-3.35,5.62,5.62,5.62
48.01,9.85,4.23,9.85,4.25,-4.25,-4.52,-3.42,5.59,5.60,5.62
48.49,9.83,4.24,9.83,4.25,-4.25,-4.52,-3.48,5.58,5.58,5.59
48.97,9.81,4.24,9.80,4.24,-4.24,-4.51,-3.55,5.57,5.56,5.56
49.46,9.78,4.24,9.78,4.23,-4.23,-4.51,-3.61,5.54,5.55,5.54
49.96,9.75,4.24,9.76,4.23,-4.23,-4.51,-3.68,5.52,5.53,5.51
50.46,9.74,4.23,9.73,4.22,-4.22,-4.50,-3.75,5.52,5.51,5.51
50.96,9.71,4.21,9.71,4.22,-4.22,-4.50,-3.83,5.49,5.49,5.49
51.47,9.68,4.21,9.68,4.21,-4.21,-4.50,-3.90,5.47,5.47,5.46
51.99,9.66,4.21,9.65,4.20,-4.20,-4.49,-3.97,5.45,5.45,5.45
52.51,9.63,4.19,9.63,4.20,-4.20,-4.49,-4.04,5.43,5.43,5.44
53.03,9.60,4.18,9.60,4.19,-4.19,-4.49,-4.12,5.41,5.41,5.42
53.56,9.58,4.18,9.58,4.18,-4.18,-4.49,-4.19,5.39,5.39,5.40
54.10,9.56,4.18,9.55,4.17,-4.17,-4.49,-4.26,5.38,5.38,5.38
54.64,9.53,4.17,9.53,4.17,-4.17,-4.49,-4.33,5.36,5.36,5.36
55.18,9.50,4.16,9.50,4.16,-4.16,-4.48,-4.40,5.34,5.34,5.34
55.74,9.48,4.16,9.48,4.15,-4.15,-4.48,-4.47,5.33,5.32,5.32
56.29,9.45,4.14,9.45,4.15,-4.15,-4.49,-4.53,5.30,5.30,5.31
56.86,9.43,4.14,9.43,4.14,-4.14,-4.49,-4.59,5.29,5.29,5.29
57.42,9.41,4.14,9.40,4.13,-4.13,-4.49,-4.65,5.27,5.27,5.26
58.00,9.38,4.13,9.38,4.13,-4.13,-4.49,-4.71,5.25,5.25,5.25
58.58,9.36,4.13,9.36,4.13,-4.13,-4.49,-4.76,5.23,5.23,5.23
59.16,9.34,4.12,9.34,4.12,-4.12,-4.49,-4.80,5.21,5.21,5.21
59.76,9.31,4.11,9.31,4.12,-4.12,-4.49,-4.84,5.19,5.19,5.20
60.35,9.30,4.12,9.29,4.12,-4.12,-4.50,-4.88,5.18,5.17,5.18
60.96,9.27,4.09,9.27,4.12,-4.12,-4.50,-4.91,5.15,5.15,5.17
61.57,9.25,4.11,9.25,4.11,-4.11,-4.50,-4.94,5.13,5.14,5.14
62.18,9.24,4.12,9.23,4.11,-4.11,-4.51,-4.96,5.12,5.12,5.11
62.80,9.22,4.12,9.21,4.11,-4.11,-4.51,-4.97,5.10,5.10,5.10
63.43,9.20,4.13,9.19,4.11,-4.11,-4.52,-4.98,5.08,5.08,5.07
64.07,9.18,4.12,9.18,4.11,-4.11,-4.52,-4.99,5.07,5.06,5.05
64.71,9.16,4.11,9.16,4.11,-4.11,-4.52,-4.99,5.04,5.05,5.05
65.35,9.14,4.11,9.14,4.11,-4.11,-4.53,-4.98,5.02,5.03,5.03
66.01,9.13,4.11,9.13,4.11,-4.11,-4.53,-4.97,5.01,5.02,5.02
66.67,9.12,4.12,9.12,4.12,-4.12,-4.54,-4.95,5.00,5.00,5.00
67.33,9.11,4.12,9.10,4.12,-4.12,-4.54,-4.93,4.99,4.99,4.99
68.01,9.09,4.12,9.09,4.12,-4.12,-4.55,-4.91,4.97,4.97,4.97
68.69,9.08,4.12,9.08,4.12,-4.12,-4.56,-4.88,4.96,4.96,4.96
69.37,9.07,4.13,9.07,4.13,-4.13,-4.56,-4.85,4.94,4.94,4.94
70.07,9.06,4.13,9.06,4.13,-4.13,-4.57,-4.82,4.93,4.93,4.93
70.77,9.05,4.13,9.05,4.14,-4.14,-4.57,-4.79,4.91,4.91,4.91
71.48,9.05,4.16,9.04,4.15,-4.15,-4.58,-4.75,4.90,4.89,4.89
72.19,9.03,4.15,9.03,4.16,-4.16,-4.59,-4.72,4.86,4.87,4.88
72.91,9.03,4.17,9.03,4.18,-4.18,-4.59,-4.68,4.85,4.85,4.85
73.64,9.02,4.19,9.02,4.19,-4.19,-4.60,-4.64,4.83,4.83,4.83
74.38,9.01,4.19,9.01,4.20,-4.20,-4.61,-4.60,4.80,4.81,4.81
75.12,9.02,4.24,9.01,4.22,-4.22,-4.61,-4.56,4.79,4.79,4.78
75.87,9.01,4.25,9.00,4.24,-4.24,-4.62,-4.53,4.77,4.76,4.76
76.63,9.00,4.25,9.00,4.26,-4.26,-4.63,-4.49,4.73,4.74,4.74
77.40,9.00,4.28,9.00,4.28,-4.28,-4.63,-4.46,4.71,4.71,4.72
78.17,9.00,4.32,9.00,4.31,-4.31,-4.64,-4.43,4.69,4.69,4.68
78.95,9.00,4.33,8.99,4.33,-4.33,-4.64,-4.40,4.66,4.66,4.67
79.74,8.99,4.35,8.99,4.36,-4.36,-4.65,-4.37,4.63,4.63,4.64
80.54,8.99,4.38,8.99,4.39,-4.39,-4.66,-4.34,4.60,4.61,4.61
81.35,8.99,4.41,8.99,4.41,-4.41,-4.66,-4.32,4.58,4.58,4.58
82.16,8.99,4.44,8.99,4.44,-4.44,-4.67,-4.30,4.55,4.55,4.55
82.98,8.99,4.46,8.98,4.47,-4.47,-4.68,-4.28,4.52,4.52,4.52
83.81,8.99,4.50,8.98,4.49,-4.49,-4.68,-4.26,4.49,4.49,4.48
84.65,8.98,4.53,8.98,4.52,-4.52,-4.69,-4.25,4.45,4.46,4.45
85.50,8.98,4.55,8.98,4.55,-4.55,-4.70,-4.24,4.42,4.42,4.43
86.35,8.98,4.58,8.97,4.58,-4.58,-4.70,-4.24,4.40,4.39,4.39
87.22,8.97,4.61,8.97,4.61,-4.61,-4.71,-4.23,4.36,4.36,4.36
88.09,8.97,4.64,8.96,4.64,-4.64,-4.71,-4.24,4.33,4.33,4.32
88.97,8.96,4.66,8.96,4.67,-4.67,-4.72,-4.24,4.29,4.29,4.30
89.86,8.95,4.69,8.95,4.69,-4.69,-4.72,-4.25,4.25,4.26,4.26
90.76,8.95,4.73,8.95,4.72,-4.72,-4.73,-4.26,4.23,4.22,4.22
91.66,8.94,4.75,8.94,4.75,-4.75,-4.74,-4.27,4.19,4.19,4.19
92.58,8.93,4.78,8.93,4.78,-4.78,-4.74,-4.29,4.15,4.15,4.14
93.51,8.92,4.79,8.92,4.80,-4.80,-4.75,-4.31,4.11,4.12,4.12
94.44,8.92,4.83,8.91,4.83,-4.83,-4.75,-4.33,4.09,4.08,4.09
95.39,8.91,4.86,8.90,4.86,-4.86,-4.76,-4.35,4.05,4.04,4.05
96.34,8.89,4.89,8.89,4.89,-4.89,-4.76,-4.38,4.00,4.00,4.00
97.30,8.87,4.90,8.87,4.91,-4.91,-4.76,-4.41,3.95,3.96,3.96
98.28,8.86,4.93,8.86,4.94,-4.94,-4.77,-4.45,3.92,3.92,3.92
99.26,8.85,4.97,8.84,4.96,-4.96,-4.77,-4.48,3.88,3.88,3.87
100.25,8.83,4.99,8.82,4.99,-4.99,-4.78,-4.52,3.84,3.84,3.84
101.25,8.81,5.01,8.80,5.01,-5.01,-4.78,-4.56,3.80,3.79,3.80
102.27,8.79,5.04,8.78,5.03,-5.03,-4.78,-4.61,3.76,3.75,3.75
103.29,8.76,5.06,8.76,5.05,-5.05,-4.79,-4.65,3.70,3.71,3.70
104.32,8.74,5.08,8.73,5.07,-5.07,-4.79,-4.69,3.67,3.66,3.66
105.37,8.71,5.09,8.70,5.09,-5.09,-4.79,-4.74,3.62,3.61,3.62
106.42,8.67,5.10,8.67,5.11,-5.11,-4.80,-4.78,3.56,3.57,3.57
107.48,8.64,5.12,8.64,5.12,-5.12,-4.80,-4.83,3.51,3.52,3.52
108.56,8.61,5.14,8.61,5.14,-5.14,-4.80,-4.88,3.47,3.47,3.47
109.64,8.58,5.15,8.57,5.15,-5.15,-4.80,-4.92,3.42,3.42,3.42
110.74,8.54,5.15,8.54,5.16,-5.16,-4.80,-4.97,3.37,3.37,3.38
111.85,8.50,5.16,8.50,5.17,-5.17,-4.81,-5.01,3.32,3.32,3.33
112.97,8.46,5.19,8.46,5.18,-5.18,-4.81,-5.05,3.27,3.27,3.27
114.10,8.41,5.18,8.41,5.19,-5.19,-4.81,-5.09,3.22,3.23,3.23
115.24,8.38,5.20,8.37,5.19,-5.19,-4.81,-5.12,3.19,3.18,3.18
116.39,8.33,5.21,8.32,5.19,-5.19,-4.81,-5.16,3.13,3.13,3.12
117.55,8.28,5.20,8.27,5.19,-5.19,-4.81,-5.19,3.08,3.08,3.07
118.73,8.23,5.20,8.22,5.19,-5.19,-4.81,-5.21,3.04,3.03,3.03
119.92,8.17,5.18,8.17,5.18,-5.18,-4.81,-5.23,2.99,2.99,2.99
121.12,8.12,5.18,8.11,5.17,-5.17,-4.81,-5.25,2.94,2.94,2.94
122.33,8.06,5.16,8.06,5.16,-5.16,-4.81,-5.26,2.90,2.90,2.90
123.55,8.00,5.14,8.00,5.15,-5.15,-4.81,-5.27,2.85,2.85,2.86
124.79,7.94,5.12,7.94,5.13,-5.13,-4.81,-5.27,2.81,2.81,2.81
126.03,7.88,5.10,7.88,5.11,-5.11,-4.80,-5.26,2.77,2.77,2.78
127.29,7.82,5.08,7.82,5.09,-5.09,-4.80,-5.26,2.73,2.73,2.73
128.57,7.76,5.08,7.76,5.07,-5.07,-4.80,-5.24,2.69,2.69,2.68
129.85,7.70,5.05,7.69,5.04,-5.04,-4.80,-5.23,2.66,2.65,2.65
131.15,7.63,5.01,7.63,5.01,-5.01,-4.79,-5.20,2.61,2.61,2.61
132.46,7.57,5.00,7.56,4.98,-4.98,-4.79,-5.18,2.58,2.58,2.57
133.79,7.51,4.96,7.50,4.95,-4.95,-4.79,-5.15,2.55,2.55,2.55
135.12,7.44,4.93,7.44,4.92,-4.92,-4.78,-5.11,2.52,2.52,2.51
136.48,7.37,4.88,7.37,4.88,-4.88,-4.78,-5.07,2.48,2.49,2.49
137.84,7.31,4.84,7.31,4.85,-4.85,-4.78,-5.03,2.46,2.46,2.47
139.22,7.24,4.81,7.24,4.81,-4.81,-4.77,-4.99,2.43,2.44,2.43
140.61,7.18,4.78,7.18,4.76,-4.76,-4.77,-4.94,2.41,2.41,2.40
142.02,7.12,4.72,7.11,4.72,-4.72,-4.76,-4.90,2.40,2.39,2.40
143.44,7.05,4.67,7.05,4.68,-4.68,-4.76,-4.85,2.37,2.38,2.38
144.87,6.99,4.63,6.99,4.63,-4.63,-4.75,-4.80,2.35,2.36,2.35
146.32,6.94,4.60,6.93,4.59,-4.59,-4.74,-4.75,2.35,2.34,2.34
147.78,6.87,4.54,6.87,4.55,-4.55,-4.74,-4.70,2.32,2.32,2.33
149.26,6.82,4.50,6.81,4.51,-4.51,-4.73,-4.65,2.31,2.31,2.32
150.75,6.76,4.47,6.76,4.46,-4.46,-4.72,-4.60,2.29,2.29,2.29
152.26,6.70,4.42,6.70,4.42,-4.42,-4.72,-4.56,2.27,2.28,2.28
153.78,6.65,4.38,6.65,4.39,-4.39,-4.71,-4.51,2.26,2.26,2.26
155.32,6.60,4.35,6.60,4.35,-4.35,-4.70,-4.47,2.25,2.25,2.25
156.88,6.55,4.31,6.55,4.32,-4.32,-4.69,-4.42,2.23,2.23,2.24
158.44,6.50,4.28,6.50,4.28,-4.28,-4.68,-4.38,2.21,2.21,2.21
160.03,6.46,4.26,6.45,4.25,-4.25,-4.68,-4.35,2.20,2.20,2.19
161.63,6.41,4.23,6.41,4.23,-4.23,-4.67,-4.31,2.18,2.18,2.17
163.24,6.37,4.20,6.37,4.20,-4.20,-4.66,-4.28,2.16,2.16,2.16
164.88,6.33,4.17,6.33,4.18,-4.18,-4.65,-4.25,2.15,2.15,2.15
166.53,6.29,4.15,6.29,4.16,-4.16,-4.64,-4.22,2.13,2.13,2.13
168.19,6.26,4.15,6.25,4.15,-4.15,-4.62,-4.19,2.11,2.11,2.10
169.87,6.22,4.13,6.22,4.13,-4.13,-4.61,-4.17,2.08,2.09,2.09
171.57,6.19,4.12,6.19,4.12,-4.12,-4.60,-4.15,2.06,2.06,2.07
173.29,6.16,4.11,6.16,4.12,-4.12,-4.59,-4.14,2.04,2.04,2.05
175.02,6.13,4.10,6.13,4.11,-4.11,-4.58,-4.13,2.01,2.01,2.02
176.77,6.10,4.11,6.10,4.11,-4.11,-4.56,-4.12,1.99,1.99,1.99
178.54,6.08,4.11,6.08,4.11,-4.11,-4.55,-4.11,1.97,1.96,1.96
180.32,6.06,4.12,6.05,4.11,-4.11,-4.54,-4.11,1.94,1.94,1.94
182.13,6.03,4.11,6.03,4.12,-4.12,-4.52,-4.11,1.91,1.91,1.91
183.95,6.01,4.13,6.01,4.13,-4.13,-4.51,-4.12,1.88,1.88,1.88
185.79,6.00,4.14,5.99,4.13,-4.13,-4.50,-4.12,1.86,1.86,1.86
187.65,5.98,4.15,5.97,4.14,-4.14,-4.48,-4.13,1.84,1.83,1.82
189.52,5.95,4.15,5.95,4.15,-4.15,-4.46,-4.14,1.80,1.81,1.80
191.42,5.94,4.16,5.94,4.16,-4.16,-4.45,-4.16,1.78,1.78,1.78
193.33,5.93,4.16,5.92,4.17,-4.17,-4.43,-4.18,1.76,1.76,1.76
195.27,5.91,4.16,5.91,4.18,-4.18,-4.42,-4.20,1.73,1.73,1.74
197.22,5.90,4.18,5.90,4.18,-4.18,-4.40,-4.22,1.71,1.71,1.72
199.19,5.89,4.21,5.88,4.19,-4.19,-4.38,-4.25,1.70,1.69,1.68
201.18,5.88,4.21,5.87,4.20,-4.20,-4.36,-4.27,1.68,1.68,1.67
203.19,5.86,4.20,5.86,4.20,-4.20,-4.34,-4.30,1.65,1.66,1.66
205.23,5.85,4.21,5.85,4.21,-4.21,-4.33,-4.33,1.64,1.64,1.64
207.28,5.85,4.21,5.84,4.22,-4.22,-4.31,-4.36,1.63,1.63,1.64
209.35,5.83,4.22,5.83,4.22,-4.22,-4.29,-4.39,1.61,1.61,1.61
211.44,5.83,4.23,5.82,4.23,-4.23,-4.27,-4.42,1.60,1.60,1.59
213.56,5.82,4.23,5.82,4.23,-4.23,-4.25,-4.45,1.59,1.59,1.58
215.69,5.81,4.22,5.81,4.23,-4.23,-4.23,-4.49,1.58,1.58,1.59
217.85,5.80,4.22,5.80,4.23,-4.23,-4.20,-4.52,1.57,1.57,1.58
220.03,5.80,4.24,5.79,4.23,-4.23,-4.18,-4.54,1.57,1.57,1.56
222.23,5.79,4.23,5.78,4.22,-4.22,-4.16,-4.57,1.57,1.56,1.55
224.45,5.78,4.21,5.78,4.21,-4.21,-4.14,-4.59,1.56,1.56,1.57
226.70,5.77,4.21,5.77,4.21,-4.21,-4.11,-4.62,1.56,1.56,1.56
228.96,5.77,4.20,5.76,4.20,-4.20,-4.09,-4.64,1.57,1.57,1.56
231.25,5.76,4.18,5.76,4.18,-4.18,-4.07,-4.65,1.57,1.57,1.58
233.57,5.75,4.16,5.75,4.17,-4.17,-4.04,-4.66,1.58,1.58,1.59
235.90,5.74,4.14,5.74,4.15,-4.15,-4.02,-4.67,1.59,1.59,1.59
238.26,5.74,4.14,5.73,4.13,-4.13,-3.99,-4.67,1.61,1.61,1.60
240.64,5.73,4.10,5.73,4.11,-4.11,-3.96,-4.66,1.62,1.62,1.62
243.05,5.73,4.09,5.72,4.08,-4.08,-3.94,-4.65,1.64,1.64,1.64
245.48,5.71,4.05,5.71,4.06,-4.06,-3.91,-4.64,1.65,1.66,1.66
247.93,5.71,4.03,5.71,4.03,-4.03,-3.88,-4.61,1.68,1.68,1.68
250.41,5.71,4.02,5.70,4.00,-4.00,-3.85,-4.58,1.71,1.70,1.69
252.92,5.70,3.97,5.69,3.97,-3.97,-3.82,-4.55,1.73,1.72,1.73
255.45,5.68,3.92,5.69,3.94,-3.94,-3.80,-4.51,1.74,1.75,1.75
258.00,5.68,3.90,5.68,3.91,-3.91,-3.77,-4.46,1.77,1.77,1.78
260.58,5.68,3.88,5.67,3.87,-3.87,-3.73,-4.41,1.80,1.80,1.79
263.19,5.66,3.84,5.66,3.84,-3.84,-3.70,-4.35,1.82,1.82,1.82
265.82,5.66,3.81,5.65,3.80,-3.80,-3.67,-4.28,1.85,1.85,1.85
268.48,5.65,3.77,5.64,3.77,-3.77,-3.64,-4.21,1.88,1.87,1.87
271.16,5.64,3.73,5.64,3.74,-3.74,-3.61,-4.14,1.90,1.90,1.91
273.87,5.63,3.70,5.63,3.70,-3.70,-3.57,-4.06,1.93,1.93,1.93
276.61,5.62,3.65,5.62,3.66,-3.66,-3.54,-3.97,1.95,1.95,1.96
279.38,5.61,3.63,5.61,3.63,-3.63,-3.50,-3.89,1.98,1.98,1.98
282.17,5.60,3.59,5.60,3.59,-3.59,-3.47,-3.80,2.01,2.01,2.01
284.99,5.59,3.55,5.59,3.55,-3.55,-3.43,-3.70,2.03,2.04,2.03
287.84,5.58,3.52,5.58,3.51,-3.51,-3.40,-3.61,2.06,2.06,2.06
290.72,5.58,3.48,5.57,3.47,-3.47,-3.36,-3.51,2.10,2.09,2.10
293.63,5.56,3.44,5.56,3.43,-3.43,-3.32,-3.41,2.12,2.12,2.12
296.57,5.55,3.39,5.55,3.39,-3.39,-3.28,-3.31,2.15,2.16,2.15
299.53,5.54,3.36,5.54,3.35,-3.35,-3.24,-3.20,2.19,2.19,2.18
302.53,5.53,3.32,5.53,3.31,-3.31,-3.20,-3.10,2.22,2.22,2.21
305.55,5.51,3.25,5.52,3.26,-3.26,-3.16,-3.00,2.24,2.25,2.26
308.61,5.51,3.22,5.51,3.22,-3.22,-3.12,-2.89,2.29,2.29,2.28
311.69,5.50,3.17,5.50,3.18,-3.18,-3.08,-2.79,2.32,2.32,2.32
314.81,5.49,3.13,5.48,3.13,-3.13,-3.04,-2.69,2.35,2.35,2.36
317.96,5.47,3.08,5.47,3.09,-3.09,-2.99,-2.58,2.38,2.38,2.39
321.14,5.46,3.04,5.46,3.05,-3.05,-2.95,-2.48,2.41,2.42,2.42
324.35,5.45,3.00,5.45,3.00,-3.00,-2.90,-2.38,2.44,2.45,2.44
327.59,5.44,2.95,5.44,2.96,-2.96,-2.86,-2.28,2.48,2.48,2.48
330.87,5.42,2.91,5.42,2.92,-2.92,-2.81,-2.18,2.50,2.51,2.51
334.18,5.41,2.88,5.41,2.87,-2.87,-2.76,-2.08,2.53,2.53,2.53
337.52,5.40,2.84,5.39,2.83,-2.83,-2.71,-1.98,2.57,2.56,2.56
340.90,5.38,2.79,5.37,2.79,-2.79,-2.66,-1.88,2.59,2.58,2.59
344.30,5.36,2.75,5.35,2.74,-2.74,-2.61,-1.79,2.62,2.61,2.61
347.75,5.33,2.69,5.32,2.70,-2.70,-2.56,-1.69,2.63,2.63,2.63
351.23,5.31,2.65,5.30,2.65,-2.65,-2.51,-1.60,2.66,2.65,2.65
354.74,5.28,2.61,5.27,2.60,-2.60,-2.45,-1.51,2.68,2.67,2.67
358.28,5.24,2.55,5.24,2.55,-2.55,-2.40,-1.42,2.69,2.69,2.69
361.87,5.21,2.50,5.21,2.50,-2.50,-2.34,-1.33,2.71,2.71,2.71
365.49,5.17,2.43,5.18,2.45,-2.45,-2.28,-1.24,2.72,2.73,2.74
369.14,5.14,2.39,5.14,2.39,-2.39,-2.23,-1.15,2.75,2.75,2.75
372.83,5.10,2.33,5.10,2.33,-2.33,-2.17,-1.07,2.77,2.77,2.77
376.56,5.07,2.28,5.06,2.27,-2.27,-2.10,-0.98,2.80,2.79,2.79
380.33,5.03,2.21,5.02,2.21,-2.21,-2.04,-0.90,2.82,2.81,2.81
384.13,4.99,2.15,4.98,2.15,-2.15,-1.98,-0.82,2.84,2.83,2.83
387.97,4.94,2.08,4.93,2.08,-2.08,-1.91,-0.73,2.86,2.85,2.85
391.85,4.89,2.01,4.89,2.01,-2.01,-1.85,-0.65,2.88,2.87,2.87
395.77,4.84,1.94,4.84,1.94,-1.94,-1.78,-0.57,2.90,2.90,2.90
399.73,4.79,1.87,4.79,1.87,-1.87,-1.71,-0.49,2.92,2.92,2.92
403.72,4.73,1.79,4.73,1.79,-1.79,-1.64,-0.42,2.94,2.94,2.94
407.76,4.67,1.71,4.67,1.71,-1.71,-1.57,-0.34,2.95,2.96,2.96
411.84,4.61,1.62,4.62,1.63,-1.63,-1.49,-0.26,2.98,2.98,2.99
415.96,4.56,1.55,4.55,1.55,-1.55,-1.42,-0.19,3.01,3.01,3.01
420.12,4.50,1.47,4.49,1.46,-1.46,-1.34,-0.12,3.04,3.03,3.03
424.32,4.43,1.37,4.42,1.37,-1.37,-1.26,-0.04,3.06,3.05,3.06
428.56,4.36,1.28,4.35,1.28,-1.28,-1.17,0.03,3.08,3.08,3.08
432.85,4.29,1.19,4.28,1.18,-1.18,-1.09,0.10,3.10,3.10,3.10
437.18,4.22,1.09,4.21,1.09,-1.09,-1.00,0.17,3.13,3.13,3.12
441.55,4.14,0.98,4.14,0.99,-0.99,-0.91,0.24,3.15,3.15,3.15
445.96,4.06,0.88,4.06,0.88,-0.88,-0.82,0.30,3.18,3.18,3.17
450.42,3.98,0.78,3.98,0.78,-0.78,-0.73,0.37,3.20,3.20,3.19
454.93,3.90,0.66,3.90,0.67,-0.67,-0.63,0.43,3.23,3.23,3.23
459.48,3.82,0.56,3.81,0.56,-0.56,-0.54,0.50,3.26,3.26,3.25
464.07,3.73,0.44,3.73,0.44,-0.44,-0.44,0.56,3.28,3.29,3.28
468.71,3.64,0.31,3.64,0.33,-0.33,-0.33,0.62,3.31,3.31,3.32
473.40,3.55,0.21,3.55,0.21,-0.21,-0.23,0.68,3.34,3.34,3.34
478.13,3.47,0.10,3.46,0.09,-0.09,-0.12,0.74,3.37,3.37,3.37
482.91,3.37,-0.03,3.37,-0.03,0.03,-0.01,0.79,3.40,3.40,3.40
487.74,3.28,-0.15,3.28,-0.15,0.15,0.11,0.85,3.43,3.43,3.43
492.62,3.19,-0.27,3.18,-0.27,0.27,0.22,0.90,3.46,3.46,3.46
497.55,3.10,-0.38,3.09,-0.40,0.40,0.34,0.95,3.50,3.49,3.48
502.52,2.99,-0.53,2.99,-0.53,0.53,0.46,1.01,3.51,3.51,3.52
507.55,2.89,-0.65,2.89,-0.65,0.65,0.58,1.06,3.54,3.54,3.54
512.62,2.79,-0.78,2.79,-0.78,0.78,0.70,1.10,3.57,3.57,3.57
517.75,2.69,-0.91,2.68,-0.91,0.91,0.82,1.15,3.60,3.60,3.60
522.93,2.58,-1.05,2.58,-1.05,1.05,0.94,1.20,3.62,3.62,3.63
528.16,2.48,-1.17,2.47,-1.18,1.18,1.07,1.24,3.66,3.65,3.65
533.44,2.37,-1.31,2.36,-1.32,1.32,1.19,1.29,3.68,3.68,3.68
538.77,2.26,-1.45,2.26,-1.45,1.45,1.32,1.33,3.71,3.71,3.71
544.16,2.15,-1.59,2.15,-1.59,1.59,1.44,1.37,3.74,3.74,3.74
