frequency,raw,error,smoothed,error_smoothed,equalization,parametric_eq,equalized_raw,equalized_smoothed,target
20,6.86,3.09,6.82,3.07,-3.07,-1.64,3.79,3.76,3.77
21,6.93,3.16,6.94,3.18,-3.18,-1.88,3.75,3.75,3.77
22,7.01,3.25,7.04,3.28,-3.28,-2.15,3.73,3.75,3.76
23,7.10,3.34,7.13,3.38,-3.38,-2.44,3.73,3.75,3.76
24,7.19,3.44,7.21,3.46,-3.46,-2.75,3.73,3.75,3.75
25,7.25,3.50,7.28,3.54,-3.54,-3.07,3.71,3.74,3.75
26,7.32,3.58,7.35,3.61,-3.61,-3.38,3.72,3.74,3.74
27,7.40,3.67,7.40,3.67,-3.67,-3.68,3.74,3.73,3.74
28,7.46,3.73,7.44,3.72,-3.72,-3.95,3.74,3.73,3.73
29,7.51,3.79,7.48,3.76,-3.76,-4.17,3.75,3.72,3.72
30,7.56,3.85,7.51,3.80,-3.80,-4.33,3.77,3.71,3.71
31,7.57,3.87,7.52,3.82,-3.82,-4.44,3.76,3.70,3.70
32,7.55,3.86,7.52,3.82,-3.82,-4.48,3.73,3.69,3.70
33,7.52,3.84,7.51,3.83,-3.83,-4.46,3.70,3.68,3.69
34,7.49,3.82,7.49,3.82,-3.82,-4.41,3.67,3.67,3.68
35,7.45,3.79,7.46,3.81,-3.81,-4.32,3.64,3.65,3.67
36,7.41,3.76,7.43,3.80,-3.80,-4.22,3.62,3.64,3.65
37,7.37,3.73,7.41,3.78,-3.78,-4.11,3.59,3.62,3.64
38,7.34,3.71,7.38,3.77,-3.77,-4.00,3.58,3.61,3.63
39,7.32,3.71,7.36,3.76,-3.76,-3.91,3.56,3.60,3.62
40,7.31,3.71,7.34,3.76,-3.76,-3.82,3.56,3.58,3.60
41,7.31,3.72,7.33,3.76,-3.76,-3.75,3.55,3.57,3.59
42,7.31,3.74,7.33,3.77,-3.77,-3.69,3.54,3.56,3.57
43,7.32,3.77,7.33,3.79,-3.79,-3.65,3.53,3.54,3.56
44,7.34,3.80,7.34,3.81,-3.81,-3.63,3.53,3.53,3.54
45,7.36,3.84,7.35,3.84,-3.84,-3.62,3.53,3.52,3.52
46,7.37,3.87,7.37,3.87,-3.87,-3.62,3.51,3.50,3.51
47,7.39,3.91,7.38,3.90,-3.90,-3.64,3.50,3.49,3.49
48,7.40,3.93,7.40,3.93,-3.93,-3.66,3.48,3.47,3.47
49,7.41,3.96,7.41,3.95,-3.95,-3.70,3.46,3.45,3.45
50,7.42,4.00,7.41,3.98,-3.98,-3.75,3.44,3.43,3.43
51,7.42,4.02,7.41,4.01,-4.01,-3.80,3.42,3.41,3.41
52,7.42,4.04,7.41,4.03,-4.03,-3.86,3.40,3.38,3.38
53,7.41,4.05,7.40,4.05,-4.05,-3.92,3.37,3.36,3.36
54,7.40,4.07,7.39,4.06,-4.06,-3.98,3.34,3.33,3.34
55,7.38,4.07,7.38,4.07,-4.07,-4.04,3.31,3.31,3.31
56,7.36,4.08,7.36,4.08,-4.08,-4.10,3.28,3.28,3.29
57,7.34,4.08,7.35,4.09,-4.09,-4.15,3.25,3.25,3.26
58,7.31,4.08,7.33,4.10,-4.10,-4.20,3.21,3.23,3.24
59,7.29,4.08,7.31,4.11,-4.11,-4.24,3.19,3.20,3.21
60,7.27,4.09,7.29,4.11,-4.11,-4.27,3.16,3.18,3.18
61,7.24,4.09,7.26,4.11,-4.11,-4.29,3.13,3.15,3.15
62,7.22,4.10,7.23,4.12,-4.12,-4.31,3.11,3.12,3.12
63,7.21,4.12,7.20,4.11,-4.11,-4.31,3.10,3.09,3.09
64,7.19,4.13,7.17,4.11,-4.11,-4.31,3.08,3.06,3.06
65,7.16,4.13,7.13,4.11,-4.11,-4.30,3.06,3.02,3.03
66,7.12,4.12,7.09,4.10,-4.10,-4.29,3.03,2.99,3.00
67,7.06,4.09,7.05,4.09,-4.09,-4.27,2.98,2.96,2.97
68,7.01,4.08,7.01,4.08,-4.08,-4.24,2.94,2.93,2.94
69,6.94,4.04,6.96,4.06,-4.06,-4.22,2.88,2.90,2.90
70,6.89,4.02,6.92,4.05,-4.05,-4.18,2.84,2.87,2.87
71,6.84,4.01,6.87,4.04,-4.04,-4.15,2.80,2.83,2.84
72,6.80,4.00,6.82,4.03,-4.03,-4.12,2.78,2.79,2.80
73,6.76,4.00,6.77,4.02,-4.02,-4.09,2.75,2.76,2.77
74,6.74,4.01,6.73,4.01,-4.01,-4.06,2.74,2.72,2.73
75,6.71,4.02,6.69,4.00,-4.00,-4.03,2.71,2.69,2.70
76,6.66,4.00,6.65,4.00,-4.00,-4.00,2.66,2.66,2.66
77,6.62,4.00,6.62,4.00,-4.00,-3.98,2.62,2.62,2.63
78,6.58,3.99,6.59,4.00,-4.00,-3.96,2.58,2.59,2.59
79,6.54,3.99,6.56,4.00,-4.00,-3.94,2.54,2.56,2.56
80,6.52,4.00,6.53,4.01,-4.01,-3.93,2.51,2.52,2.52
81,6.50,4.02,6.50,4.02,-4.02,-3.92,2.48,2.48,2.48
82,6.48,4.04,6.48,4.03,-4.03,-3.92,2.45,2.45,2.45
83,6.45,4.04,6.45,4.04,-4.04,-3.92,2.41,2.41,2.41
84,6.43,4.06,6.43,4.06,-4.06,-3.92,2.38,2.37,2.37
85,6.41,4.08,6.41,4.07,-4.07,-3.93,2.34,2.33,2.34
86,6.38,4.08,6.39,4.09,-4.09,-3.94,2.29,2.30,2.30
87,6.36,4.10,6.37,4.11,-4.11,-3.96,2.26,2.26,2.27
88,6.34,4.11,6.35,4.13,-4.13,-3.98,2.22,2.23,2.23
89,6.34,4.15,6.34,4.15,-4.15,-4.00,2.19,2.19,2.19
90,6.32,4.17,6.33,4.17,-4.17,-4.03,2.15,2.15,2.16
91,6.31,4.19,6.31,4.19,-4.19,-4.06,2.12,2.12,2.12
92,6.30,4.22,6.30,4.22,-4.22,-4.10,2.09,2.08,2.09
93,6.28,4.23,6.29,4.24,-4.24,-4.14,2.04,2.05,2.05
94,6.28,4.27,6.28,4.26,-4.26,-4.18,2.02,2.02,2.01
95,6.26,4.28,6.27,4.29,-4.29,-4.22,1.98,1.98,1.98
96,6.25,4.31,6.25,4.31,-4.31,-4.27,1.95,1.95,1.95
97,6.25,4.34,6.24,4.33,-4.33,-4.31,1.93,1.91,1.91
98,6.23,4.36,6.22,4.35,-4.35,-4.36,1.89,1.87,1.88
99,6.21,4.37,6.20,4.36,-4.36,-4.41,1.85,1.83,1.84
100,6.19,4.38,6.18,4.38,-4.38,-4.47,1.81,1.80,1.81
101,6.16,4.39,6.16,4.40,-4.40,-4.52,1.77,1.76,1.78
102,6.13,4.39,6.14,4.41,-4.41,-4.58,1.72,1.72,1.74
104,6.08,4.40,6.12,4.43,-4.43,-4.69,1.65,1.69,1.68
105,6.07,4.43,6.10,4.44,-4.44,-4.74,1.63,1.65,1.65
106,6.05,4.44,6.08,4.46,-4.46,-4.79,1.60,1.62,1.62
107,6.04,4.46,6.06,4.47,-4.47,-4.85,1.58,1.59,1.58
108,6.03,4.48,6.03,4.48,-4.48,-4.90,1.56,1.56,1.55
109,6.02,4.50,6.01,4.49,-4.49,-4.95,1.54,1.52,1.52
110,5.99,4.50,5.98,4.49,-4.49,-4.99,1.50,1.49,1.49
111,5.97,4.51,5.95,4.50,-4.50,-5.04,1.48,1.46,1.46
112,5.94,4.51,5.92,4.50,-4.50,-5.08,1.44,1.43,1.44
113,5.91,4.51,5.89,4.50,-4.50,-5.12,1.42,1.40,1.41
114,5.87,4.49,5.86,4.50,-4.50,-5.15,1.38,1.36,1.38
115,5.84,4.49,5.83,4.49,-4.49,-5.18,1.35,1.33,1.35
117,5.76,4.46,5.79,4.49,-4.49,-5.23,1.28,1.30,1.30
118,5.71,4.44,5.75,4.48,-4.48,-5.25,1.23,1.27,1.27
119,5.68,4.44,5.71,4.47,-4.47,-5.26,1.21,1.24,1.25
120,5.65,4.43,5.67,4.46,-4.46,-5.27,1.20,1.21,1.22
121,5.62,4.43,5.62,4.44,-4.44,-5.27,1.18,1.18,1.20
123,5.57,4.43,5.57,4.43,-4.43,-5.25,1.15,1.15,1.15
124,5.55,4.43,5.52,4.41,-4.41,-5.24,1.15,1.12,1.12
125,5.51,4.41,5.47,4.39,-4.39,-5.22,1.13,1.09,1.10
126,5.47,4.40,5.42,4.36,-4.36,-5.19,1.11,1.06,1.08
128,5.36,4.33,5.37,4.34,-4.34,-5.13,1.02,1.03,1.03
129,5.30,4.29,5.32,4.31,-4.31,-5.09,0.99,1.01,1.01
130,5.23,4.24,5.27,4.28,-4.28,-5.04,0.95,0.98,0.99
131,5.19,4.22,5.21,4.25,-4.25,-5.00,0.94,0.96,0.97
133,5.10,4.18,5.15,4.22,-4.22,-4.89,0.89,0.93,0.93
134,5.07,4.17,5.08,4.18,-4.18,-4.83,0.89,0.90,0.91
135,5.05,4.16,5.02,4.15,-4.15,-4.76,0.90,0.87,0.89
137,4.98,4.13,4.96,4.11,-4.11,-4.63,0.87,0.84,0.85
138,4.93,4.10,4.90,4.08,-4.08,-4.56,0.85,0.82,0.83
140,4.83,4.04,4.84,4.05,-4.05,-4.41,0.78,0.79,0.80
141,4.78,4.00,4.79,4.02,-4.02,-4.33,0.77,0.77,0.78
142,4.73,3.97,4.74,3.99,-3.99,-4.26,0.75,0.75,0.76
144,4.64,3.91,4.68,3.95,-3.95,-4.10,0.69,0.73,0.73
145,4.60,3.89,4.63,3.92,-3.92,-4.02,0.68,0.71,0.71
147,4.54,3.86,4.57,3.89,-3.89,-3.85,0.65,0.68,0.68
148,4.52,3.85,4.52,3.86,-3.86,-3.77,0.66,0.66,0.67
150,4.47,3.83,4.46,3.83,-3.83,-3.61,0.65,0.63,0.64
151,4.44,3.82,4.40,3.79,-3.79,-3.53,0.65,0.61,0.63
153,4.37,3.77,4.35,3.76,-3.76,-3.36,0.61,0.59,0.60
154,4.32,3.74,4.30,3.72,-3.72,-3.28,0.60,0.57,0.58
156,4.22,3.66,4.24,3.69,-3.69,-3.12,0.54,0.56,0.56
157,4.18,3.64,4.19,3.65,-3.65,-3.04,0.53,0.54,0.55
159,4.09,3.57,4.13,3.61,-3.61,-2.88,0.48,0.52,0.52
160,4.05,3.54,4.07,3.57,-3.57,-2.81,0.49,0.50,0.51
162,3.99,3.50,4.00,3.52,-3.52,-2.65,0.47,0.48,0.49
164,3.93,3.47,3.94,3.47,-3.47,-2.51,0.46,0.47,0.47
165,3.88,3.43,3.87,3.42,-3.42,-2.43,0.47,0.45,0.46
167,3.81,3.38,3.79,3.36,-3.36,-2.29,0.45,0.43,0.44
169,3.71,3.30,3.71,3.30,-3.30,-2.15,0.42,0.41,0.42
170,3.67,3.27,3.63,3.23,-3.23,-2.08,0.44,0.40,0.41
172,3.55,3.17,3.55,3.16,-3.16,-1.94,0.39,0.38,0.39
174,3.44,3.07,3.46,3.09,-3.09,-1.81,0.35,0.37,0.37
175,3.39,3.03,3.37,3.02,-3.02,-1.74,0.38,0.35,0.36
177,3.28,2.94,3.27,2.94,-2.94,-1.61,0.34,0.33,0.34
179,3.16,2.84,3.18,2.86,-2.86,-1.49,0.30,0.32,0.33
181,3.04,2.73,3.08,2.78,-2.78,-1.37,0.26,0.31,0.31
183,2.93,2.64,2.99,2.70,-2.70,-1.25,0.24,0.29,0.30
184,2.88,2.59,2.89,2.61,-2.61,-1.19,0.27,0.28,0.29
186,2.79,2.52,2.79,2.52,-2.52,-1.07,0.27,0.27,0.28
188,2.71,2.45,2.69,2.43,-2.43,-0.96,0.28,0.25,0.26
190,2.61,2.36,2.59,2.34,-2.34,-0.85,0.27,0.24,0.25
192,2.50,2.27,2.48,2.25,-2.25,-0.74,0.25,0.23,0.24
194,2.39,2.17,2.38,2.16,-2.16,-0.64,0.23,0.22,0.22
196,2.28,2.07,2.27,2.06,-2.06,-0.54,0.22,0.21,0.21
198,2.15,1.95,2.16,1.96,-1.96,-0.43,0.19,0.20,0.20
200,2.04,1.85,2.05,1.86,-1.86,-0.34,0.18,0.19,0.19
202,1.92,1.74,1.94,1.76,-1.76,-0.24,0.16,0.18,0.18
204,1.81,1.64,1.82,1.66,-1.66,-0.15,0.15,0.17,0.17
206,1.70,1.54,1.71,1.55,-1.55,-0.05,0.15,0.15,0.16
208,1.57,1.42,1.59,1.45,-1.45,0.04,0.13,0.14,0.15
210,1.47,1.33,1.47,1.34,-1.34,0.12,0.14,0.14,0.14
212,1.35,1.22,1.36,1.22,-1.22,0.21,0.13,0.13,0.13
214,1.24,1.12,1.23,1.11,-1.11,0.29,0.13,0.12,0.13
216,1.13,1.02,1.11,1.00,-1.00,0.37,0.14,0.12,0.12
218,1.02,0.91,0.99,0.88,-0.88,0.45,0.14,0.11,0.11
221,0.85,0.75,0.86,0.76,-0.76,0.57,0.09,0.10,0.10
223,0.73,0.64,0.73,0.64,-0.64,0.64,0.09,0.09,0.09
225,0.60,0.52,0.60,0.52,-0.52,0.71,0.09,0.08,0.08
227,0.47,0.39,0.47,0.39,-0.39,0.78,0.08,0.07,0.08
229,0.35,0.28,0.33,0.27,-0.27,0.85,0.08,0.06,0.07
232,0.17,0.11,0.20,0.15,-0.15,0.94,0.03,0.06,0.06
234,0.05,-0.00,0.08,0.03,-0.03,1.00,0.03,0.05,0.06
236,-0.05,-0.10,-0.05,-0.09,0.09,1.06,0.05,0.04,0.05
239,-0.21,-0.25,-0.18,-0.21,0.21,1.14,0.01,0.03,0.04
241,-0.31,-0.34,-0.30,-0.33,0.33,1.20,0.02,0.03,0.04
244,-0.45,-0.48,-0.42,-0.44,0.44,1.27,-0.00,0.02,0.03
246,-0.54,-0.56,-0.53,-0.55,0.55,1.32,0.02,0.02,0.02
248,-0.63,-0.65,-0.65,-0.67,0.67,1.36,0.04,0.01,0.02
251,-0.77,-0.78,-0.77,-0.78,0.78,1.43,0.01,0.01,0.01
253,-0.86,-0.87,-0.88,-0.89,0.89,1.47,0.03,0.01,0.01
256,-1.00,-1.00,-0.99,-1.00,1.00,1.52,0.00,0.00,0.00
259,-1.14,-1.13,-1.11,-1.11,1.11,1.58,-0.02,0.00,-0.00
261,-1.23,-1.22,-1.24,-1.23,1.23,1.61,0.01,-0.01,-0.01
264,-1.37,-1.35,-1.36,-1.35,1.35,1.66,-0.01,-0.01,-0.01
266,-1.47,-1.45,-1.49,-1.48,1.48,1.69,0.01,-0.02,-0.02
269,-1.62,-1.60,-1.63,-1.61,1.61,1.73,-0.01,-0.02,-0.02
272,-1.78,-1.75,-1.77,-1.74,1.74,1.77,-0.04,-0.03,-0.03
274,-1.88,-1.85,-1.91,-1.88,1.88,1.79,-0.00,-0.03,-0.03
277,-2.04,-2.00,-2.05,-2.02,2.02,1.83,-0.02,-0.04,-0.03
280,-2.21,-2.17,-2.20,-2.16,2.16,1.86,-0.05,-0.04,-0.04
283,-2.37,-2.32,-2.35,-2.30,2.30,1.90,-0.07,-0.05,-0.04
286,-2.54,-2.49,-2.50,-2.45,2.45,1.93,-0.09,-0.05,-0.05
288,-2.64,-2.59,-2.65,-2.59,2.59,1.95,-0.04,-0.05,-0.05
291,-2.80,-2.74,-2.80,-2.74,2.74,1.98,-0.06,-0.06,-0.05
294,-2.96,-2.90,-2.95,-2.89,2.89,2.02,-0.07,-0.06,-0.06
297,-3.12,-3.06,-3.11,-3.04,3.04,2.05,-0.08,-0.07,-0.06
300,-3.27,-3.20,-3.26,-3.19,3.19,2.08,-0.08,-0.07,-0.06
303,-3.42,-3.35,-3.41,-3.34,3.34,2.11,-0.08,-0.07,-0.07
306,-3.56,-3.49,-3.57,-3.49,3.49,2.14,-0.06,-0.07,-0.07
309,-3.71,-3.63,-3.72,-3.65,3.65,2.18,-0.06,-0.07,-0.07
312,-3.86,-3.78,-3.88,-3.80,3.80,2.21,-0.05,-0.08,-0.08
316,-4.06,-3.98,-4.04,-3.96,3.96,2.26,-0.09,-0.08,-0.08
319,-4.22,-4.13,-4.21,-4.12,4.12,2.29,-0.09,-0.09,-0.08
322,-4.38,-4.29,-4.37,-4.28,4.28,2.33,-0.09,-0.09,-0.09
325,-4.53,-4.44,-4.54,-4.45,4.45,2.37,-0.08,-0.09,-0.09
328,-4.69,-4.60,-4.71,-4.62,4.62,2.41,-0.07,-0.09,-0.09
332,-4.91,-4.81,-4.88,-4.78,4.78,2.46,-0.12,-0.09,-0.09
335,-5.06,-4.96,-5.05,-4.96,4.96,2.50,-0.10,-0.10,-0.10
338,-5.22,-5.12,-5.23,-5.13,5.13,2.55,-0.08,-0.10,-0.10
342,-5.43,-5.33,-5.41,-5.31,5.31,2.61,-0.12,-0.10,-0.10
345,-5.58,-5.47,-5.59,-5.49,5.49,2.65,-0.09,-0.10,-0.10
349,-5.78,-5.67,-5.78,-5.68,5.69,2.72,-0.08,-0.08,-0.11
352,-5.92,-5.81,-5.97,-5.86,5.81,2.77,-0.11,-0.16,-0.11
356,-6.14,-6.03,-6.15,-6.05,5.90,2.84,-0.24,-0.25,-0.11
359,-6.32,-6.21,-6.34,-6.23,5.95,2.89,-0.37,-0.40,-0.11
363,-6.54,-6.42,-6.53,-6.42,5.99,2.96,-0.55,-0.54,-0.11
366,-6.70,-6.58,-6.71,-6.60,6.00,3.02,-0.70,-0.71,-0.11
370,-6.91,-6.79,-6.89,-6.77,6.00,3.09,-0.91,-0.89,-0.12
374,-7.09,-6.97,-7.06,-6.94,6.00,3.17,-1.09,-1.06,-0.12
377,-7.22,-7.10,-7.23,-7.10,6.00,3.23,-1.22,-1.23,-0.12
381,-7.39,-7.26,-7.38,-7.25,6.00,3.31,-1.39,-1.38,-0.12
385,-7.53,-7.40,-7.51,-7.38,6.00,3.39,-1.53,-1.51,-0.12
389,-7.65,-7.52,-7.64,-7.50,6.00,3.47,-1.65,-1.64,-0.13
393,-7.75,-7.62,-7.74,-7.60,6.00,3.55,-1.75,-1.74,-0.13
397,-7.84,-7.71,-7.82,-7.68,6.00,3.63,-1.84,-1.82,-0.13
401,-7.90,-7.77,-7.88,-7.74,6.00,3.72,-1.90,-1.88,-0.13
405,-7.94,-7.81,-7.93,-7.79,6.00,3.80,-1.94,-1.93,-0.13
409,-7.97,-7.83,-7.95,-7.82,6.00,3.89,-1.97,-1.95,-0.13
413,-7.97,-7.83,-7.96,-7.82,6.00,3.97,-1.97,-1.96,-0.14
417,-7.96,-7.82,-7.95,-7.81,6.00,4.05,-1.96,-1.95,-0.14
421,-7.93,-7.79,-7.93,-7.78,6.00,4.13,-1.93,-1.93,-0.14
425,-7.87,-7.73,-7.88,-7.73,6.00,4.21,-1.87,-1.88,-0.14
430,-7.79,-7.64,-7.81,-7.66,6.00,4.31,-1.79,-1.81,-0.14
434,-7.72,-7.57,-7.72,-7.57,6.00,4.39,-1.72,-1.72,-0.14
438,-7.63,-7.48,-7.61,-7.46,6.00,4.46,-1.63,-1.61,-0.14
443,-7.50,-7.35,-7.49,-7.33,6.00,4.55,-1.50,-1.49,-0.14
447,-7.39,-7.24,-7.34,-7.19,6.00,4.61,-1.39,-1.34,-0.14
451,-7.25,-7.11,-7.18,-7.04,6.00,4.68,-1.25,-1.18,-0.14
456,-7.04,-6.90,-7.01,-6.87,6.00,4.75,-1.04,-1.01,-0.14
460,-6.86,-6.73,-6.83,-6.69,6.00,4.80,-0.86,-0.83,-0.13
465,-6.61,-6.49,-6.64,-6.51,6.00,4.86,-0.61,-0.64,-0.12
470,-6.38,-6.26,-6.43,-6.31,5.96,4.92,-0.41,-0.47,-0.11
474,-6.20,-6.09,-6.23,-6.11,5.90,4.95,-0.29,-0.32,-0.10
479,-5.97,-5.87,-6.01,-5.91,5.79,4.99,-0.17,-0.22,-0.09
484,-5.77,-5.69,-5.79,-5.71,5.65,5.02,-0.12,-0.14,-0.08
489,-5.57,-5.50,-5.57,-5.50,5.48,5.05,-0.08,-0.09,-0.07
494,-5.36,-5.30,-5.35,-5.29,5.29,5.06,-0.06,-0.05,-0.06
499,-5.15,-5.11,-5.13,-5.09,5.09,5.07,-0.06,-0.04,-0.04
504,-4.93,-4.90,-4.91,-4.88,4.88,5.06,-0.05,-0.03,-0.03
509,-4.71,-4.70,-4.69,-4.68,4.68,5.05,-0.03,-0.01,-0.01
514,-4.48,-4.48,-4.47,-4.47,4.47,5.04,-0.00,-0.00,0.01
519,-4.25,-4.27,-4.25,-4.27,4.27,5.01,0.02,0.02,0.02
524,-4.03,-4.07,-4.03,-4.07,4.07,4.98,0.04,0.04,0.04
529,-3.82,-3.88,-3.81,-3.87,3.87,4.95,0.05,0.06,0.06
535,-3.57,-3.65,-3.59,-3.67,3.67,4.89,0.10,0.08,0.08
540,-3.36,-3.46,-3.37,-3.47,3.47,4.85,0.11,0.10,0.10
545,-3.17,-3.29,-3.15,-3.28,3.28,4.79,0.11,0.13,0.12
551,-2.94,-3.08,-2.93,-3.09,3.09,4.72,0.15,0.15,0.15
556,-2.74,-2.91,-2.73,-2.90,2.90,4.66,0.17,0.18,0.17
562,-2.52,-2.72,-2.52,-2.72,2.72,4.59,0.21,0.20,0.20
568,-2.31,-2.53,-2.32,-2.55,2.55,4.51,0.24,0.23,0.23
573,-2.13,-2.38,-2.13,-2.38,2.38,4.44,0.25,0.25,0.26
579,-1.94,-2.22,-1.93,-2.22,2.22,4.35,0.28,0.28,0.28
585,-1.74,-2.05,-1.75,-2.06,2.06,4.27,0.32,0.31,0.31
591,-1.56,-1.90,-1.57,-1.91,1.91,4.18,0.36,0.34,0.34
596,-1.41,-1.78,-1.40,-1.77,1.77,4.11,0.36,0.37,0.37
602,-1.25,-1.65,-1.23,-1.64,1.64,4.03,0.39,0.40,0.40
608,-1.09,-1.52,-1.07,-1.51,1.51,3.94,0.42,0.43,0.44
615,-0.91,-1.37,-0.92,-1.39,1.39,3.85,0.48,0.47,0.47
621,-0.77,-1.27,-0.78,-1.27,1.27,3.77,0.51,0.50,0.50
627,-0.64,-1.17,-0.64,-1.17,1.17,3.69,0.53,0.53,0.53
633,-0.52,-1.08,-0.51,-1.07,1.07,3.61,0.56,0.56,0.56
639,-0.40,-0.99,-0.39,-0.99,0.99,3.53,0.59,0.60,0.59
646,-0.28,-0.90,-0.28,-0.91,0.91,3.44,0.63,0.63,0.63
652,-0.17,-0.83,-0.18,-0.84,0.84,3.37,0.67,0.66,0.66
659,-0.07,-0.76,-0.08,-0.78,0.78,3.29,0.71,0.70,0.69
665,0.00,-0.72,0.00,-0.73,0.73,3.23,0.73,0.73,0.73
672,0.08,-0.68,0.08,-0.69,0.69,3.15,0.77,0.77,0.76
679,0.16,-0.64,0.14,-0.65,0.65,3.08,0.82,0.80,0.80
686,0.22,-0.61,0.21,-0.62,0.62,3.01,0.85,0.83,0.84
692,0.26,-0.61,0.26,-0.60,0.60,2.95,0.87,0.87,0.87
699,0.30,-0.61,0.31,-0.59,0.59,2.89,0.89,0.90,0.91
706,0.35,-0.60,0.36,-0.57,0.57,2.83,0.93,0.94,0.95
713,0.38,-0.61,0.41,-0.57,0.57,2.77,0.95,0.97,0.99
721,0.41,-0.61,0.45,-0.56,0.56,2.71,0.98,1.01,1.03
728,0.45,-0.61,0.49,-0.57,0.57,2.66,1.02,1.05,1.07
735,0.48,-0.62,0.52,-0.58,0.58,2.61,1.06,1.10,1.11
742,0.53,-0.61,0.55,-0.59,0.59,2.56,1.13,1.14,1.14
750,0.57,-0.61,0.57,-0.62,0.62,2.51,1.20,1.19,1.18
757,0.59,-0.63,0.57,-0.66,0.66,2.47,1.25,1.23,1.22
765,0.59,-0.67,0.56,-0.71,0.71,2.42,1.31,1.27,1.26
773,0.59,-0.71,0.53,-0.77,0.77,2.38,1.37,1.31,1.30
780,0.56,-0.77,0.49,-0.85,0.85,2.35,1.41,1.34,1.33
788,0.51,-0.86,0.44,-0.93,0.93,2.31,1.44,1.37,1.37
796,0.43,-0.97,0.37,-1.02,1.02,2.27,1.46,1.40,1.40
804,0.32,-1.11,0.30,-1.12,1.12,2.24,1.44,1.42,1.44
812,0.22,-1.25,0.23,-1.22,1.22,2.20,1.44,1.45,1.47
820,0.11,-1.39,0.16,-1.32,1.32,2.17,1.43,1.48,1.50
828,0.00,-1.53,0.09,-1.42,1.42,2.14,1.42,1.51,1.53
837,-0.07,-1.63,0.02,-1.51,1.51,2.11,1.45,1.54,1.57
845,-0.11,-1.70,-0.03,-1.60,1.60,2.08,1.49,1.57,1.60
853,-0.13,-1.75,-0.08,-1.68,1.68,2.05,1.55,1.60,1.63
862,-0.13,-1.78,-0.11,-1.74,1.74,2.02,1.62,1.63,1.66
871,-0.12,-1.80,-0.14,-1.80,1.80,1.99,1.68,1.66,1.69
879,-0.12,-1.83,-0.15,-1.85,1.85,1.96,1.73,1.70,1.72
888,-0.12,-1.86,-0.16,-1.89,1.89,1.93,1.77,1.73,1.74
897,-0.13,-1.90,-0.16,-1.93,1.93,1.90,1.80,1.77,1.77
906,-0.13,-1.93,-0.16,-1.96,1.96,1.87,1.83,1.80,1.80
915,-0.14,-1.96,-0.15,-1.98,1.98,1.83,1.84,1.83,1.83
924,-0.15,-2.00,-0.15,-2.00,2.00,1.80,1.86,1.86,1.85
933,-0.16,-2.03,-0.14,-2.02,2.02,1.76,1.86,1.88,1.88
943,-0.15,-2.05,-0.13,-2.04,2.04,1.72,1.89,1.90,1.90
952,-0.14,-2.07,-0.12,-2.05,2.05,1.69,1.91,1.93,1.93
962,-0.13,-2.08,-0.11,-2.06,2.06,1.64,1.93,1.95,1.96
971,-0.11,-2.09,-0.09,-2.07,2.07,1.60,1.96,1.98,1.98
981,-0.07,-2.08,-0.07,-2.07,2.07,1.55,2.00,2.00,2.01
991,-0.03,-2.06,-0.04,-2.07,2.07,1.50,2.04,2.03,2.04
1001,0.00,-2.06,-0.01,-2.07,2.07,1.45,2.07,2.06,2.06
1011,0.05,-2.03,0.02,-2.06,2.06,1.40,2.11,2.08,2.09
1021,0.08,-2.03,0.06,-2.05,2.05,1.34,2.13,2.11,2.12
1031,0.11,-2.03,0.11,-2.03,2.03,1.28,2.15,2.14,2.14
1041,0.14,-2.03,0.15,-2.01,2.01,1.22,2.16,2.17,2.17
1052,0.19,-2.00,0.21,-1.99,1.99,1.16,2.18,2.20,2.20
1062,0.24,-1.98,0.27,-1.96,1.96,1.09,2.20,2.22,2.23
1073,0.32,-1.93,0.33,-1.92,1.92,1.02,2.24,2.25,2.25
1084,0.39,-1.89,0.40,-1.88,1.88,0.94,2.27,2.28,2.28
1094,0.47,-1.84,0.48,-1.83,1.83,0.87,2.30,2.30,2.31
1105,0.56,-1.78,0.56,-1.77,1.77,0.80,2.33,2.33,2.34
1116,0.66,-1.71,0.66,-1.71,1.71,0.72,2.37,2.36,2.37
1128,0.76,-1.64,0.76,-1.63,1.63,0.63,2.40,2.39,2.41
1139,0.86,-1.57,0.87,-1.56,1.56,0.55,2.42,2.43,2.44
1150,0.97,-1.50,0.99,-1.47,1.47,0.46,2.45,2.46,2.47
1162,1.10,-1.40,1.11,-1.38,1.38,0.37,2.49,2.50,2.50
1173,1.22,-1.31,1.24,-1.29,1.29,0.29,2.51,2.53,2.53
1185,1.36,-1.20,1.37,-1.19,1.19,0.19,2.56,2.56,2.57
1197,1.51,-1.08,1.50,-1.09,1.09,0.10,2.60,2.60,2.60
1209,1.66,-0.97,1.64,-0.99,0.99,0.01,2.65,2.63,2.63
1221,1.80,-0.86,1.78,-0.88,0.88,-0.09,2.69,2.66,2.66
1233,1.93,-0.76,1.92,-0.78,0.78,-0.18,2.71,2.70,2.69
1246,2.07,-0.65,2.06,-0.67,0.67,-0.29,2.75,2.73,2.72
1258,2.20,-0.55,2.20,-0.56,0.56,-0.38,2.77,2.76,2.76
1271,2.34,-0.45,2.34,-0.45,0.45,-0.49,2.80,2.79,2.79
1283,2.48,-0.34,2.48,-0.34,0.34,-0.58,2.83,2.83,2.83
1296,2.62,-0.24,2.63,-0.23,0.23,-0.69,2.85,2.86,2.86
1309,2.77,-0.12,2.78,-0.11,0.11,-0.79,2.88,2.89,2.90
1322,2.92,-0.01,2.93,0.01,-0.01,-0.90,2.91,2.92,2.93
1335,3.07,0.10,3.09,0.13,-0.13,-1.01,2.94,2.95,2.97
1349,3.24,0.24,3.25,0.27,-0.27,-1.12,2.98,2.99,3.01
1362,3.40,0.36,3.43,0.40,-0.40,-1.22,3.00,3.03,3.04
1376,3.58,0.50,3.61,0.54,-0.54,-1.34,3.04,3.07,3.08
1390,3.77,0.65,3.79,0.68,-0.68,-1.45,3.09,3.11,3.12
1404,3.96,0.81,3.98,0.83,-0.83,-1.57,3.14,3.15,3.16
1418,4.16,0.97,4.17,0.97,-0.97,-1.68,3.19,3.19,3.20
1432,4.36,1.13,4.35,1.12,-1.12,-1.80,3.25,3.24,3.23
1446,4.56,1.29,4.54,1.26,-1.26,-1.91,3.30,3.28,3.27
1461,4.75,1.44,4.72,1.40,-1.40,-2.04,3.35,3.32,3.31
1475,4.93,1.58,4.90,1.54,-1.54,-2.15,3.39,3.36,3.35
1490,5.10,1.71,5.07,1.67,-1.67,-2.28,3.43,3.40,3.39
1505,5.26,1.83,5.24,1.81,-1.81,-2.40,3.46,3.44,3.43
1520,5.41,1.94,5.41,1.93,-1.93,-2.52,3.48,3.48,3.47
1535,5.56,2.05,5.57,2.06,-2.06,-2.65,3.51,3.52,3.51
1550,5.71,2.16,5.73,2.18,-2.18,-2.77,3.53,3.55,3.56
1566,5.87,2.27,5.89,2.30,-2.30,-2.90,3.57,3.59,3.60
1582,6.04,2.40,6.05,2.42,-2.42,-3.03,3.63,3.64,3.64
1597,6.19,2.50,6.21,2.53,-2.53,-3.16,3.66,3.68,3.69
1613,6.35,2.62,6.37,2.65,-2.65,-3.28,3.71,3.73,3.73
1629,6.51,2.73,6.53,2.76,-2.76,-3.41,3.75,3.77,3.78
1646,6.69,2.87,6.69,2.87,-2.87,-3.54,3.82,3.82,3.83
1662,6.85,2.98,6.85,2.98,-2.98,-3.67,3.88,3.88,3.87
1679,7.02,3.10,7.01,3.08,-3.08,-3.80,3.94,3.93,3.92
1696,7.18,3.22,7.16,3.18,-3.18,-3.92,4.00,3.98,3.97
1713,7.33,3.32,7.30,3.28,-3.28,-4.05,4.06,4.02,4.01
1730,7.46,3.40,7.43,3.37,-3.37,-4.16,4.10,4.06,4.06
1747,7.59,3.48,7.56,3.46,-3.46,-4.28,4.14,4.10,4.11
1764,7.71,3.56,7.68,3.54,-3.54,-4.39,4.17,4.14,4.16
1782,7.83,3.63,7.80,3.62,-3.62,-4.50,4.21,4.18,4.21
1800,7.94,3.68,7.93,3.70,-3.70,-4.60,4.24,4.23,4.26
1818,8.05,3.74,8.05,3.78,-3.78,-4.70,4.27,4.27,4.31
1836,8.15,3.78,8.19,3.87,-3.87,-4.79,4.29,4.32,4.37
1854,8.26,3.83,8.33,3.96,-3.96,-4.87,4.31,4.38,4.43
1873,8.41,3.92,8.49,4.05,-4.05,-4.94,4.37,4.44,4.49
1892,8.57,4.02,8.65,4.14,-4.14,-5.01,4.43,4.51,4.56
1911,8.76,4.14,8.83,4.24,-4.24,-5.06,4.52,4.59,4.63
1930,8.98,4.28,9.01,4.34,-4.34,-5.11,4.65,4.67,4.70
1949,9.19,4.42,9.19,4.43,-4.43,-5.14,4.76,4.76,4.78
1969,9.40,4.55,9.37,4.53,-4.53,-5.17,4.88,4.85,4.85
1988,9.60,4.67,9.55,4.61,-4.61,-5.18,4.99,4.94,4.94
