frequency,raw,error,smoothed,error_smoothed,equalization,parametric_eq,equalized_raw,equalized_smoothed,target
20,-12.54,-8.55,-12.50,-8.51,6.00,5.68,-6.54,-6.50,-3.98
21,-11.85,-7.87,-11.91,-7.92,6.00,5.99,-5.85,-5.91,-3.98
22,-11.38,-7.40,-11.36,-7.38,6.00,6.12,-5.38,-5.36,-3.98
23,-10.89,-6.91,-10.85,-6.87,5.94,6.07,-4.95,-4.90,-3.98
24,-10.26,-6.28,-10.37,-6.39,5.82,5.88,-4.43,-4.55,-3.98
25,-9.84,-5.86,-9.95,-5.97,5.65,5.58,-4.18,-4.29,-3.98
26,-9.57,-5.60,-9.56,-5.58,5.44,5.22,-4.14,-4.12,-3.98
27,-9.18,-5.20,-9.20,-5.22,5.18,4.84,-4.00,-4.02,-3.98
28,-8.90,-4.93,-8.87,-4.89,4.89,4.46,-4.01,-3.98,-3.98
29,-8.66,-4.69,-8.55,-4.58,4.58,4.10,-4.08,-3.97,-3.97
30,-8.23,-4.25,-8.25,-4.27,4.27,3.76,-3.95,-3.97,-3.97
31,-7.98,-4.00,-7.95,-3.97,3.97,3.44,-4.00,-3.97,-3.97
32,-7.75,-3.78,-7.65,-3.68,3.68,3.15,-4.07,-3.97,-3.97
33,-7.31,-3.34,-7.36,-3.39,3.39,2.89,-3.92,-3.97,-3.97
34,-7.07,-3.09,-7.08,-3.11,3.11,2.65,-3.95,-3.97,-3.97
35,-6.84,-2.87,-6.81,-2.84,2.84,2.44,-4.00,-3.97,-3.97
36,-6.39,-2.42,-6.55,-2.58,2.58,2.24,-3.81,-3.97,-3.97
37,-6.35,-2.38,-6.31,-2.34,2.34,2.06,-4.01,-3.97,-3.97
38,-6.11,-2.14,-6.08,-2.11,2.11,1.89,-4.00,-3.97,-3.97
39,-5.93,-1.96,-5.86,-1.89,1.89,1.74,-4.04,-3.97,-3.97
40,-5.67,-1.70,-5.65,-1.68,1.68,1.60,-3.98,-3.97,-3.97
41,-5.47,-1.50,-5.46,-1.49,1.49,1.47,-3.98,-3.97,-3.97
42,-5.24,-1.27,-5.28,-1.31,1.31,1.36,-3.93,-3.97,-3.97
43,-5.01,-1.04,-5.11,-1.14,1.14,1.24,-3.87,-3.97,-3.97
44,-5.01,-1.04,-4.96,-0.99,0.99,1.14,-4.03,-3.97,-3.97
45,-4.79,-0.82,-4.81,-0.84,0.84,1.04,-3.94,-3.97,-3.97
46,-4.72,-0.75,-4.68,-0.71,0.71,0.95,-4.01,-3.97,-3.97
47,-4.56,-0.59,-4.56,-0.59,0.59,0.86,-3.97,-3.97,-3.97
48,-4.51,-0.54,-4.45,-0.48,0.48,0.78,-4.03,-3.97,-3.97
49,-4.33,-0.36,-4.36,-0.39,0.39,0.70,-3.94,-3.97,-3.97
50,-4.33,-0.36,-4.28,-0.31,0.31,0.62,-4.02,-3.97,-3.97
51,-4.10,-0.13,-4.21,-0.24,0.24,0.55,-3.86,-3.97,-3.97
52,-4.10,-0.13,-4.16,-0.19,0.19,0.48,-3.91,-3.97,-3.97
53,-4.10,-0.13,-4.13,-0.16,0.16,0.41,-3.94,-3.97,-3.97
54,-4.10,-0.13,-4.10,-0.13,0.13,0.34,-3.97,-3.97,-3.97
55,-4.10,-0.13,-4.08,-0.11,0.11,0.27,-3.99,-3.97,-3.97
56,-4.10,-0.13,-4.06,-0.09,0.09,0.21,-4.01,-3.97,-3.97
57,-4.10,-0.13,-4.04,-0.07,0.07,0.14,-4.03,-3.97,-3.97
58,-4.10,-0.13,-4.00,-0.04,0.04,0.08,-4.07,-3.97,-3.97
59,-3.87,0.09,-3.96,0.00,-0.00,0.01,-3.88,-3.97,-3.97
60,-3.87,0.09,-3.92,0.05,-0.05,-0.05,-3.93,-3.97,-3.97
61,-3.87,0.09,-3.86,0.10,-0.10,-0.11,-3.98,-3.97,-3.97
62,-3.87,0.09,-3.80,0.16,-0.16,-0.17,-4.04,-3.97,-3.97
63,-3.65,0.32,-3.74,0.22,-0.22,-0.23,-3.87,-3.97,-3.97
64,-3.65,0.32,-3.68,0.28,-0.28,-0.30,-3.93,-3.96,-3.96
65,-3.65,0.32,-3.62,0.35,-0.35,-0.36,-3.99,-3.96,-3.96
66,-3.65,0.32,-3.55,0.41,-0.41,-0.42,-4.06,-3.96,-3.96
67,-3.42,0.54,-3.48,0.48,-0.48,-0.48,-3.90,-3.96,-3.96
68,-3.42,0.54,-3.41,0.55,-0.55,-0.55,-3.97,-3.96,-3.96
69,-3.39,0.57,-3.34,0.62,-0.62,-0.61,-4.02,-3.96,-3.96
70,-3.19,0.77,-3.26,0.70,-0.70,-0.67,-3.89,-3.96,-3.96
71,-3.19,0.77,-3.19,0.77,-0.77,-0.73,-3.96,-3.96,-3.96
72,-3.18,0.77,-3.12,0.84,-0.84,-0.80,-4.02,-3.96,-3.96
73,-2.96,0.99,-3.05,0.91,-0.91,-0.86,-3.87,-3.96,-3.96
74,-2.96,0.99,-2.99,0.97,-0.97,-0.92,-3.93,-3.96,-3.96
75,-2.96,0.99,-2.93,1.02,-1.02,-0.98,-3.99,-3.95,-3.95
76,-2.96,0.99,-2.88,1.07,-1.07,-1.04,-4.04,-3.95,-3.95
77,-2.78,1.17,-2.84,1.12,-1.12,-1.10,-3.90,-3.95,-3.95
78,-2.74,1.22,-2.80,1.16,-1.16,-1.16,-3.89,-3.95,-3.95
79,-2.74,1.22,-2.76,1.19,-1.19,-1.22,-3.93,-3.95,-3.95
80,-2.74,1.22,-2.72,1.23,-1.23,-1.27,-3.96,-3.95,-3.95
81,-2.74,1.21,-2.68,1.27,-1.27,-1.33,-4.00,-3.95,-3.95
82,-2.74,1.21,-2.65,1.30,-1.30,-1.38,-4.04,-3.95,-3.95
83,-2.63,1.32,-2.61,1.34,-1.34,-1.43,-3.97,-3.95,-3.95
84,-2.51,1.44,-2.58,1.37,-1.37,-1.47,-3.87,-3.95,-3.95
85,-2.51,1.44,-2.55,1.39,-1.39,-1.52,-3.90,-3.94,-3.94
86,-2.51,1.44,-2.53,1.41,-1.41,-1.56,-3.92,-3.94,-3.94
87,-2.51,1.44,-2.52,1.43,-1.43,-1.59,-3.93,-3.94,-3.94
88,-2.51,1.43,-2.51,1.43,-1.43,-1.63,-3.94,-3.94,-3.94
89,-2.51,1.43,-2.51,1.43,-1.43,-1.66,-3.94,-3.94,-3.94
90,-2.51,1.43,-2.51,1.43,-1.43,-1.69,-3.94,-3.94,-3.94
91,-2.51,1.43,-2.50,1.43,-1.43,-1.71,-3.94,-3.94,-3.94
92,-2.51,1.43,-2.49,1.44,-1.44,-1.73,-3.95,-3.94,-3.94
93,-2.51,1.43,-2.47,1.46,-1.46,-1.74,-3.97,-3.93,-3.93
94,-2.51,1.43,-2.44,1.49,-1.49,-1.75,-4.00,-3.93,-3.93
95,-2.50,1.44,-2.41,1.52,-1.52,-1.76,-4.02,-3.93,-3.93
96,-2.28,1.65,-2.37,1.56,-1.56,-1.76,-3.84,-3.93,-3.93
97,-2.28,1.65,-2.34,1.59,-1.59,-1.76,-3.87,-3.93,-3.93
98,-2.28,1.65,-2.31,1.62,-1.62,-1.76,-3.90,-3.93,-3.93
99,-2.28,1.65,-2.29,1.64,-1.64,-1.75,-3.92,-3.93,-3.93
100,-2.28,1.65,-2.28,1.65,-1.65,-1.74,-3.93,-3.93,-3.93
101,-2.28,1.65,-2.27,1.66,-1.66,-1.73,-3.93,-3.93,-3.93
102,-2.28,1.65,-2.27,1.66,-1.66,-1.72,-3.94,-3.92,-3.92
104,-2.28,1.64,-2.27,1.65,-1.65,-1.68,-3.93,-3.92,-3.92
105,-2.28,1.64,-2.27,1.65,-1.65,-1.66,-3.93,-3.92,-3.92
106,-2.28,1.64,-2.27,1.65,-1.65,-1.63,-3.93,-3.92,-3.92
107,-2.28,1.64,-2.27,1.65,-1.65,-1.61,-3.93,-3.92,-3.92
108,-2.28,1.64,-2.27,1.65,-1.65,-1.58,-3.93,-3.92,-3.92
109,-2.28,1.64,-2.27,1.65,-1.65,-1.56,-3.93,-3.92,-3.92
110,-2.28,1.64,-2.28,1.64,-1.64,-1.53,-3.92,-3.92,-3.92
111,-2.28,1.64,-2.29,1.63,-1.63,-1.50,-3.91,-3.92,-3.92
112,-2.28,1.64,-2.32,1.60,-1.60,-1.47,-3.88,-3.92,-3.92
113,-2.28,1.64,-2.35,1.57,-1.57,-1.44,-3.85,-3.92,-3.92
114,-2.30,1.61,-2.38,1.54,-1.54,-1.41,-3.84,-3.92,-3.92
115,-2.51,1.41,-2.41,1.50,-1.50,-1.38,-4.01,-3.92,-3.92
117,-2.51,1.41,-2.45,1.47,-1.47,-1.31,-3.98,-3.92,-3.92
118,-2.51,1.41,-2.47,1.45,-1.45,-1.28,-3.95,-3.92,-3.92
119,-2.51,1.41,-2.49,1.43,-1.43,-1.25,-3.93,-3.92,-3.92
120,-2.51,1.41,-2.50,1.41,-1.41,-1.22,-3.92,-3.91,-3.91
121,-2.51,1.41,-2.51,1.40,-1.40,-1.19,-3.91,-3.91,-3.91
123,-2.51,1.40,-2.52,1.39,-1.39,-1.13,-3.90,-3.91,-3.91
124,-2.51,1.40,-2.53,1.38,-1.38,-1.10,-3.89,-3.91,-3.91
125,-2.51,1.40,-2.54,1.36,-1.36,-1.08,-3.87,-3.91,-3.91
126,-2.51,1.40,-2.57,1.34,-1.34,-1.05,-3.84,-3.91,-3.91
128,-2.62,1.28,-2.61,1.30,-1.30,-0.99,-3.92,-3.90,-3.90
129,-2.74,1.17,-2.65,1.25,-1.25,-0.97,-3.99,-3.90,-3.90
130,-2.74,1.17,-2.71,1.19,-1.19,-0.94,-3.93,-3.90,-3.90
131,-2.74,1.16,-2.77,1.13,-1.13,-0.92,-3.86,-3.90,-3.90
133,-2.74,1.16,-2.84,1.06,-1.06,-0.87,-3.79,-3.90,-3.90
134,-2.91,0.98,-2.91,0.98,-0.98,-0.84,-3.90,-3.89,-3.89
135,-2.96,0.93,-2.98,0.91,-0.91,-0.82,-3.88,-3.89,-3.89
137,-3.04,0.85,-3.04,0.85,-0.85,-0.77,-3.89,-3.89,-3.89
138,-3.19,0.69,-3.09,0.79,-0.79,-0.75,-3.98,-3.89,-3.89
140,-3.19,0.69,-3.14,0.75,-0.75,-0.71,-3.94,-3.88,-3.88
141,-3.19,0.69,-3.17,0.71,-0.71,-0.69,-3.91,-3.88,-3.88
142,-3.19,0.69,-3.19,0.69,-0.69,-0.67,-3.88,-3.88,-3.88
144,-3.19,0.68,-3.20,0.68,-0.68,-0.63,-3.87,-3.87,-3.87
145,-3.19,0.68,-3.21,0.66,-0.66,-0.61,-3.85,-3.87,-3.87
147,-3.19,0.68,-3.23,0.64,-0.64,-0.58,-3.83,-3.87,-3.87
148,-3.19,0.68,-3.25,0.62,-0.62,-0.56,-3.81,-3.87,-3.87
150,-3.19,0.67,-3.28,0.59,-0.59,-0.53,-3.78,-3.86,-3.86
151,-3.32,0.54,-3.31,0.55,-0.55,-0.51,-3.87,-3.86,-3.86
153,-3.42,0.44,-3.34,0.52,-0.52,-0.48,-3.93,-3.86,-3.86
154,-3.42,0.44,-3.37,0.48,-0.48,-0.46,-3.90,-3.86,-3.86
156,-3.42,0.43,-3.40,0.46,-0.46,-0.43,-3.87,-3.85,-3.85
157,-3.42,0.43,-3.41,0.44,-0.44,-0.42,-3.86,-3.85,-3.85
159,-3.42,0.43,-3.42,0.43,-0.43,-0.39,-3.85,-3.85,-3.85
160,-3.42,0.43,-3.42,0.42,-0.42,-0.38,-3.84,-3.84,-3.84
162,-3.42,0.42,-3.42,0.42,-0.42,-0.35,-3.84,-3.84,-3.84
164,-3.42,0.42,-3.42,0.42,-0.42,-0.33,-3.84,-3.84,-3.84
165,-3.42,0.42,-3.42,0.41,-0.41,-0.32,-3.83,-3.84,-3.84
167,-3.42,0.41,-3.43,0.40,-0.40,-0.29,-3.82,-3.83,-3.83
169,-3.42,0.41,-3.45,0.38,-0.38,-0.27,-3.80,-3.83,-3.83
170,-3.42,0.41,-3.47,0.36,-0.36,-0.26,-3.77,-3.83,-3.83
172,-3.42,0.40,-3.50,0.32,-0.32,-0.24,-3.74,-3.82,-3.82
174,-3.64,0.18,-3.53,0.29,-0.29,-0.21,-3.92,-3.82,-3.82
175,-3.65,0.17,-3.57,0.25,-0.25,-0.20,-3.89,-3.82,-3.82
177,-3.65,0.17,-3.61,0.21,-0.21,-0.18,-3.85,-3.81,-3.81
179,-3.65,0.16,-3.65,0.16,-0.16,-0.16,-3.81,-3.81,-3.81
181,-3.65,0.16,-3.69,0.11,-0.11,-0.14,-3.76,-3.80,-3.80
183,-3.65,0.15,-3.74,0.06,-0.06,-0.12,-3.71,-3.80,-3.80
184,-3.74,0.06,-3.80,0.00,-0.00,-0.12,-3.74,-3.80,-3.80
186,-3.87,-0.08,-3.85,-0.06,0.06,-0.10,-3.81,-3.79,-3.79
188,-3.87,-0.09,-3.92,-0.13,0.13,-0.08,-3.75,-3.79,-3.79
190,-4.10,-0.32,-3.98,-0.19,0.19,-0.06,-3.91,-3.78,-3.78
192,-4.10,-0.32,-4.03,-0.26,0.26,-0.04,-3.85,-3.78,-3.78
194,-4.10,-0.33,-4.09,-0.31,0.31,-0.03,-3.79,-3.77,-3.77
196,-4.10,-0.33,-4.14,-0.37,0.37,-0.01,-3.74,-3.77,-3.77
198,-4.10,-0.34,-4.18,-0.42,0.42,0.01,-3.69,-3.76,-3.76
200,-4.11,-0.36,-4.22,-0.46,0.46,0.02,-3.65,-3.76,-3.76
202,-4.33,-0.58,-4.25,-0.50,0.50,0.04,-3.83,-3.75,-3.75
204,-4.33,-0.58,-4.28,-0.54,0.54,0.05,-3.80,-3.75,-3.75
206,-4.33,-0.59,-4.30,-0.56,0.56,0.07,-3.77,-3.74,-3.74
208,-4.33,-0.60,-4.32,-0.59,0.59,0.09,-3.74,-3.73,-3.73
210,-4.33,-0.60,-4.33,-0.61,0.61,0.10,-3.72,-3.73,-3.73
212,-4.33,-0.61,-4.34,-0.62,0.62,0.12,-3.71,-3.72,-3.72
214,-4.33,-0.62,-4.34,-0.63,0.63,0.13,-3.70,-3.71,-3.71
216,-4.33,-0.62,-4.34,-0.63,0.63,0.15,-3.70,-3.71,-3.71
218,-4.33,-0.63,-4.34,-0.64,0.64,0.16,-3.70,-3.70,-3.70
221,-4.33,-0.64,-4.33,-0.64,0.64,0.19,-3.69,-3.69,-3.69
223,-4.33,-0.64,-4.33,-0.65,0.65,0.20,-3.69,-3.69,-3.69
225,-4.33,-0.65,-4.33,-0.65,0.65,0.22,-3.68,-3.68,-3.68
227,-4.33,-0.66,-4.33,-0.66,0.66,0.23,-3.67,-3.67,-3.67
229,-4.33,-0.67,-4.33,-0.67,0.67,0.25,-3.66,-3.66,-3.66
232,-4.33,-0.68,-4.33,-0.68,0.68,0.27,-3.65,-3.65,-3.65
234,-4.33,-0.68,-4.33,-0.68,0.68,0.29,-3.65,-3.65,-3.65
236,-4.33,-0.69,-4.33,-0.69,0.69,0.30,-3.64,-3.64,-3.64
239,-4.33,-0.70,-4.33,-0.70,0.70,0.33,-3.63,-3.63,-3.63
241,-4.33,-0.71,-4.33,-0.71,0.71,0.34,-3.62,-3.62,-3.62
244,-4.33,-0.72,-4.32,-0.71,0.71,0.37,-3.62,-3.61,-3.61
246,-4.33,-0.73,-4.32,-0.72,0.72,0.38,-3.61,-3.60,-3.60
248,-4.33,-0.74,-4.32,-0.73,0.73,0.40,-3.60,-3.59,-3.59
251,-4.33,-0.75,-4.32,-0.74,0.74,0.42,-3.59,-3.58,-3.58
253,-4.33,-0.76,-4.33,-0.75,0.75,0.44,-3.58,-3.57,-3.57
256,-4.33,-0.77,-4.34,-0.78,0.78,0.46,-3.55,-3.56,-3.56
259,-4.33,-0.78,-4.37,-0.81,0.81,0.49,-3.52,-3.55,-3.55
261,-4.33,-0.79,-4.40,-0.85,0.85,0.51,-3.48,-3.54,-3.54
264,-4.36,-0.82,-4.43,-0.90,0.90,0.53,-3.46,-3.53,-3.53
266,-4.56,-1.03,-4.47,-0.94,0.94,0.55,-3.61,-3.52,-3.52
269,-4.56,-1.05,-4.50,-0.99,0.99,0.58,-3.57,-3.51,-3.51
272,-4.56,-1.06,-4.53,-1.03,1.03,0.61,-3.53,-3.50,-3.50
274,-4.56,-1.07,-4.55,-1.06,1.06,0.63,-3.50,-3.49,-3.49
277,-4.56,-1.08,-4.56,-1.09,1.09,0.65,-3.47,-3.48,-3.48
280,-4.56,-1.10,-4.57,-1.10,1.10,0.68,-3.45,-3.46,-3.46
283,-4.56,-1.11,-4.57,-1.12,1.12,0.71,-3.44,-3.45,-3.45
286,-4.56,-1.12,-4.56,-1.12,1.12,0.74,-3.44,-3.44,-3.44
288,-4.56,-1.13,-4.55,-1.13,1.13,0.77,-3.43,-3.42,-3.42
291,-4.56,-1.15,-4.55,-1.14,1.14,0.80,-3.42,-3.41,-3.41
294,-4.56,-1.16,-4.55,-1.16,1.16,0.83,-3.40,-3.40,-3.40
297,-4.56,-1.18,-4.56,-1.18,1.18,0.86,-3.38,-3.38,-3.38
300,-4.56,-1.19,-4.58,-1.21,1.21,0.90,-3.35,-3.37,-3.37
303,-4.56,-1.21,-4.60,-1.25,1.25,0.93,-3.31,-3.35,-3.35
306,-4.56,-1.22,-4.63,-1.30,1.30,0.97,-3.26,-3.33,-3.33
309,-4.63,-1.31,-4.66,-1.35,1.35,1.00,-3.28,-3.32,-3.32
312,-4.79,-1.49,-4.70,-1.40,1.40,1.04,-3.39,-3.30,-3.30
316,-4.79,-1.50,-4.73,-1.44,1.44,1.09,-3.34,-3.28,-3.28
319,-4.79,-1.52,-4.75,-1.48,1.48,1.13,-3.30,-3.27,-3.27
322,-4.79,-1.54,-4.77,-1.52,1.52,1.17,-3.27,-3.25,-3.25
325,-4.79,-1.56,-4.78,-1.55,1.55,1.21,-3.23,-3.23,-3.23
328,-4.79,-1.58,-4.79,-1.58,1.58,1.25,-3.20,-3.21,-3.21
332,-4.79,-1.60,-4.81,-1.62,1.62,1.31,-3.17,-3.19,-3.19
335,-4.79,-1.62,-4.83,-1.66,1.66,1.35,-3.13,-3.17,-3.17
338,-4.79,-1.64,-4.85,-1.70,1.70,1.40,-3.08,-3.15,-3.15
342,-4.79,-1.66,-4.89,-1.76,1.76,1.46,-3.03,-3.13,-3.13
345,-5.01,-1.91,-4.92,-1.81,1.81,1.51,-3.20,-3.11,-3.11
349,-5.01,-1.93,-4.95,-1.87,1.87,1.57,-3.15,-3.09,-3.09
352,-5.01,-1.95,-4.98,-1.92,1.92,1.62,-3.10,-3.06,-3.06
356,-5.01,-1.97,-5.00,-1.96,1.96,1.69,-3.06,-3.04,-3.04
359,-5.01,-2.00,-5.01,-1.99,1.99,1.74,-3.02,-3.02,-3.02
363,-5.01,-2.02,-5.01,-2.02,2.02,1.81,-2.99,-2.99,-2.99
366,-5.01,-2.05,-5.02,-2.05,2.05,1.86,-2.97,-2.97,-2.97
370,-5.01,-2.07,-5.02,-2.08,2.08,1.94,-2.94,-2.94,-2.94
374,-5.01,-2.10,-5.03,-2.11,2.11,2.01,-2.90,-2.92,-2.92
377,-5.01,-2.12,-5.05,-2.15,2.15,2.06,-2.86,-2.89,-2.89
381,-5.01,-2.15,-5.07,-2.21,2.21,2.14,-2.81,-2.87,-2.87
385,-5.01,-2.18,-5.11,-2.27,2.27,2.22,-2.75,-2.84,-2.84
389,-5.22,-2.41,-5.14,-2.33,2.33,2.29,-2.89,-2.81,-2.81
393,-5.24,-2.46,-5.18,-2.39,2.39,2.37,-2.85,-2.78,-2.78
397,-5.24,-2.49,-5.21,-2.45,2.45,2.45,-2.79,-2.75,-2.75
401,-5.24,-2.52,-5.23,-2.50,2.50,2.53,-2.74,-2.73,-2.73
405,-5.24,-2.55,-5.24,-2.55,2.55,2.60,-2.69,-2.70,-2.70
409,-5.24,-2.58,-5.25,-2.59,2.59,2.68,-2.66,-2.67,-2.67
413,-5.24,-2.61,-5.25,-2.62,2.62,2.76,-2.62,-2.63,-2.63
417,-5.24,-2.64,-5.25,-2.65,2.65,2.83,-2.59,-2.60,-2.60
421,-5.24,-2.67,-5.25,-2.68,2.68,2.90,-2.56,-2.57,-2.57
425,-5.24,-2.70,-5.25,-2.71,2.71,2.97,-2.53,-2.54,-2.54
430,-5.24,-2.74,-5.24,-2.74,2.74,3.06,-2.50,-2.50,-2.50
434,-5.24,-2.77,-5.24,-2.77,2.77,3.12,-2.47,-2.47,-2.47
438,-5.24,-2.81,-5.24,-2.81,2.81,3.19,-2.44,-2.44,-2.44
443,-5.24,-2.84,-5.24,-2.84,2.84,3.26,-2.40,-2.40,-2.40
447,-5.24,-2.88,-5.24,-2.88,2.88,3.31,-2.37,-2.37,-2.37
451,-5.24,-2.91,-5.24,-2.91,2.91,3.36,-2.33,-2.33,-2.33
456,-5.24,-2.95,-5.24,-2.95,2.95,3.42,-2.29,-2.29,-2.29
460,-5.24,-2.99,-5.24,-2.99,2.99,3.46,-2.25,-2.25,-2.25
465,-5.24,-3.03,-5.24,-3.03,3.03,3.50,-2.22,-2.22,-2.22
470,-5.24,-3.06,-5.24,-3.06,3.06,3.54,-2.18,-2.18,-2.18
474,-5.24,-3.10,-5.24,-3.10,3.10,3.56,-2.14,-2.14,-2.14
479,-5.24,-3.14,-5.24,-3.14,3.14,3.58,-2.10,-2.10,-2.10
484,-5.24,-3.18,-5.24,-3.19,3.19,3.60,-2.06,-2.06,-2.06
489,-5.24,-3.22,-5.25,-3.23,3.23,3.61,-2.01,-2.02,-2.02
494,-5.24,-3.27,-5.25,-3.27,3.27,3.61,-1.97,-1.98,-1.98
499,-5.24,-3.31,-5.25,-3.32,3.32,3.60,-1.92,-1.94,-1.94
504,-5.24,-3.35,-5.25,-3.36,3.36,3.59,-1.88,-1.89,-1.89
509,-5.24,-3.39,-5.25,-3.40,3.40,3.58,-1.84,-1.85,-1.85
514,-5.24,-3.43,-5.24,-3.43,3.43,3.56,-1.81,-1.81,-1.81
519,-5.24,-3.48,-5.22,-3.46,3.46,3.54,-1.78,-1.77,-1.77
524,-5.24,-3.52,-5.20,-3.48,3.48,3.51,-1.77,-1.72,-1.72
529,-5.24,-3.56,-5.16,-3.49,3.49,3.49,-1.76,-1.68,-1.68
535,-5.08,-3.45,-5.12,-3.49,3.49,3.46,-1.59,-1.64,-1.64
540,-5.01,-3.42,-5.08,-3.48,3.48,3.43,-1.53,-1.59,-1.59
545,-5.01,-3.47,-5.03,-3.48,3.48,3.40,-1.53,-1.55,-1.55
551,-5.01,-3.51,-4.98,-3.47,3.47,3.37,-1.54,-1.51,-1.51
556,-4.98,-3.52,-4.93,-3.47,3.47,3.35,-1.51,-1.46,-1.46
562,-4.79,-3.37,-4.89,-3.47,3.47,3.33,-1.32,-1.42,-1.42
568,-4.79,-3.41,-4.84,-3.46,3.46,3.31,-1.32,-1.38,-1.38
573,-4.79,-3.45,-4.79,-3.46,3.46,3.29,-1.33,-1.33,-1.33
579,-4.79,-3.50,-4.74,-3.45,3.45,3.28,-1.34,-1.29,-1.29
585,-4.78,-3.53,-4.68,-3.43,3.43,3.27,-1.35,-1.25,-1.25
591,-4.56,-3.35,-4.61,-3.40,3.40,3.26,-1.15,-1.20,-1.20
596,-4.56,-3.40,-4.53,-3.37,3.37,3.26,-1.19,-1.16,-1.16
602,-4.48,-3.36,-4.44,-3.32,3.32,3.26,-1.16,-1.12,-1.12
608,-4.33,-3.25,-4.35,-3.27,3.27,3.25,-1.06,-1.08,-1.08
615,-4.15,-3.11,-4.25,-3.21,3.21,3.23,-0.94,-1.04,-1.04
621,-4.10,-3.10,-4.15,-3.15,3.15,3.21,-0.95,-1.00,-1.00
627,-4.10,-3.14,-4.04,-3.08,3.08,3.18,-1.02,-0.96,-0.96
633,-4.07,-3.15,-3.93,-3.01,3.01,3.14,-1.06,-0.92,-0.92
639,-3.82,-2.94,-3.83,-2.94,2.94,3.08,-0.88,-0.88,-0.88
646,-3.65,-2.80,-3.72,-2.87,2.87,2.99,-0.78,-0.85,-0.85
652,-3.52,-2.71,-3.61,-2.80,2.80,2.90,-0.73,-0.81,-0.81
659,-3.42,-2.64,-3.49,-2.72,2.72,2.79,-0.70,-0.77,-0.77
665,-3.42,-2.68,-3.38,-2.64,2.64,2.68,-0.78,-0.74,-0.74
672,-3.41,-2.70,-3.26,-2.56,2.56,2.54,-0.85,-0.70,-0.70
679,-3.14,-2.47,-3.14,-2.47,2.47,2.41,-0.67,-0.67,-0.67
686,-2.96,-2.32,-3.01,-2.37,2.37,2.27,-0.59,-0.64,-0.64
692,-2.87,-2.26,-2.87,-2.26,2.26,2.15,-0.60,-0.61,-0.61
699,-2.74,-2.16,-2.73,-2.15,2.15,2.02,-0.58,-0.58,-0.58
706,-2.57,-2.02,-2.58,-2.03,2.03,1.89,-0.54,-0.55,-0.55
713,-2.51,-1.99,-2.43,-1.91,1.91,1.77,-0.60,-0.52,-0.52
721,-2.24,-1.75,-2.27,-1.78,1.78,1.64,-0.46,-0.50,-0.50
728,-2.05,-1.58,-2.12,-1.65,1.65,1.53,-0.40,-0.47,-0.47
735,-1.96,-1.52,-1.96,-1.51,1.51,1.42,-0.45,-0.45,-0.45
742,-1.82,-1.40,-1.80,-1.38,1.38,1.32,-0.44,-0.42,-0.42
750,-1.66,-1.26,-1.65,-1.25,1.25,1.22,-0.41,-0.40,-0.40
757,-1.60,-1.22,-1.50,-1.12,1.12,1.13,-0.47,-0.38,-0.38
765,-1.36,-1.01,-1.36,-1.00,1.00,1.03,-0.36,-0.36,-0.36
773,-1.14,-0.80,-1.23,-0.89,0.89,0.94,-0.25,-0.34,-0.34
780,-1.08,-0.76,-1.11,-0.79,0.79,0.86,-0.29,-0.32,-0.32
788,-0.91,-0.61,-1.00,-0.70,0.70,0.77,-0.22,-0.30,-0.30
796,-0.91,-0.62,-0.90,-0.61,0.61,0.69,-0.30,-0.29,-0.29
804,-0.91,-0.64,-0.82,-0.54,0.54,0.61,-0.37,-0.27,-0.27
812,-0.71,-0.45,-0.74,-0.48,0.48,0.54,-0.23,-0.26,-0.26
820,-0.68,-0.44,-0.66,-0.42,0.42,0.47,-0.27,-0.25,-0.25
828,-0.65,-0.42,-0.59,-0.36,0.36,0.40,-0.29,-0.23,-0.23
837,-0.46,-0.23,-0.52,-0.30,0.30,0.32,-0.15,-0.22,-0.22
845,-0.46,-0.25,-0.46,-0.25,0.25,0.26,-0.21,-0.21,-0.21
853,-0.46,-0.26,-0.39,-0.19,0.19,0.20,-0.27,-0.20,-0.20
862,-0.27,-0.08,-0.33,-0.14,0.14,0.14,-0.14,-0.19,-0.19
871,-0.23,-0.05,-0.26,-0.09,0.09,0.09,-0.14,-0.18,-0.18
879,-0.23,-0.06,-0.21,-0.04,0.04,0.04,-0.19,-0.17,-0.17
888,-0.23,-0.07,-0.15,0.00,-0.00,-0.00,-0.23,-0.16,-0.16
897,-0.14,0.01,-0.11,0.04,-0.04,-0.04,-0.18,-0.15,-0.15
906,0.00,0.14,-0.07,0.07,-0.07,-0.08,-0.07,-0.14,-0.14
915,0.00,0.13,-0.04,0.09,-0.09,-0.11,-0.09,-0.13,-0.13
924,-0.00,0.12,-0.01,0.10,-0.10,-0.13,-0.10,-0.12,-0.12
933,-0.00,0.11,0.00,0.11,-0.11,-0.14,-0.11,-0.11,-0.11
943,-0.00,0.09,0.01,0.10,-0.10,-0.15,-0.10,-0.09,-0.09
952,0.00,0.08,0.01,0.09,-0.09,-0.15,-0.09,-0.08,-0.08
962,-0.00,0.07,0.01,0.08,-0.08,-0.15,-0.08,-0.07,-0.07
971,0.00,0.05,0.01,0.06,-0.06,-0.13,-0.06,-0.05,-0.05
981,-0.00,0.04,0.01,0.05,-0.05,-0.11,-0.05,-0.04,-0.04
991,-0.00,0.02,0.01,0.03,-0.03,-0.08,-0.03,-0.02,-0.02
1001,0.00,0.00,0.01,0.01,-0.01,-0.05,-0.01,-0.00,-0.00
1011,-0.00,-0.01,0.01,-0.00,0.00,-0.01,0.00,0.01,0.01
1021,-0.00,-0.04,0.01,-0.02,0.02,0.04,0.02,0.04,0.04
1031,-0.00,-0.06,0.01,-0.05,0.05,0.09,0.05,0.06,0.06
1041,-0.00,-0.08,-0.00,-0.09,0.09,0.14,0.09,0.08,0.08
1052,0.00,-0.11,-0.02,-0.14,0.14,0.21,0.14,0.11,0.11
1062,-0.00,-0.14,-0.06,-0.20,0.20,0.27,0.20,0.14,0.14
1073,-0.02,-0.19,-0.10,-0.28,0.28,0.34,0.26,0.17,0.17
1084,-0.23,-0.44,-0.16,-0.37,0.37,0.41,0.14,0.21,0.21
1094,-0.23,-0.47,-0.22,-0.47,0.47,0.48,0.24,0.25,0.25
1105,-0.23,-0.51,-0.28,-0.57,0.57,0.56,0.34,0.29,0.29
1116,-0.37,-0.70,-0.34,-0.67,0.67,0.63,0.29,0.33,0.33
1128,-0.46,-0.83,-0.39,-0.76,0.76,0.72,0.31,0.38,0.38
1139,-0.46,-0.88,-0.42,-0.85,0.85,0.80,0.39,0.43,0.43
1150,-0.46,-0.94,-0.45,-0.93,0.93,0.88,0.47,0.48,0.48
1162,-0.46,-0.99,-0.46,-1.00,1.00,0.97,0.55,0.54,0.54
1173,-0.46,-1.06,-0.47,-1.07,1.07,1.04,0.61,0.60,0.60
1185,-0.46,-1.12,-0.47,-1.14,1.14,1.13,0.68,0.67,0.67
1197,-0.46,-1.19,-0.47,-1.20,1.20,1.22,0.75,0.74,0.74
1209,-0.46,-1.27,-0.46,-1.27,1.27,1.31,0.82,0.81,0.81
1221,-0.46,-1.34,-0.46,-1.35,1.35,1.39,0.89,0.89,0.89
1233,-0.46,-1.42,-0.45,-1.42,1.42,1.48,0.97,0.97,0.97
1246,-0.46,-1.51,-0.45,-1.50,1.50,1.58,1.05,1.05,1.05
1258,-0.46,-1.60,-0.45,-1.59,1.59,1.67,1.13,1.14,1.14
1271,-0.46,-1.69,-0.44,-1.68,1.68,1.76,1.22,1.23,1.23
1283,-0.46,-1.78,-0.44,-1.77,1.77,1.85,1.32,1.33,1.33
1296,-0.46,-1.88,-0.45,-1.88,1.88,1.95,1.42,1.43,1.43
1309,-0.46,-1.98,-0.46,-1.99,1.99,2.05,1.53,1.53,1.53
1322,-0.46,-2.08,-0.48,-2.11,2.11,2.15,1.65,1.63,1.63
1335,-0.46,-2.19,-0.51,-2.24,2.24,2.25,1.78,1.73,1.73
1349,-0.46,-2.29,-0.54,-2.37,2.37,2.36,1.92,1.83,1.83
1362,-0.60,-2.54,-0.57,-2.51,2.51,2.47,1.91,1.94,1.94
1376,-0.68,-2.72,-0.61,-2.65,2.65,2.58,1.96,2.04,2.04
1390,-0.68,-2.83,-0.63,-2.78,2.78,2.70,2.09,2.14,2.14
1404,-0.68,-2.93,-0.66,-2.90,2.90,2.81,2.21,2.24,2.24
1418,-0.68,-3.03,-0.67,-3.01,3.01,2.93,2.33,2.34,2.34
1432,-0.68,-3.12,-0.68,-3.12,3.12,3.05,2.44,2.44,2.44
1446,-0.68,-3.22,-0.69,-3.22,3.22,3.17,2.54,2.53,2.53
1461,-0.68,-3.31,-0.71,-3.33,3.33,3.29,2.65,2.62,2.62
1475,-0.68,-3.39,-0.73,-3.44,3.44,3.41,2.75,2.71,2.71
1490,-0.68,-3.48,-0.76,-3.55,3.55,3.53,2.86,2.79,2.79
1505,-0.72,-3.60,-0.79,-3.66,3.66,3.65,2.93,2.87,2.87
1520,-0.91,-3.86,-0.82,-3.77,3.77,3.76,2.86,2.95,2.95
1535,-0.91,-3.93,-0.85,-3.87,3.87,3.87,2.96,3.02,3.02
1550,-0.91,-4.00,-0.88,-3.97,3.97,3.97,3.06,3.09,3.09
1566,-0.91,-4.06,-0.90,-4.05,4.05,4.07,3.14,3.15,3.15
1582,-0.91,-4.12,-0.92,-4.13,4.13,4.16,3.22,3.21,3.21
