frequency,raw,error,smoothed,error_smoothed,equalization,parametric_eq,fixed_band_eq,equalized_raw,equalized_smoothed,target
20.00,-7.86,-9.98,-7.87,-10.02,6.00,5.82,2.73,-1.86,-1.87,2.12
20.20,-7.79,-9.95,-7.80,-9.97,6.00,5.85,2.81,-1.79,-1.80,2.16
20.40,-7.72,-9.92,-7.72,-9.92,6.00,5.88,2.89,-1.72,-1.72,2.20
20.61,-7.64,-9.87,-7.64,-9.87,6.00,5.90,2.98,-1.64,-1.64,2.23
20.81,-7.57,-9.84,-7.56,-9.82,6.00,5.93,3.06,-1.57,-1.56,2.27
21.02,-7.49,-9.80,-7.48,-9.77,6.00,5.95,3.15,-1.49,-1.48,2.31
21.23,-7.41,-9.74,-7.40,-9.71,6.00,5.97,3.24,-1.41,-1.40,2.33
21.44,-7.33,-9.68,-7.32,-9.65,6.00,6.00,3.33,-1.33,-1.32,2.35
21.66,-7.24,-9.61,-7.23,-9.58,6.00,6.02,3.43,-1.24,-1.23,2.37
21.87,-7.16,-9.54,-7.15,-9.52,6.00,6.03,3.53,-1.16,-1.15,2.38
22.09,-7.07,-9.47,-7.06,-9.45,6.00,6.05,3.63,-1.07,-1.06,2.40
22.31,-6.98,-9.39,-6.97,-9.38,6.00,6.07,3.73,-0.98,-0.97,2.41
22.54,-6.88,-9.30,-6.88,-9.30,6.00,6.08,3.84,-0.88,-0.88,2.42
22.76,-6.77,-9.20,-6.79,-9.21,6.00,6.10,3.95,-0.77,-0.79,2.43
22.99,-6.68,-9.11,-6.69,-9.13,6.00,6.11,4.06,-0.68,-0.69,2.43
23.22,-6.60,-9.04,-6.60,-9.04,6.00,6.12,4.18,-0.60,-0.60,2.44
23.45,-6.50,-8.94,-6.50,-8.96,6.00,6.13,4.29,-0.50,-0.50,2.45
23.69,-6.40,-8.86,-6.41,-8.87,6.00,6.14,4.41,-0.40,-0.41,2.45
23.92,-6.32,-8.78,-6.31,-8.79,6.00,6.15,4.54,-0.32,-0.31,2.46
24.16,-6.22,-8.70,-6.22,-8.70,6.00,6.16,4.66,-0.22,-0.22,2.48
24.40,-6.13,-8.63,-6.12,-8.62,6.00,6.16,4.79,-0.13,-0.12,2.50
24.65,-6.03,-8.53,-6.03,-8.53,6.00,6.17,4.92,-0.03,-0.03,2.50
24.89,-5.94,-8.45,-5.94,-8.45,6.00,6.17,5.05,0.06,0.06,2.51
25.14,-5.84,-8.36,-5.84,-8.36,6.00,6.17,5.18,0.16,0.16,2.52
25.39,-5.74,-8.27,-5.75,-8.28,6.00,6.17,5.31,0.26,0.25,2.53
25.65,-5.66,-8.21,-5.65,-8.20,6.00,6.17,5.44,0.34,0.35,2.55
25.91,-5.56,-8.11,-5.56,-8.11,6.00,6.17,5.58,0.44,0.44,2.55
26.16,-5.47,-8.03,-5.47,-8.03,6.00,6.16,5.71,0.53,0.53,2.56
26.43,-5.37,-7.94,-5.37,-7.95,6.00,6.16,5.84,0.63,0.63,2.57
26.69,-5.28,-7.86,-5.28,-7.87,6.00,6.15,5.97,0.72,0.72,2.58
26.96,-5.19,-7.79,-5.19,-7.78,6.00,6.14,6.10,0.81,0.81,2.60
27.23,-5.09,-7.70,-5.10,-7.70,6.00,6.13,6.23,0.91,0.90,2.61
27.50,-5.01,-7.63,-5.01,-7.62,6.00,6.12,6.35,0.99,0.99,2.62
27.77,-4.92,-7.53,-4.92,-7.54,6.00,6.11,6.47,1.08,1.08,2.62
28.05,-4.82,-7.45,-4.83,-7.46,6.00,6.09,6.59,1.18,1.17,2.64
28.33,-4.73,-7.36,-4.74,-7.37,6.00,6.08,6.69,1.27,1.26,2.63
28.62,-4.65,-7.29,-4.64,-7.29,6.00,6.06,6.79,1.35,1.36,2.64
28.90,-4.56,-7.21,-4.55,-7.21,6.00,6.04,6.89,1.44,1.45,2.65
29.19,-4.46,-7.11,-4.46,-7.12,6.00,6.02,6.97,1.54,1.54,2.65
29.48,-4.37,-7.05,-4.37,-7.04,6.00,6.00,7.05,1.63,1.63,2.68
29.78,-4.28,-6.96,-4.27,-6.95,6.00,5.98,7.12,1.72,1.73,2.68
30.08,-4.18,-6.87,-4.18,-6.86,6.00,5.96,7.17,1.82,1.82,2.69
30.38,-4.08,-6.77,-4.08,-6.77,6.00,5.94,7.21,1.92,1.92,2.69
30.68,-3.99,-6.70,-3.99,-6.69,6.00,5.91,7.25,2.01,2.01,2.71
30.99,-3.89,-6.60,-3.89,-6.60,6.00,5.88,7.27,2.11,2.11,2.71
31.30,-3.79,-6.51,-3.79,-6.51,6.00,5.86,7.27,2.21,2.21,2.71
31.61,-3.70,-6.42,-3.70,-6.42,6.00,5.83,7.27,2.30,2.30,2.72
31.93,-3.61,-6.34,-3.60,-6.33,6.00,5.80,7.25,2.39,2.40,2.73
32.24,-3.51,-6.24,-3.51,-6.25,6.00,5.77,7.22,2.49,2.49,2.73
32.57,-3.41,-6.16,-3.41,-6.16,5.99,5.73,7.18,2.58,2.58,2.75
32.89,-3.32,-6.08,-3.32,-6.08,5.97,5.70,7.13,2.65,2.64,2.76
33.22,-3.22,-5.99,-3.24,-6.00,5.93,5.67,7.07,2.71,2.69,2.77
33.55,-3.14,-5.91,-3.15,-5.93,5.88,5.63,7.00,2.74,2.73,2.77
33.89,-3.06,-5.84,-3.07,-5.85,5.83,5.59,6.92,2.77,2.76,2.78
34.23,-2.99,-5.78,-2.99,-5.78,5.77,5.56,6.83,2.78,2.78,2.79
34.57,-2.91,-5.71,-2.92,-5.71,5.71,5.52,6.74,2.80,2.79,2.80
34.92,-2.84,-5.64,-2.84,-5.65,5.65,5.48,6.63,2.80,2.80,2.80
35.27,-2.78,-5.59,-2.77,-5.58,5.58,5.44,6.53,2.80,2.81,2.81
35.62,-2.71,-5.52,-2.71,-5.52,5.52,5.40,6.42,2.81,2.81,2.81
35.97,-2.65,-5.46,-2.64,-5.46,5.46,5.36,6.30,2.81,2.82,2.81
36.33,-2.58,-5.40,-2.58,-5.40,5.40,5.32,6.19,2.82,2.82,2.82
36.70,-2.52,-5.34,-2.52,-5.34,5.34,5.27,6.07,2.82,2.82,2.82
37.06,-2.45,-5.27,-2.46,-5.28,5.28,5.23,5.95,2.83,2.82,2.82
37.43,-2.40,-5.23,-2.40,-5.22,5.22,5.18,5.83,2.83,2.82,2.83
37.81,-2.35,-5.18,-2.34,-5.16,5.16,5.14,5.71,2.81,2.82,2.83
38.19,-2.29,-5.12,-2.28,-5.11,5.11,5.09,5.59,2.82,2.82,2.83
38.57,-2.22,-5.04,-2.22,-5.05,5.05,5.04,5.47,2.83,2.82,2.82
38.95,-2.16,-4.98,-2.16,-4.99,4.99,5.00,5.35,2.83,2.82,2.82
39.34,-2.11,-4.93,-2.11,-4.93,4.93,4.95,5.23,2.82,2.82,2.82
39.74,-2.06,-4.88,-2.05,-4.87,4.87,4.90,5.12,2.81,2.82,2.82
40.14,-2.00,-4.82,-1.99,-4.81,4.81,4.85,5.01,2.81,2.82,2.82
40.54,-1.93,-4.75,-1.93,-4.75,4.75,4.80,4.90,2.82,2.82,2.82
40.94,-1.86,-4.67,-1.87,-4.69,4.69,4.75,4.79,2.83,2.82,2.82
41.35,-1.80,-4.61,-1.81,-4.63,4.63,4.70,4.68,2.83,2.82,2.81
41.76,-1.75,-4.57,-1.75,-4.57,4.57,4.65,4.58,2.82,2.82,2.82
42.18,-1.70,-4.52,-1.69,-4.51,4.51,4.60,4.48,2.81,2.82,2.82
42.60,-1.63,-4.45,-1.63,-4.45,4.45,4.54,4.38,2.82,2.82,2.82
43.03,-1.57,-4.40,-1.57,-4.39,4.39,4.49,4.29,2.82,2.81,2.83
43.46,-1.51,-4.33,-1.51,-4.33,4.33,4.44,4.20,2.82,2.81,2.82
43.90,-1.46,-4.27,-1.45,-4.27,4.27,4.39,4.11,2.81,2.81,2.81
44.33,-1.40,-4.21,-1.39,-4.21,4.21,4.33,4.03,2.81,2.81,2.81
44.78,-1.34,-4.15,-1.33,-4.15,4.15,4.28,3.95,2.81,2.81,2.81
45.23,-1.27,-4.07,-1.27,-4.08,4.08,4.22,3.87,2.81,2.81,2.80
45.68,-1.20,-4.01,-1.21,-4.02,4.02,4.17,3.79,2.82,2.81,2.81
46.13,-1.14,-3.94,-1.15,-3.96,3.96,4.11,3.72,2.82,2.81,2.80
46.60,-1.09,-3.91,-1.08,-3.89,3.89,4.06,3.65,2.80,2.81,2.82
47.06,-1.03,-3.84,-1.02,-3.83,3.83,4.00,3.59,2.80,2.80,2.81
47.53,-0.97,-3.77,-0.96,-3.76,3.76,3.95,3.52,2.79,2.80,2.80
48.01,-0.90,-3.72,-0.90,-3.70,3.70,3.89,3.46,2.80,2.80,2.82
48.49,-0.84,-3.64,-0.84,-3.63,3.63,3.84,3.40,2.79,2.79,2.80
48.97,-0.78,-3.56,-0.78,-3.57,3.57,3.78,3.35,2.79,2.79,2.78
49.46,-0.72,-3.50,-0.73,-3.50,3.50,3.72,3.29,2.78,2.78,2.78
49.96,-0.66,-3.42,-0.67,-3.44,3.44,3.67,3.24,2.78,2.77,2.76
50.46,-0.61,-3.37,-0.62,-3.38,3.38,3.61,3.19,2.77,2.76,2.76
50.96,-0.56,-3.31,-0.56,-3.31,3.31,3.55,3.14,2.75,2.75,2.75
51.47,-0.51,-3.24,-0.51,-3.25,3.25,3.50,3.10,2.74,2.74,2.73
51.99,-0.47,-3.19,-0.46,-3.18,3.18,3.44,3.05,2.71,2.72,2.72
52.51,-0.42,-3.14,-0.41,-3.12,3.12,3.38,3.01,2.70,2.71,2.72
53.03,-0.36,-3.06,-0.36,-3.06,3.06,3.32,2.97,2.70,2.70,2.70
53.56,-0.31,-3.00,-0.31,-3.00,3.00,3.27,2.93,2.69,2.68,2.69
54.10,-0.27,-2.94,-0.27,-2.94,2.94,3.21,2.89,2.67,2.67,2.67
54.64,-0.23,-2.89,-0.23,-2.88,2.88,3.15,2.85,2.65,2.66,2.66
55.18,-0.19,-2.83,-0.19,-2.83,2.83,3.10,2.82,2.64,2.64,2.64
55.74,-0.15,-2.77,-0.15,-2.78,2.78,3.04,2.78,2.63,2.63,2.62
56.29,-0.11,-2.73,-0.12,-2.74,2.74,2.98,2.74,2.63,2.61,2.62
56.86,-0.08,-2.68,-0.09,-2.69,2.69,2.92,2.71,2.61,2.60,2.60
57.42,-0.06,-2.63,-0.07,-2.65,2.65,2.87,2.67,2.59,2.58,2.57
58.00,-0.04,-2.60,-0.05,-2.62,2.62,2.81,2.63,2.58,2.57,2.56
58.58,-0.03,-2.58,-0.04,-2.58,2.58,2.75,2.60,2.55,2.55,2.55
59.16,-0.01,-2.55,-0.02,-2.55,2.55,2.70,2.56,2.54,2.53,2.54
59.76,-0.00,-2.52,-0.01,-2.52,2.52,2.64,2.52,2.52,2.51,2.52
60.35,0.00,-2.50,-0.00,-2.49,2.49,2.58,2.48,2.49,2.48,2.50
60.96,0.01,-2.46,0.01,-2.45,2.45,2.52,2.44,2.46,2.46,2.47
61.57,0.01,-2.43,0.01,-2.42,2.42,2.47,2.40,2.43,2.44,2.44
62.18,0.01,-2.39,0.02,-2.39,2.39,2.41,2.35,2.40,2.41,2.40
62.80,0.01,-2.38,0.03,-2.35,2.35,2.35,2.31,2.36,2.39,2.39
63.43,0.03,-2.32,0.05,-2.31,2.31,2.30,2.27,2.34,2.36,2.35
64.07,0.06,-2.26,0.06,-2.27,2.27,2.24,2.22,2.33,2.33,2.32
64.71,0.08,-2.22,0.08,-2.22,2.22,2.18,2.17,2.30,2.30,2.30
65.35,0.10,-2.17,0.11,-2.17,2.17,2.13,2.12,2.27,2.27,2.27
66.01,0.13,-2.11,0.13,-2.11,2.11,2.07,2.07,2.24,2.24,2.24
66.67,0.15,-2.07,0.16,-2.05,2.05,2.01,2.02,2.20,2.21,2.22
67.33,0.19,-2.00,0.19,-1.99,1.99,1.96,1.97,2.18,2.18,2.19
68.01,0.23,-1.93,0.23,-1.93,1.93,1.90,1.91,2.16,2.16,2.16
68.69,0.27,-1.86,0.26,-1.87,1.87,1.85,1.86,2.14,2.13,2.13
69.37,0.31,-1.79,0.30,-1.80,1.80,1.79,1.80,2.11,2.10,2.10
70.07,0.34,-1.73,0.34,-1.74,1.74,1.73,1.74,2.08,2.07,2.07
70.77,0.38,-1.66,0.37,-1.67,1.67,1.68,1.69,2.05,2.04,2.04
71.48,0.42,-1.60,0.41,-1.60,1.60,1.62,1.63,2.02,2.02,2.02
72.19,0.46,-1.53,0.46,-1.54,1.54,1.57,1.57,2.00,1.99,1.99
72.91,0.50,-1.46,0.50,-1.47,1.47,1.51,1.51,1.97,1.97,1.96
73.64,0.54,-1.40,0.55,-1.40,1.40,1.46,1.45,1.94,1.94,1.94
74.38,0.58,-1.34,0.59,-1.33,1.33,1.40,1.39,1.91,1.92,1.92
75.12,0.62,-1.28,0.64,-1.26,1.26,1.35,1.33,1.88,1.90,1.90
75.87,0.67,-1.21,0.69,-1.19,1.19,1.29,1.27,1.86,1.88,1.88
76.63,0.73,-1.13,0.74,-1.12,1.12,1.24,1.21,1.85,1.86,1.86
77.40,0.79,-1.06,0.79,-1.05,1.05,1.19,1.15,1.84,1.85,1.85
78.17,0.85,-0.98,0.84,-0.99,0.99,1.13,1.09,1.84,1.83,1.83
78.95,0.91,-0.91,0.89,-0.92,0.92,1.08,1.03,1.83,1.82,1.82
79.74,0.96,-0.85,0.94,-0.86,0.86,1.02,0.97,1.82,1.81,1.81
80.54,1.01,-0.79,0.99,-0.80,0.80,0.97,0.91,1.81,1.80,1.80
81.35,1.05,-0.74,1.04,-0.75,0.75,0.92,0.85,1.80,1.79,1.79
82.16,1.09,-0.69,1.09,-0.69,0.69,0.86,0.79,1.78,1.78,1.78
82.98,1.13,-0.65,1.13,-0.64,0.64,0.81,0.73,1.77,1.77,1.78
83.81,1.17,-0.59,1.17,-0.59,0.59,0.76,0.67,1.76,1.77,1.76
84.65,1.21,-0.54,1.21,-0.55,0.55,0.70,0.62,1.76,1.76,1.75
85.50,1.24,-0.52,1.24,-0.51,0.51,0.65,0.56,1.75,1.76,1.76
86.35,1.27,-0.48,1.28,-0.48,0.48,0.60,0.50,1.75,1.75,1.75
87.22,1.30,-0.45,1.31,-0.44,0.44,0.55,0.44,1.74,1.75,1.75
88.09,1.34,-0.40,1.34,-0.41,0.41,0.49,0.39,1.75,1.75,1.74
88.97,1.38,-0.37,1.37,-0.38,0.38,0.44,0.33,1.76,1.75,1.75
89.86,1.42,-0.33,1.40,-0.35,0.35,0.39,0.27,1.77,1.74,1.75
90.76,1.44,-0.30,1.43,-0.31,0.31,0.34,0.22,1.75,1.74,1.74
91.66,1.46,-0.28,1.46,-0.28,0.28,0.29,0.16,1.74,1.74,1.74
92.58,1.48,-0.25,1.49,-0.25,0.25,0.24,0.10,1.73,1.74,1.73
93.51,1.50,-0.25,1.53,-0.21,0.21,0.19,0.05,1.71,1.74,1.75
94.44,1.54,-0.20,1.56,-0.17,0.17,0.13,-0.01,1.71,1.73,1.74
95.39,1.58,-0.16,1.59,-0.13,0.13,0.08,-0.07,1.71,1.73,1.74
96.34,1.62,-0.10,1.63,-0.10,0.10,0.03,-0.12,1.72,1.72,1.72
97.30,1.66,-0.05,1.66,-0.06,0.06,-0.02,-0.18,1.72,1.72,1.71
98.28,1.70,-0.00,1.69,-0.02,0.02,-0.07,-0.23,1.72,1.71,1.70
99.26,1.74,0.04,1.72,0.02,-0.02,-0.12,-0.29,1.72,1.70,1.70
100.25,1.77,0.08,1.75,0.06,-0.06,-0.17,-0.34,1.71,1.69,1.69
101.25,1.80,0.12,1.78,0.11,-0.11,-0.22,-0.39,1.69,1.68,1.68
102.27,1.82,0.16,1.81,0.15,-0.15,-0.26,-0.45,1.67,1.66,1.66
103.29,1.84,0.20,1.84,0.20,-0.20,-0.31,-0.50,1.64,1.64,1.64
104.32,1.86,0.23,1.86,0.24,-0.24,-0.36,-0.55,1.62,1.62,1.63
105.37,1.88,0.27,1.89,0.28,-0.28,-0.41,-0.61,1.60,1.60,1.61
106.42,1.90,0.32,1.91,0.33,-0.33,-0.46,-0.66,1.57,1.58,1.58
107.48,1.92,0.36,1.93,0.38,-0.38,-0.51,-0.71,1.54,1.55,1.56
108.56,1.95,0.43,1.95,0.43,-0.43,-0.56,-0.76,1.52,1.52,1.52
109.64,1.97,0.48,1.97,0.48,-0.48,-0.60,-0.81,1.49,1.49,1.49
110.74,2.00,0.54,1.99,0.54,-0.54,-0.65,-0.86,1.46,1.45,1.46
111.85,2.02,0.60,2.02,0.60,-0.60,-0.70,-0.90,1.42,1.42,1.42
112.97,2.03,0.65,2.04,0.66,-0.66,-0.74,-0.95,1.37,1.38,1.38
114.10,2.06,0.71,2.07,0.73,-0.73,-0.79,-0.99,1.33,1.34,1.35
115.24,2.08,0.78,2.10,0.80,-0.80,-0.84,-1.04,1.28,1.30,1.30
116.39,2.11,0.86,2.12,0.87,-0.87,-0.88,-1.08,1.24,1.26,1.25
117.55,2.15,0.94,2.15,0.93,-0.93,-0.93,-1.12,1.22,1.22,1.21
118.73,2.18,1.01,2.18,1.00,-1.00,-0.97,-1.16,1.18,1.18,1.17
119.92,2.20,1.06,2.20,1.06,-1.06,-1.02,-1.20,1.14,1.14,1.14
121.12,2.23,1.14,2.22,1.12,-1.12,-1.07,-1.23,1.11,1.10,1.09
122.33,2.25,1.19,2.24,1.18,-1.18,-1.11,-1.26,1.07,1.06,1.06
123.55,2.27,1.24,2.25,1.23,-1.23,-1.15,-1.30,1.04,1.02,1.03
124.79,2.28,1.29,2.26,1.27,-1.27,-1.20,-1.32,1.01,0.99,0.99
126.03,2.29,1.33,2.27,1.32,-1.32,-1.24,-1.35,0.97,0.96,0.96
127.29,2.29,1.36,2.28,1.36,-1.36,-1.28,-1.38,0.93,0.92,0.93
128.57,2.29,1.41,2.28,1.39,-1.39,-1.33,-1.40,0.90,0.89,0.88
129.85,2.28,1.42,2.29,1.42,-1.42,-1.37,-1.43,0.86,0.86,0.86
131.15,2.27,1.45,2.28,1.45,-1.45,-1.41,-1.45,0.82,0.83,0.82
132.46,2.27,1.47,2.28,1.48,-1.48,-1.45,-1.47,0.79,0.80,0.80
133.79,2.27,1.49,2.28,1.51,-1.51,-1.50,-1.48,0.76,0.77,0.78
135.12,2.27,1.52,2.28,1.53,-1.53,-1.54,-1.50,0.74,0.75,0.75
136.48,2.27,1.54,2.27,1.55,-1.55,-1.58,-1.52,0.72,0.72,0.73
137.84,2.27,1.57,2.27,1.57,-1.57,-1.62,-1.53,0.70,0.70,0.70
139.22,2.27,1.60,2.27,1.59,-1.59,-1.66,-1.55,0.68,0.68,0.67
140.61,2.27,1.63,2.27,1.62,-1.62,-1.70,-1.56,0.65,0.65,0.64
142.02,2.27,1.64,2.27,1.64,-1.64,-1.74,-1.57,0.63,0.63,0.63
143.44,2.27,1.66,2.27,1.66,-1.66,-1.77,-1.59,0.61,0.61,0.61
144.87,2.27,1.69,2.27,1.69,-1.69,-1.81,-1.60,0.58,0.58,0.58
146.32,2.27,1.71,2.27,1.71,-1.71,-1.85,-1.61,0.56,0.56,0.56
147.78,2.27,1.73,2.27,1.74,-1.74,-1.89,-1.62,0.53,0.53,0.54
149.26,2.27,1.75,2.27,1.77,-1.77,-1.92,-1.64,0.50,0.50,0.52
150.75,2.27,1.80,2.27,1.79,-1.79,-1.96,-1.65,0.48,0.48,0.47
152.26,2.27,1.82,2.27,1.82,-1.82,-2.00,-1.67,0.45,0.45,0.45
153.78,2.27,1.85,2.27,1.85,-1.85,-2.03,-1.68,0.42,0.42,0.42
155.32,2.27,1.89,2.27,1.88,-1.88,-2.07,-1.70,0.39,0.39,0.38
156.88,2.27,1.91,2.27,1.91,-1.91,-2.10,-1.71,0.36,0.36,0.36
158.44,2.27,1.94,2.27,1.95,-1.95,-2.13,-1.73,0.32,0.32,0.33
160.03,2.27,1.99,2.27,1.98,-1.98,-2.17,-1.75,0.29,0.29,0.28
161.63,2.27,2.03,2.27,2.02,-2.02,-2.20,-1.77,0.25,0.25,0.24
163.24,2.27,2.06,2.27,2.05,-2.05,-2.23,-1.79,0.22,0.22,0.21
164.88,2.27,2.09,2.27,2.09,-2.09,-2.26,-1.81,0.18,0.18,0.18
166.53,2.27,2.13,2.27,2.13,-2.13,-2.29,-1.84,0.14,0.14,0.14
168.19,2.27,2.16,2.27,2.17,-2.17,-2.32,-1.86,0.10,0.10,0.11
169.87,2.27,2.20,2.27,2.21,-2.21,-2.35,-1.89,0.06,0.06,0.07
171.57,2.27,2.24,2.27,2.25,-2.25,-2.38,-1.92,0.02,0.02,0.03
173.29,2.27,2.29,2.27,2.29,-2.29,-2.41,-1.95,-0.02,-0.02,-0.02
175.02,2.27,2.32,2.27,2.34,-2.34,-2.44,-1.98,-0.07,-0.07,-0.05
176.77,2.27,2.38,2.27,2.38,-2.38,-2.46,-2.01,-0.11,-0.11,-0.11
178.54,2.27,2.43,2.27,2.42,-2.42,-2.49,-2.04,-0.15,-0.16,-0.16
180.32,2.27,2.47,2.27,2.47,-2.47,-2.51,-2.08,-0.20,-0.20,-0.20
182.13,2.27,2.52,2.27,2.52,-2.52,-2.54,-2.12,-0.25,-0.25,-0.25
183.95,2.27,2.57,2.27,2.57,-2.57,-2.56,-2.16,-0.30,-0.30,-0.30
185.79,2.27,2.61,2.27,2.62,-2.62,-2.58,-2.20,-0.35,-0.35,-0.34
187.65,2.27,2.68,2.27,2.67,-2.67,-2.61,-2.24,-0.40,-0.40,-0.41
189.52,2.27,2.72,2.27,2.72,-2.72,-2.63,-2.29,-0.45,-0.44,-0.45
191.42,2.27,2.76,2.28,2.77,-2.77,-2.65,-2.33,-0.50,-0.49,-0.49
193.33,2.27,2.80,2.28,2.82,-2.82,-2.67,-2.38,-0.55,-0.54,-0.53
195.27,2.27,2.85,2.28,2.87,-2.87,-2.69,-2.43,-0.60,-0.58,-0.58
197.22,2.27,2.90,2.28,2.91,-2.91,-2.71,-2.47,-0.64,-0.63,-0.63
199.19,2.28,2.96,2.29,2.96,-2.96,-2.73,-2.52,-0.68,-0.67,-0.68
201.18,2.28,3.00,2.29,3.00,-3.00,-2.74,-2.58,-0.72,-0.71,-0.72
203.19,2.29,3.04,2.28,3.04,-3.04,-2.76,-2.63,-0.75,-0.76,-0.75
205.23,2.29,3.09,2.28,3.07,-3.07,-2.78,-2.68,-0.78,-0.79,-0.80
207.28,2.29,3.11,2.27,3.10,-3.10,-2.79,-2.73,-0.81,-0.83,-0.82
209.35,2.28,3.15,2.26,3.13,-3.13,-2.80,-2.78,-0.85,-0.87,-0.87
211.44,2.26,3.18,2.24,3.15,-3.15,-2.82,-2.83,-0.89,-0.91,-0.92
213.56,2.24,3.19,2.22,3.17,-3.17,-2.83,-2.89,-0.93,-0.94,-0.95
215.69,2.21,3.17,2.20,3.18,-3.18,-2.84,-2.94,-0.97,-0.97,-0.96
217.85,2.18,3.18,2.18,3.18,-3.18,-2.85,-2.98,-1.00,-1.00,-1.00
220.03,2.15,3.19,2.15,3.18,-3.18,-2.86,-3.03,-1.03,-1.03,-1.04
222.23,2.12,3.19,2.12,3.18,-3.18,-2.87,-3.08,-1.06,-1.06,-1.07
224.45,2.09,3.17,2.09,3.17,-3.17,-2.88,-3.12,-1.08,-1.08,-1.08
226.70,2.06,3.16,2.06,3.16,-3.16,-2.89,-3.17,-1.10,-1.10,-1.10
228.96,2.03,3.16,2.03,3.16,-3.16,-2.89,-3.20,-1.13,-1.12,-1.13
231.25,2.00,3.13,2.01,3.15,-3.15,-2.90,-3.24,-1.15,-1.14,-1.13
233.57,1.98,3.13,1.99,3.14,-3.14,-2.91,-3.27,-1.16,-1.15,-1.15
235.90,1.96,3.13,1.98,3.14,-3.14,-2.91,-3.30,-1.18,-1.16,-1.17
238.26,1.94,3.11,1.97,3.14,-3.14,-2.91,-3.33,-1.20,-1.17,-1.17
240.64,1.93,3.11,1.96,3.13,-3.13,-2.92,-3.35,-1.20,-1.17,-1.18
243.05,1.93,3.10,1.95,3.13,-3.13,-2.92,-3.37,-1.20,-1.18,-1.17
245.48,1.94,3.12,1.95,3.13,-3.13,-2.92,-3.38,-1.19,-1.18,-1.18
247.93,1.95,3.12,1.95,3.12,-3.12,-2.92,-3.39,-1.17,-1.17,-1.17
250.41,1.96,3.14,1.94,3.11,-3.11,-2.92,-3.39,-1.15,-1.17,-1.18
252.92,1.97,3.13,1.93,3.10,-3.10,-2.92,-3.39,-1.13,-1.16,-1.16
255.45,1.95,3.10,1.93,3.08,-3.08,-2.92,-3.38,-1.13,-1.15,-1.15
258.00,1.94,3.08,1.91,3.06,-3.06,-2.92,-3.37,-1.12,-1.14,-1.14
260.58,1.92,3.05,1.90,3.03,-3.03,-2.91,-3.36,-1.11,-1.13,-1.14
263.19,1.89,3.01,1.88,3.00,-3.00,-2.91,-3.34,-1.11,-1.12,-1.12
265.82,1.87,2.98,1.86,2.96,-2.96,-2.91,-3.32,-1.09,-1.11,-1.11
268.48,1.84,2.93,1.83,2.92,-2.92,-2.90,-3.29,-1.08,-1.09,-1.09
271.16,1.80,2.87,1.81,2.88,-2.88,-2.90,-3.26,-1.08,-1.08,-1.07
273.87,1.77,2.83,1.77,2.84,-2.84,-2.89,-3.23,-1.07,-1.06,-1.06
276.61,1.74,2.78,1.74,2.79,-2.79,-2.88,-3.19,-1.05,-1.05,-1.04
279.38,1.71,2.74,1.72,2.74,-2.74,-2.87,-3.15,-1.03,-1.03,-1.03
282.17,1.68,2.69,1.69,2.70,-2.70,-2.87,-3.11,-1.02,-1.02,-1.01
284.99,1.66,2.66,1.67,2.67,-2.67,-2.86,-3.07,-1.01,-1.00,-1.00
287.84,1.64,2.63,1.65,2.63,-2.63,-2.85,-3.02,-0.99,-0.98,-0.99
290.72,1.62,2.59,1.64,2.61,-2.61,-2.84,-2.97,-0.99,-0.97,-0.97
293.63,1.61,2.56,1.63,2.58,-2.58,-2.83,-2.93,-0.97,-0.95,-0.95
296.57,1.60,2.54,1.62,2.56,-2.56,-2.82,-2.88,-0.96,-0.94,-0.94
299.53,1.60,2.53,1.62,2.55,-2.55,-2.80,-2.83,-0.95,-0.92,-0.93
302.53,1.61,2.53,1.62,2.53,-2.53,-2.79,-2.78,-0.92,-0.91,-0.92
305.55,1.62,2.51,1.62,2.52,-2.52,-2.78,-2.74,-0.90,-0.90,-0.89
308.61,1.63,2.52,1.62,2.51,-2.51,-2.77,-2.69,-0.88,-0.89,-0.89
311.69,1.64,2.52,1.62,2.50,-2.50,-2.75,-2.64,-0.86,-0.87,-0.88
314.81,1.65,2.50,1.62,2.49,-2.49,-2.74,-2.59,-0.84,-0.86,-0.85
317.96,1.64,2.49,1.62,2.47,-2.47,-2.72,-2.55,-0.83,-0.85,-0.85
321.14,1.63,2.47,1.61,2.45,-2.45,-2.71,-2.50,-0.82,-0.84,-0.84
324.35,1.62,2.46,1.60,2.44,-2.44,-2.69,-2.46,-0.82,-0.84,-0.84
327.59,1.60,2.43,1.58,2.41,-2.41,-2.68,-2.42,-0.81,-0.83,-0.83
330.87,1.57,2.40,1.56,2.39,-2.39,-2.66,-2.38,-0.82,-0.83,-0.83
334.18,1.54,2.37,1.54,2.36,-2.36,-2.64,-2.34,-0.82,-0.82,-0.83
337.52,1.51,2.33,1.51,2.33,-2.33,-2.63,-2.30,-0.82,-0.82,-0.82
340.90,1.48,2.29,1.48,2.30,-2.30,-2.61,-2.26,-0.82,-0.82,-0.81
344.30,1.45,2.26,1.45,2.27,-2.27,-2.59,-2.23,-0.82,-0.82,-0.81
347.75,1.42,2.24,1.43,2.24,-2.24,-2.57,-2.19,-0.82,-0.82,-0.82
351.23,1.39,2.21,1.40,2.22,-2.22,-2.55,-2.16,-0.83,-0.82,-0.82
354.74,1.36,2.18,1.38,2.20,-2.20,-2.53,-2.13,-0.84,-0.82,-0.82
358.28,1.34,2.17,1.36,2.18,-2.18,-2.52,-2.10,-0.84,-0.82,-0.83
361.87,1.32,2.15,1.34,2.17,-2.17,-2.50,-2.08,-0.85,-0.83,-0.83
365.49,1.31,2.14,1.32,2.16,-2.16,-2.48,-2.05,-0.85,-0.83,-0.83
369.14,1.30,2.14,1.31,2.15,-2.15,-2.46,-2.03,-0.85,-0.84,-0.84
372.83,1.29,2.13,1.30,2.14,-2.14,-2.44,-2.01,-0.85,-0.85,-0.84
376.56,1.29,2.14,1.28,2.13,-2.13,-2.42,-1.99,-0.84,-0.85,-0.85
380.33,1.28,2.13,1.27,2.13,-2.13,-2.40,-1.97,-0.85,-0.86,-0.85
384.13,1.27,2.14,1.25,2.12,-2.12,-2.38,-1.95,-0.85,-0.87,-0.87
387.97,1.26,2.14,1.24,2.11,-2.11,-2.35,-1.93,-0.85,-0.87,-0.88
391.85,1.24,2.13,1.22,2.09,-2.09,-2.33,-1.92,-0.85,-0.88,-0.89
395.77,1.21,2.09,1.19,2.08,-2.08,-2.31,-1.91,-0.87,-0.89,-0.88
399.73,1.18,2.07,1.17,2.06,-2.06,-2.29,-1.90,-0.88,-0.89,-0.89
403.72,1.15,2.05,1.14,2.04,-2.04,-2.27,-1.89,-0.89,-0.90,-0.90
407.76,1.12,2.03,1.12,2.02,-2.02,-2.25,-1.88,-0.90,-0.90,-0.91
411.84,1.09,1.99,1.09,2.00,-2.00,-2.23,-1.87,-0.91,-0.91,-0.90
415.96,1.06,1.97,1.06,1.97,-1.97,-2.21,-1.86,-0.91,-0.91,-0.91
420.12,1.03,1.94,1.04,1.95,-1.95,-2.19,-1.85,-0.92,-0.91,-0.91
424.32,1.00,1.91,1.02,1.93,-1.93,-2.16,-1.85,-0.93,-0.92,-0.91
428.56,0.98,1.90,1.00,1.92,-1.92,-2.14,-1.84,-0.94,-0.92,-0.92
432.85,0.97,1.89,0.99,1.91,-1.91,-2.12,-1.84,-0.94,-0.92,-0.92
437.18,0.96,1.88,0.98,1.90,-1.90,-2.10,-1.83,-0.94,-0.92,-0.92
441.55,0.95,1.86,0.97,1.89,-1.89,-2.08,-1.83,-0.94,-0.92,-0.91
445.96,0.95,1.87,0.97,1.89,-1.89,-2.06,-1.83,-0.94,-0.92,-0.92
450.42,0.96,1.89,0.97,1.89,-1.89,-2.03,-1.82,-0.93,-0.92,-0.93
454.93,0.97,1.89,0.97,1.88,-1.88,-2.01,-1.82,-0.91,-0.91,-0.92
459.48,0.98,1.90,0.97,1.88,-1.88,-1.99,-1.81,-0.90,-0.91,-0.92
464.07,0.99,1.90,0.97,1.88,-1.88,-1.97,-1.81,-0.89,-0.91,-0.91
468.71,0.99,1.89,0.97,1.87,-1.87,-1.95,-1.80,-0.88,-0.90,-0.90
473.40,0.99,1.89,0.97,1.86,-1.86,-1.93,-1.80,-0.87,-0.90,-0.90
478.13,0.98,1.87,0.96,1.85,-1.85,-1.91,-1.79,-0.87,-0.89,-0.89
482.91,0.96,1.85,0.94,1.83,-1.83,-1.89,-1.79,-0.87,-0.88,-0.89
487.74,0.94,1.82,0.93,1.81,-1.81,-1.86,-1.78,-0.87,-0.88,-0.88
492.62,0.91,1.78,0.91,1.78,-1.78,-1.84,-1.77,-0.87,-0.87,-0.87
497.55,0.89,1.76,0.88,1.75,-1.75,-1.82,-1.76,-0.86,-0.87,-0.87
502.52,0.86,1.72,0.86,1.72,-1.72,-1.80,-1.75,-0.86,-0.86,-0.86
507.55,0.83,1.69,0.83,1.69,-1.69,-1.78,-1.74,-0.86,-0.86,-0.86
