frequency,raw,smoothed,error,error_smoothed,equalization,parametric_eq,fixed_band_eq,equalized_raw,equalized_smoothed,target
20.00,-0.09,-0.10,-0.85,-0.85,0.86,0.72,-0.64,0.76,0.76,0.75
20.20,-0.00,-0.00,-0.81,-0.80,0.80,0.67,-0.66,0.80,0.80,0.80
20.40,0.10,0.10,-0.76,-0.75,0.75,0.61,-0.68,0.85,0.85,0.85
20.61,0.18,0.19,-0.70,-0.70,0.70,0.56,-0.70,0.88,0.88,0.88
20.81,0.29,0.28,-0.65,-0.65,0.64,0.50,-0.71,0.93,0.92,0.93
21.02,0.38,0.37,-0.60,-0.59,0.59,0.45,-0.73,0.96,0.96,0.97
21.23,0.46,0.46,-0.53,-0.54,0.53,0.39,-0.75,0.99,0.99,0.99
21.44,0.54,0.54,-0.47,-0.47,0.48,0.34,-0.77,1.01,1.01,1.01
21.66,0.61,0.61,-0.41,-0.41,0.42,0.28,-0.79,1.04,1.04,1.03
21.87,0.69,0.69,-0.35,-0.36,0.37,0.23,-0.81,1.06,1.06,1.04
22.09,0.76,0.75,-0.30,-0.31,0.32,0.17,-0.84,1.07,1.07,1.06
22.31,0.81,0.81,-0.26,-0.26,0.26,0.12,-0.86,1.07,1.07,1.07
22.54,0.85,0.86,-0.21,-0.21,0.20,0.06,-0.88,1.05,1.05,1.07
22.76,0.92,0.91,-0.15,-0.15,0.13,0.01,-0.90,1.04,1.03,1.07
22.99,0.97,0.98,-0.09,-0.08,0.05,-0.05,-0.93,1.01,1.03,1.06
23.22,1.07,1.07,0.01,0.01,-0.03,-0.11,-0.95,1.03,1.04,1.05
23.45,1.18,1.17,0.12,0.12,-0.11,-0.16,-0.98,1.07,1.06,1.05
23.69,1.27,1.28,0.21,0.22,-0.19,-0.22,-1.00,1.08,1.09,1.06
23.92,1.39,1.37,0.32,0.31,-0.27,-0.28,-1.03,1.12,1.11,1.06
24.16,1.45,1.44,0.37,0.37,-0.34,-0.33,-1.06,1.11,1.10,1.07
24.40,1.50,1.49,0.42,0.42,-0.41,-0.39,-1.08,1.08,1.08,1.08
24.65,1.54,1.54,0.47,0.46,-0.49,-0.45,-1.11,1.05,1.05,1.07
24.89,1.59,1.59,0.52,0.52,-0.56,-0.51,-1.14,1.03,1.03,1.07
25.14,1.67,1.67,0.60,0.60,-0.63,-0.56,-1.17,1.03,1.04,1.07
25.39,1.77,1.76,0.69,0.69,-0.71,-0.62,-1.20,1.06,1.05,1.08
25.65,1.86,1.87,0.79,0.80,-0.79,-0.68,-1.22,1.08,1.08,1.08
25.91,1.96,1.96,0.90,0.89,-0.87,-0.74,-1.25,1.10,1.09,1.06
26.16,2.05,2.04,0.98,0.97,-0.94,-0.80,-1.28,1.10,1.09,1.06
26.43,2.09,2.10,1.03,1.04,-1.02,-0.85,-1.31,1.08,1.08,1.06
26.69,2.16,2.15,1.09,1.09,-1.09,-0.91,-1.35,1.07,1.07,1.06
26.96,2.20,2.20,1.13,1.14,-1.15,-0.97,-1.38,1.06,1.06,1.07
27.23,2.25,2.26,1.19,1.19,-1.20,-1.03,-1.41,1.05,1.05,1.07
27.50,2.31,2.31,1.24,1.24,-1.25,-1.09,-1.44,1.05,1.05,1.07
27.77,2.36,2.36,1.30,1.30,-1.30,-1.15,-1.47,1.05,1.05,1.06
28.05,2.41,2.41,1.35,1.36,-1.35,-1.21,-1.50,1.06,1.06,1.05
28.33,2.46,2.45,1.41,1.41,-1.40,-1.26,-1.53,1.06,1.06,1.04
28.62,2.50,2.50,1.46,1.46,-1.45,-1.32,-1.56,1.06,1.05,1.04
28.90,2.55,2.55,1.50,1.50,-1.50,-1.38,-1.59,1.05,1.05,1.05
29.19,2.60,2.59,1.56,1.55,-1.55,-1.44,-1.62,1.05,1.05,1.04
29.48,2.65,2.64,1.59,1.59,-1.60,-1.50,-1.65,1.04,1.04,1.06
29.78,2.69,2.70,1.65,1.65,-1.66,-1.56,-1.67,1.03,1.03,1.04
30.08,2.75,2.76,1.70,1.71,-1.73,-1.62,-1.70,1.03,1.03,1.05
30.38,2.82,2.83,1.78,1.79,-1.79,-1.67,-1.73,1.03,1.03,1.04
30.68,2.91,2.90,1.87,1.86,-1.86,-1.73,-1.76,1.04,1.04,1.04
30.99,2.98,2.98,1.95,1.94,-1.93,-1.79,-1.78,1.05,1.05,1.04
31.30,3.04,3.05,2.01,2.01,-1.99,-1.85,-1.81,1.05,1.05,1.03
31.61,3.11,3.11,2.07,2.08,-2.06,-1.91,-1.83,1.05,1.05,1.03
31.93,3.17,3.17,2.14,2.14,-2.12,-1.97,-1.86,1.05,1.04,1.03
32.24,3.22,3.21,2.20,2.18,-2.19,-2.02,-1.88,1.03,1.02,1.02
32.57,3.25,3.25,2.22,2.23,-2.25,-2.08,-1.91,0.99,1.00,1.02
32.89,3.29,3.30,2.26,2.28,-2.32,-2.14,-1.93,0.97,0.98,1.02
33.22,3.37,3.37,2.36,2.36,-2.38,-2.20,-1.95,0.98,0.99,1.01
33.55,3.46,3.46,2.45,2.45,-2.45,-2.26,-1.98,1.01,1.01,1.01
33.89,3.56,3.54,2.56,2.54,-2.51,-2.31,-2.00,1.05,1.03,0.99
34.23,3.61,3.60,2.60,2.61,-2.57,-2.37,-2.02,1.04,1.03,1.00
34.57,3.64,3.64,2.65,2.65,-2.63,-2.43,-2.05,1.01,1.01,0.99
34.92,3.67,3.67,2.68,2.68,-2.69,-2.49,-2.07,0.98,0.98,0.98
35.27,3.70,3.70,2.72,2.72,-2.74,-2.54,-2.10,0.96,0.96,0.98
35.62,3.75,3.75,2.77,2.77,-2.79,-2.60,-2.12,0.95,0.95,0.98
35.97,3.80,3.80,2.82,2.82,-2.84,-2.66,-2.15,0.96,0.96,0.97
36.33,3.86,3.86,2.88,2.89,-2.89,-2.71,-2.17,0.97,0.97,0.98
36.70,3.92,3.92,2.96,2.95,-2.94,-2.77,-2.20,0.99,0.99,0.97
37.06,3.99,3.98,3.02,3.01,-2.98,-2.82,-2.23,1.00,0.99,0.96
37.43,4.02,4.02,3.04,3.05,-3.03,-2.88,-2.26,0.98,0.98,0.98
37.81,4.05,4.05,3.07,3.07,-3.08,-2.93,-2.29,0.97,0.97,0.97
38.19,4.08,4.08,3.11,3.11,-3.12,-2.99,-2.32,0.96,0.96,0.97
38.57,4.13,4.12,3.15,3.15,-3.16,-3.04,-2.35,0.97,0.97,0.97
38.95,4.18,4.17,3.20,3.20,-3.20,-3.10,-2.39,0.98,0.97,0.98
39.34,4.22,4.22,3.24,3.24,-3.24,-3.15,-2.42,0.98,0.98,0.97
39.74,4.26,4.26,3.29,3.28,-3.28,-3.21,-2.46,0.97,0.97,0.97
40.14,4.29,4.29,3.32,3.32,-3.33,-3.26,-2.50,0.96,0.96,0.97
40.54,4.34,4.34,3.37,3.37,-3.37,-3.31,-2.54,0.96,0.96,0.97
40.94,4.38,4.38,3.41,3.42,-3.41,-3.37,-2.58,0.96,0.97,0.96
41.35,4.43,4.43,3.47,3.47,-3.45,-3.42,-2.63,0.98,0.98,0.96
41.76,4.47,4.46,3.51,3.51,-3.48,-3.47,-2.68,0.98,0.98,0.95
42.18,4.49,4.48,3.53,3.53,-3.52,-3.52,-2.73,0.96,0.96,0.95
42.60,4.49,4.49,3.55,3.54,-3.56,-3.57,-2.78,0.92,0.92,0.94
43.03,4.49,4.50,3.56,3.57,-3.60,-3.63,-2.83,0.88,0.90,0.93
43.46,4.54,4.53,3.61,3.62,-3.64,-3.68,-2.89,0.89,0.89,0.92
43.90,4.58,4.58,3.69,3.68,-3.69,-3.73,-2.95,0.90,0.89,0.90
44.33,4.63,4.63,3.75,3.75,-3.73,-3.78,-3.01,0.90,0.90,0.88
44.78,4.67,4.66,3.81,3.80,-3.78,-3.83,-3.07,0.89,0.88,0.86
45.23,4.69,4.68,3.83,3.83,-3.83,-3.87,-3.13,0.86,0.85,0.85
45.68,4.70,4.70,3.86,3.86,-3.87,-3.92,-3.20,0.83,0.83,0.83
46.13,4.71,4.72,3.89,3.90,-3.91,-3.97,-3.27,0.80,0.82,0.81
46.60,4.75,4.75,3.94,3.95,-3.94,-4.02,-3.34,0.82,0.81,0.81
47.06,4.80,4.78,4.00,3.98,-3.97,-4.07,-3.41,0.83,0.81,0.80
47.53,4.80,4.80,4.01,4.01,-3.99,-4.11,-3.49,0.80,0.80,0.79
48.01,4.80,4.79,4.01,4.02,-4.02,-4.16,-3.57,0.77,0.77,0.78
48.49,4.80,4.79,4.03,4.03,-4.06,-4.20,-3.65,0.74,0.74,0.76
48.97,4.80,4.81,4.05,4.07,-4.09,-4.25,-3.73,0.71,0.73,0.74
49.46,4.85,4.85,4.12,4.12,-4.12,-4.29,-3.81,0.72,0.72,0.72
49.96,4.90,4.87,4.20,4.16,-4.16,-4.34,-3.89,0.73,0.71,0.70
50.46,4.90,4.90,4.20,4.20,-4.20,-4.38,-3.98,0.69,0.69,0.70
50.96,4.90,4.92,4.21,4.24,-4.24,-4.42,-4.06,0.65,0.68,0.69
51.47,4.95,4.95,4.28,4.28,-4.28,-4.47,-4.15,0.67,0.67,0.66
51.99,4.99,4.98,4.35,4.32,-4.31,-4.51,-4.24,0.68,0.66,0.65
52.51,5.00,5.00,4.35,4.35,-4.34,-4.55,-4.32,0.66,0.66,0.64
53.03,5.00,5.00,4.36,4.36,-4.36,-4.59,-4.41,0.64,0.64,0.64
53.56,5.00,5.00,4.37,4.37,-4.37,-4.63,-4.50,0.62,0.62,0.63
54.10,5.00,5.00,4.39,4.38,-4.38,-4.67,-4.58,0.61,0.61,0.61
54.64,5.00,5.00,4.40,4.40,-4.40,-4.71,-4.67,0.60,0.60,0.59
55.18,5.00,5.00,4.41,4.41,-4.41,-4.75,-4.75,0.58,0.58,0.59
55.74,5.00,4.99,4.43,4.42,-4.43,-4.79,-4.83,0.56,0.56,0.57
56.29,5.00,4.99,4.43,4.43,-4.46,-4.83,-4.91,0.54,0.53,0.56
56.86,5.00,5.01,4.45,4.47,-4.48,-4.86,-4.99,0.51,0.53,0.54
57.42,5.04,5.04,4.52,4.52,-4.51,-4.90,-5.06,0.52,0.53,0.52
58.00,5.10,5.07,4.59,4.57,-4.55,-4.94,-5.13,0.55,0.53,0.51
58.58,5.10,5.10,4.60,4.60,-4.58,-4.97,-5.19,0.52,0.52,0.50
59.16,5.10,5.10,4.62,4.62,-4.62,-5.01,-5.25,0.48,0.49,0.48
59.76,5.10,5.10,4.64,4.64,-4.65,-5.04,-5.31,0.44,0.44,0.46
60.35,5.10,5.10,4.68,4.68,-4.69,-5.07,-5.35,0.41,0.41,0.41
60.96,5.10,5.10,4.71,4.72,-4.73,-5.11,-5.40,0.37,0.37,0.38
61.57,5.10,5.10,4.76,4.76,-4.77,-5.14,-5.44,0.33,0.33,0.34
62.18,5.10,5.10,4.80,4.80,-4.81,-5.17,-5.47,0.29,0.29,0.29
62.80,5.10,5.10,4.85,4.85,-4.85,-5.21,-5.50,0.25,0.25,0.25
63.43,5.10,5.10,4.89,4.89,-4.89,-5.24,-5.52,0.21,0.21,0.20
64.07,5.10,5.10,4.94,4.94,-4.92,-5.27,-5.53,0.17,0.18,0.16
64.71,5.10,5.09,4.98,4.97,-4.95,-5.30,-5.54,0.14,0.14,0.11
65.35,5.08,5.07,5.00,5.00,-4.99,-5.33,-5.55,0.09,0.08,0.07
66.01,5.04,5.04,5.01,5.01,-5.02,-5.36,-5.55,0.02,0.02,0.03
66.67,5.01,5.01,5.03,5.03,-5.05,-5.39,-5.54,-0.04,-0.04,-0.02
67.33,4.99,4.99,5.06,5.06,-5.08,-5.42,-5.53,-0.10,-0.09,-0.07
68.01,5.00,4.99,5.11,5.11,-5.12,-5.44,-5.52,-0.12,-0.13,-0.11
68.69,5.00,4.99,5.16,5.16,-5.16,-5.47,-5.51,-0.16,-0.17,-0.16
69.37,5.00,5.00,5.21,5.21,-5.21,-5.50,-5.49,-0.21,-0.21,-0.22
70.07,5.00,5.00,5.26,5.26,-5.26,-5.53,-5.47,-0.27,-0.27,-0.27
70.77,5.00,5.00,5.31,5.31,-5.32,-5.55,-5.44,-0.32,-0.32,-0.31
71.48,5.00,5.00,5.36,5.37,-5.37,-5.58,-5.42,-0.37,-0.37,-0.37
72.19,5.00,5.00,5.43,5.43,-5.42,-5.60,-5.39,-0.42,-0.42,-0.43
72.91,5.00,5.00,5.48,5.49,-5.46,-5.63,-5.37,-0.47,-0.46,-0.49
73.64,5.00,4.98,5.54,5.53,-5.50,-5.65,-5.34,-0.51,-0.52,-0.55
74.38,4.96,4.95,5.56,5.55,-5.55,-5.68,-5.31,-0.59,-0.60,-0.60
75.12,4.90,4.91,5.56,5.57,-5.59,-5.70,-5.29,-0.69,-0.68,-0.66
75.87,4.88,4.88,5.60,5.60,-5.63,-5.73,-5.26,-0.76,-0.75,-0.72
76.63,4.89,4.88,5.66,5.65,-5.68,-5.75,-5.24,-0.79,-0.80,-0.77
77.40,4.90,4.89,5.72,5.71,-5.72,-5.77,-5.22,-0.83,-0.83,-0.82
78.17,4.90,4.90,5.78,5.77,-5.76,-5.79,-5.20,-0.87,-0.87,-0.88
78.95,4.90,4.90,5.81,5.82,-5.81,-5.82,-5.19,-0.91,-0.91,-0.92
79.74,4.90,4.90,5.86,5.87,-5.85,-5.84,-5.17,-0.95,-0.95,-0.97
80.54,4.90,4.89,5.91,5.91,-5.89,-5.86,-5.17,-0.99,-0.99,-1.01
81.35,4.88,4.86,5.94,5.93,-5.92,-5.88,-5.16,-1.05,-1.06,-1.07
82.16,4.84,4.82,5.95,5.93,-5.95,-5.90,-5.15,-1.12,-1.13,-1.11
82.98,4.76,4.79,5.91,5.95,-5.97,-5.92,-5.15,-1.22,-1.18,-1.15
83.81,4.79,4.78,5.99,5.99,-6.00,-5.94,-5.16,-1.21,-1.21,-1.21
84.65,4.80,4.79,6.05,6.04,-6.02,-5.96,-5.16,-1.23,-1.24,-1.26
85.50,4.80,4.77,6.09,6.07,-6.06,-5.98,-5.17,-1.26,-1.29,-1.29
86.35,4.74,4.72,6.08,6.06,-6.09,-6.00,-5.19,-1.35,-1.37,-1.34
87.22,4.64,4.68,6.03,6.07,-6.11,-6.02,-5.21,-1.47,-1.43,-1.39
88.09,4.66,4.68,6.10,6.12,-6.12,-6.04,-5.23,-1.47,-1.44,-1.44
88.97,4.71,4.69,6.20,6.18,-6.13,-6.06,-5.26,-1.43,-1.45,-1.49
89.86,4.72,4.66,6.26,6.21,-6.14,-6.08,-5.29,-1.42,-1.47,-1.55
90.76,4.56,4.57,6.15,6.16,-6.14,-6.09,-5.32,-1.58,-1.57,-1.60
91.66,4.43,4.45,6.08,6.10,-6.14,-6.11,-5.36,-1.70,-1.69,-1.64
92.58,4.35,4.37,6.05,6.07,-6.14,-6.13,-5.40,-1.80,-1.77,-1.70
93.51,4.36,4.36,6.10,6.10,-6.14,-6.15,-5.45,-1.79,-1.78,-1.75
94.44,4.38,4.35,6.17,6.14,-6.14,-6.16,-5.50,-1.76,-1.79,-1.79
95.39,4.34,4.32,6.17,6.16,-6.13,-6.18,-5.55,-1.80,-1.81,-1.84
96.34,4.27,4.27,6.16,6.15,-6.13,-6.19,-5.61,-1.87,-1.87,-1.89
97.30,4.19,4.22,6.12,6.15,-6.14,-6.21,-5.67,-1.95,-1.92,-1.94
98.28,4.18,4.17,6.16,6.15,-6.14,-6.22,-5.73,-1.97,-1.98,-1.98
99.26,4.16,4.11,6.18,6.13,-6.14,-6.23,-5.80,-1.99,-2.03,-2.03
100.25,4.03,4.06,6.10,6.13,-6.13,-6.25,-5.86,-2.10,-2.07,-2.07
101.25,3.96,3.99,6.07,6.11,-6.11,-6.26,-5.94,-2.16,-2.13,-2.12
102.27,3.97,3.92,6.13,6.09,-6.10,-6.27,-6.01,-2.13,-2.18,-2.16
103.29,3.87,3.88,6.09,6.09,-6.08,-6.29,-6.08,-2.22,-2.20,-2.22
104.32,3.81,3.83,6.06,6.09,-6.07,-6.30,-6.16,-2.27,-2.24,-2.26
105.37,3.80,3.76,6.10,6.06,-6.07,-6.31,-6.24,-2.27,-2.31,-2.30
106.42,3.70,3.69,6.05,6.05,-6.06,-6.32,-6.31,-2.37,-2.37,-2.35
107.48,3.61,3.63,6.01,6.04,-6.06,-6.33,-6.39,-2.45,-2.42,-2.41
108.56,3.59,3.58,6.05,6.04,-6.05,-6.34,-6.47,-2.46,-2.47,-2.46
109.64,3.57,3.57,6.07,6.08,-6.05,-6.35,-6.54,-2.49,-2.48,-2.51
110.74,3.55,3.53,6.11,6.09,-6.06,-6.35,-6.61,-2.52,-2.53,-2.56
111.85,3.51,3.47,6.11,6.08,-6.08,-6.36,-6.69,-2.58,-2.62,-2.60
112.97,3.37,3.41,6.03,6.07,-6.11,-6.37,-6.75,-2.75,-2.70,-2.67
114.10,3.37,3.38,6.08,6.09,-6.14,-6.37,-6.82,-2.77,-2.76,-2.71
115.24,3.41,3.39,6.16,6.15,-6.17,-6.38,-6.87,-2.77,-2.78,-2.76
116.39,3.43,3.43,6.24,6.24,-6.21,-6.38,-6.93,-2.78,-2.77,-2.81
117.55,3.46,3.43,6.30,6.28,-6.24,-6.39,-6.97,-2.78,-2.81,-2.84
118.73,3.43,3.40,6.31,6.29,-6.27,-6.39,-7.02,-2.85,-2.87,-2.89
119.92,3.34,3.37,6.25,6.29,-6.29,-6.40,-7.05,-2.96,-2.93,-2.91
121.12,3.34,3.35,6.29,6.30,-6.31,-6.40,-7.08,-2.97,-2.96,-2.95
122.33,3.35,3.35,6.33,6.34,-6.31,-6.40,-7.09,-2.97,-2.96,-2.99
123.55,3.37,3.33,6.37,6.34,-6.32,-6.40,-7.11,-2.95,-2.99,-3.01
124.79,3.31,3.27,6.34,6.31,-6.31,-6.40,-7.11,-3.01,-3.05,-3.04
126.03,3.14,3.20,6.21,6.27,-6.31,-6.40,-7.11,-3.17,-3.11,-3.07
127.29,3.16,3.17,6.25,6.27,-6.30,-6.40,-7.09,-3.15,-3.13,-3.09
128.57,3.19,3.17,6.31,6.30,-6.29,-6.40,-7.07,-3.11,-3.12,-3.13
129.85,3.22,3.18,6.37,6.33,-6.28,-6.40,-7.04,-3.07,-3.10,-3.16
131.15,3.13,3.12,6.31,6.31,-6.27,-6.39,-7.00,-3.15,-3.15,-3.19
132.46,3.04,3.05,6.25,6.26,-6.27,-6.39,-6.95,-3.24,-3.22,-3.21
133.79,2.97,2.98,6.21,6.23,-6.27,-6.39,-6.91,-3.31,-3.29,-3.24
135.12,2.97,2.97,6.24,6.24,-6.28,-6.38,-6.85,-3.31,-3.31,-3.28
136.48,2.99,2.98,6.28,6.28,-6.28,-6.38,-6.79,-3.30,-3.30,-3.29
137.84,3.01,2.97,6.33,6.30,-6.29,-6.37,-6.72,-3.28,-3.32,-3.33
139.22,2.96,2.94,6.31,6.30,-6.29,-6.37,-6.65,-3.34,-3.35,-3.36
140.61,2.88,2.93,6.27,6.31,-6.30,-6.36,-6.57,-3.42,-3.37,-3.39
142.02,2.91,2.92,6.31,6.33,-6.30,-6.35,-6.49,-3.40,-3.39,-3.40
143.44,2.95,2.89,6.38,6.33,-6.30,-6.34,-6.41,-3.36,-3.41,-3.43
144.87,2.87,2.85,6.34,6.32,-6.29,-6.34,-6.33,-3.43,-3.45,-3.48
146.32,2.73,2.77,6.24,6.28,-6.29,-6.33,-6.25,-3.56,-3.52,-3.51
147.78,2.70,2.70,6.24,6.25,-6.29,-6.32,-6.16,-3.60,-3.59,-3.54
149.26,2.69,2.66,6.28,6.25,-6.30,-6.31,-6.08,-3.62,-3.65,-3.59
150.75,2.63,2.64,6.28,6.30,-6.32,-6.30,-6.00,-3.69,-3.67,-3.66
152.26,2.61,2.61,6.33,6.34,-6.33,-6.29,-5.92,-3.73,-3.72,-3.72
153.78,2.61,2.57,6.40,6.36,-6.35,-6.28,-5.83,-3.75,-3.79,-3.79
155.32,2.52,2.54,6.38,6.41,-6.38,-6.27,-5.76,-3.87,-3.84,-3.87
156.88,2.48,2.49,6.41,6.43,-6.42,-6.26,-5.68,-3.94,-3.93,-3.94
158.44,2.46,2.41,6.49,6.43,-6.44,-6.25,-5.61,-3.98,-4.03,-4.02
160.03,2.32,2.34,6.42,6.44,-6.45,-6.24,-5.53,-4.13,-4.11,-4.10
161.63,2.25,2.27,6.42,6.44,-6.44,-6.23,-5.47,-4.19,-4.17,-4.18
163.24,2.22,2.21,6.45,6.45,-6.42,-6.22,-5.40,-4.21,-4.21,-4.24
164.88,2.17,2.16,6.45,6.45,-6.40,-6.21,-5.34,-4.24,-4.24,-4.29
166.53,2.12,2.06,6.45,6.40,-6.38,-6.21,-5.28,-4.27,-4.32,-4.34
168.19,1.94,1.95,6.31,6.33,-6.36,-6.20,-5.22,-4.43,-4.41,-4.37
169.87,1.82,1.87,6.23,6.28,-6.34,-6.19,-5.17,-4.53,-4.47,-4.41
171.57,1.86,1.83,6.28,6.26,-6.32,-6.18,-5.12,-4.46,-4.48,-4.43
173.29,1.87,1.85,6.31,6.30,-6.29,-6.17,-5.08,-4.42,-4.44,-4.44
175.02,1.86,1.86,6.31,6.32,-6.26,-6.16,-5.04,-4.41,-4.40,-4.45
176.77,1.86,1.83,6.32,6.29,-6.24,-6.15,-5.00,-4.39,-4.41,-4.46
178.54,1.78,1.78,6.24,6.24,-6.23,-6.14,-4.97,-4.46,-4.45,-4.47
180.32,1.72,1.72,6.18,6.19,-6.22,-6.13,-4.94,-4.51,-4.50,-4.46
182.13,1.68,1.68,6.13,6.14,-6.20,-6.12,-4.92,-4.53,-4.52,-4.45
183.95,1.68,1.70,6.14,6.17,-6.17,-6.11,-4.89,-4.50,-4.47,-4.47
185.79,1.72,1.70,6.18,6.17,-6.14,-6.10,-4.88,-4.42,-4.44,-4.47
187.65,1.73,1.65,6.21,6.14,-6.11,-6.09,-4.86,-4.38,-4.45,-4.49
189.52,1.55,1.61,6.04,6.11,-6.08,-6.08,-4.85,-4.54,-4.47,-4.50
191.42,1.52,1.55,6.03,6.07,-6.06,-6.06,-4.84,-4.55,-4.51,-4.52
193.33,1.56,1.47,6.09,6.01,-6.05,-6.05,-4.84,-4.49,-4.57,-4.54
195.27,1.43,1.43,5.98,5.98,-6.02,-6.03,-4.83,-4.60,-4.59,-4.56
197.22,1.33,1.40,5.90,5.98,-6.00,-6.02,-4.84,-4.67,-4.59,-4.57
199.19,1.39,1.38,5.99,5.97,-5.97,-6.00,-4.84,-4.58,-4.59,-4.60
201.18,1.44,1.35,6.05,5.97,-5.94,-5.98,-4.85,-4.51,-4.59,-4.62
203.19,1.30,1.31,5.93,5.95,-5.92,-5.95,-4.85,-4.62,-4.60,-4.63
205.23,1.19,1.25,5.84,5.90,-5.89,-5.93,-4.86,-4.71,-4.64,-4.66
207.28,1.22,1.19,5.88,5.86,-5.86,-5.90,-4.88,-4.65,-4.67,-4.66
209.35,1.17,1.14,5.85,5.83,-5.83,-5.86,-4.89,-4.67,-4.70,-4.69
211.44,1.08,1.06,5.80,5.77,-5.80,-5.83,-4.90,-4.72,-4.74,-4.72
213.56,0.96,1.01,5.68,5.74,-5.76,-5.79,-4.92,-4.80,-4.75,-4.73
215.69,0.94,0.97,5.67,5.71,-5.72,-5.75,-4.93,-4.78,-4.75,-4.74
217.85,1.02,0.91,5.77,5.66,-5.67,-5.70,-4.95,-4.65,-4.76,-4.75
220.03,0.85,0.88,5.61,5.64,-5.62,-5.65,-4.96,-4.77,-4.74,-4.76
222.23,0.75,0.83,5.53,5.61,-5.56,-5.59,-4.97,-4.82,-4.73,-4.79
224.45,0.81,0.72,5.58,5.50,-5.50,-5.54,-4.98,-4.69,-4.77,-4.78
226.70,0.70,0.64,5.47,5.41,-5.42,-5.47,-4.99,-4.73,-4.79,-4.78
228.96,0.45,0.56,5.21,5.33,-5.34,-5.41,-5.00,-4.89,-4.78,-4.77
231.25,0.47,0.47,5.23,5.23,-5.25,-5.34,-5.00,-4.78,-4.78,-4.76
233.57,0.49,0.42,5.24,5.17,-5.16,-5.27,-5.00,-4.67,-4.73,-4.75
235.90,0.37,0.36,5.11,5.10,-5.07,-5.19,-5.00,-4.71,-4.71,-4.74
238.26,0.26,0.24,4.98,4.97,-4.99,-5.12,-4.99,-4.73,-4.75,-4.73
240.64,0.10,0.17,4.80,4.88,-4.92,-5.04,-4.98,-4.82,-4.75,-4.71
243.05,0.14,0.16,4.81,4.84,-4.85,-4.95,-4.96,-4.71,-4.69,-4.68
245.48,0.23,0.13,4.88,4.78,-4.79,-4.87,-4.94,-4.56,-4.66,-4.66
247.93,0.12,0.12,4.74,4.75,-4.73,-4.79,-4.91,-4.61,-4.61,-4.62
250.41,-0.00,0.08,4.61,4.69,-4.67,-4.70,-4.88,-4.68,-4.59,-4.61
252.92,0.08,0.04,4.65,4.62,-4.63,-4.61,-4.84,-4.55,-4.59,-4.58
255.45,0.05,0.02,4.60,4.58,-4.58,-4.52,-4.80,-4.54,-4.56,-4.56
258.00,-0.01,-0.00,4.52,4.53,-4.53,-4.43,-4.75,-4.55,-4.54,-4.53
260.58,-0.06,-0.06,4.46,4.46,-4.47,-4.34,-4.70,-4.54,-4.53,-4.52
263.19,-0.10,-0.09,4.38,4.41,-4.40,-4.25,-4.64,-4.51,-4.49,-4.49
265.82,-0.10,-0.12,4.37,4.35,-4.32,-4.16,-4.58,-4.43,-4.45,-4.47
268.48,-0.16,-0.18,4.28,4.27,-4.24,-4.07,-4.52,-4.40,-4.41,-4.45
271.16,-0.26,-0.26,4.15,4.16,-4.14,-3.98,-4.44,-4.41,-4.40,-4.41
273.87,-0.36,-0.37,4.04,4.03,-4.03,-3.89,-4.37,-4.40,-4.40,-4.40
276.61,-0.47,-0.47,3.89,3.90,-3.92,-3.79,-4.29,-4.39,-4.39,-4.37
279.38,-0.57,-0.56,3.77,3.78,-3.79,-3.70,-4.21,-4.36,-4.35,-4.34
282.17,-0.64,-0.65,3.67,3.66,-3.66,-3.61,-4.13,-4.30,-4.30,-4.32
284.99,-0.73,-0.74,3.55,3.55,-3.52,-3.52,-4.04,-4.26,-4.26,-4.28
287.84,-0.83,-0.86,3.43,3.40,-3.40,-3.42,-3.95,-4.23,-4.25,-4.27
290.72,-0.97,-0.97,3.26,3.26,-3.28,-3.33,-3.86,-4.25,-4.25,-4.23
293.63,-1.10,-1.07,3.10,3.14,-3.17,-3.23,-3.77,-4.27,-4.24,-4.21
296.57,-1.11,-1.14,3.05,3.04,-3.07,-3.14,-3.68,-4.18,-4.20,-4.17
299.53,-1.18,-1.18,2.96,2.96,-2.97,-3.04,-3.59,-4.15,-4.15,-4.14
302.53,-1.22,-1.22,2.90,2.89,-2.88,-2.94,-3.50,-4.11,-4.11,-4.13
305.55,-1.27,-1.28,2.81,2.81,-2.80,-2.84,-3.41,-4.08,-4.08,-4.08
308.61,-1.33,-1.33,2.73,2.73,-2.73,-2.75,-3.31,-4.06,-4.06,-4.06
311.69,-1.38,-1.38,2.65,2.65,-2.65,-2.65,-3.22,-4.04,-4.04,-4.04
314.81,-1.44,-1.43,2.57,2.58,-2.58,-2.55,-3.13,-4.02,-4.01,-4.01
317.96,-1.47,-1.49,2.52,2.51,-2.50,-2.45,-3.04,-3.97,-3.99,-3.99
321.14,-1.56,-1.56,2.42,2.42,-2.41,-2.35,-2.95,-3.98,-3.98,-3.99
324.35,-1.64,-1.65,2.33,2.32,-2.32,-2.26,-2.86,-3.97,-3.97,-3.97
327.59,-1.74,-1.73,2.21,2.23,-2.23,-2.16,-2.77,-3.97,-3.95,-3.95
330.87,-1.80,-1.80,2.14,2.15,-2.13,-2.06,-2.69,-3.94,-3.93,-3.95
334.18,-1.85,-1.89,2.08,2.04,-2.03,-1.97,-2.60,-3.88,-3.92,-3.93
337.52,-1.98,-1.99,1.94,1.93,-1.93,-1.88,-2.52,-3.91,-3.92,-3.92
340.90,-2.12,-2.10,1.78,1.81,-1.83,-1.79,-2.44,-3.95,-3.92,-3.90
344.30,-2.19,-2.19,1.70,1.71,-1.73,-1.71,-2.36,-3.93,-3.92,-3.90
347.75,-2.25,-2.26,1.65,1.64,-1.64,-1.62,-2.28,-3.89,-3.90,-3.90
351.23,-2.32,-2.34,1.57,1.56,-1.55,-1.55,-2.20,-3.87,-3.89,-3.89
354.74,-2.41,-2.43,1.48,1.47,-1.46,-1.47,-2.13,-3.88,-3.89,-3.89
358.28,-2.53,-2.50,1.35,1.39,-1.39,-1.40,-2.05,-3.92,-3.88,-3.89
361.87,-2.56,-2.56,1.32,1.32,-1.31,-1.34,-1.98,-3.88,-3.88,-3.89
365.49,-2.58,-2.63,1.30,1.26,-1.25,-1.27,-1.91,-3.83,-3.88,-3.88
369.14,-2.71,-2.70,1.18,1.19,-1.19,-1.22,-1.84,-3.91,-3.89,-3.89
372.83,-2.78,-2.77,1.11,1.12,-1.14,-1.16,-1.77,-3.93,-3.91,-3.89
376.56,-2.82,-2.81,1.07,1.08,-1.10,-1.11,-1.70,-3.93,-3.92,-3.90
380.33,-2.82,-2.84,1.06,1.05,-1.06,-1.06,-1.64,-3.89,-3.90,-3.89
384.13,-2.84,-2.87,1.04,1.03,-1.03,-1.01,-1.57,-3.87,-3.89,-3.89
387.97,-2.91,-2.88,0.99,1.02,-0.99,-0.97,-1.51,-3.91,-3.88,-3.90
391.85,-2.92,-2.91,0.99,0.99,-0.97,-0.92,-1.45,-3.89,-3.88,-3.91
395.77,-2.91,-2.97,0.99,0.94,-0.94,-0.88,-1.39,-3.85,-3.91,-3.90
399.73,-3.03,-3.02,0.88,0.89,-0.90,-0.84,-1.33,-3.94,-3.92,-3.91
403.72,-3.11,-3.08,0.80,0.84,-0.85,-0.80,-1.28,-3.97,-3.93,-3.92
407.76,-3.11,-3.12,0.81,0.81,-0.80,-0.75,-1.22,-3.91,-3.92,-3.93
411.84,-3.12,-3.14,0.80,0.78,-0.74,-0.71,-1.17,-3.87,-3.89,-3.93
415.96,-3.19,-3.21,0.74,0.72,-0.69,-0.67,-1.12,-3.88,-3.90,-3.93
420.12,-3.29,-3.31,0.64,0.62,-0.64,-0.63,-1.07,-3.93,-3.95,-3.93
424.32,-3.43,-3.39,0.50,0.54,-0.59,-0.59,-1.02,-4.02,-3.98,-3.93
428.56,-3.44,-3.42,0.48,0.51,-0.55,-0.55,-0.98,-3.99,-3.97,-3.92
432.85,-3.39,-3.41,0.52,0.50,-0.51,-0.51,-0.94,-3.91,-3.93,-3.91
437.18,-3.36,-3.40,0.54,0.49,-0.48,-0.48,-0.89,-3.84,-3.88,-3.91
441.55,-3.41,-3.40,0.45,0.48,-0.45,-0.45,-0.86,-3.87,-3.85,-3.87
445.96,-3.43,-3.39,0.40,0.45,-0.43,-0.42,-0.82,-3.86,-3.82,-3.84
450.42,-3.34,-3.39,0.46,0.41,-0.41,-0.39,-0.79,-3.75,-3.80,-3.81
454.93,-3.35,-3.36,0.40,0.40,-0.38,-0.37,-0.75,-3.74,-3.75,-3.76
459.48,-3.38,-3.33,0.33,0.38,-0.36,-0.36,-0.73,-3.74,-3.69,-3.71
464.07,-3.28,-3.32,0.38,0.34,-0.34,-0.35,-0.70,-3.62,-3.66,-3.66
468.71,-3.26,-3.30,0.34,0.30,-0.33,-0.34,-0.68,-3.59,-3.63,-3.60
473.40,-3.31,-3.27,0.25,0.28,-0.32,-0.34,-0.65,-3.64,-3.59,-3.56
478.13,-3.23,-3.20,0.27,0.31,-0.32,-0.35,-0.64,-3.56,-3.52,-3.50
482.91,-3.11,-3.13,0.35,0.33,-0.33,-0.36,-0.62,-3.45,-3.46,-3.46
