frequency,raw
20.00,0.87
20.20,0.91
20.40,0.96
20.61,1.01
20.81,1.06
21.02,1.11
21.23,1.16
21.44,1.21
21.66,1.26
21.87,1.31
22.09,1.37
22.31,1.43
22.54,1.48
22.76,1.55
22.99,1.61
23.22,1.67
23.45,1.74
23.69,1.80
23.92,1.86
24.16,1.92
24.40,1.98
24.65,2.04
24.89,2.10
25.14,2.16
25.39,2.23
25.65,2.29
25.91,2.36
26.16,2.42
26.43,2.49
26.69,2.55
26.96,2.62
27.23,2.68
27.50,2.74
27.77,2.80
28.05,2.87
28.33,2.93
28.62,3.00
28.90,3.05
29.19,3.11
29.48,3.18
29.78,3.24
30.08,3.30
30.38,3.36
30.68,3.42
30.99,3.48
31.30,3.53
31.61,3.58
31.93,3.63
32.24,3.67
32.57,3.73
32.89,3.77
33.22,3.83
33.55,3.87
33.89,3.92
34.23,3.97
34.57,4.02
34.92,4.07
35.27,4.11
35.62,4.16
35.97,4.20
36.33,4.25
36.70,4.28
37.06,4.33
37.43,4.37
37.81,4.40
38.19,4.45
38.57,4.48
38.95,4.52
39.34,4.55
39.74,4.59
40.14,4.62
40.54,4.65
40.94,4.69
41.35,4.72
41.76,4.76
42.18,4.79
42.60,4.82
43.03,4.85
43.46,4.88
43.90,4.92
44.33,4.95
44.78,4.97
45.23,5.00
45.68,5.03
46.13,5.06
46.60,5.09
47.06,5.12
47.53,5.15
48.01,5.17
48.49,5.20
48.97,5.23
49.46,5.25
49.96,5.28
50.46,5.31
50.96,5.34
51.47,5.37
51.99,5.39
52.51,5.42
53.03,5.45
53.56,5.48
54.10,5.51
54.64,5.53
55.18,5.57
55.74,5.60
56.29,5.63
56.86,5.66
57.42,5.69
58.00,5.72
58.58,5.75
59.16,5.78
59.76,5.80
60.35,5.84
60.96,5.86
61.57,5.89
62.18,5.92
62.80,5.95
63.43,5.97
64.07,6.00
64.71,6.03
65.35,6.05
66.01,6.08
66.67,6.11
67.33,6.14
68.01,6.15
68.69,6.18
69.37,6.20
70.07,6.22
70.77,6.24
71.48,6.27
72.19,6.28
72.91,6.30
73.64,6.32
74.38,6.33
75.12,6.36
75.87,6.37
76.63,6.39
77.40,6.40
78.17,6.42
78.95,6.44
79.74,6.45
80.54,6.46
81.35,6.49
82.16,6.50
82.98,6.51
83.81,6.52
84.65,6.52
85.50,6.54
86.35,6.55
87.22,6.55
88.09,6.56
88.97,6.56
89.86,6.56
90.76,6.57
91.66,6.57
92.58,6.57
93.51,6.56
94.44,6.57
95.39,6.57
96.34,6.56
97.30,6.55
98.28,6.55
99.26,6.54
100.25,6.54
101.25,6.53
102.27,6.52
103.29,6.50
104.32,6.49
105.37,6.48
106.42,6.45
107.48,6.44
108.56,6.42
109.64,6.40
110.74,6.38
111.85,6.36
112.97,6.34
114.10,6.31
115.24,6.29
116.39,6.27
117.55,6.24
118.73,6.21
119.92,6.18
121.12,6.14
122.33,6.11
123.55,6.08
124.79,6.04
126.03,6.00
127.29,5.96
128.57,5.92
129.85,5.88
131.15,5.83
132.46,5.78
133.79,5.72
135.12,5.66
136.48,5.59
137.84,5.52
139.22,5.45
140.61,5.37
142.02,5.29
143.44,5.20
144.87,5.12
146.32,5.03
147.78,4.93
149.26,4.85
150.75,4.74
152.26,4.65
153.78,4.56
155.32,4.47
156.88,4.37
158.44,4.28
160.03,4.20
161.63,4.12
163.24,4.05
164.88,3.97
166.53,3.90
168.19,3.83
169.87,3.75
171.57,3.68
173.29,3.61
175.02,3.53
176.77,3.45
178.54,3.37
180.32,3.28
182.13,3.19
183.95,3.08
185.79,2.99
187.65,2.89
189.52,2.77
191.42,2.66
193.33,2.54
195.27,2.42
197.22,2.29
199.19,2.16
201.18,2.03
203.19,1.88
205.23,1.74
207.28,1.60
209.35,1.45
211.44,1.31
213.56,1.16
215.69,1.00
217.85,0.84
220.03,0.69
222.23,0.54
224.45,0.38
226.70,0.22
228.96,0.07
231.25,-0.10
233.57,-0.27
235.90,-0.45
238.26,-0.63
240.64,-0.81
243.05,-0.98
245.48,-1.13
247.93,-1.21
250.41,-1.25
252.92,-1.19
255.45,-1.08
258.00,-0.91
260.58,-0.69
263.19,-0.50
265.82,-0.32
268.48,-0.21
271.16,-0.19
273.87,-0.26
276.61,-0.40
279.38,-0.64
282.17,-0.92
284.99,-1.23
287.84,-1.55
290.72,-1.85
293.63,-2.14
296.57,-2.40
299.53,-2.63
302.53,-2.83
305.55,-3.01
308.61,-3.14
311.69,-3.27
314.81,-3.36
317.96,-3.44
321.14,-3.49
324.35,-3.53
327.59,-3.55
330.87,-3.55
334.18,-3.55
337.52,-3.51
340.90,-3.48
344.30,-3.44
347.75,-3.39
351.23,-3.33
354.74,-3.26
358.28,-3.19
361.87,-3.09
365.49,-3.00
369.14,-2.90
372.83,-2.79
376.56,-2.67
380.33,-2.56
384.13,-2.44
387.97,-2.33
391.85,-2.21
395.77,-2.09
399.73,-1.97
403.72,-1.87
407.76,-1.76
411.84,-1.66
415.96,-1.54
420.12,-1.44
424.32,-1.34
428.56,-1.25
432.85,-1.15
437.18,-1.06
441.55,-0.97
445.96,-0.89
450.42,-0.82
454.93,-0.77
459.48,-0.70
464.07,-0.65
468.71,-0.60
473.40,-0.56
478.13,-0.51
482.91,-0.48
487.74,-0.44
492.62,-0.40
497.55,-0.37
502.52,-0.35
507.55,-0.33
512.62,-0.31
517.75,-0.28
522.93,-0.27
528.16,-0.25
533.44,-0.23
538.77,-0.22
544.16,-0.21
549.60,-0.20
555.10,-0.20
560.65,-0.19
566.25,-0.19
571.92,-0.18
577.64,-0.18
583.41,-0.18
589.25,-0.16
595.14,-0.17
601.09,-0.16
607.10,-0.16
613.17,-0.16
619.30,-0.16
625.50,-0.16
631.75,-0.17
638.07,-0.18
644.45,-0.18
650.89,-0.19
657.40,-0.19
663.98,-0.19
670.62,-0.18
677.32,-0.16
684.10,-0.14
690.94,-0.12
697.85,-0.10
704.83,-0.07
711.87,-0.04
718.99,-0.02
726.18,-0.00
733.44,0.02
740.78,0.03
748.19,0.04
755.67,0.06
763.23,0.06
770.86,0.05
778.57,0.05
786.35,0.04
794.22,0.04
802.16,0.02
810.18,0.01
818.28,0.00
826.46,-0.01
834.73,-0.03
843.08,-0.04
851.51,-0.05
860.02,-0.07
868.62,-0.07
877.31,-0.09
886.08,-0.09
894.94,-0.10
903.89,-0.11
912.93,-0.12
922.06,-0.11
931.28,-0.12
940.59,-0.11
950.00,-0.10
959.50,-0.09
969.09,-0.08
978.78,-0.05
988.57,-0.03
998.46,-0.00
1008.44,0.03
1018.53,0.07
1028.71,0.12
1039.00,0.18
1049.39,0.24
1059.88,0.31
1070.48,0.37
1081.19,0.45
1092.00,0.52
1102.92,0.59
1113.95,0.66
1125.09,0.73
1136.34,0.79
1147.70,0.86
1159.18,0.93
1170.77,1.02
1182.48,1.11
1194.30,1.20
1206.25,1.30
1218.31,1.40
1230.49,1.50
1242.80,1.61
1255.22,1.73
1267.78,1.84
1280.45,1.95
1293.26,2.06
1306.19,2.18
1319.25,2.29
1332.45,2.41
1345.77,2.52
1359.23,2.64
1372.82,2.77
1386.55,2.88
1400.41,3.01
1414.42,3.13
1428.56,3.26
1442.85,3.39
1457.28,3.52
1471.85,3.66
1486.57,3.80
1501.43,3.95
1516.45,4.10
1531.61,4.25
1546.93,4.41
1562.40,4.56
1578.02,4.72
1593.80,4.88
1609.74,5.04
1625.84,5.20
1642.10,5.36
1658.52,5.53
1675.10,5.70
1691.85,5.88
1708.77,6.08
1725.86,6.27
1743.12,6.47
1760.55,6.66
1778.15,6.86
1795.94,7.05
1813.90,7.24
1832.03,7.42
1850.36,7.61
1868.86,7.78
1887.55,7.96
1906.42,8.13
1925.49,8.30
1944.74,8.47
1964.19,8.64
1983.83,8.80
2003.67,8.96
2023.71,9.11
2043.94,9.25
2064.38,9.39
2085.03,9.51
2105.88,9.64
2126.94,9.77
2148.20,9.90
2169.69,10.04
2191.38,10.18
2213.30,10.34
2235.43,10.51
2257.78,10.69
2280.36,10.87
2303.17,11.06
2326.20,11.26
2349.46,11.46
2372.95,11.67
2396.68,11.88
2420.65,12.09
2444.86,12.32
2469.31,12.56
2494.00,12.81
2518.94,13.05
2544.13,13.32
2569.57,13.57
2595.27,13.84
2621.22,14.10
2647.43,14.34
2673.90,14.58
2700.64,14.79
2727.65,14.98
2754.93,15.16
2782.48,15.30
2810.30,15.40
2838.40,15.48
2866.79,15.54
2895.46,15.55
2924.41,15.53
2953.65,15.49
2983.19,15.40
3013.02,15.28
3043.15,15.13
3073.58,14.92
3104.32,14.68
3135.36,14.40
3166.72,14.07
3198.38,13.72
3230.37,13.34
3262.67,12.93
3295.30,12.50
3328.25,12.07
3361.53,11.63
3395.15,11.19
3429.10,10.75
3463.39,10.31
3498.03,9.86
3533.01,9.40
3568.34,8.94
3604.02,8.44
3640.06,7.92
3676.46,7.38
3713.22,6.80
3750.36,6.20
3787.86,5.58
3825.74,4.92
3864.00,4.25
3902.64,3.57
3941.66,2.88
3981.08,2.22
4020.89,1.57
4061.10,0.97
4101.71,0.41
4142.73,-0.10
4184.15,-0.57
4226.00,-0.99
4268.26,-1.37
4310.94,-1.73
4354.05,-2.06
4397.59,-2.36
4441.56,-2.65
4485.98,-2.89
4530.84,-3.09
4576.15,-3.23
4621.91,-3.29
4668.13,-3.25
4714.81,-3.11
4761.96,-2.89
4809.58,-2.51
4857.67,-2.06
4906.25,-1.55
4955.31,-0.94
5004.87,-0.29
5054.91,0.36
5105.46,1.02
5156.52,1.65
5208.08,2.25
5260.16,2.81
5312.77,3.31
5365.89,3.77
5419.55,4.17
5473.75,4.48
5528.49,4.73
5583.77,4.90
5639.61,4.94
5696.00,4.92
5752.96,4.80
5810.49,4.58
5868.60,4.26
5927.28,3.89
5986.56,3.45
6046.42,2.96
6106.89,2.48
6167.96,2.00
6229.64,1.56
6291.93,1.16
6354.85,0.81
6418.40,0.54
6482.58,0.34
6547.41,0.19
6612.88,0.15
6679.01,0.15
6745.80,0.21
6813.26,0.34
6881.39,0.52
6950.21,0.74
7019.71,1.03
7089.91,1.38
7160.81,1.79
7232.41,2.26
7304.74,2.82
7377.79,3.44
7451.56,4.14
7526.08,4.97
7601.34,5.89
7677.35,6.90
7754.13,8.09
7831.67,9.35
7909.98,10.64
7989.08,11.90
8068.98,13.02
8149.67,13.95
8231.16,14.63
8313.47,14.95
8396.61,15.05
8480.57,14.91
8565.38,14.51
8651.03,14.07
8737.54,13.58
8824.92,13.24
8913.17,13.05
9002.30,13.01
9092.32,13.21
9183.25,13.49
9275.08,13.82
9367.83,14.12
9461.51,14.25
9556.12,14.23
9651.68,13.98
9748.20,13.41
9845.68,12.69
9944.14,11.79
10043.58,10.74
10144.02,9.68
10245.46,8.61
10347.91,7.58
10451.39,6.57
10555.91,5.57
10661.46,4.55
10768.08,3.50
10875.76,2.43
10984.52,1.35
11094.36,0.36
11205.31,-0.51
11317.36,-1.20
11430.53,-1.61
11544.84,-1.88
11660.29,-1.99
11776.89,-2.01
11894.66,-2.11
12013.60,-2.31
12133.74,-2.83
12255.08,-3.53
12377.63,-4.38
12501.41,-5.36
12626.42,-6.31
12752.68,-7.21
12880.21,-7.99
13009.01,-8.59
13139.10,-9.06
13270.49,-9.42
13403.20,-9.62
13537.23,-9.74
13672.60,-9.78
13809.33,-9.78
13947.42,-9.69
14086.90,-9.51
14227.77,-9.14
14370.04,-8.60
14513.74,-7.94
14658.88,-7.17
14805.47,-6.38
14953.52,-5.63
15103.06,-4.93
15254.09,-4.31
15406.63,-3.74
15560.70,-3.21
15716.30,-2.78
15873.47,-2.43
16032.20,-2.19
16192.52,-2.15
16354.45,-2.25
16517.99,-2.48
16683.17,-2.85
16850.01,-3.41
17018.51,-4.07
17188.69,-4.86
17360.58,-5.64
17534.18,-6.37
17709.53,-6.97
17886.62,-7.31
18065.49,-7.55
18246.14,-7.67
18428.60,-7.89
18612.89,-8.32
18799.02,-8.97
18987.01,-10.05
19176.88,-11.37
19368.65,-12.85
19562.33,-14.51
19757.96,-16.13
19955.54,-17.65
