frequency,raw,error,smoothed,error_smoothed,equalization,parametric_eq,fixed_band_eq,equalized_raw,equalized_smoothed,target
20.00,-12.11,-18.26,-12.12,-18.27,6.00,6.21,2.92,-6.11,-6.12,6.16
20.20,-12.02,-18.20,-12.02,-18.21,6.00,6.20,3.01,-6.02,-6.02,6.19
20.40,-11.95,-18.16,-11.92,-18.13,6.00,6.19,3.09,-5.95,-5.92,6.21
20.61,-11.80,-18.03,-11.80,-18.04,6.00,6.17,3.18,-5.80,-5.80,6.23
20.81,-11.64,-17.90,-11.66,-17.93,6.00,6.16,3.27,-5.64,-5.66,6.26
21.02,-11.52,-17.81,-11.51,-17.79,6.00,6.15,3.36,-5.52,-5.51,6.29
21.23,-11.38,-17.68,-11.37,-17.67,6.00,6.13,3.46,-5.38,-5.37,6.30
21.44,-11.22,-17.53,-11.23,-17.55,6.00,6.12,3.56,-5.22,-5.23,6.31
21.66,-11.10,-17.42,-11.09,-17.41,6.00,6.11,3.66,-5.10,-5.09,6.32
21.87,-10.96,-17.28,-10.95,-17.28,6.00,6.09,3.76,-4.96,-4.95,6.32
22.09,-10.81,-17.14,-10.82,-17.15,6.00,6.08,3.87,-4.81,-4.82,6.33
22.31,-10.69,-17.02,-10.67,-17.00,6.00,6.07,3.98,-4.69,-4.67,6.33
22.54,-10.54,-16.87,-10.54,-16.87,6.00,6.05,4.09,-4.54,-4.54,6.33
22.76,-10.39,-16.72,-10.40,-16.73,6.00,6.04,4.21,-4.39,-4.40,6.33
22.99,-10.28,-16.60,-10.26,-16.58,6.00,6.03,4.33,-4.28,-4.26,6.32
23.22,-10.12,-16.44,-10.13,-16.45,6.00,6.02,4.45,-4.12,-4.13,6.32
23.45,-10.01,-16.32,-10.00,-16.31,6.00,6.00,4.57,-4.01,-4.00,6.32
23.69,-9.86,-16.18,-9.86,-16.18,6.00,5.99,4.70,-3.86,-3.86,6.32
23.92,-9.73,-16.04,-9.73,-16.04,6.00,5.98,4.83,-3.73,-3.73,6.31
24.16,-9.59,-15.91,-9.59,-15.91,6.00,5.97,4.96,-3.59,-3.59,6.32
24.40,-9.45,-15.77,-9.45,-15.77,6.00,5.96,5.09,-3.45,-3.45,6.32
24.65,-9.33,-15.64,-9.32,-15.63,6.00,5.95,5.23,-3.33,-3.32,6.31
24.89,-9.17,-15.48,-9.18,-15.49,6.00,5.94,5.37,-3.17,-3.18,6.31
25.14,-9.07,-15.38,-9.05,-15.36,6.00,5.92,5.51,-3.07,-3.05,6.31
25.39,-8.91,-15.22,-8.92,-15.23,6.00,5.91,5.65,-2.91,-2.92,6.31
25.65,-8.80,-15.11,-8.79,-15.10,6.00,5.90,5.79,-2.80,-2.79,6.31
25.91,-8.65,-14.95,-8.66,-14.96,6.00,5.89,5.93,-2.65,-2.66,6.30
26.16,-8.54,-14.83,-8.53,-14.82,6.00,5.89,6.08,-2.54,-2.53,6.30
26.43,-8.38,-14.68,-8.39,-14.68,6.00,5.88,6.22,-2.38,-2.39,6.29
26.69,-8.26,-14.55,-8.25,-14.55,6.00,5.87,6.36,-2.26,-2.25,6.29
26.96,-8.12,-14.41,-8.12,-14.41,6.00,5.86,6.50,-2.12,-2.12,6.29
27.23,-7.98,-14.27,-7.98,-14.27,6.00,5.85,6.64,-1.98,-1.98,6.29
27.50,-7.85,-14.14,-7.85,-14.13,6.00,5.85,6.77,-1.85,-1.85,6.29
27.77,-7.71,-13.98,-7.71,-13.99,6.00,5.84,6.90,-1.71,-1.71,6.28
28.05,-7.59,-13.86,-7.58,-13.86,6.00,5.83,7.03,-1.59,-1.58,6.28
28.33,-7.44,-13.70,-7.45,-13.72,6.00,5.83,7.14,-1.44,-1.45,6.27
28.62,-7.33,-13.59,-7.31,-13.57,6.00,5.82,7.26,-1.33,-1.31,6.26
28.90,-7.17,-13.43,-7.17,-13.43,6.00,5.82,7.36,-1.17,-1.17,6.26
29.19,-7.03,-13.28,-7.04,-13.29,6.00,5.82,7.46,-1.03,-1.04,6.25
29.48,-6.91,-13.17,-6.89,-13.14,6.00,5.82,7.54,-0.91,-0.89,6.26
29.78,-6.75,-13.00,-6.76,-13.01,6.00,5.81,7.62,-0.75,-0.76,6.25
30.08,-6.61,-12.86,-6.62,-12.86,6.00,5.81,7.68,-0.61,-0.62,6.25
30.38,-6.49,-12.72,-6.47,-12.71,6.00,5.81,7.73,-0.49,-0.47,6.23
30.68,-6.33,-12.56,-6.33,-12.56,6.00,5.81,7.77,-0.33,-0.33,6.23
30.99,-6.19,-12.41,-6.19,-12.42,6.00,5.82,7.80,-0.19,-0.19,6.22
31.30,-6.05,-12.27,-6.05,-12.27,6.00,5.82,7.81,-0.05,-0.05,6.22
31.61,-5.91,-12.12,-5.90,-12.12,6.00,5.82,7.82,0.09,0.10,6.21
31.93,-5.76,-11.96,-5.76,-11.96,6.00,5.83,7.80,0.24,0.24,6.20
32.24,-5.61,-11.80,-5.61,-11.81,6.00,5.83,7.78,0.39,0.39,6.19
32.57,-5.47,-11.66,-5.47,-11.65,6.00,5.84,7.74,0.53,0.53,6.19
32.89,-5.33,-11.51,-5.33,-11.51,6.00,5.84,7.70,0.67,0.67,6.19
33.22,-5.19,-11.36,-5.19,-11.36,6.00,5.85,7.64,0.81,0.81,6.17
33.55,-5.05,-11.22,-5.04,-11.21,6.00,5.86,7.57,0.95,0.96,6.17
33.89,-4.90,-11.05,-4.90,-11.06,6.00,5.87,7.49,1.10,1.10,6.16
34.23,-4.75,-10.90,-4.75,-10.90,6.00,5.88,7.41,1.25,1.25,6.15
34.57,-4.61,-10.75,-4.61,-10.75,6.00,5.90,7.31,1.39,1.39,6.14
34.92,-4.47,-10.60,-4.47,-10.60,6.00,5.91,7.22,1.53,1.53,6.13
35.27,-4.33,-10.45,-4.33,-10.45,6.00,5.92,7.11,1.67,1.67,6.12
35.62,-4.19,-10.30,-4.18,-10.29,6.00,5.94,7.00,1.81,1.82,6.11
35.97,-4.03,-10.12,-4.03,-10.13,6.00,5.95,6.89,1.97,1.97,6.10
36.33,-3.88,-9.97,-3.88,-9.97,6.00,5.97,6.78,2.12,2.12,6.09
36.70,-3.74,-9.82,-3.74,-9.82,6.00,5.98,6.66,2.26,2.26,6.08
37.06,-3.62,-9.68,-3.60,-9.67,6.00,6.00,6.54,2.38,2.40,6.07
37.43,-3.46,-9.52,-3.47,-9.53,6.00,6.02,6.42,2.54,2.53,6.06
37.81,-3.34,-9.38,-3.33,-9.38,6.00,6.04,6.30,2.66,2.67,6.05
38.19,-3.20,-9.23,-3.19,-9.23,6.00,6.05,6.19,2.80,2.81,6.03
38.57,-3.05,-9.08,-3.06,-9.08,6.00,6.07,6.07,2.95,2.94,6.03
38.95,-2.93,-8.94,-2.92,-8.93,6.00,6.09,5.96,3.07,3.08,6.01
39.34,-2.78,-8.77,-2.78,-8.78,6.00,6.10,5.84,3.22,3.22,6.00
39.74,-2.67,-8.65,-2.65,-8.64,6.00,6.12,5.73,3.33,3.35,5.98
40.14,-2.51,-8.49,-2.52,-8.49,6.00,6.13,5.62,3.49,3.48,5.98
40.54,-2.40,-8.36,-2.40,-8.36,6.00,6.15,5.52,3.60,3.60,5.96
40.94,-2.27,-8.22,-2.27,-8.22,6.00,6.16,5.42,3.73,3.73,5.96
41.35,-2.16,-8.10,-2.15,-8.09,6.00,6.17,5.32,3.84,3.85,5.94
41.76,-2.02,-7.95,-2.02,-7.95,6.00,6.17,5.22,3.98,3.98,5.93
42.18,-1.90,-7.82,-1.90,-7.82,6.00,6.18,5.13,4.10,4.10,5.93
42.60,-1.79,-7.70,-1.78,-7.70,6.00,6.18,5.04,4.21,4.22,5.91
43.03,-1.68,-7.58,-1.68,-7.58,6.00,6.18,4.96,4.32,4.32,5.90
43.46,-1.57,-7.45,-1.57,-7.45,6.00,6.17,4.88,4.43,4.43,5.89
43.90,-1.46,-7.32,-1.46,-7.32,6.00,6.16,4.80,4.54,4.54,5.86
44.33,-1.36,-7.20,-1.36,-7.20,6.00,6.15,4.72,4.64,4.64,5.84
44.78,-1.25,-7.07,-1.25,-7.07,6.00,6.13,4.65,4.75,4.75,5.82
45.23,-1.14,-6.94,-1.13,-6.94,6.00,6.10,4.59,4.86,4.87,5.80
45.68,-1.01,-6.79,-1.01,-6.80,6.00,6.07,4.52,5.00,4.99,5.79
46.13,-0.90,-6.66,-0.90,-6.67,6.01,6.04,4.46,5.12,5.11,5.77
46.60,-0.79,-6.55,-0.79,-6.54,6.02,6.00,4.41,5.23,5.23,5.76
47.06,-0.70,-6.43,-0.69,-6.43,6.02,5.95,4.35,5.32,5.33,5.74
47.53,-0.59,-6.30,-0.59,-6.31,6.01,5.90,4.31,5.42,5.42,5.72
48.01,-0.49,-6.20,-0.49,-6.19,5.98,5.84,4.26,5.49,5.49,5.71
48.49,-0.40,-6.08,-0.39,-6.07,5.94,5.78,4.21,5.54,5.55,5.68
48.97,-0.29,-5.93,-0.29,-5.94,5.88,5.71,4.17,5.59,5.59,5.65
49.46,-0.19,-5.80,-0.19,-5.81,5.80,5.64,4.13,5.61,5.60,5.61
49.96,-0.10,-5.68,-0.10,-5.69,5.70,5.56,4.10,5.60,5.61,5.58
50.46,-0.01,-5.58,0.00,-5.57,5.59,5.47,4.06,5.58,5.59,5.57
50.96,0.10,-5.45,0.09,-5.45,5.47,5.38,4.03,5.57,5.56,5.55
51.47,0.19,-5.32,0.19,-5.33,5.34,5.29,4.00,5.54,5.53,5.51
51.99,0.27,-5.22,0.29,-5.21,5.22,5.19,3.97,5.49,5.50,5.49
52.51,0.38,-5.10,0.38,-5.10,5.09,5.08,3.95,5.48,5.47,5.48
53.03,0.48,-4.97,0.47,-4.98,4.98,4.98,3.92,5.46,5.45,5.45
53.56,0.55,-4.88,0.57,-4.86,4.86,4.86,3.89,5.41,5.43,5.43
54.10,0.66,-4.74,0.66,-4.74,4.74,4.75,3.87,5.40,5.40,5.40
54.64,0.76,-4.61,0.75,-4.62,4.63,4.64,3.84,5.39,5.38,5.38
55.18,0.83,-4.52,0.85,-4.50,4.51,4.52,3.82,5.34,5.36,5.35
55.74,0.94,-4.38,0.93,-4.39,4.39,4.40,3.79,5.34,5.33,5.32
56.29,1.02,-4.28,1.02,-4.28,4.28,4.27,3.77,5.30,5.30,5.31
56.86,1.11,-4.17,1.11,-4.16,4.17,4.15,3.74,5.28,5.28,5.28
57.42,1.20,-4.05,1.20,-4.05,4.05,4.03,3.71,5.26,5.25,5.25
58.00,1.28,-3.95,1.29,-3.94,3.94,3.90,3.67,5.22,5.23,5.23
58.58,1.39,-3.82,1.38,-3.83,3.83,3.78,3.64,5.22,5.21,5.21
59.16,1.47,-3.72,1.48,-3.71,3.71,3.65,3.60,5.18,5.18,5.19
59.76,1.57,-3.60,1.57,-3.59,3.59,3.52,3.56,5.16,5.16,5.17
60.35,1.67,-3.46,1.67,-3.47,3.46,3.40,3.52,5.13,5.13,5.14
60.96,1.77,-3.34,1.77,-3.34,3.33,3.27,3.47,5.10,5.10,5.11
61.57,1.87,-3.20,1.87,-3.20,3.20,3.15,3.42,5.07,5.07,5.07
62.18,1.97,-3.06,1.98,-3.06,3.07,3.02,3.37,5.04,5.04,5.04
62.80,2.08,-2.93,2.08,-2.93,2.93,2.90,3.31,5.01,5.01,5.01
63.43,2.19,-2.78,2.19,-2.79,2.79,2.77,3.25,4.99,4.98,4.98
64.07,2.29,-2.66,2.30,-2.66,2.66,2.65,3.19,4.95,4.95,4.95
64.71,2.40,-2.52,2.40,-2.52,2.52,2.53,3.12,4.92,4.92,4.92
65.35,2.51,-2.38,2.51,-2.38,2.38,2.41,3.05,4.90,4.90,4.90
66.01,2.62,-2.25,2.62,-2.25,2.25,2.29,2.97,4.87,4.87,4.87
66.67,2.73,-2.11,2.73,-2.11,2.12,2.17,2.89,4.85,4.84,4.84
67.33,2.82,-1.99,2.83,-1.98,1.99,2.05,2.81,4.81,4.81,4.81
68.01,2.92,-1.86,2.93,-1.85,1.86,1.93,2.73,4.78,4.78,4.78
68.69,3.03,-1.72,3.02,-1.73,1.73,1.82,2.64,4.76,4.75,4.75
69.37,3.10,-1.61,3.11,-1.60,1.60,1.70,2.55,4.71,4.72,4.72
70.07,3.20,-1.48,3.20,-1.48,1.48,1.59,2.45,4.68,4.68,4.68
70.77,3.30,-1.36,3.29,-1.36,1.36,1.48,2.35,4.66,4.65,4.66
71.48,3.37,-1.25,3.39,-1.24,1.24,1.37,2.26,4.61,4.63,4.63
72.19,3.48,-1.11,3.47,-1.12,1.12,1.26,2.16,4.60,4.59,4.59
72.91,3.55,-1.00,3.55,-1.00,1.00,1.15,2.05,4.56,4.56,4.55
73.64,3.62,-0.89,3.64,-0.88,0.89,1.04,1.95,4.51,4.53,4.52
74.38,3.72,-0.77,3.71,-0.78,0.78,0.93,1.85,4.50,4.49,4.49
75.12,3.78,-0.67,3.79,-0.67,0.67,0.83,1.74,4.45,4.46,4.45
75.87,3.85,-0.57,3.86,-0.56,0.57,0.72,1.63,4.42,4.42,4.42
76.63,3.93,-0.46,3.93,-0.46,0.46,0.62,1.53,4.40,4.39,4.39
77.40,3.99,-0.37,3.99,-0.36,0.36,0.52,1.42,4.36,4.36,4.36
78.17,4.06,-0.26,4.06,-0.27,0.27,0.41,1.31,4.33,4.33,4.32
78.95,4.11,-0.18,4.12,-0.17,0.17,0.31,1.20,4.28,4.29,4.30
79.74,4.19,-0.07,4.19,-0.07,0.07,0.21,1.09,4.27,4.26,4.26
80.54,4.25,0.02,4.25,0.02,-0.02,0.12,0.98,4.23,4.23,4.23
81.35,4.30,0.11,4.31,0.11,-0.12,0.02,0.87,4.19,4.19,4.19
82.16,4.36,0.20,4.36,0.20,-0.21,-0.08,0.76,4.15,4.16,4.16
82.98,4.42,0.29,4.43,0.30,-0.30,-0.17,0.65,4.12,4.12,4.13
83.81,4.49,0.41,4.49,0.40,-0.39,-0.27,0.54,4.10,4.09,4.08
84.65,4.54,0.50,4.54,0.49,-0.48,-0.36,0.43,4.06,4.06,4.05
85.50,4.58,0.56,4.59,0.57,-0.57,-0.45,0.31,4.01,4.02,4.02
86.35,4.63,0.65,4.63,0.65,-0.66,-0.54,0.20,3.98,3.98,3.98
87.22,4.68,0.74,4.68,0.74,-0.74,-0.63,0.09,3.94,3.94,3.94
88.09,4.72,0.82,4.73,0.82,-0.82,-0.72,-0.02,3.90,3.90,3.90
88.97,4.77,0.90,4.77,0.90,-0.91,-0.81,-0.13,3.87,3.86,3.87
89.86,4.80,0.98,4.81,0.98,-0.98,-0.90,-0.24,3.82,3.82,3.83
90.76,4.84,1.07,4.85,1.06,-1.06,-0.98,-0.36,3.78,3.78,3.77
91.66,4.88,1.14,4.88,1.14,-1.14,-1.07,-0.47,3.75,3.74,3.74
92.58,4.91,1.22,4.91,1.22,-1.21,-1.15,-0.58,3.70,3.70,3.69
93.51,4.93,1.28,4.94,1.28,-1.28,-1.23,-0.69,3.65,3.65,3.66
94.44,4.97,1.36,4.96,1.35,-1.36,-1.31,-0.81,3.62,3.61,3.61
95.39,4.97,1.41,4.98,1.42,-1.42,-1.39,-0.92,3.55,3.56,3.57
96.34,5.01,1.50,5.00,1.49,-1.49,-1.47,-1.03,3.52,3.51,3.51
97.30,5.02,1.56,5.03,1.56,-1.56,-1.55,-1.14,3.47,3.47,3.47
98.28,5.04,1.62,5.05,1.63,-1.62,-1.62,-1.25,3.42,3.43,3.42
99.26,5.07,1.70,5.06,1.68,-1.69,-1.70,-1.37,3.39,3.37,3.38
100.25,5.07,1.74,5.07,1.74,-1.75,-1.77,-1.48,3.33,3.33,3.33
101.25,5.07,1.79,5.09,1.81,-1.81,-1.84,-1.59,3.27,3.28,3.28
102.27,5.11,1.87,5.10,1.86,-1.86,-1.91,-1.70,3.25,3.24,3.24
103.29,5.11,1.93,5.11,1.92,-1.91,-1.98,-1.81,3.20,3.20,3.18
104.32,5.11,1.97,5.12,1.97,-1.97,-2.05,-1.91,3.15,3.15,3.15
105.37,5.11,2.01,5.11,2.01,-2.02,-2.11,-2.02,3.10,3.10,3.10
106.42,5.11,2.06,5.11,2.06,-2.07,-2.17,-2.12,3.05,3.05,3.05
107.48,5.11,2.11,5.11,2.11,-2.11,-2.24,-2.23,3.00,3.00,3.01
108.56,5.11,2.16,5.11,2.16,-2.16,-2.30,-2.33,2.95,2.95,2.95
109.64,5.11,2.21,5.11,2.21,-2.21,-2.36,-2.43,2.90,2.90,2.90
110.74,5.11,2.25,5.12,2.26,-2.25,-2.41,-2.52,2.86,2.86,2.86
111.85,5.11,2.30,5.11,2.31,-2.30,-2.47,-2.61,2.81,2.81,2.81
112.97,5.11,2.37,5.10,2.35,-2.35,-2.52,-2.70,2.76,2.75,2.75
114.10,5.08,2.38,5.09,2.39,-2.39,-2.58,-2.78,2.69,2.70,2.70
115.24,5.07,2.43,5.08,2.44,-2.43,-2.63,-2.86,2.64,2.65,2.65
116.39,5.07,2.48,5.07,2.48,-2.47,-2.68,-2.93,2.60,2.59,2.59
117.55,5.07,2.53,5.05,2.52,-2.51,-2.72,-3.00,2.56,2.54,2.54
118.73,5.02,2.54,5.04,2.56,-2.55,-2.77,-3.07,2.47,2.50,2.48
119.92,5.02,2.58,5.02,2.59,-2.58,-2.81,-3.12,2.44,2.44,2.44
121.12,5.02,2.63,5.00,2.61,-2.62,-2.85,-3.17,2.41,2.38,2.39
122.33,4.97,2.64,4.99,2.65,-2.65,-2.89,-3.22,2.32,2.34,2.34
123.55,4.97,2.68,4.97,2.68,-2.69,-2.93,-3.26,2.28,2.29,2.29
124.79,4.97,2.73,4.96,2.71,-2.72,-2.97,-3.29,2.25,2.23,2.24
126.03,4.94,2.75,4.95,2.76,-2.76,-3.00,-3.32,2.18,2.19,2.19
127.29,4.93,2.79,4.94,2.80,-2.80,-3.03,-3.33,2.13,2.14,2.14
128.57,4.93,2.85,4.93,2.84,-2.84,-3.06,-3.35,2.09,2.09,2.08
129.85,4.93,2.90,4.91,2.88,-2.87,-3.09,-3.36,2.06,2.04,2.03
131.15,4.88,2.90,4.90,2.92,-2.91,-3.12,-3.36,1.97,1.99,1.99
132.46,4.88,2.94,4.88,2.94,-2.94,-3.14,-3.35,1.94,1.94,1.94
133.79,4.88,2.98,4.87,2.97,-2.97,-3.17,-3.35,1.91,1.89,1.90
135.12,4.84,3.00,4.85,3.00,-3.00,-3.19,-3.33,1.84,1.85,1.85
136.48,4.84,3.03,4.83,3.02,-3.02,-3.21,-3.31,1.82,1.81,1.81
137.84,4.79,3.02,4.80,3.04,-3.04,-3.22,-3.29,1.75,1.76,1.77
139.22,4.79,3.08,4.78,3.06,-3.06,-3.24,-3.26,1.74,1.72,1.71
140.61,4.74,3.07,4.75,3.07,-3.07,-3.25,-3.23,1.67,1.68,1.67
142.02,4.72,3.07,4.72,3.08,-3.08,-3.26,-3.20,1.64,1.64,1.65
143.44,4.69,3.08,4.69,3.08,-3.08,-3.27,-3.17,1.61,1.60,1.61
144.87,4.65,3.08,4.66,3.09,-3.09,-3.28,-3.13,1.56,1.57,1.57
146.32,4.63,3.10,4.62,3.09,-3.09,-3.28,-3.09,1.54,1.53,1.53
147.78,4.58,3.08,4.59,3.09,-3.09,-3.29,-3.05,1.49,1.49,1.50
149.26,4.55,3.09,4.55,3.09,-3.10,-3.29,-3.01,1.46,1.46,1.46
150.75,4.51,3.10,4.51,3.09,-3.10,-3.29,-2.97,1.41,1.42,1.41
152.26,4.48,3.10,4.48,3.10,-3.10,-3.29,-2.93,1.38,1.38,1.38
153.78,4.44,3.10,4.44,3.10,-3.10,-3.29,-2.89,1.34,1.34,1.34
155.32,4.40,3.10,4.41,3.10,-3.10,-3.28,-2.85,1.30,1.30,1.30
156.88,4.37,3.11,4.36,3.10,-3.11,-3.27,-2.81,1.27,1.26,1.26
158.44,4.32,3.10,4.32,3.10,-3.11,-3.26,-2.77,1.21,1.22,1.22
160.03,4.28,3.10,4.29,3.11,-3.11,-3.26,-2.73,1.17,1.18,1.18
161.63,4.25,3.12,4.25,3.11,-3.11,-3.24,-2.70,1.14,1.14,1.14
163.24,4.22,3.13,4.22,3.12,-3.12,-3.23,-2.66,1.11,1.10,1.10
164.88,4.18,3.12,4.18,3.12,-3.12,-3.21,-2.63,1.07,1.06,1.07
166.53,4.14,3.12,4.14,3.12,-3.12,-3.20,-2.60,1.02,1.02,1.03
168.19,4.10,3.11,4.11,3.12,-3.12,-3.18,-2.57,0.98,0.99,0.99
169.87,4.07,3.12,4.07,3.12,-3.12,-3.16,-2.54,0.95,0.95,0.95
171.57,4.04,3.13,4.04,3.12,-3.12,-3.14,-2.51,0.92,0.92,0.91
173.29,3.99,3.11,3.99,3.12,-3.12,-3.12,-2.49,0.87,0.88,0.88
175.02,3.95,3.11,3.95,3.11,-3.12,-3.09,-2.47,0.84,0.83,0.84
176.77,3.90,3.10,3.91,3.11,-3.11,-3.07,-2.44,0.79,0.80,0.80
178.54,3.87,3.12,3.87,3.11,-3.11,-3.04,-2.43,0.76,0.76,0.75
180.32,3.83,3.11,3.83,3.11,-3.11,-3.02,-2.41,0.73,0.72,0.72
182.13,3.78,3.09,3.79,3.10,-3.10,-2.99,-2.40,0.68,0.69,0.69
183.95,3.74,3.10,3.74,3.09,-3.09,-2.96,-2.38,0.65,0.65,0.65
185.79,3.69,3.08,3.69,3.08,-3.08,-2.93,-2.37,0.61,0.61,0.61
187.65,3.64,3.07,3.64,3.07,-3.07,-2.89,-2.36,0.58,0.58,0.57
189.52,3.59,3.05,3.60,3.05,-3.05,-2.86,-2.36,0.54,0.55,0.54
191.42,3.55,3.04,3.55,3.04,-3.03,-2.83,-2.35,0.52,0.52,0.51
193.33,3.50,3.02,3.50,3.01,-3.01,-2.79,-2.35,0.49,0.49,0.49
195.27,3.44,2.99,3.44,2.99,-2.99,-2.75,-2.35,0.45,0.46,0.46
197.22,3.38,2.95,3.39,2.96,-2.97,-2.72,-2.35,0.42,0.42,0.43
199.19,3.34,2.95,3.34,2.94,-2.94,-2.68,-2.35,0.40,0.40,0.39
201.18,3.29,2.92,3.29,2.92,-2.92,-2.64,-2.35,0.38,0.38,0.38
203.19,3.24,2.88,3.24,2.89,-2.89,-2.60,-2.35,0.35,0.35,0.36
205.23,3.20,2.87,3.20,2.86,-2.86,-2.56,-2.36,0.34,0.34,0.33
207.28,3.15,2.82,3.16,2.83,-2.84,-2.52,-2.36,0.32,0.32,0.33
209.35,3.12,2.82,3.11,2.81,-2.81,-2.47,-2.37,0.31,0.31,0.30
211.44,3.06,2.78,3.07,2.78,-2.78,-2.43,-2.37,0.28,0.29,0.28
213.56,3.03,2.76,3.03,2.75,-2.75,-2.39,-2.38,0.29,0.28,0.28
215.69,2.98,2.71,2.98,2.71,-2.71,-2.34,-2.38,0.27,0.27,0.27
217.85,2.92,2.66,2.93,2.67,-2.68,-2.30,-2.39,0.25,0.26,0.26
220.03,2.89,2.64,2.89,2.64,-2.64,-2.25,-2.39,0.25,0.25,0.25
222.23,2.84,2.61,2.84,2.60,-2.60,-2.20,-2.40,0.25,0.25,0.24
224.45,2.80,2.56,2.80,2.56,-2.55,-2.16,-2.40,0.25,0.25,0.24
226.70,2.75,2.51,2.75,2.51,-2.51,-2.11,-2.40,0.24,0.24,0.24
228.96,2.70,2.46,2.71,2.46,-2.46,-2.06,-2.40,0.24,0.24,0.24
231.25,2.67,2.42,2.66,2.41,-2.42,-2.01,-2.39,0.25,0.24,0.25
233.57,2.61,2.36,2.62,2.37,-2.37,-1.97,-2.39,0.24,0.25,0.25
235.90,2.58,2.33,2.58,2.32,-2.32,-1.92,-2.38,0.26,0.25,0.25
238.26,2.53,2.28,2.53,2.28,-2.28,-1.87,-2.37,0.25,0.26,0.25
240.64,2.49,2.23,2.50,2.23,-2.23,-1.82,-2.35,0.26,0.27,0.26
243.05,2.46,2.19,2.46,2.18,-2.18,-1.77,-2.34,0.28,0.27,0.28
245.48,2.41,2.12,2.42,2.13,-2.13,-1.72,-2.32,0.28,0.29,0.29
247.93,2.38,2.08,2.38,2.08,-2.08,-1.67,-2.29,0.30,0.30,0.30
250.41,2.34,2.04,2.34,2.03,-2.03,-1.62,-2.27,0.31,0.31,0.30
252.92,2.29,1.97,2.30,1.98,-1.97,-1.56,-2.24,0.32,0.33,0.32
255.45,2.26,1.92,2.26,1.92,-1.91,-1.51,-2.20,0.35,0.34,0.35
258.00,2.21,1.85,2.21,1.85,-1.85,-1.46,-2.16,0.36,0.36,0.36
260.58,2.16,1.79,2.17,1.79,-1.79,-1.41,-2.12,0.37,0.38,0.37
263.19,2.11,1.72,2.12,1.72,-1.72,-1.36,-2.08,0.39,0.39,0.40
265.82,2.07,1.66,2.06,1.65,-1.66,-1.31,-2.03,0.42,0.41,0.41
268.48,2.01,1.58,2.02,1.58,-1.59,-1.25,-1.98,0.43,0.43,0.43
271.16,1.96,1.50,1.97,1.52,-1.51,-1.20,-1.93,0.45,0.46,0.46
273.87,1.93,1.46,1.92,1.45,-1.44,-1.15,-1.87,0.49,0.48,0.47
276.61,1.87,1.38,1.87,1.38,-1.37,-1.10,-1.81,0.50,0.50,0.50
279.38,1.81,1.30,1.81,1.30,-1.30,-1.05,-1.75,0.52,0.51,0.51
282.17,1.74,1.22,1.75,1.22,-1.23,-1.00,-1.69,0.52,0.52,0.53
284.99,1.69,1.14,1.70,1.15,-1.15,-0.94,-1.63,0.54,0.54,0.55
287.84,1.65,1.09,1.65,1.08,-1.08,-0.89,-1.56,0.57,0.56,0.57
290.72,1.60,1.01,1.60,1.01,-1.01,-0.84,-1.49,0.59,0.59,0.59
293.63,1.55,0.94,1.56,0.95,-0.94,-0.79,-1.42,0.61,0.61,0.61
296.57,1.51,0.88,1.51,0.88,-0.88,-0.74,-1.35,0.64,0.63,0.63
299.53,1.46,0.81,1.46,0.81,-0.81,-0.68,-1.28,0.65,0.65,0.65
302.53,1.41,0.75,1.42,0.75,-0.74,-0.63,-1.21,0.67,0.67,0.67
305.55,1.38,0.68,1.37,0.68,-0.68,-0.58,-1.13,0.70,0.69,0.70
308.61,1.32,0.60,1.33,0.61,-0.61,-0.53,-1.06,0.71,0.72,0.72
311.69,1.29,0.55,1.29,0.54,-0.55,-0.48,-0.98,0.75,0.75,0.74
314.81,1.26,0.48,1.25,0.48,-0.48,-0.43,-0.91,0.78,0.77,0.78
317.96,1.21,0.41,1.21,0.42,-0.42,-0.38,-0.83,0.79,0.80,0.80
321.14,1.17,0.36,1.17,0.35,-0.35,-0.33,-0.76,0.82,0.82,0.81
324.35,1.12,0.29,1.13,0.29,-0.29,-0.28,-0.68,0.83,0.84,0.83
327.59,1.09,0.23,1.09,0.23,-0.23,-0.23,-0.61,0.86,0.85,0.86
330.87,1.04,0.17,1.05,0.17,-0.17,-0.18,-0.53,0.87,0.88,0.88
334.18,1.00,0.11,1.01,0.11,-0.11,-0.13,-0.45,0.89,0.89,0.89
337.52,0.97,0.06,0.96,0.05,-0.05,-0.08,-0.38,0.92,0.91,0.91
340.90,0.92,-0.02,0.93,-0.01,0.01,-0.03,-0.30,0.93,0.93,0.94
344.30,0.89,-0.06,0.89,-0.06,0.06,0.02,-0.23,0.95,0.96,0.96
347.75,0.86,-0.11,0.86,-0.12,0.12,0.07,-0.15,0.98,0.98,0.97
351.23,0.82,-0.17,0.82,-0.17,0.17,0.11,-0.07,0.99,0.99,0.99
354.74,0.78,-0.23,0.78,-0.23,0.22,0.16,0.00,1.01,1.01,1.01
358.28,0.74,-0.28,0.75,-0.28,0.28,0.21,0.08,1.02,1.02,1.03
361.87,0.71,-0.33,0.72,-0.33,0.33,0.26,0.15,1.04,1.04,1.04
365.49,0.69,-0.37,0.68,-0.38,0.38,0.30,0.23,1.07,1.06,1.06
369.14,0.65,-0.42,0.65,-0.42,0.42,0.35,0.31,1.08,1.08,1.07
372.83,0.61,-0.48,0.62,-0.46,0.47,0.40,0.38,1.08,1.09,1.09
376.56,0.60,-0.49,0.59,-0.52,0.51,0.44,0.46,1.12,1.10,1.10
380.33,0.55,-0.57,0.56,-0.56,0.56,0.49,0.53,1.11,1.12,1.13
384.13,0.52,-0.61,0.53,-0.60,0.60,0.53,0.61,1.12,1.13,1.13
387.97,0.51,-0.63,0.50,-0.65,0.64,0.58,0.68,1.16,1.14,1.14
391.85,0.46,-0.69,0.47,-0.68,0.69,0.62,0.76,1.15,1.16,1.15
395.77,0.43,-0.74,0.44,-0.73,0.73,0.67,0.83,1.16,1.17,1.17
399.73,0.41,-0.77,0.40,-0.77,0.78,0.71,0.91,1.19,1.18,1.18
403.72,0.37,-0.81,0.37,-0.82,0.82,0.75,0.98,1.19,1.19,1.19
407.76,0.33,-0.86,0.34,-0.86,0.86,0.80,1.05,1.19,1.20,1.20
411.84,0.30,-0.91,0.30,-0.91,0.90,0.84,1.13,1.21,1.21,1.21
415.96,0.27,-0.95,0.27,-0.95,0.95,0.88,1.20,1.22,1.22,1.22
420.12,0.24,-0.99,0.24,-0.99,0.99,0.92,1.27,1.23,1.23,1.23
424.32,0.21,-1.03,0.21,-1.03,1.03,0.97,1.34,1.24,1.24,1.24
428.56,0.18,-1.07,0.18,-1.07,1.07,1.01,1.41,1.25,1.25,1.25
432.85,0.15,-1.11,0.15,-1.11,1.11,1.05,1.48,1.26,1.26,1.26
437.18,0.12,-1.14,0.12,-1.15,1.15,1.09,1.54,1.27,1.27,1.27
441.55,0.09,-1.19,0.09,-1.19,1.19,1.13,1.61,1.29,1.29,1.29
445.96,0.06,-1.23,0.06,-1.23,1.23,1.17,1.67,1.30,1.30,1.30
450.42,0.04,-1.26,0.03,-1.27,1.27,1.21,1.73,1.31,1.31,1.30
454.93,-0.01,-1.33,0.01,-1.31,1.31,1.25,1.78,1.30,1.32,1.32
459.48,-0.01,-1.34,-0.02,-1.35,1.35,1.29,1.84,1.34,1.33,1.33
464.07,-0.04,-1.39,-0.04,-1.39,1.38,1.32,1.89,1.34,1.34,1.35
468.71,-0.05,-1.42,-0.04,-1.41,1.41,1.36,1.94,1.36,1.37,1.37
473.40,-0.05,-1.43,-0.05,-1.44,1.44,1.40,1.98,1.39,1.39,1.38
478.13,-0.05,-1.45,-0.07,-1.46,1.47,1.43,2.03,1.42,1.40,1.40
482.91,-0.10,-1.51,-0.08,-1.49,1.49,1.47,2.06,1.40,1.41,1.41
487.74,-0.10,-1.53,-0.09,-1.52,1.52,1.51,2.10,1.42,1.43,1.43
492.62,-0.10,-1.55,-0.10,-1.55,1.55,1.54,2.13,1.45,1.44,1.45
497.55,-0.10,-1.55,-0.11,-1.57,1.58,1.58,2.16,1.48,1.46,1.46
502.52,-0.15,-1.62,-0.13,-1.60,1.61,1.61,2.18,1.46,1.48,1.48
507.55,-0.15,-1.63,-0.15,-1.64,1.63,1.65,2.20,1.49,1.49,1.49
512.62,-0.15,-1.65,-0.17,-1.67,1.67,1.68,2.22,1.52,1.50,1.51
517.75,-0.19,-1.71,-0.17,-1.69,1.70,1.71,2.23,1.51,1.53,1.52
522.93,-0.19,-1.73,-0.19,-1.73,1.73,1.74,2.24,1.54,1.54,1.54
