frequency,raw,error,smoothed,error_smoothed,equalization,parametric_eq,fixed_band_eq,equalized_raw,equalized_smoothed,target
20.00,-11.08,-12.93,-11.15,-13.03,6.00,4.57,2.88,-5.08,-5.15,1.85
20.20,-11.01,-12.91,-11.06,-12.97,6.00,4.66,2.96,-5.01,-5.06,1.90
20.40,-10.94,-12.89,-10.95,-12.90,6.00,4.74,3.04,-4.94,-4.95,1.95
20.61,-10.87,-12.85,-10.85,-12.83,6.00,4.83,3.13,-4.87,-4.85,1.98
20.81,-10.80,-12.83,-10.74,-12.76,6.00,4.92,3.21,-4.80,-4.74,2.03
21.02,-10.73,-12.80,-10.64,-12.68,6.00,5.01,3.30,-4.73,-4.64,2.07
21.23,-10.58,-12.67,-10.53,-12.59,6.00,5.10,3.40,-4.58,-4.53,2.09
21.44,-10.43,-12.54,-10.42,-12.50,6.00,5.19,3.49,-4.43,-4.42,2.11
21.66,-10.29,-12.41,-10.30,-12.41,6.00,5.28,3.59,-4.29,-4.30,2.13
21.87,-10.14,-12.28,-10.19,-12.31,6.00,5.36,3.69,-4.14,-4.19,2.14
22.09,-10.01,-12.17,-10.07,-12.21,6.00,5.45,3.80,-4.01,-4.07,2.16
22.31,-9.93,-12.10,-9.95,-12.11,6.00,5.54,3.90,-3.93,-3.95,2.16
22.54,-9.84,-12.01,-9.82,-11.98,6.00,5.62,4.01,-3.84,-3.82,2.16
22.76,-9.75,-11.92,-9.68,-11.85,6.00,5.71,4.12,-3.75,-3.68,2.16
22.99,-9.66,-11.82,-9.55,-11.72,6.00,5.79,4.24,-3.66,-3.55,2.15
23.22,-9.49,-11.65,-9.42,-11.59,6.00,5.87,4.35,-3.49,-3.42,2.15
23.45,-9.30,-11.46,-9.30,-11.47,6.00,5.95,4.47,-3.30,-3.30,2.15
23.69,-9.13,-11.29,-9.18,-11.35,6.00,6.03,4.60,-3.13,-3.18,2.16
23.92,-8.94,-11.10,-9.07,-11.24,6.00,6.11,4.72,-2.94,-3.07,2.16
24.16,-8.84,-11.01,-8.95,-11.12,6.00,6.18,4.85,-2.84,-2.95,2.17
24.40,-8.77,-10.95,-8.83,-11.00,6.00,6.25,4.98,-2.77,-2.83,2.18
24.65,-8.70,-10.87,-8.71,-10.88,6.00,6.32,5.11,-2.70,-2.71,2.17
24.89,-8.64,-10.81,-8.59,-10.76,6.00,6.38,5.24,-2.64,-2.59,2.17
25.14,-8.54,-10.71,-8.47,-10.64,6.00,6.44,5.37,-2.54,-2.47,2.17
25.39,-8.42,-10.60,-8.36,-10.53,6.00,6.49,5.50,-2.42,-2.36,2.18
25.65,-8.30,-10.48,-8.25,-10.43,6.00,6.54,5.64,-2.30,-2.25,2.18
25.91,-8.18,-10.34,-8.15,-10.33,6.00,6.59,5.77,-2.18,-2.15,2.17
26.16,-8.05,-10.22,-8.06,-10.23,6.00,6.63,5.91,-2.05,-2.06,2.17
26.43,-7.93,-10.09,-7.96,-10.13,6.00,6.67,6.04,-1.93,-1.96,2.17
26.69,-7.79,-9.96,-7.86,-10.03,6.00,6.70,6.17,-1.79,-1.86,2.17
26.96,-7.66,-9.84,-7.75,-9.92,6.00,6.72,6.30,-1.66,-1.75,2.18
27.23,-7.58,-9.76,-7.63,-9.80,6.00,6.74,6.43,-1.58,-1.63,2.18
27.50,-7.51,-9.69,-7.52,-9.68,6.00,6.75,6.55,-1.51,-1.52,2.17
27.77,-7.44,-9.61,-7.40,-9.57,6.00,6.76,6.67,-1.44,-1.40,2.16
28.05,-7.36,-9.53,-7.29,-9.45,6.00,6.76,6.78,-1.36,-1.29,2.16
28.33,-7.23,-9.38,-7.17,-9.33,6.00,6.76,6.89,-1.23,-1.17,2.15
28.62,-7.11,-9.26,-7.05,-9.22,6.00,6.75,6.99,-1.11,-1.05,2.15
28.90,-6.97,-9.13,-6.94,-9.10,6.00,6.73,7.08,-0.97,-0.94,2.16
29.19,-6.83,-8.98,-6.82,-8.98,6.00,6.71,7.17,-0.83,-0.82,2.15
29.48,-6.69,-8.86,-6.70,-8.86,6.00,6.68,7.24,-0.69,-0.70,2.17
29.78,-6.54,-8.70,-6.58,-8.74,6.00,6.65,7.31,-0.54,-0.58,2.16
30.08,-6.41,-8.57,-6.47,-8.62,6.00,6.61,7.36,-0.41,-0.47,2.17
30.38,-6.30,-8.46,-6.36,-8.51,6.00,6.57,7.40,-0.30,-0.36,2.16
30.68,-6.20,-8.36,-6.25,-8.40,6.00,6.52,7.43,-0.20,-0.25,2.15
30.99,-6.10,-8.26,-6.13,-8.29,6.00,6.47,7.45,-0.10,-0.13,2.15
31.30,-6.01,-8.17,-6.02,-8.18,6.00,6.41,7.45,-0.01,-0.02,2.15
31.61,-5.91,-8.06,-5.92,-8.07,6.00,6.35,7.44,0.09,0.08,2.15
31.93,-5.81,-7.96,-5.82,-7.97,6.00,6.28,7.42,0.19,0.18,2.15
32.24,-5.75,-7.89,-5.73,-7.87,6.00,6.22,7.39,0.25,0.27,2.14
32.57,-5.69,-7.84,-5.64,-7.78,6.00,6.14,7.34,0.31,0.36,2.15
32.89,-5.63,-7.78,-5.55,-7.68,6.00,6.07,7.29,0.37,0.45,2.15
33.22,-5.50,-7.64,-5.45,-7.59,6.00,5.99,7.22,0.50,0.55,2.13
33.55,-5.33,-7.46,-5.36,-7.49,6.00,5.91,7.15,0.67,0.64,2.13
33.89,-5.16,-7.28,-5.25,-7.38,6.00,5.83,7.06,0.84,0.75,2.12
34.23,-5.07,-7.20,-5.15,-7.27,6.00,5.74,6.97,0.93,0.85,2.13
34.57,-5.03,-7.15,-5.04,-7.16,6.00,5.66,6.87,0.97,0.96,2.12
34.92,-4.99,-7.11,-4.93,-7.05,6.00,5.57,6.76,1.01,1.07,2.12
35.27,-4.88,-7.00,-4.82,-6.94,6.00,5.48,6.65,1.12,1.18,2.11
35.62,-4.74,-6.86,-4.71,-6.82,6.00,5.39,6.53,1.26,1.29,2.11
35.97,-4.61,-6.72,-4.59,-6.71,6.00,5.30,6.41,1.39,1.41,2.11
36.33,-4.48,-6.60,-4.48,-6.59,6.00,5.21,6.29,1.52,1.52,2.12
36.70,-4.34,-6.45,-4.38,-6.49,6.00,5.11,6.16,1.66,1.62,2.10
37.06,-4.22,-6.32,-4.28,-6.39,6.00,5.02,6.03,1.78,1.72,2.10
37.43,-4.14,-6.26,-4.18,-6.29,5.99,4.93,5.91,1.85,1.81,2.12
37.81,-4.07,-6.19,-4.08,-6.19,5.97,4.84,5.78,1.89,1.89,2.12
38.19,-3.97,-6.09,-3.97,-6.09,5.93,4.75,5.65,1.96,1.97,2.11
38.57,-3.86,-5.99,-3.86,-5.98,5.89,4.66,5.52,2.03,2.03,2.12
38.95,-3.74,-5.87,-3.76,-5.88,5.83,4.56,5.39,2.09,2.07,2.13
39.34,-3.66,-5.79,-3.66,-5.79,5.76,4.47,5.27,2.10,2.10,2.13
39.74,-3.58,-5.71,-3.57,-5.69,5.69,4.38,5.14,2.10,2.12,2.12
40.14,-3.50,-5.63,-3.47,-5.60,5.60,4.30,5.02,2.09,2.13,2.13
40.54,-3.40,-5.53,-3.37,-5.50,5.50,4.21,4.90,2.09,2.13,2.13
40.94,-3.29,-5.42,-3.27,-5.40,5.40,4.12,4.78,2.11,2.13,2.12
41.35,-3.18,-5.30,-3.18,-5.30,5.30,4.03,4.67,2.12,2.12,2.12
41.76,-3.07,-5.19,-3.09,-5.21,5.21,3.95,4.56,2.13,2.12,2.12
42.18,-2.97,-5.09,-3.00,-5.11,5.11,3.86,4.45,2.14,2.11,2.12
42.60,-2.89,-5.00,-2.91,-5.01,5.01,3.78,4.34,2.12,2.10,2.11
43.03,-2.80,-4.91,-2.81,-4.91,4.91,3.70,4.23,2.10,2.09,2.10
43.46,-2.68,-4.78,-2.72,-4.80,4.80,3.62,4.13,2.12,2.08,2.10
43.90,-2.56,-4.64,-2.62,-4.69,4.69,3.54,4.03,2.13,2.08,2.07
44.33,-2.52,-4.58,-2.52,-4.59,4.59,3.46,3.94,2.07,2.07,2.06
44.78,-2.50,-4.55,-2.43,-4.49,4.49,3.38,3.84,1.99,2.06,2.05
45.23,-2.43,-4.47,-2.35,-4.39,4.39,3.31,3.75,1.96,2.05,2.04
45.68,-2.31,-4.34,-2.27,-4.30,4.30,3.23,3.67,1.99,2.03,2.02
46.13,-2.18,-4.19,-2.19,-4.21,4.21,3.16,3.58,2.03,2.02,2.01
46.60,-2.05,-4.07,-2.10,-4.12,4.12,3.08,3.50,2.06,2.01,2.01
47.06,-1.93,-3.93,-2.02,-4.02,4.02,3.01,3.42,2.09,2.00,2.00
47.53,-1.88,-3.87,-1.94,-3.93,3.93,2.94,3.34,2.05,1.99,1.99
48.01,-1.83,-3.83,-1.86,-3.83,3.83,2.87,3.27,2.00,1.98,2.00
48.49,-1.79,-3.77,-1.77,-3.74,3.74,2.80,3.20,1.95,1.97,1.98
48.97,-1.74,-3.70,-1.69,-3.65,3.65,2.74,3.13,1.91,1.96,1.96
49.46,-1.66,-3.61,-1.61,-3.56,3.56,2.67,3.06,1.90,1.95,1.94
49.96,-1.57,-3.50,-1.52,-3.46,3.46,2.61,3.00,1.89,1.94,1.93
50.46,-1.46,-3.39,-1.43,-3.37,3.37,2.54,2.93,1.90,1.93,1.93
50.96,-1.35,-3.27,-1.36,-3.28,3.28,2.48,2.87,1.93,1.92,1.92
51.47,-1.27,-3.18,-1.28,-3.20,3.20,2.42,2.81,1.93,1.91,1.90
51.99,-1.20,-3.10,-1.21,-3.11,3.11,2.36,2.76,1.91,1.91,1.90
52.51,-1.09,-2.99,-1.13,-3.02,3.02,2.30,2.70,1.93,1.90,1.90
53.03,-0.99,-2.89,-1.04,-2.93,2.93,2.24,2.65,1.94,1.89,1.90
53.56,-1.00,-2.89,-0.97,-2.85,2.85,2.19,2.60,1.85,1.88,1.89
54.10,-0.96,-2.84,-0.90,-2.78,2.78,2.13,2.54,1.81,1.88,1.88
54.64,-0.74,-2.61,-0.83,-2.71,2.71,2.08,2.49,1.96,1.87,1.87
55.18,-0.64,-2.51,-0.77,-2.64,2.64,2.02,2.44,1.99,1.87,1.87
55.74,-0.75,-2.61,-0.71,-2.57,2.57,1.97,2.40,1.82,1.86,1.86
56.29,-0.73,-2.59,-0.65,-2.50,2.50,1.91,2.35,1.77,1.85,1.86
56.86,-0.59,-2.44,-0.60,-2.44,2.44,1.86,2.30,1.85,1.85,1.84
57.42,-0.52,-2.34,-0.54,-2.38,2.38,1.81,2.25,1.85,1.84,1.82
58.00,-0.49,-2.31,-0.48,-2.31,2.31,1.76,2.21,1.81,1.82,1.82
58.58,-0.48,-2.30,-0.44,-2.24,2.24,1.71,2.16,1.76,1.81,1.82
59.16,-0.44,-2.25,-0.40,-2.19,2.19,1.66,2.11,1.75,1.79,1.80
59.76,-0.34,-2.13,-0.35,-2.12,2.12,1.62,2.07,1.78,1.77,1.79
60.35,-0.26,-2.02,-0.31,-2.06,2.06,1.57,2.02,1.80,1.75,1.76
60.96,-0.19,-1.92,-0.28,-2.01,2.01,1.52,1.97,1.81,1.72,1.73
61.57,-0.21,-1.91,-0.24,-1.93,1.93,1.48,1.92,1.72,1.69,1.70
62.18,-0.20,-1.86,-0.19,-1.85,1.85,1.43,1.88,1.65,1.66,1.66
62.80,-0.12,-1.75,-0.15,-1.78,1.78,1.39,1.83,1.66,1.63,1.62
63.43,-0.09,-1.68,-0.11,-1.71,1.71,1.34,1.78,1.61,1.60,1.59
64.07,-0.09,-1.64,-0.06,-1.62,1.62,1.30,1.73,1.53,1.56,1.55
64.71,-0.13,-1.65,-0.01,-1.54,1.54,1.26,1.68,1.40,1.52,1.51
65.35,-0.04,-1.53,0.04,-1.44,1.44,1.22,1.63,1.40,1.49,1.49
66.01,0.17,-1.28,0.10,-1.35,1.35,1.17,1.57,1.52,1.45,1.45
66.67,0.09,-1.32,0.15,-1.26,1.26,1.13,1.52,1.35,1.41,1.41
67.33,0.16,-1.21,0.21,-1.16,1.16,1.09,1.47,1.32,1.37,1.37
68.01,0.37,-0.97,0.27,-1.06,1.06,1.05,1.41,1.43,1.33,1.34
68.69,0.29,-1.01,0.33,-0.96,0.96,1.01,1.36,1.25,1.30,1.30
69.37,0.37,-0.89,0.39,-0.87,0.87,0.97,1.31,1.24,1.25,1.26
70.07,0.56,-0.66,0.44,-0.78,0.78,0.93,1.25,1.33,1.21,1.21
70.77,0.54,-0.65,0.49,-0.68,0.68,0.89,1.19,1.22,1.17,1.18
71.48,0.57,-0.57,0.54,-0.58,0.58,0.85,1.14,1.15,1.13,1.14
72.19,0.61,-0.48,0.59,-0.49,0.49,0.82,1.08,1.10,1.08,1.09
72.91,0.61,-0.43,0.62,-0.42,0.42,0.78,1.02,1.02,1.04,1.04
73.64,0.67,-0.33,0.65,-0.34,0.34,0.74,0.97,1.01,1.00,1.00
74.38,0.69,-0.26,0.69,-0.26,0.26,0.70,0.91,0.95,0.95,0.95
75.12,0.65,-0.26,0.72,-0.19,0.19,0.66,0.85,0.84,0.91,0.91
75.87,0.65,-0.21,0.74,-0.13,0.13,0.62,0.79,0.78,0.87,0.86
76.63,0.75,-0.07,0.76,-0.06,0.06,0.59,0.73,0.81,0.83,0.82
77.40,0.81,0.02,0.77,-0.02,0.02,0.55,0.68,0.82,0.79,0.78
78.17,0.81,0.07,0.77,0.03,-0.03,0.51,0.62,0.78,0.75,0.74
78.95,0.81,0.09,0.78,0.07,-0.07,0.47,0.56,0.74,0.71,0.72
79.74,0.81,0.13,0.79,0.11,-0.11,0.43,0.50,0.70,0.68,0.68
80.54,0.81,0.16,0.78,0.14,-0.14,0.40,0.44,0.67,0.64,0.65
81.35,0.81,0.20,0.77,0.16,-0.16,0.36,0.38,0.65,0.61,0.61
82.16,0.80,0.22,0.75,0.17,-0.17,0.32,0.32,0.63,0.58,0.58
82.98,0.74,0.18,0.72,0.18,-0.18,0.28,0.26,0.56,0.55,0.55
83.81,0.68,0.17,0.69,0.18,-0.18,0.24,0.20,0.50,0.51,0.51
84.65,0.63,0.15,0.66,0.18,-0.18,0.20,0.14,0.45,0.48,0.48
85.50,0.61,0.15,0.62,0.17,-0.17,0.16,0.08,0.44,0.45,0.45
86.35,0.60,0.18,0.57,0.16,-0.16,0.13,0.02,0.44,0.41,0.42
87.22,0.57,0.18,0.53,0.15,-0.15,0.09,-0.04,0.42,0.38,0.39
88.09,0.50,0.15,0.50,0.15,-0.15,0.05,-0.10,0.35,0.35,0.35
88.97,0.42,0.10,0.47,0.15,-0.15,0.00,-0.16,0.26,0.31,0.32
89.86,0.41,0.13,0.44,0.16,-0.16,-0.04,-0.22,0.24,0.28,0.28
90.76,0.42,0.17,0.43,0.18,-0.18,-0.08,-0.28,0.23,0.25,0.24
91.66,0.42,0.20,0.43,0.21,-0.21,-0.12,-0.34,0.20,0.21,0.22
92.58,0.42,0.25,0.43,0.25,-0.25,-0.16,-0.40,0.17,0.18,0.17
93.51,0.41,0.26,0.44,0.29,-0.29,-0.21,-0.47,0.12,0.15,0.14
94.44,0.40,0.28,0.46,0.34,-0.34,-0.25,-0.53,0.05,0.12,0.12
95.39,0.43,0.34,0.49,0.40,-0.40,-0.29,-0.59,0.02,0.08,0.09
96.34,0.56,0.51,0.53,0.47,-0.47,-0.34,-0.65,0.08,0.05,0.05
97.30,0.63,0.61,0.57,0.55,-0.55,-0.38,-0.71,0.08,0.02,0.02
98.28,0.61,0.61,0.62,0.62,-0.62,-0.43,-0.78,-0.01,-0.01,-0.01
99.26,0.66,0.69,0.66,0.69,-0.69,-0.48,-0.84,-0.04,-0.04,-0.04
100.25,0.70,0.76,0.70,0.76,-0.76,-0.52,-0.90,-0.07,-0.07,-0.07
101.25,0.75,0.84,0.73,0.83,-0.83,-0.57,-0.96,-0.08,-0.10,-0.09
102.27,0.74,0.86,0.77,0.89,-0.89,-0.62,-1.02,-0.16,-0.13,-0.12
103.29,0.85,1.01,0.80,0.95,-0.95,-0.67,-1.08,-0.11,-0.16,-0.16
104.32,0.93,1.11,0.82,1.01,-1.01,-0.72,-1.14,-0.08,-0.19,-0.18
105.37,0.91,1.12,0.84,1.06,-1.06,-0.77,-1.20,-0.15,-0.22,-0.21
106.42,0.86,1.10,0.85,1.10,-1.10,-0.82,-1.26,-0.24,-0.25,-0.24
107.48,0.81,1.09,0.85,1.14,-1.14,-0.87,-1.32,-0.33,-0.29,-0.28
108.56,0.80,1.12,0.86,1.18,-1.18,-0.93,-1.37,-0.38,-0.32,-0.32
109.64,0.86,1.21,0.86,1.21,-1.21,-0.98,-1.42,-0.36,-0.35,-0.35
110.74,0.87,1.26,0.86,1.24,-1.24,-1.03,-1.48,-0.38,-0.39,-0.39
111.85,0.85,1.25,0.85,1.27,-1.27,-1.08,-1.53,-0.43,-0.42,-0.41
112.97,0.84,1.29,0.85,1.30,-1.30,-1.14,-1.57,-0.46,-0.45,-0.46
114.10,0.84,1.32,0.84,1.33,-1.33,-1.19,-1.62,-0.49,-0.48,-0.48
115.24,0.84,1.35,0.84,1.35,-1.35,-1.24,-1.66,-0.51,-0.51,-0.51
116.39,0.84,1.39,0.84,1.37,-1.37,-1.30,-1.70,-0.54,-0.54,-0.55
117.55,0.84,1.41,0.84,1.40,-1.40,-1.35,-1.73,-0.57,-0.56,-0.57
118.73,0.85,1.44,0.85,1.43,-1.43,-1.40,-1.77,-0.59,-0.58,-0.60
119.92,0.85,1.45,0.86,1.46,-1.46,-1.45,-1.80,-0.62,-0.60,-0.60
121.12,0.86,1.49,0.86,1.48,-1.48,-1.50,-1.82,-0.63,-0.62,-0.63
122.33,0.87,1.51,0.86,1.50,-1.50,-1.55,-1.84,-0.64,-0.64,-0.65
123.55,0.88,1.53,0.87,1.53,-1.53,-1.60,-1.86,-0.65,-0.66,-0.65
124.79,0.88,1.54,0.88,1.55,-1.55,-1.64,-1.87,-0.67,-0.67,-0.67
126.03,0.89,1.57,0.89,1.58,-1.58,-1.68,-1.88,-0.69,-0.68,-0.68
127.29,0.90,1.58,0.91,1.61,-1.61,-1.72,-1.89,-0.71,-0.70,-0.69
128.57,0.90,1.61,0.92,1.63,-1.63,-1.76,-1.89,-0.73,-0.71,-0.71
129.85,0.91,1.63,0.92,1.64,-1.64,-1.80,-1.89,-0.73,-0.72,-0.72
131.15,0.91,1.64,0.92,1.65,-1.65,-1.83,-1.89,-0.74,-0.74,-0.74
132.46,0.92,1.67,0.91,1.66,-1.66,-1.86,-1.88,-0.74,-0.75,-0.75
133.79,0.92,1.68,0.90,1.66,-1.66,-1.88,-1.86,-0.74,-0.76,-0.76
135.12,0.93,1.71,0.89,1.66,-1.66,-1.90,-1.85,-0.74,-0.77,-0.78
136.48,0.94,1.72,0.88,1.67,-1.67,-1.92,-1.83,-0.73,-0.78,-0.78
137.84,0.95,1.75,0.87,1.67,-1.67,-1.93,-1.81,-0.72,-0.80,-0.80
139.22,0.88,1.70,0.86,1.67,-1.67,-1.94,-1.79,-0.79,-0.81,-0.82
140.61,0.79,1.63,0.84,1.66,-1.66,-1.95,-1.76,-0.88,-0.83,-0.84
142.02,0.72,1.56,0.81,1.66,-1.66,-1.95,-1.73,-0.94,-0.84,-0.84
143.44,0.73,1.59,0.79,1.66,-1.66,-1.95,-1.71,-0.93,-0.87,-0.86
144.87,0.74,1.62,0.77,1.66,-1.66,-1.94,-1.68,-0.93,-0.89,-0.89
146.32,0.74,1.65,0.75,1.67,-1.67,-1.93,-1.64,-0.93,-0.92,-0.91
147.78,0.74,1.67,0.72,1.67,-1.67,-1.92,-1.61,-0.94,-0.96,-0.93
149.26,0.75,1.71,0.68,1.68,-1.68,-1.90,-1.58,-0.93,-1.00,-0.97
150.75,0.71,1.73,0.64,1.68,-1.68,-1.88,-1.54,-0.98,-1.04,-1.02
152.26,0.63,1.70,0.60,1.69,-1.69,-1.86,-1.51,-1.07,-1.09,-1.07
153.78,0.54,1.67,0.56,1.71,-1.71,-1.84,-1.47,-1.17,-1.15,-1.13
155.32,0.53,1.72,0.53,1.73,-1.73,-1.81,-1.44,-1.20,-1.20,-1.19
156.88,0.55,1.80,0.49,1.76,-1.76,-1.78,-1.40,-1.21,-1.26,-1.25
158.44,0.51,1.83,0.45,1.77,-1.77,-1.75,-1.37,-1.27,-1.32,-1.33
160.03,0.37,1.76,0.40,1.78,-1.78,-1.71,-1.34,-1.42,-1.38,-1.40
161.63,0.30,1.76,0.36,1.80,-1.80,-1.68,-1.30,-1.50,-1.43,-1.46
163.24,0.25,1.76,0.32,1.81,-1.81,-1.64,-1.27,-1.56,-1.49,-1.51
164.88,0.23,1.78,0.28,1.81,-1.81,-1.61,-1.23,-1.59,-1.53,-1.55
166.53,0.22,1.81,0.25,1.82,-1.82,-1.57,-1.20,-1.60,-1.57,-1.59
168.19,0.22,1.83,0.22,1.81,-1.81,-1.53,-1.17,-1.60,-1.60,-1.62
169.87,0.22,1.86,0.19,1.81,-1.81,-1.49,-1.14,-1.60,-1.62,-1.64
171.57,0.20,1.85,0.16,1.80,-1.80,-1.45,-1.11,-1.61,-1.64,-1.65
173.29,0.14,1.80,0.13,1.78,-1.78,-1.41,-1.08,-1.65,-1.65,-1.66
175.02,0.09,1.74,0.10,1.75,-1.75,-1.37,-1.05,-1.67,-1.65,-1.66
176.77,0.09,1.75,0.07,1.72,-1.72,-1.34,-1.03,-1.64,-1.66,-1.66
178.54,0.09,1.74,0.04,1.69,-1.69,-1.30,-1.00,-1.60,-1.65,-1.66
180.32,-0.00,1.64,-0.00,1.65,-1.65,-1.26,-0.97,-1.65,-1.65,-1.64
182.13,-0.07,1.55,-0.04,1.61,-1.61,-1.22,-0.95,-1.68,-1.65,-1.63
183.95,-0.09,1.54,-0.09,1.56,-1.56,-1.19,-0.92,-1.65,-1.65,-1.63
185.79,-0.13,1.49,-0.15,1.50,-1.50,-1.15,-0.90,-1.63,-1.65,-1.63
187.65,-0.17,1.47,-0.22,1.43,-1.43,-1.12,-0.88,-1.60,-1.65,-1.64
189.52,-0.29,1.35,-0.30,1.35,-1.35,-1.08,-0.86,-1.64,-1.65,-1.64
191.42,-0.41,1.24,-0.39,1.27,-1.27,-1.05,-0.84,-1.69,-1.66,-1.65
193.33,-0.47,1.19,-0.47,1.20,-1.20,-1.02,-0.82,-1.67,-1.67,-1.67
195.27,-0.50,1.18,-0.55,1.13,-1.13,-0.98,-0.80,-1.63,-1.68,-1.68
197.22,-0.56,1.13,-0.64,1.05,-1.05,-0.95,-0.78,-1.62,-1.69,-1.69
199.19,-0.65,1.06,-0.73,0.98,-0.98,-0.92,-0.76,-1.63,-1.70,-1.71
201.18,-0.78,0.94,-0.81,0.91,-0.91,-0.90,-0.74,-1.69,-1.72,-1.72
203.19,-0.95,0.78,-0.88,0.85,-0.85,-0.87,-0.73,-1.80,-1.73,-1.73
205.23,-1.08,0.67,-0.96,0.79,-0.79,-0.84,-0.71,-1.87,-1.75,-1.75
207.28,-1.15,0.60,-1.03,0.73,-0.73,-0.81,-0.70,-1.89,-1.76,-1.75
209.35,-1.14,0.63,-1.09,0.69,-0.69,-0.79,-0.68,-1.83,-1.78,-1.77
211.44,-1.09,0.71,-1.14,0.65,-0.65,-0.76,-0.67,-1.74,-1.79,-1.80
213.56,-1.12,0.67,-1.18,0.62,-0.62,-0.74,-0.66,-1.74,-1.80,-1.80
215.69,-1.18,0.62,-1.22,0.59,-0.59,-0.72,-0.64,-1.77,-1.81,-1.81
217.85,-1.28,0.53,-1.25,0.57,-0.57,-0.70,-0.63,-1.85,-1.82,-1.81
220.03,-1.31,0.51,-1.27,0.55,-0.55,-0.67,-0.62,-1.87,-1.82,-1.82
222.23,-1.22,0.62,-1.28,0.55,-0.55,-0.65,-0.61,-1.77,-1.82,-1.84
224.45,-1.25,0.57,-1.28,0.54,-0.54,-0.63,-0.59,-1.80,-1.82,-1.83
226.70,-1.30,0.52,-1.27,0.54,-0.54,-0.61,-0.58,-1.85,-1.82,-1.82
228.96,-1.24,0.57,-1.27,0.54,-0.54,-0.60,-0.57,-1.78,-1.81,-1.81
231.25,-1.28,0.51,-1.27,0.53,-0.53,-0.58,-0.56,-1.81,-1.80,-1.80
233.57,-1.28,0.50,-1.27,0.52,-0.52,-0.56,-0.55,-1.80,-1.78,-1.78
235.90,-1.23,0.53,-1.26,0.50,-0.50,-0.54,-0.54,-1.74,-1.76,-1.77
238.26,-1.25,0.50,-1.24,0.50,-0.50,-0.53,-0.53,-1.75,-1.74,-1.75
240.64,-1.23,0.50,-1.23,0.50,-0.50,-0.51,-0.52,-1.73,-1.72,-1.73
243.05,-1.22,0.47,-1.21,0.49,-0.49,-0.50,-0.51,-1.71,-1.70,-1.69
245.48,-1.21,0.46,-1.19,0.48,-0.48,-0.48,-0.50,-1.69,-1.67,-1.67
247.93,-1.17,0.46,-1.18,0.46,-0.46,-0.47,-0.49,-1.64,-1.65,-1.63
250.41,-1.15,0.47,-1.17,0.45,-0.45,-0.46,-0.48,-1.61,-1.62,-1.62
252.92,-1.14,0.44,-1.15,0.44,-0.44,-0.44,-0.47,-1.58,-1.59,-1.58
255.45,-1.12,0.44,-1.14,0.43,-0.43,-0.43,-0.46,-1.55,-1.57,-1.56
258.00,-1.12,0.41,-1.13,0.41,-0.41,-0.42,-0.45,-1.54,-1.54,-1.53
260.58,-1.11,0.40,-1.12,0.39,-0.39,-0.41,-0.44,-1.51,-1.51,-1.52
263.19,-1.11,0.37,-1.12,0.37,-0.37,-0.40,-0.43,-1.48,-1.49,-1.48
265.82,-1.11,0.35,-1.12,0.34,-0.34,-0.39,-0.42,-1.45,-1.46,-1.46
268.48,-1.11,0.33,-1.12,0.31,-0.31,-0.38,-0.41,-1.42,-1.43,-1.44
271.16,-1.12,0.28,-1.13,0.28,-0.28,-0.37,-0.40,-1.40,-1.40,-1.40
273.87,-1.12,0.26,-1.13,0.24,-0.24,-0.36,-0.39,-1.37,-1.38,-1.39
276.61,-1.12,0.23,-1.14,0.21,-0.21,-0.35,-0.38,-1.33,-1.35,-1.35
279.38,-1.12,0.20,-1.16,0.16,-0.16,-0.34,-0.37,-1.29,-1.32,-1.32
282.17,-1.14,0.15,-1.17,0.13,-0.13,-0.33,-0.36,-1.27,-1.29,-1.29
284.99,-1.20,0.05,-1.17,0.09,-0.09,-0.32,-0.35,-1.29,-1.26,-1.26
287.84,-1.22,0.02,-1.17,0.06,-0.06,-0.31,-0.34,-1.28,-1.23,-1.24
290.72,-1.20,-0.00,-1.17,0.03,-0.03,-0.31,-0.33,-1.23,-1.20,-1.20
293.63,-1.18,-0.01,-1.17,0.00,-0.00,-0.30,-0.32,-1.19,-1.17,-1.18
296.57,-1.17,-0.03,-1.16,-0.02,0.02,-0.29,-0.31,-1.15,-1.14,-1.14
299.53,-1.16,-0.05,-1.16,-0.04,0.04,-0.28,-0.30,-1.12,-1.11,-1.11
302.53,-1.15,-0.06,-1.14,-0.06,0.06,-0.28,-0.29,-1.09,-1.08,-1.09
305.55,-1.15,-0.11,-1.13,-0.07,0.07,-0.27,-0.28,-1.08,-1.06,-1.04
308.61,-1.13,-0.11,-1.11,-0.08,0.08,-0.27,-0.27,-1.05,-1.03,-1.03
311.69,-1.03,-0.03,-1.09,-0.09,0.09,-0.26,-0.26,-0.95,-1.01,-1.00
314.81,-1.02,-0.05,-1.07,-0.09,0.09,-0.25,-0.25,-0.94,-0.98,-0.97
317.96,-1.01,-0.06,-1.04,-0.08,0.08,-0.25,-0.24,-0.93,-0.96,-0.95
321.14,-1.01,-0.07,-1.02,-0.08,0.08,-0.24,-0.23,-0.93,-0.94,-0.94
324.35,-1.01,-0.09,-1.00,-0.07,0.07,-0.24,-0.22,-0.94,-0.92,-0.93
327.59,-1.02,-0.11,-0.98,-0.07,0.07,-0.23,-0.21,-0.96,-0.91,-0.91
330.87,-0.95,-0.05,-0.95,-0.06,0.06,-0.23,-0.20,-0.89,-0.89,-0.90
334.18,-0.92,-0.04,-0.94,-0.05,0.05,-0.22,-0.19,-0.87,-0.88,-0.88
337.52,-0.92,-0.05,-0.92,-0.05,0.05,-0.22,-0.18,-0.87,-0.87,-0.87
340.90,-0.92,-0.07,-0.90,-0.04,0.04,-0.21,-0.17,-0.88,-0.86,-0.85
344.30,-0.87,-0.03,-0.89,-0.03,0.03,-0.21,-0.16,-0.84,-0.85,-0.85
347.75,-0.83,0.01,-0.87,-0.02,0.02,-0.21,-0.15,-0.81,-0.85,-0.85
351.23,-0.82,0.02,-0.85,-0.01,0.01,-0.20,-0.15,-0.82,-0.84,-0.84
354.74,-0.82,0.02,-0.83,0.01,-0.01,-0.20,-0.14,-0.83,-0.84,-0.84
358.28,-0.81,0.02,-0.80,0.03,-0.03,-0.20,-0.13,-0.84,-0.83,-0.83
361.87,-0.81,0.02,-0.78,0.05,-0.05,-0.19,-0.12,-0.86,-0.83,-0.83
365.49,-0.80,0.02,-0.76,0.07,-0.07,-0.19,-0.11,-0.87,-0.83,-0.82
369.14,-0.79,0.04,-0.75,0.08,-0.08,-0.19,-0.10,-0.87,-0.83,-0.83
372.83,-0.72,0.11,-0.73,0.10,-0.10,-0.18,-0.10,-0.82,-0.83,-0.83
376.56,-0.68,0.15,-0.71,0.12,-0.12,-0.18,-0.09,-0.80,-0.83,-0.84
380.33,-0.67,0.15,-0.70,0.13,-0.13,-0.18,-0.08,-0.81,-0.83,-0.83
384.13,-0.66,0.16,-0.69,0.15,-0.15,-0.17,-0.07,-0.81,-0.84,-0.83
387.97,-0.66,0.18,-0.68,0.17,-0.17,-0.17,-0.06,-0.83,-0.84,-0.84
391.85,-0.66,0.19,-0.66,0.18,-0.18,-0.17,-0.06,-0.85,-0.84,-0.85
395.77,-0.65,0.19,-0.65,0.20,-0.20,-0.17,-0.05,-0.85,-0.85,-0.84
399.73,-0.66,0.19,-0.65,0.21,-0.21,-0.17,-0.04,-0.87,-0.86,-0.85
403.72,-0.66,0.19,-0.65,0.21,-0.21,-0.16,-0.03,-0.87,-0.86,-0.85
407.76,-0.66,0.20,-0.66,0.20,-0.20,-0.16,-0.03,-0.86,-0.86,-0.86
411.84,-0.66,0.20,-0.69,0.18,-0.18,-0.16,-0.02,-0.84,-0.87,-0.86
415.96,-0.67,0.19,-0.71,0.16,-0.16,-0.16,-0.01,-0.83,-0.87,-0.86
420.12,-0.66,0.20,-0.72,0.14,-0.14,-0.16,-0.01,-0.80,-0.87,-0.86
424.32,-0.68,0.18,-0.74,0.12,-0.12,-0.15,-0.00,-0.81,-0.86,-0.86
428.56,-0.72,0.13,-0.75,0.10,-0.10,-0.15,0.00,-0.82,-0.85,-0.86
432.85,-0.74,0.10,-0.75,0.08,-0.08,-0.15,0.01,-0.82,-0.83,-0.85
437.18,-0.81,0.02,-0.76,0.05,-0.05,-0.15,0.02,-0.86,-0.81,-0.84
441.55,-0.86,-0.07,-0.76,0.02,-0.02,-0.15,0.02,-0.88,-0.79,-0.80
445.96,-0.86,-0.10,-0.76,-0.00,0.00,-0.15,0.02,-0.86,-0.75,-0.77
450.42,-0.81,-0.08,-0.74,-0.03,0.03,-0.15,0.03,-0.79,-0.72,-0.74
454.93,-0.73,-0.04,-0.72,-0.04,0.04,-0.14,0.03,-0.69,-0.68,-0.69
459.48,-0.62,0.02,-0.69,-0.06,0.06,-0.14,0.04,-0.56,-0.63,-0.64
464.07,-0.59,-0.00,-0.65,-0.06,0.06,-0.14,0.04,-0.53,-0.59,-0.59
468.71,-0.62,-0.09,-0.60,-0.06,0.06,-0.14,0.04,-0.56,-0.54,-0.53
