frequency,raw,error,smoothed,error_smoothed,equalization,parametric_eq,equalized_raw,equalized_smoothed,target
20.00,3.02,-3.86,3.01,-3.87,3.87,1.33,6.88,6.88,6.88
20.20,3.05,-3.84,3.04,-3.84,3.84,1.37,6.88,6.88,6.88
20.40,3.08,-3.81,3.08,-3.81,3.81,1.41,6.88,6.88,6.88
20.61,3.11,-3.78,3.11,-3.78,3.78,1.45,6.88,6.89,6.89
20.81,3.14,-3.75,3.14,-3.75,3.75,1.49,6.88,6.89,6.89
21.02,3.17,-3.72,3.17,-3.72,3.72,1.54,6.88,6.89,6.89
21.23,3.21,-3.69,3.20,-3.69,3.69,1.58,6.90,6.89,6.89
21.44,3.24,-3.66,3.23,-3.66,3.66,1.63,6.90,6.89,6.90
21.66,3.27,-3.63,3.27,-3.63,3.63,1.68,6.90,6.90,6.90
21.87,3.30,-3.60,3.30,-3.60,3.60,1.73,6.90,6.90,6.90
22.09,3.33,-3.58,3.33,-3.57,3.57,1.78,6.90,6.90,6.90
22.31,3.36,-3.55,3.36,-3.54,3.54,1.83,6.90,6.90,6.90
22.54,3.40,-3.51,3.39,-3.51,3.51,1.89,6.91,6.90,6.91
22.76,3.43,-3.48,3.43,-3.48,3.48,1.94,6.91,6.91,6.91
22.99,3.46,-3.45,3.46,-3.45,3.45,2.00,6.91,6.91,6.91
23.22,3.49,-3.42,3.49,-3.42,3.42,2.06,6.91,6.91,6.91
23.45,3.52,-3.40,3.52,-3.39,3.39,2.12,6.91,6.91,6.91
23.69,3.56,-3.36,3.55,-3.36,3.36,2.18,6.92,6.92,6.92
23.92,3.59,-3.33,3.58,-3.33,3.33,2.24,6.92,6.92,6.92
24.16,3.62,-3.30,3.61,-3.31,3.31,2.30,6.92,6.92,6.92
24.40,3.65,-3.28,3.64,-3.28,3.28,2.37,6.92,6.92,6.92
24.65,3.68,-3.25,3.67,-3.25,3.25,2.43,6.93,6.92,6.93
24.89,3.71,-3.22,3.70,-3.22,3.22,2.50,6.93,6.93,6.93
25.14,3.74,-3.19,3.73,-3.20,3.20,2.56,6.93,6.93,6.93
25.39,3.76,-3.18,3.76,-3.17,3.17,2.63,6.93,6.93,6.93
25.65,3.79,-3.15,3.79,-3.14,3.14,2.70,6.93,6.93,6.93
25.91,3.82,-3.12,3.82,-3.12,3.12,2.76,6.93,6.94,6.94
26.16,3.85,-3.09,3.85,-3.09,3.09,2.83,6.94,6.94,6.94
26.43,3.88,-3.06,3.88,-3.06,3.06,2.89,6.94,6.94,6.94
26.69,3.91,-3.04,3.90,-3.04,3.04,2.96,6.94,6.94,6.94
26.96,3.94,-3.01,3.93,-3.01,3.01,3.02,6.95,6.94,6.94
27.23,3.96,-2.99,3.96,-2.99,2.99,3.08,6.94,6.94,6.95
27.50,3.99,-2.96,3.99,-2.96,2.96,3.14,6.95,6.95,6.95
27.77,4.02,-2.93,4.01,-2.93,2.93,3.19,6.95,6.95,6.95
28.05,4.04,-2.91,4.04,-2.91,2.91,3.25,6.95,6.95,6.95
28.33,4.07,-2.88,4.07,-2.88,2.88,3.30,6.95,6.95,6.95
28.62,4.10,-2.86,4.09,-2.86,2.86,3.35,6.96,6.95,6.95
28.90,4.12,-2.84,4.12,-2.84,2.84,3.39,6.95,6.95,6.95
29.19,4.15,-2.81,4.14,-2.81,2.81,3.43,6.96,6.95,6.95
29.48,4.17,-2.79,4.16,-2.79,2.79,3.47,6.96,6.95,6.96
29.78,4.19,-2.77,4.19,-2.77,2.77,3.50,6.95,6.96,6.96
30.08,4.21,-2.75,4.21,-2.75,2.75,3.52,6.95,6.96,6.96
30.38,4.23,-2.73,4.23,-2.73,2.73,3.55,6.95,6.96,6.96
30.68,4.25,-2.71,4.25,-2.71,2.71,3.56,6.95,6.96,6.96
30.99,4.27,-2.69,4.27,-2.69,2.69,3.57,6.96,6.96,6.96
31.30,4.29,-2.67,4.28,-2.67,2.67,3.58,6.96,6.96,6.96
31.61,4.31,-2.65,4.30,-2.66,2.66,3.58,6.96,6.96,6.96
31.93,4.33,-2.63,4.32,-2.64,2.64,3.57,6.97,6.96,6.96
32.24,4.34,-2.62,4.33,-2.62,2.62,3.56,6.96,6.95,6.96
32.57,4.35,-2.61,4.34,-2.61,2.61,3.55,6.96,6.95,6.96
32.89,4.36,-2.60,4.36,-2.60,2.60,3.53,6.95,6.95,6.95
33.22,4.37,-2.59,4.37,-2.58,2.58,3.50,6.95,6.95,6.95
33.55,4.38,-2.58,4.38,-2.57,2.57,3.47,6.94,6.95,6.95
33.89,4.40,-2.56,4.40,-2.55,2.55,3.44,6.95,6.95,6.95
34.23,4.41,-2.54,4.41,-2.54,2.54,3.40,6.95,6.95,6.95
34.57,4.42,-2.53,4.42,-2.53,2.53,3.36,6.94,6.95,6.95
34.92,4.44,-2.51,4.43,-2.51,2.51,3.32,6.95,6.95,6.95
35.27,4.45,-2.50,4.45,-2.50,2.50,3.27,6.94,6.94,6.95
35.62,4.46,-2.49,4.46,-2.48,2.48,3.23,6.94,6.94,6.94
35.97,4.48,-2.47,4.48,-2.47,2.47,3.18,6.94,6.94,6.94
36.33,4.49,-2.45,4.49,-2.45,2.45,3.13,6.94,6.94,6.94
36.70,4.51,-2.43,4.50,-2.43,2.43,3.07,6.94,6.94,6.94
37.06,4.52,-2.42,4.52,-2.42,2.42,3.02,6.93,6.93,6.94
37.43,4.54,-2.40,4.53,-2.40,2.40,2.97,6.94,6.93,6.93
37.81,4.55,-2.38,4.55,-2.38,2.38,2.91,6.93,6.93,6.93
38.19,4.57,-2.36,4.56,-2.37,2.37,2.86,6.93,6.93,6.93
38.57,4.58,-2.35,4.57,-2.35,2.35,2.81,6.93,6.92,6.92
38.95,4.59,-2.33,4.58,-2.33,2.33,2.76,6.92,6.92,6.92
39.34,4.60,-2.32,4.60,-2.32,2.32,2.71,6.91,6.91,6.91
39.74,4.61,-2.30,4.61,-2.30,2.30,2.65,6.91,6.91,6.91
40.14,4.62,-2.29,4.62,-2.29,2.29,2.61,6.90,6.90,6.90
40.54,4.63,-2.27,4.63,-2.27,2.27,2.56,6.90,6.90,6.90
40.94,4.64,-2.26,4.64,-2.26,2.26,2.51,6.89,6.90,6.90
41.35,4.65,-2.25,4.65,-2.24,2.24,2.47,6.89,6.89,6.89
41.76,4.66,-2.23,4.66,-2.23,2.23,2.42,6.88,6.89,6.89
42.18,4.67,-2.22,4.67,-2.21,2.21,2.38,6.88,6.88,6.88
42.60,4.68,-2.20,4.68,-2.20,2.20,2.34,6.87,6.88,6.88
43.03,4.69,-2.19,4.69,-2.18,2.18,2.30,6.87,6.87,6.87
43.46,4.70,-2.17,4.70,-2.17,2.17,2.26,6.86,6.86,6.87
43.90,4.72,-2.14,4.71,-2.15,2.15,2.23,6.87,6.86,6.86
44.33,4.72,-2.14,4.72,-2.14,2.14,2.19,6.85,6.85,6.85
44.78,4.73,-2.12,4.72,-2.12,2.12,2.16,6.85,6.85,6.85
45.23,4.73,-2.11,4.73,-2.11,2.11,2.13,6.84,6.84,6.84
45.68,4.74,-2.10,4.73,-2.10,2.10,2.10,6.83,6.83,6.83
46.13,4.74,-2.09,4.74,-2.09,2.09,2.08,6.82,6.82,6.82
46.60,4.75,-2.07,4.74,-2.08,2.08,2.05,6.82,6.81,6.81
47.06,4.75,-2.06,4.74,-2.06,2.06,2.03,6.81,6.80,6.80
47.53,4.74,-2.06,4.74,-2.05,2.05,2.01,6.79,6.79,6.79
48.01,4.74,-2.05,4.74,-2.04,2.04,1.99,6.78,6.78,6.78
48.49,4.74,-2.03,4.73,-2.03,2.03,1.97,6.77,6.77,6.77
48.97,4.73,-2.03,4.73,-2.02,2.02,1.95,6.75,6.75,6.76
49.46,4.73,-2.02,4.73,-2.01,2.01,1.93,6.74,6.74,6.74
49.96,4.72,-2.01,4.73,-2.00,2.00,1.92,6.72,6.73,6.73
50.46,4.72,-2.00,4.72,-1.99,1.99,1.91,6.71,6.72,6.72
50.96,4.72,-1.99,4.72,-1.98,1.98,1.89,6.70,6.70,6.70
51.47,4.72,-1.97,4.72,-1.97,1.97,1.88,6.69,6.69,6.69
51.99,4.72,-1.96,4.72,-1.96,1.96,1.87,6.67,6.67,6.67
52.51,4.72,-1.94,4.72,-1.94,1.94,1.86,6.66,6.66,6.66
53.03,4.72,-1.93,4.72,-1.93,1.93,1.85,6.64,6.64,6.64
53.56,4.72,-1.91,4.71,-1.91,1.91,1.84,6.63,6.63,6.63
54.10,4.72,-1.90,4.71,-1.90,1.90,1.83,6.61,6.61,6.61
54.64,4.72,-1.88,4.72,-1.88,1.88,1.82,6.60,6.60,6.60
55.18,4.72,-1.86,4.72,-1.86,1.86,1.82,6.58,6.58,6.58
55.74,4.72,-1.85,4.72,-1.85,1.85,1.81,6.56,6.56,6.56
56.29,4.72,-1.83,4.72,-1.83,1.83,1.80,6.55,6.55,6.55
56.86,4.72,-1.81,4.72,-1.81,1.81,1.79,6.53,6.53,6.53
57.42,4.72,-1.79,4.72,-1.79,1.79,1.78,6.51,6.51,6.51
58.00,4.72,-1.77,4.72,-1.77,1.77,1.77,6.49,6.49,6.49
58.58,4.72,-1.76,4.72,-1.75,1.75,1.75,6.47,6.47,6.47
59.16,4.72,-1.74,4.72,-1.73,1.73,1.74,6.45,6.45,6.45
59.76,4.72,-1.72,4.72,-1.71,1.71,1.72,6.43,6.43,6.43
60.35,4.72,-1.70,4.72,-1.69,1.69,1.71,6.41,6.41,6.41
60.96,4.72,-1.67,4.72,-1.67,1.67,1.69,6.39,6.39,6.39
61.57,4.72,-1.65,4.72,-1.65,1.65,1.67,6.37,6.37,6.37
62.18,4.72,-1.63,4.71,-1.63,1.63,1.65,6.35,6.35,6.34
62.80,4.72,-1.61,4.71,-1.61,1.61,1.63,6.32,6.32,6.32
63.43,4.72,-1.58,4.71,-1.59,1.59,1.60,6.30,6.30,6.30
64.07,4.72,-1.56,4.71,-1.56,1.56,1.58,6.28,6.27,6.27
64.71,4.72,-1.53,4.71,-1.54,1.54,1.55,6.25,6.24,6.25
65.35,4.72,-1.50,4.71,-1.51,1.51,1.52,6.23,6.22,6.22
66.01,4.71,-1.49,4.71,-1.48,1.48,1.49,6.19,6.19,6.19
66.67,4.70,-1.47,4.71,-1.45,1.45,1.46,6.15,6.16,6.17
67.33,4.70,-1.44,4.71,-1.42,1.42,1.43,6.12,6.13,6.14
68.01,4.70,-1.41,4.71,-1.39,1.39,1.39,6.08,6.10,6.11
68.69,4.71,-1.37,4.72,-1.35,1.35,1.36,6.06,6.07,6.08
69.37,4.72,-1.33,4.73,-1.32,1.32,1.32,6.03,6.04,6.05
70.07,4.73,-1.29,4.73,-1.28,1.28,1.28,6.00,6.01,6.02
70.77,4.75,-1.24,4.74,-1.23,1.23,1.24,5.98,5.98,5.98
71.48,4.76,-1.19,4.75,-1.19,1.19,1.20,5.95,5.95,5.95
72.19,4.77,-1.15,4.76,-1.15,1.15,1.16,5.92,5.91,5.92
72.91,4.79,-1.10,4.77,-1.11,1.11,1.12,5.89,5.88,5.88
73.64,4.80,-1.05,4.79,-1.06,1.06,1.08,5.86,5.85,5.85
74.38,4.80,-1.02,4.80,-1.02,1.02,1.04,5.82,5.81,5.81
75.12,4.81,-0.97,4.80,-0.98,0.98,1.00,5.78,5.78,5.78
75.87,4.81,-0.94,4.81,-0.94,0.94,0.95,5.74,5.74,5.74
76.63,4.82,-0.89,4.81,-0.90,0.90,0.91,5.71,5.71,5.71
77.40,4.82,-0.85,4.81,-0.86,0.86,0.87,5.68,5.67,5.67
78.17,4.82,-0.82,4.81,-0.82,0.82,0.82,5.64,5.64,5.63
78.95,4.81,-0.79,4.81,-0.79,0.79,0.78,5.60,5.60,5.60
79.74,4.81,-0.75,4.80,-0.76,0.76,0.74,5.56,5.56,5.56
80.54,4.80,-0.72,4.79,-0.73,0.73,0.69,5.52,5.52,5.52
81.35,4.80,-0.69,4.78,-0.70,0.70,0.65,5.49,5.48,5.48
82.16,4.79,-0.66,4.77,-0.67,0.67,0.61,5.45,5.44,5.44
82.98,4.77,-0.64,4.76,-0.64,0.64,0.56,5.41,5.40,5.41
83.81,4.76,-0.61,4.75,-0.61,0.61,0.52,5.37,5.36,5.37
84.65,4.75,-0.58,4.74,-0.58,0.58,0.48,5.33,5.33,5.33
85.50,4.73,-0.57,4.73,-0.55,0.55,0.44,5.28,5.29,5.29
86.35,4.71,-0.55,4.73,-0.52,0.52,0.40,5.23,5.25,5.25
87.22,4.70,-0.52,4.72,-0.49,0.49,0.35,5.19,5.21,5.22
88.09,4.70,-0.48,4.72,-0.46,0.46,0.31,5.15,5.17,5.18
88.97,4.71,-0.43,4.71,-0.42,0.42,0.27,5.13,5.14,5.14
89.86,4.72,-0.39,4.71,-0.39,0.39,0.23,5.10,5.10,5.10
90.76,4.72,-0.35,4.71,-0.35,0.35,0.19,5.07,5.06,5.06
91.66,4.72,-0.31,4.71,-0.31,0.31,0.15,5.03,5.02,5.03
92.58,4.72,-0.27,4.71,-0.27,0.27,0.11,4.99,4.98,4.99
93.51,4.72,-0.23,4.71,-0.23,0.23,0.07,4.95,4.94,4.95
94.44,4.72,-0.19,4.71,-0.19,0.19,0.03,4.91,4.90,4.91
95.39,4.72,-0.15,4.72,-0.15,0.15,-0.01,4.87,4.87,4.87
96.34,4.72,-0.11,4.72,-0.11,0.11,-0.05,4.82,4.83,4.83
97.30,4.72,-0.07,4.72,-0.07,0.07,-0.09,4.78,4.78,4.78
98.28,4.72,-0.03,4.72,-0.02,0.02,-0.13,4.74,4.74,4.74
99.26,4.72,0.02,4.72,0.02,-0.02,-0.17,4.70,4.70,4.70
100.25,4.72,0.06,4.72,0.06,-0.06,-0.21,4.66,4.66,4.66
101.25,4.72,0.10,4.72,0.10,-0.10,-0.25,4.61,4.61,4.61
102.27,4.72,0.14,4.72,0.14,-0.14,-0.29,4.57,4.57,4.57
103.29,4.72,0.19,4.72,0.19,-0.19,-0.32,4.53,4.53,4.53
104.32,4.72,0.23,4.72,0.23,-0.23,-0.36,4.49,4.49,4.49
105.37,4.72,0.27,4.72,0.27,-0.27,-0.40,4.44,4.44,4.44
106.42,4.72,0.31,4.72,0.31,-0.31,-0.43,4.40,4.40,4.40
107.48,4.72,0.36,4.72,0.36,-0.36,-0.47,4.36,4.36,4.36
108.56,4.72,0.40,4.72,0.40,-0.40,-0.50,4.32,4.32,4.32
109.64,4.72,0.44,4.72,0.44,-0.44,-0.54,4.27,4.27,4.27
110.74,4.72,0.49,4.72,0.49,-0.49,-0.57,4.23,4.23,4.23
111.85,4.72,0.53,4.71,0.53,-0.53,-0.60,4.18,4.18,4.19
112.97,4.72,0.57,4.71,0.58,-0.58,-0.64,4.14,4.14,4.14
114.10,4.72,0.62,4.71,0.62,-0.62,-0.67,4.10,4.09,4.10
115.24,4.72,0.66,4.72,0.66,-0.66,-0.69,4.05,4.05,4.06
116.39,4.72,0.70,4.72,0.71,-0.71,-0.72,4.01,4.01,4.01
117.55,4.72,0.75,4.72,0.75,-0.75,-0.75,3.96,3.97,3.97
118.73,4.72,0.79,4.72,0.80,-0.80,-0.77,3.92,3.92,3.93
119.92,4.72,0.83,4.73,0.84,-0.84,-0.80,3.87,3.88,3.89
121.12,4.72,0.87,4.73,0.89,-0.89,-0.82,3.83,3.84,3.85
122.33,4.72,0.91,4.73,0.93,-0.93,-0.84,3.79,3.80,3.81
123.55,4.73,0.96,4.73,0.97,-0.97,-0.86,3.76,3.76,3.77
124.79,4.74,1.01,4.73,1.00,-1.00,-0.88,3.73,3.73,3.73
126.03,4.75,1.06,4.73,1.04,-1.04,-0.89,3.71,3.69,3.69
127.29,4.74,1.08,4.72,1.07,-1.07,-0.91,3.67,3.65,3.65
128.57,4.73,1.11,4.71,1.09,-1.09,-0.92,3.63,3.62,3.62
129.85,4.72,1.13,4.69,1.11,-1.11,-0.93,3.60,3.58,3.58
131.15,4.69,1.14,4.68,1.13,-1.13,-0.95,3.56,3.55,3.55
132.46,4.68,1.16,4.66,1.14,-1.14,-0.96,3.53,3.51,3.52
133.79,4.65,1.16,4.64,1.15,-1.15,-0.96,3.49,3.48,3.48
135.12,4.60,1.14,4.61,1.16,-1.16,-0.97,3.44,3.45,3.45
136.48,4.58,1.15,4.58,1.16,-1.16,-0.98,3.41,3.42,3.42
137.84,4.54,1.14,4.55,1.17,-1.17,-0.98,3.37,3.39,3.39
139.22,4.51,1.14,4.52,1.17,-1.17,-0.99,3.34,3.36,3.36
140.61,4.49,1.15,4.49,1.17,-1.17,-0.99,3.32,3.33,3.34
142.02,4.47,1.16,4.47,1.16,-1.16,-0.99,3.30,3.30,3.31
143.44,4.45,1.16,4.44,1.16,-1.16,-1.00,3.28,3.28,3.28
144.87,4.41,1.15,4.41,1.16,-1.16,-1.00,3.24,3.25,3.26
146.32,4.39,1.16,4.39,1.16,-1.16,-1.00,3.23,3.23,3.23
147.78,4.36,1.15,4.36,1.16,-1.16,-1.01,3.20,3.20,3.21
149.26,4.33,1.15,4.34,1.16,-1.16,-1.01,3.17,3.18,3.18
150.75,4.30,1.14,4.31,1.15,-1.15,-1.01,3.14,3.15,3.16
152.26,4.29,1.15,4.28,1.15,-1.15,-1.01,3.14,3.13,3.13
153.78,4.26,1.15,4.25,1.14,-1.14,-1.02,3.11,3.11,3.11
155.32,4.24,1.15,4.22,1.14,-1.14,-1.02,3.10,3.08,3.08
156.88,4.20,1.14,4.18,1.13,-1.13,-1.02,3.07,3.06,3.06
158.44,4.17,1.14,4.14,1.11,-1.11,-1.03,3.05,3.03,3.03
160.03,4.12,1.11,4.11,1.10,-1.10,-1.03,3.02,3.01,3.01
161.63,4.08,1.10,4.07,1.09,-1.09,-1.04,2.99,2.98,2.98
163.24,4.05,1.09,4.03,1.07,-1.07,-1.05,2.97,2.96,2.96
164.88,3.99,1.06,3.99,1.06,-1.06,-1.05,2.93,2.93,2.93
166.53,3.95,1.04,3.95,1.05,-1.05,-1.06,2.90,2.90,2.91
168.19,3.92,1.03,3.91,1.04,-1.04,-1.07,2.88,2.88,2.88
169.87,3.87,1.01,3.88,1.03,-1.03,-1.08,2.84,2.85,2.86
171.57,3.85,1.01,3.86,1.03,-1.03,-1.09,2.82,2.83,2.84
173.29,3.83,1.01,3.84,1.03,-1.03,-1.10,2.80,2.81,2.82
175.02,3.81,1.01,3.83,1.04,-1.04,-1.12,2.77,2.79,2.80
176.77,3.80,1.01,3.82,1.05,-1.05,-1.13,2.74,2.77,2.78
178.54,3.80,1.03,3.83,1.07,-1.07,-1.14,2.72,2.75,2.76
180.32,3.81,1.06,3.84,1.10,-1.10,-1.16,2.71,2.74,2.75
182.13,3.83,1.09,3.85,1.13,-1.13,-1.18,2.70,2.72,2.74
183.95,3.87,1.14,3.88,1.16,-1.16,-1.19,2.70,2.71,2.72
185.79,3.91,1.20,3.90,1.20,-1.20,-1.21,2.71,2.70,2.71
187.65,3.94,1.24,3.93,1.24,-1.24,-1.23,2.70,2.69,2.70
189.52,3.98,1.29,3.96,1.27,-1.27,-1.25,2.70,2.68,2.69
191.42,4.01,1.33,3.99,1.31,-1.31,-1.27,2.70,2.68,2.68
193.33,4.04,1.37,4.01,1.34,-1.34,-1.29,2.69,2.67,2.67
195.27,4.06,1.40,4.03,1.37,-1.37,-1.32,2.68,2.66,2.66
197.22,4.08,1.43,4.05,1.40,-1.40,-1.34,2.67,2.65,2.65
199.19,4.09,1.45,4.07,1.42,-1.42,-1.36,2.66,2.64,2.64
201.18,4.10,1.47,4.08,1.44,-1.44,-1.39,2.65,2.63,2.63
203.19,4.09,1.46,4.08,1.46,-1.46,-1.41,2.63,2.62,2.62
205.23,4.08,1.46,4.08,1.47,-1.47,-1.43,2.60,2.61,2.61
207.28,4.07,1.46,4.08,1.49,-1.49,-1.46,2.58,2.60,2.60
209.35,4.07,1.47,4.08,1.49,-1.49,-1.48,2.57,2.59,2.59
211.44,4.07,1.48,4.08,1.50,-1.50,-1.51,2.56,2.58,2.58
213.56,4.07,1.49,4.07,1.51,-1.51,-1.53,2.56,2.56,2.57
215.69,4.07,1.50,4.07,1.52,-1.52,-1.55,2.55,2.55,2.56
217.85,4.07,1.51,4.07,1.53,-1.53,-1.57,2.54,2.54,2.55
220.03,4.07,1.52,4.07,1.54,-1.54,-1.59,2.53,2.54,2.54
222.23,4.07,1.53,4.07,1.55,-1.55,-1.61,2.52,2.53,2.54
224.45,4.07,1.54,4.08,1.56,-1.56,-1.63,2.51,2.52,2.53
226.70,4.07,1.55,4.08,1.56,-1.56,-1.65,2.50,2.52,2.52
228.96,4.08,1.57,4.08,1.57,-1.57,-1.67,2.50,2.51,2.51
231.25,4.08,1.57,4.08,1.58,-1.58,-1.68,2.50,2.51,2.50
233.57,4.09,1.59,4.08,1.58,-1.58,-1.69,2.51,2.50,2.50
235.90,4.09,1.59,4.08,1.58,-1.58,-1.70,2.51,2.50,2.49
238.26,4.09,1.60,4.07,1.58,-1.58,-1.71,2.51,2.49,2.49
240.64,4.08,1.59,4.06,1.57,-1.57,-1.71,2.51,2.49,2.48
243.05,4.07,1.59,4.04,1.56,-1.56,-1.71,2.51,2.48,2.48
245.48,4.05,1.57,4.02,1.55,-1.55,-1.71,2.50,2.48,2.48
247.93,4.01,1.53,4.00,1.53,-1.53,-1.71,2.48,2.47,2.47
250.41,3.99,1.52,3.97,1.51,-1.51,-1.70,2.48,2.46,2.47
252.92,3.94,1.47,3.95,1.49,-1.49,-1.69,2.45,2.46,2.47
255.45,3.92,1.46,3.92,1.47,-1.47,-1.68,2.45,2.45,2.46
258.00,3.89,1.43,3.89,1.45,-1.45,-1.66,2.44,2.44,2.46
260.58,3.85,1.40,3.86,1.43,-1.43,-1.64,2.42,2.43,2.45
263.19,3.82,1.37,3.84,1.41,-1.41,-1.62,2.41,2.43,2.44
265.82,3.79,1.35,3.82,1.39,-1.39,-1.60,2.39,2.42,2.44
268.48,3.77,1.34,3.80,1.38,-1.38,-1.57,2.39,2.42,2.43
271.16,3.76,1.33,3.78,1.36,-1.36,-1.54,2.39,2.41,2.42
273.87,3.76,1.34,3.76,1.35,-1.35,-1.51,2.41,2.41,2.42
276.61,3.75,1.34,3.74,1.33,-1.33,-1.48,2.41,2.41,2.41
279.38,3.74,1.33,3.72,1.32,-1.32,-1.44,2.42,2.40,2.41
282.17,3.73,1.33,3.70,1.30,-1.30,-1.41,2.42,2.40,2.40
284.99,3.72,1.32,3.68,1.29,-1.29,-1.37,2.43,2.39,2.40
287.84,3.69,1.29,3.66,1.27,-1.27,-1.33,2.42,2.39,2.39
290.72,3.66,1.27,3.64,1.25,-1.25,-1.29,2.41,2.39,2.39
293.63,3.63,1.24,3.62,1.23,-1.23,-1.25,2.40,2.39,2.39
296.57,3.60,1.21,3.59,1.21,-1.21,-1.21,2.39,2.39,2.39
299.53,3.56,1.17,3.57,1.18,-1.18,-1.17,2.37,2.38,2.39
302.53,3.53,1.14,3.54,1.16,-1.16,-1.12,2.37,2.38,2.39
305.55,3.50,1.11,3.52,1.14,-1.14,-1.08,2.36,2.38,2.39
308.61,3.47,1.07,3.50,1.11,-1.11,-1.04,2.35,2.38,2.39
311.69,3.46,1.06,3.47,1.09,-1.09,-0.99,2.37,2.38,2.39
314.81,3.45,1.05,3.45,1.06,-1.06,-0.95,2.38,2.39,2.40
317.96,3.43,1.03,3.43,1.04,-1.04,-0.90,2.38,2.39,2.40
321.14,3.42,1.02,3.41,1.02,-1.02,-0.86,2.40,2.39,2.40
324.35,3.40,0.99,3.39,1.00,-1.00,-0.82,2.40,2.40,2.40
327.59,3.39,0.98,3.38,0.97,-0.97,-0.77,2.41,2.40,2.41
330.87,3.38,0.97,3.36,0.95,-0.95,-0.73,2.43,2.41,2.41
334.18,3.36,0.95,3.34,0.93,-0.93,-0.69,2.43,2.41,2.41
337.52,3.32,0.90,3.31,0.90,-0.90,-0.64,2.42,2.42,2.41
340.90,3.29,0.87,3.29,0.87,-0.87,-0.60,2.41,2.42,2.41
344.30,3.26,0.84,3.26,0.84,-0.84,-0.56,2.41,2.42,2.42
347.75,3.24,0.82,3.23,0.81,-0.81,-0.52,2.43,2.42,2.42
351.23,3.21,0.78,3.19,0.78,-0.78,-0.48,2.43,2.42,2.42
354.74,3.18,0.75,3.16,0.74,-0.74,-0.43,2.43,2.42,2.42
358.28,3.14,0.71,3.13,0.71,-0.71,-0.39,2.43,2.42,2.43
361.87,3.09,0.66,3.10,0.67,-0.67,-0.35,2.41,2.42,2.43
365.49,3.05,0.62,3.06,0.64,-0.64,-0.31,2.41,2.43,2.43
369.14,3.02,0.58,3.03,0.60,-0.60,-0.28,2.42,2.43,2.43
372.83,2.98,0.54,3.00,0.56,-0.56,-0.24,2.41,2.43,2.44
376.56,2.95,0.51,2.96,0.53,-0.53,-0.20,2.42,2.44,2.44
380.33,2.93,0.48,2.93,0.49,-0.49,-0.16,2.44,2.44,2.44
384.13,2.91,0.46,2.90,0.45,-0.45,-0.12,2.45,2.44,2.45
387.97,2.89,0.43,2.86,0.42,-0.42,-0.08,2.47,2.45,2.45
391.85,2.86,0.40,2.83,0.38,-0.38,-0.05,2.47,2.45,2.46
395.77,2.82,0.35,2.80,0.34,-0.34,-0.01,2.47,2.46,2.46
399.73,2.78,0.31,2.78,0.31,-0.31,0.02,2.47,2.47,2.47
403.72,2.73,0.25,2.75,0.27,-0.27,0.06,2.46,2.48,2.47
407.76,2.69,0.21,2.71,0.23,-0.23,0.10,2.45,2.48,2.48
411.84,2.67,0.18,2.68,0.20,-0.20,0.13,2.47,2.49,2.49
415.96,2.65,0.16,2.65,0.16,-0.16,0.17,2.49,2.49,2.49
420.12,2.62,0.12,2.61,0.12,-0.12,0.20,2.50,2.49,2.50
424.32,2.60,0.10,2.57,0.08,-0.08,0.23,2.52,2.49,2.50
428.56,2.56,0.05,2.53,0.04,-0.04,0.27,2.52,2.49,2.50
432.85,2.52,0.01,2.50,0.00,-0.00,0.30,2.52,2.49,2.50
437.18,2.47,-0.04,2.46,-0.04,0.04,0.33,2.50,2.50,2.51
441.55,2.42,-0.09,2.43,-0.08,0.08,0.36,2.49,2.50,2.51
445.96,2.37,-0.14,2.39,-0.11,0.11,0.40,2.48,2.51,2.51
450.42,2.33,-0.18,2.35,-0.15,0.15,0.43,2.48,2.51,2.51
454.93,2.30,-0.21,2.32,-0.19,0.19,0.46,2.49,2.51,2.51
459.48,2.27,-0.24,2.28,-0.23,0.23,0.49,2.49,2.51,2.51
464.07,2.25,-0.27,2.24,-0.26,0.26,0.51,2.51,2.51,2.51
468.71,2.24,-0.28,2.21,-0.30,0.30,0.54,2.54,2.51,2.51
473.40,2.20,-0.32,2.18,-0.34,0.34,0.57,2.53,2.51,2.52
478.13,2.16,-0.36,2.15,-0.37,0.37,0.59,2.53,2.52,2.52
482.91,2.11,-0.42,2.12,-0.41,0.41,0.62,2.52,2.53,2.52
487.74,2.07,-0.46,2.08,-0.45,0.45,0.65,2.52,2.54,2.53
492.62,2.04,-0.50,2.05,-0.49,0.49,0.67,2.53,2.54,2.54
497.55,2.01,-0.54,2.02,-0.53,0.53,0.69,2.54,2.55,2.54
502.52,1.99,-0.57,1.98,-0.57,0.57,0.71,2.56,2.55,2.55
507.55,1.97,-0.60,1.95,-0.61,0.61,0.74,2.58,2.56,2.56
512.62,1.94,-0.64,1.91,-0.66,0.66,0.76,2.59,2.57,2.58
517.75,1.90,-0.69,1.87,-0.70,0.70,0.78,2.60,2.58,2.58
522.93,1.85,-0.75,1.84,-0.75,0.75,0.80,2.59,2.58,2.59
528.16,1.80,-0.81,1.81,-0.79,0.79,0.82,2.59,2.60,2.60
533.44,1.76,-0.86,1.77,-0.84,0.84,0.84,2.60,2.61,2.61
538.77,1.71,-0.91,1.73,-0.89,0.89,0.85,2.59,2.62,2.62
544.16,1.68,-0.95,1.70,-0.94,0.94,0.87,2.61,2.63,2.63
549.60,1.65,-0.99,1.65,-0.99,0.99,0.89,2.63,2.64,2.64
555.10,1.63,-1.02,1.61,-1.04,1.04,0.91,2.66,2.65,2.65
560.65,1.60,-1.06,1.57,-1.09,1.09,0.92,2.69,2.66,2.66
566.25,1.56,-1.12,1.53,-1.14,1.14,0.94,2.70,2.67,2.67
571.92,1.52,-1.17,1.49,-1.19,1.19,0.96,2.71,2.68,2.69
577.64,1.47,-1.24,1.46,-1.24,1.24,0.98,2.71,2.70,2.70
583.41,1.42,-1.30,1.42,-1.29,1.29,0.99,2.71,2.71,2.72
589.25,1.37,-1.37,1.39,-1.34,1.34,1.01,2.70,2.73,2.73
595.14,1.33,-1.42,1.36,-1.38,1.38,1.03,2.71,2.74,2.75
601.09,1.29,-1.47,1.32,-1.43,1.43,1.05,2.71,2.75,2.76
607.10,1.27,-1.50,1.29,-1.47,1.47,1.07,2.74,2.76,2.77
613.17,1.26,-1.52,1.26,-1.51,1.51,1.09,2.77,2.77,2.78
619.30,1.25,-1.54,1.22,-1.55,1.55,1.11,2.79,2.77,2.79
625.50,1.22,-1.58,1.19,-1.58,1.58,1.13,2.80,2.78,2.79
631.75,1.19,-1.61,1.17,-1.62,1.62,1.15,2.80,2.78,2.79
638.07,1.15,-1.65,1.14,-1.65,1.65,1.17,2.79,2.79,2.80
644.45,1.12,-1.68,1.12,-1.68,1.68,1.19,2.79,2.79,2.80
650.89,1.09,-1.71,1.09,-1.70,1.70,1.22,2.79,2.80,2.80
657.40,1.06,-1.74,1.06,-1.73,1.73,1.24,2.79,2.80,2.79
663.98,1.03,-1.76,1.04,-1.76,1.76,1.27,2.79,2.80,2.79
670.62,1.01,-1.78,1.01,-1.79,1.79,1.30,2.79,2.80,2.79
677.32,0.98,-1.81,0.98,-1.81,1.81,1.32,2.79,2.79,2.79
684.10,0.96,-1.83,0.95,-1.84,1.84,1.35,2.80,2.79,2.79
690.94,0.93,-1.86,0.92,-1.87,1.87,1.38,2.79,2.79,2.79
697.85,0.90,-1.89,0.89,-1.90,1.90,1.42,2.79,2.79,2.79
704.83,0.88,-1.91,0.86,-1.92,1.92,1.45,2.80,2.79,2.79
711.87,0.84,-1.96,0.84,-1.95,1.95,1.48,2.79,2.79,2.79
718.99,0.81,-1.99,0.81,-1.98,1.98,1.52,2.79,2.79,2.80
726.18,0.78,-2.02,0.78,-2.01,2.01,1.55,2.79,2.79,2.80
733.44,0.75,-2.05,0.76,-2.04,2.04,1.59,2.78,2.80,2.80
740.78,0.72,-2.08,0.73,-2.07,2.07,1.63,2.78,2.80,2.80
748.19,0.70,-2.10,0.70,-2.10,2.10,1.67,2.79,2.80,2.80
755.67,0.68,-2.12,0.67,-2.13,2.13,1.71,2.81,2.80,2.80
763.23,0.65,-2.16,0.64,-2.16,2.16,1.75,2.81,2.80,2.80
770.86,0.63,-2.18,0.61,-2.19,2.19,1.79,2.82,2.80,2.80
778.57,0.60,-2.21,0.58,-2.22,2.22,1.84,2.82,2.81,2.80
786.35,0.56,-2.25,0.55,-2.26,2.26,1.88,2.81,2.81,2.80
794.22,0.53,-2.28,0.52,-2.29,2.29,1.92,2.82,2.81,2.81
