frequency,raw
20.00,-18.96
20.20,-18.87
20.40,-18.77
20.61,-18.63
20.81,-18.49
21.02,-18.34
21.23,-18.20
21.44,-18.05
21.66,-17.91
21.87,-17.77
22.09,-17.63
22.31,-17.47
22.54,-17.33
22.76,-17.16
22.99,-17.02
23.22,-16.88
23.45,-16.72
23.69,-16.58
23.92,-16.42
24.16,-16.28
24.40,-16.12
24.65,-15.97
24.89,-15.83
25.14,-15.68
25.39,-15.53
25.65,-15.39
25.91,-15.23
26.16,-15.09
26.43,-14.93
26.69,-14.78
26.96,-14.64
27.23,-14.48
27.50,-14.34
27.77,-14.18
28.05,-14.03
28.33,-13.87
28.62,-13.73
28.90,-13.57
29.19,-13.41
29.48,-13.26
29.78,-13.10
30.08,-12.93
30.38,-12.78
30.68,-12.64
30.99,-12.46
31.30,-12.29
31.61,-12.13
31.93,-11.97
32.24,-11.82
32.57,-11.66
32.89,-11.49
33.22,-11.33
33.55,-11.17
33.89,-11.01
34.23,-10.84
34.57,-10.68
34.92,-10.53
35.27,-10.37
35.62,-10.21
35.97,-10.04
36.33,-9.87
36.70,-9.70
37.06,-9.55
37.43,-9.37
37.81,-9.21
38.19,-9.05
38.57,-8.88
38.95,-8.72
39.34,-8.55
39.74,-8.37
40.14,-8.21
40.54,-8.04
40.94,-7.88
41.35,-7.70
41.76,-7.53
42.18,-7.37
42.60,-7.20
43.03,-7.04
43.46,-6.88
43.90,-6.69
44.33,-6.53
44.78,-6.36
45.23,-6.20
45.68,-6.03
46.13,-5.85
46.60,-5.69
47.06,-5.54
47.53,-5.39
48.01,-5.25
48.49,-5.09
48.97,-4.94
49.46,-4.80
49.96,-4.64
50.46,-4.50
50.96,-4.33
51.47,-4.16
51.99,-3.99
52.51,-3.85
53.03,-3.68
53.56,-3.52
54.10,-3.36
54.64,-3.21
55.18,-3.05
55.74,-2.88
56.29,-2.71
56.86,-2.54
57.42,-2.38
58.00,-2.24
58.58,-2.07
59.16,-1.91
59.76,-1.75
60.35,-1.58
60.96,-1.40
61.57,-1.25
62.18,-1.09
62.80,-0.92
63.43,-0.75
64.07,-0.58
64.71,-0.44
65.35,-0.28
66.01,-0.14
66.67,0.02
67.33,0.17
68.01,0.28
68.69,0.44
69.37,0.56
70.07,0.68
70.77,0.81
71.48,0.94
72.19,1.05
72.91,1.16
73.64,1.27
74.38,1.38
75.12,1.49
75.87,1.64
76.63,1.75
77.40,1.86
78.17,1.97
78.95,2.08
79.74,2.19
80.54,2.28
81.35,2.38
82.16,2.49
82.98,2.58
83.81,2.66
84.65,2.77
85.50,2.88
86.35,2.94
87.22,3.04
88.09,3.11
88.97,3.20
89.86,3.26
90.76,3.32
91.66,3.38
92.58,3.45
93.51,3.51
94.44,3.57
95.39,3.62
96.34,3.66
97.30,3.71
98.28,3.74
99.26,3.78
100.25,3.83
101.25,3.84
102.27,3.87
103.29,3.87
104.32,3.87
105.37,3.87
106.42,3.87
107.48,3.87
108.56,3.87
109.64,3.87
110.74,3.86
111.85,3.83
112.97,3.83
114.10,3.78
115.24,3.76
116.39,3.73
117.55,3.68
118.73,3.65
119.92,3.62
121.12,3.56
122.33,3.51
123.55,3.47
124.79,3.42
126.03,3.37
127.29,3.31
128.57,3.27
129.85,3.21
131.15,3.15
132.46,3.09
133.79,3.02
135.12,2.96
136.48,2.91
137.84,2.84
139.22,2.78
140.61,2.71
142.02,2.65
143.44,2.59
144.87,2.53
146.32,2.46
147.78,2.40
149.26,2.34
150.75,2.27
152.26,2.21
153.78,2.15
155.32,2.08
156.88,2.03
158.44,1.97
160.03,1.90
161.63,1.85
163.24,1.80
164.88,1.75
166.53,1.70
168.19,1.66
169.87,1.61
171.57,1.56
173.29,1.51
175.02,1.47
176.77,1.42
178.54,1.37
180.32,1.31
182.13,1.28
183.95,1.22
185.79,1.15
187.65,1.09
189.52,1.03
191.42,0.97
193.33,0.91
195.27,0.87
197.22,0.82
199.19,0.77
201.18,0.74
203.19,0.70
205.23,0.66
207.28,0.62
209.35,0.59
211.44,0.54
213.56,0.50
215.69,0.45
217.85,0.39
220.03,0.33
222.23,0.27
224.45,0.21
226.70,0.14
228.96,0.08
231.25,0.05
233.57,-0.01
235.90,-0.06
238.26,-0.09
240.64,-0.15
243.05,-0.20
245.48,-0.25
247.93,-0.29
250.41,-0.34
252.92,-0.37
255.45,-0.41
258.00,-0.46
260.58,-0.49
263.19,-0.53
265.82,-0.57
268.48,-0.61
271.16,-0.66
273.87,-0.69
276.61,-0.74
279.38,-0.78
282.17,-0.81
284.99,-0.83
287.84,-0.87
290.72,-0.88
293.63,-0.93
296.57,-0.94
299.53,-0.97
302.53,-1.00
305.55,-1.03
308.61,-1.07
311.69,-1.11
314.81,-1.14
317.96,-1.16
321.14,-1.21
324.35,-1.22
327.59,-1.25
330.87,-1.25
334.18,-1.30
337.52,-1.30
340.90,-1.30
344.30,-1.30
347.75,-1.30
351.23,-1.31
354.74,-1.34
358.28,-1.35
361.87,-1.35
365.49,-1.35
369.14,-1.35
372.83,-1.35
376.56,-1.36
380.33,-1.39
384.13,-1.39
387.97,-1.39
391.85,-1.39
395.77,-1.39
399.73,-1.39
403.72,-1.42
407.76,-1.44
411.84,-1.44
415.96,-1.44
420.12,-1.44
424.32,-1.44
428.56,-1.44
432.85,-1.46
437.18,-1.49
441.55,-1.49
445.96,-1.49
450.42,-1.49
454.93,-1.49
459.48,-1.49
464.07,-1.49
468.71,-1.49
473.40,-1.49
478.13,-1.49
482.91,-1.49
487.74,-1.49
492.62,-1.49
497.55,-1.49
502.52,-1.49
507.55,-1.49
512.62,-1.49
517.75,-1.49
522.93,-1.49
528.16,-1.49
533.44,-1.49
538.77,-1.49
544.16,-1.49
549.60,-1.48
555.10,-1.44
560.65,-1.44
566.25,-1.44
571.92,-1.44
577.64,-1.44
583.41,-1.42
589.25,-1.39
595.14,-1.39
601.09,-1.39
607.10,-1.39
613.17,-1.35
619.30,-1.35
625.50,-1.35
631.75,-1.34
638.07,-1.30
644.45,-1.30
650.89,-1.25
657.40,-1.25
663.98,-1.23
670.62,-1.21
677.32,-1.20
684.10,-1.16
690.94,-1.16
697.85,-1.11
704.83,-1.11
711.87,-1.07
718.99,-1.07
726.18,-1.03
733.44,-1.02
740.78,-0.99
748.19,-0.97
755.67,-0.95
763.23,-0.93
770.86,-0.88
778.57,-0.88
786.35,-0.85
794.22,-0.83
802.16,-0.79
810.18,-0.78
818.28,-0.74
826.46,-0.71
834.73,-0.69
843.08,-0.65
851.51,-0.62
860.02,-0.60
868.62,-0.56
877.31,-0.53
886.08,-0.51
894.94,-0.46
903.89,-0.43
912.93,-0.40
922.06,-0.35
931.28,-0.32
940.59,-0.27
950.00,-0.23
959.50,-0.20
969.09,-0.15
978.78,-0.11
988.57,-0.06
998.46,-0.01
1008.44,0.03
1018.53,0.08
1028.71,0.15
1039.00,0.21
1049.39,0.26
1059.88,0.31
1070.48,0.38
1081.19,0.45
1092.00,0.50
1102.92,0.56
1113.95,0.64
1125.09,0.69
1136.34,0.77
1147.70,0.85
1159.18,0.92
1170.77,1.01
1182.48,1.09
1194.30,1.20
1206.25,1.26
1218.31,1.37
1230.49,1.45
1242.80,1.56
1255.22,1.67
1267.78,1.78
1280.45,1.89
1293.26,2.00
1306.19,2.13
1319.25,2.26
1332.45,2.37
1345.77,2.50
1359.23,2.63
1372.82,2.74
1386.55,2.88
1400.41,3.01
1414.42,3.14
1428.56,3.25
1442.85,3.40
1457.28,3.51
1471.85,3.67
1486.57,3.78
1501.43,3.93
1516.45,4.07
1531.61,4.20
1546.93,4.35
1562.40,4.46
1578.02,4.62
1593.80,4.73
1609.74,4.88
1625.84,4.99
1642.10,5.12
1658.52,5.23
1675.10,5.34
1691.85,5.42
1708.77,5.52
1725.86,5.57
1743.12,5.63
1760.55,5.68
1778.15,5.69
1795.94,5.69
1813.90,5.69
1832.03,5.69
1850.36,5.64
1868.86,5.61
1887.55,5.57
1906.42,5.51
1925.49,5.45
1944.74,5.37
1964.19,5.30
1983.83,5.19
2003.67,5.11
2023.71,5.02
2043.94,4.91
2064.38,4.81
2085.03,4.67
2105.88,4.56
2126.94,4.46
2148.20,4.35
2169.69,4.21
2191.38,4.08
2213.30,3.97
2235.43,3.87
2257.78,3.76
2280.36,3.65
2303.17,3.55
2326.20,3.45
2349.46,3.38
2372.95,3.31
2396.68,3.24
2420.65,3.19
2444.86,3.15
2469.31,3.10
2494.00,3.08
2518.94,3.04
2544.13,3.03
2569.57,2.99
2595.27,2.99
2621.22,2.99
2647.43,2.99
2673.90,3.03
2700.64,3.06
2727.65,3.11
2754.93,3.21
2782.48,3.29
2810.30,3.41
2838.40,3.55
2866.79,3.72
2895.46,3.93
2924.41,4.17
2953.65,4.44
2983.19,4.77
3013.02,5.14
3043.15,5.52
3073.58,5.95
3104.32,6.43
3135.36,6.92
3166.72,7.44
3198.38,7.99
3230.37,8.56
3262.67,9.13
3295.30,9.69
3328.25,10.26
3361.53,10.78
3395.15,11.24
3429.10,11.65
3463.39,11.96
3498.03,12.19
3533.01,12.34
3568.34,12.39
3604.02,12.30
3640.06,12.16
3676.46,11.94
3713.22,11.68
3750.36,11.38
3787.86,11.04
3825.74,10.65
3864.00,10.26
3902.64,9.81
3941.66,9.34
3981.08,8.88
4020.89,8.40
4061.10,7.92
4101.71,7.41
4142.73,6.93
4184.15,6.45
4226.00,5.99
4268.26,5.54
4310.94,5.12
4354.05,4.69
4397.59,4.28
4441.56,3.88
4485.98,3.52
4530.84,3.15
4576.15,2.82
4621.91,2.53
4668.13,2.29
4714.81,2.07
4761.96,1.93
4809.58,1.82
4857.67,1.78
4906.25,1.80
4955.31,1.86
5004.87,1.94
5054.91,2.07
5105.46,2.22
5156.52,2.39
5208.08,2.55
5260.16,2.70
5312.77,2.82
5365.89,2.92
5419.55,2.94
5473.75,2.88
5528.49,2.76
5583.77,2.54
5639.61,2.28
5696.00,2.00
5752.96,1.70
5810.49,1.37
5868.60,1.05
5927.28,0.76
5986.56,0.51
6046.42,0.31
6106.89,0.14
6167.96,0.03
6229.64,-0.04
6291.93,-0.04
6354.85,-0.02
6418.40,0.03
6482.58,0.13
6547.41,0.26
6612.88,0.37
6679.01,0.49
6745.80,0.61
6813.26,0.77
6881.39,0.92
6950.21,1.07
7019.71,1.26
7089.91,1.47
7160.81,1.70
7232.41,1.95
7304.74,2.23
7377.79,2.49
7451.56,2.76
7526.08,2.95
7601.34,3.12
7677.35,3.20
7754.13,3.12
7831.67,2.90
7909.98,2.59
7989.08,2.11
8068.98,1.53
8149.67,0.81
8231.16,-0.03
8313.47,-0.96
8396.61,-1.94
8480.57,-2.96
8565.38,-4.01
8651.03,-5.04
8737.54,-6.02
8824.92,-6.95
8913.17,-7.81
9002.30,-8.58
9092.32,-9.24
9183.25,-9.82
9275.08,-10.29
9367.83,-10.69
9461.51,-10.98
9556.12,-11.20
9651.68,-11.34
9748.20,-11.38
9845.68,-11.40
9944.14,-11.27
10043.58,-11.10
10144.02,-10.87
10245.46,-10.57
10347.91,-10.28
10451.39,-9.98
10555.91,-9.73
10661.46,-9.55
10768.08,-9.51
10875.76,-9.71
10984.52,-10.00
11094.36,-10.42
11205.31,-10.93
11317.36,-11.45
11430.53,-12.01
11544.84,-12.51
11660.29,-13.02
11776.89,-13.47
11894.66,-13.91
12013.60,-14.37
12133.74,-14.83
12255.08,-15.29
12377.63,-15.74
12501.41,-16.10
12626.42,-16.35
12752.68,-16.38
12880.21,-16.05
13009.01,-15.54
13139.10,-14.77
13270.49,-13.81
13403.20,-12.71
13537.23,-11.60
13672.60,-10.57
13809.33,-9.67
13947.42,-9.04
14086.90,-8.65
14227.77,-8.55
14370.04,-8.83
14513.74,-9.30
14658.88,-9.92
14805.47,-10.64
14953.52,-11.43
15103.06,-12.28
15254.09,-13.19
15406.63,-14.17
15560.70,-15.20
15716.30,-16.29
15873.47,-17.42
16032.20,-18.61
16192.52,-19.84
16354.45,-20.74
16517.99,-21.39
16683.17,-22.08
16850.01,-22.78
17018.51,-23.49
17188.69,-24.20
17360.58,-24.90
17534.18,-25.61
17709.53,-26.32
17886.62,-27.03
18065.49,-27.73
18246.14,-28.44
18428.60,-29.15
18612.89,-29.86
18799.02,-30.56
18987.01,-31.27
19176.88,-31.98
19368.65,-32.69
19562.33,-33.39
19757.96,-34.10
19955.54,-34.81
