frequency,raw,error,smoothed,error_smoothed,equalization,parametric_eq,equalized_raw,equalized_smoothed,target
20,-25.52,-24.43,-25.42,-24.31,6.00,2.85,-19.52,-19.42,-1.09
21,-24.70,-23.61,-24.73,-23.62,6.00,3.27,-18.70,-18.73,-1.09
22,-24.03,-22.94,-24.04,-22.94,6.00,3.73,-18.03,-18.04,-1.09
23,-23.31,-22.22,-23.38,-22.28,6.00,4.22,-17.31,-17.38,-1.09
24,-22.73,-21.64,-22.73,-21.63,6.00,4.74,-16.73,-16.73,-1.10
25,-22.13,-21.03,-22.10,-21.00,6.00,5.28,-16.13,-16.10,-1.10
26,-21.39,-20.29,-21.48,-20.38,6.00,5.82,-15.39,-15.48,-1.10
27,-20.84,-19.74,-20.87,-19.77,6.00,6.32,-14.84,-14.87,-1.10
28,-20.25,-19.14,-20.28,-19.18,6.00,6.78,-14.25,-14.28,-1.11
29,-19.86,-18.75,-19.71,-18.60,6.00,7.14,-13.86,-13.71,-1.11
30,-19.08,-17.96,-19.15,-18.04,6.00,7.40,-13.08,-13.15,-1.12
31,-18.58,-17.46,-18.62,-17.50,6.00,7.53,-12.58,-12.62,-1.12
32,-18.07,-16.94,-18.10,-16.97,6.00,7.54,-12.07,-12.10,-1.13
33,-17.58,-16.45,-17.60,-16.46,6.00,7.44,-11.58,-11.60,-1.14
34,-17.10,-15.96,-17.10,-15.95,6.00,7.26,-11.10,-11.10,-1.14
35,-16.64,-15.49,-16.62,-15.46,6.00,7.02,-10.64,-10.62,-1.15
36,-16.14,-14.98,-16.15,-14.98,6.00,6.76,-10.14,-10.15,-1.16
37,-15.72,-14.55,-15.69,-14.51,6.00,6.49,-9.72,-9.69,-1.17
38,-15.26,-14.08,-15.23,-14.05,6.00,6.22,-9.26,-9.23,-1.18
39,-14.76,-13.57,-14.78,-13.59,6.00,5.97,-8.76,-8.78,-1.19
40,-14.35,-13.15,-14.35,-13.14,6.00,5.74,-8.35,-8.35,-1.20
41,-13.95,-12.74,-13.92,-12.70,6.00,5.53,-7.95,-7.92,-1.21
42,-13.53,-12.31,-13.49,-12.26,6.00,5.35,-7.53,-7.49,-1.22
43,-13.08,-11.85,-13.07,-11.83,6.00,5.19,-7.08,-7.07,-1.23
44,-12.63,-11.38,-12.66,-11.41,6.00,5.06,-6.63,-6.66,-1.25
45,-12.18,-10.92,-12.26,-10.99,6.00,4.95,-6.18,-6.26,-1.26
46,-11.91,-10.63,-11.87,-10.58,6.00,4.86,-5.91,-5.87,-1.28
47,-11.41,-10.12,-11.47,-10.17,6.00,4.79,-5.41,-5.47,-1.29
48,-11.10,-9.79,-11.10,-9.78,6.00,4.73,-5.10,-5.10,-1.31
49,-10.76,-9.43,-10.72,-9.38,6.00,4.69,-4.76,-4.72,-1.33
50,-10.37,-9.02,-10.35,-9.00,6.00,4.67,-4.37,-4.35,-1.35
51,-9.97,-8.60,-9.99,-8.62,6.00,4.65,-3.97,-3.99,-1.37
52,-9.74,-8.35,-9.64,-8.24,6.00,4.64,-3.74,-3.64,-1.39
53,-9.27,-7.86,-9.30,-7.88,6.00,4.63,-3.27,-3.30,-1.41
54,-8.96,-7.53,-8.96,-7.52,6.00,4.62,-2.96,-2.96,-1.43
55,-8.61,-7.16,-8.63,-7.17,6.00,4.62,-2.61,-2.63,-1.46
56,-8.29,-6.81,-8.31,-6.82,6.00,4.61,-2.29,-2.31,-1.48
57,-8.01,-6.51,-8.00,-6.48,5.94,4.59,-2.07,-2.06,-1.51
58,-7.58,-6.05,-7.69,-6.15,5.82,4.57,-1.76,-1.86,-1.53
59,-7.43,-5.87,-7.39,-5.83,5.64,4.54,-1.79,-1.74,-1.56
60,-7.18,-5.59,-7.10,-5.51,5.43,4.49,-1.76,-1.68,-1.59
61,-6.86,-5.25,-6.83,-5.21,5.18,4.44,-1.68,-1.64,-1.62
62,-6.50,-4.86,-6.56,-4.92,4.92,4.37,-1.59,-1.64,-1.65
63,-6.27,-4.59,-6.31,-4.63,4.63,4.29,-1.64,-1.68,-1.68
64,-6.10,-4.39,-6.07,-4.36,4.36,4.20,-1.74,-1.71,-1.71
65,-5.87,-4.13,-5.84,-4.10,4.10,4.10,-1.78,-1.75,-1.74
66,-5.55,-3.78,-5.62,-3.84,3.84,3.98,-1.71,-1.78,-1.77
67,-5.34,-3.53,-5.42,-3.59,3.59,3.86,-1.75,-1.83,-1.81
68,-5.22,-3.38,-5.21,-3.35,3.35,3.73,-1.87,-1.86,-1.84
69,-5.02,-3.14,-5.00,-3.12,3.12,3.59,-1.90,-1.88,-1.88
70,-4.84,-2.93,-4.80,-2.89,2.89,3.45,-1.95,-1.91,-1.91
71,-4.65,-2.70,-4.63,-2.67,2.67,3.31,-1.98,-1.96,-1.95
72,-4.50,-2.51,-4.45,-2.45,2.45,3.16,-2.05,-2.00,-1.99
73,-4.29,-2.27,-4.29,-2.24,2.24,3.01,-2.05,-2.05,-2.02
74,-4.12,-2.06,-4.10,-2.03,2.03,2.86,-2.09,-2.07,-2.06
75,-3.97,-1.87,-3.93,-1.83,1.83,2.71,-2.14,-2.10,-2.10
76,-3.75,-1.61,-3.78,-1.63,1.63,2.56,-2.12,-2.16,-2.14
77,-3.48,-1.30,-3.63,-1.43,1.43,2.41,-2.05,-2.20,-2.18
78,-3.49,-1.27,-3.47,-1.25,1.25,2.26,-2.24,-2.23,-2.22
79,-3.42,-1.16,-3.32,-1.07,1.07,2.12,-2.35,-2.25,-2.26
80,-3.25,-0.95,-3.20,-0.89,0.89,1.97,-2.36,-2.31,-2.30
81,-2.96,-0.62,-3.08,-0.72,0.72,1.83,-2.24,-2.36,-2.34
82,-3.00,-0.62,-2.96,-0.56,0.56,1.69,-2.44,-2.40,-2.38
83,-2.64,-0.22,-2.83,-0.40,0.40,1.56,-2.24,-2.42,-2.42
84,-2.86,-0.39,-2.71,-0.26,0.26,1.42,-2.60,-2.45,-2.47
85,-2.86,-0.35,-2.64,-0.12,0.12,1.29,-2.74,-2.52,-2.51
86,-2.40,0.15,-2.56,0.02,-0.02,1.16,-2.42,-2.57,-2.55
87,-2.34,0.25,-2.47,0.14,-0.14,1.03,-2.48,-2.61,-2.59
88,-2.45,0.18,-2.37,0.26,-0.26,0.90,-2.71,-2.63,-2.63
89,-2.56,0.11,-2.31,0.38,-0.38,0.78,-2.94,-2.68,-2.67
90,-1.99,0.72,-2.26,0.49,-0.49,0.66,-2.48,-2.75,-2.72
91,-1.99,0.77,-2.19,0.60,-0.60,0.54,-2.59,-2.79,-2.76
92,-2.08,0.72,-2.12,0.69,-0.69,0.42,-2.77,-2.82,-2.80
93,-2.36,0.48,-2.07,0.78,-0.78,0.31,-3.14,-2.85,-2.84
94,-2.28,0.60,-2.01,0.87,-0.87,0.19,-3.15,-2.88,-2.88
95,-1.78,1.14,-1.98,0.95,-0.95,0.08,-2.73,-2.93,-2.92
96,-1.86,1.10,-1.97,1.02,-1.02,-0.03,-2.88,-2.99,-2.96
97,-2.01,0.99,-1.94,1.08,-1.08,-0.14,-3.09,-3.02,-3.00
98,-2.02,1.02,-1.92,1.13,-1.13,-0.24,-3.15,-3.05,-3.04
99,-1.81,1.27,-1.92,1.18,-1.18,-0.35,-2.99,-3.10,-3.08
100,-1.72,1.40,-1.95,1.22,-1.22,-0.45,-2.94,-3.17,-3.12
101,-1.97,1.18,-1.94,1.25,-1.25,-0.55,-3.22,-3.19,-3.16
102,-1.99,1.20,-1.92,1.28,-1.28,-0.65,-3.27,-3.20,-3.19
104,-2.01,1.26,-1.94,1.29,-1.29,-0.84,-3.30,-3.23,-3.27
105,-2.03,1.27,-1.99,1.30,-1.30,-0.93,-3.33,-3.29,-3.30
106,-2.06,1.28,-2.06,1.30,-1.30,-1.01,-3.36,-3.36,-3.34
107,-2.08,1.29,-2.09,1.30,-1.30,-1.10,-3.38,-3.40,-3.38
108,-2.10,1.31,-2.13,1.30,-1.30,-1.18,-3.40,-3.43,-3.41
109,-2.13,1.32,-2.18,1.29,-1.29,-1.26,-3.42,-3.47,-3.45
110,-2.14,1.34,-2.23,1.30,-1.30,-1.34,-3.44,-3.52,-3.48
111,-2.16,1.35,-2.24,1.30,-1.30,-1.41,-3.46,-3.55,-3.51
112,-2.35,1.19,-2.27,1.31,-1.31,-1.48,-3.66,-3.58,-3.55
113,-2.54,1.04,-2.29,1.32,-1.32,-1.55,-3.86,-3.61,-3.58
114,-2.40,1.20,-2.30,1.34,-1.34,-1.61,-3.74,-3.64,-3.61
115,-2.29,1.34,-2.31,1.36,-1.36,-1.67,-3.65,-3.67,-3.63
117,-2.29,1.40,-2.32,1.38,-1.38,-1.78,-3.67,-3.70,-3.69
118,-2.28,1.43,-2.31,1.40,-1.40,-1.83,-3.68,-3.71,-3.71
119,-2.28,1.45,-2.30,1.42,-1.42,-1.87,-3.71,-3.73,-3.73
120,-2.27,1.48,-2.34,1.45,-1.45,-1.91,-3.72,-3.78,-3.76
121,-2.27,1.50,-2.35,1.47,-1.47,-1.95,-3.74,-3.82,-3.77
123,-2.51,1.31,-2.35,1.48,-1.48,-2.01,-3.99,-3.83,-3.82
124,-2.17,1.66,-2.34,1.49,-1.49,-2.04,-3.66,-3.83,-3.83
125,-2.22,1.63,-2.35,1.50,-1.50,-2.06,-3.72,-3.85,-3.85
126,-2.44,1.42,-2.38,1.50,-1.50,-2.08,-3.94,-3.89,-3.86
128,-2.43,1.47,-2.41,1.51,-1.51,-2.10,-3.94,-3.92,-3.90
129,-2.42,1.50,-2.43,1.50,-1.50,-2.11,-3.92,-3.94,-3.92
130,-2.70,1.23,-2.46,1.50,-1.50,-2.11,-4.20,-3.96,-3.93
131,-2.80,1.14,-2.49,1.49,-1.49,-2.11,-4.29,-3.98,-3.95
133,-2.23,1.75,-2.52,1.48,-1.48,-2.11,-3.72,-4.00,-3.98
134,-2.32,1.67,-2.55,1.48,-1.48,-2.10,-3.80,-4.03,-4.00
135,-2.60,1.41,-2.59,1.48,-1.48,-2.09,-4.08,-4.07,-4.01
137,-2.60,1.44,-2.63,1.48,-1.48,-2.07,-4.08,-4.11,-4.05
138,-2.60,1.46,-2.63,1.48,-1.48,-2.05,-4.08,-4.11,-4.06
140,-2.68,1.41,-2.62,1.48,-1.48,-2.02,-4.16,-4.10,-4.09
141,-2.69,1.42,-2.64,1.48,-1.48,-2.00,-4.17,-4.11,-4.11
142,-2.76,1.36,-2.67,1.47,-1.47,-1.98,-4.23,-4.14,-4.12
144,-2.79,1.36,-2.70,1.47,-1.47,-1.93,-4.26,-4.16,-4.15
145,-2.79,1.38,-2.76,1.46,-1.46,-1.91,-4.25,-4.22,-4.17
147,-2.79,1.41,-2.81,1.44,-1.44,-1.86,-4.23,-4.26,-4.20
148,-2.75,1.46,-2.82,1.43,-1.43,-1.84,-4.18,-4.25,-4.21
150,-2.53,1.71,-2.84,1.42,-1.42,-1.79,-3.95,-4.26,-4.24
151,-2.72,1.53,-2.88,1.41,-1.41,-1.76,-4.13,-4.30,-4.25
153,-3.02,1.25,-2.90,1.41,-1.41,-1.71,-4.43,-4.31,-4.27
154,-3.24,1.04,-2.92,1.39,-1.39,-1.68,-4.63,-4.31,-4.28
156,-3.09,1.21,-2.93,1.37,-1.37,-1.63,-4.46,-4.31,-4.31
157,-2.99,1.32,-2.97,1.35,-1.35,-1.60,-4.34,-4.33,-4.32
159,-2.99,1.35,-3.03,1.33,-1.33,-1.55,-4.32,-4.36,-4.34
160,-2.82,1.53,-3.08,1.31,-1.31,-1.53,-4.13,-4.39,-4.35
162,-3.13,1.24,-3.14,1.27,-1.27,-1.48,-4.40,-4.41,-4.37
164,-3.35,1.04,-3.19,1.25,-1.25,-1.43,-4.60,-4.44,-4.39
165,-3.04,1.36,-3.25,1.22,-1.22,-1.41,-4.26,-4.47,-4.40
167,-3.01,1.41,-3.28,1.20,-1.20,-1.36,-4.21,-4.48,-4.42
169,-3.31,1.13,-3.30,1.18,-1.18,-1.32,-4.49,-4.48,-4.44
170,-3.48,0.97,-3.32,1.16,-1.16,-1.30,-4.65,-4.48,-4.46
172,-3.68,0.79,-3.36,1.15,-1.15,-1.26,-4.83,-4.51,-4.47
174,-3.43,1.06,-3.39,1.14,-1.14,-1.22,-4.57,-4.53,-4.49
175,-3.44,1.06,-3.41,1.14,-1.14,-1.20,-4.58,-4.55,-4.50
177,-3.44,1.07,-3.43,1.13,-1.13,-1.17,-4.57,-4.56,-4.51
179,-3.44,1.09,-3.42,1.13,-1.13,-1.13,-4.57,-4.55,-4.53
181,-3.44,1.09,-3.42,1.13,-1.13,-1.10,-4.57,-4.56,-4.53
183,-3.29,1.25,-3.44,1.14,-1.14,-1.07,-4.43,-4.58,-4.54
184,-3.16,1.37,-3.44,1.14,-1.14,-1.05,-4.31,-4.59,-4.53
186,-3.33,1.20,-3.42,1.15,-1.15,-1.02,-4.48,-4.57,-4.53
188,-3.50,1.02,-3.39,1.15,-1.15,-0.99,-4.65,-4.54,-4.53
190,-3.48,1.04,-3.37,1.16,-1.16,-0.97,-4.64,-4.53,-4.52
192,-3.46,1.05,-3.38,1.16,-1.16,-0.94,-4.62,-4.54,-4.51
194,-3.45,1.05,-3.38,1.16,-1.16,-0.92,-4.61,-4.54,-4.51
196,-3.43,1.07,-3.38,1.15,-1.15,-0.90,-4.58,-4.53,-4.50
198,-3.42,1.07,-3.37,1.14,-1.14,-0.88,-4.56,-4.51,-4.49
200,-3.41,1.08,-3.39,1.13,-1.13,-0.86,-4.54,-4.52,-4.49
202,-3.41,1.08,-3.42,1.12,-1.12,-0.84,-4.53,-4.53,-4.49
204,-3.18,1.31,-3.43,1.10,-1.10,-0.82,-4.28,-4.54,-4.49
206,-3.26,1.23,-3.44,1.09,-1.09,-0.80,-4.35,-4.53,-4.49
208,-3.50,1.00,-3.45,1.07,-1.07,-0.78,-4.57,-4.52,-4.50
210,-3.50,1.00,-3.49,1.05,-1.05,-0.77,-4.55,-4.55,-4.50
212,-3.50,1.01,-3.52,1.04,-1.04,-0.75,-4.54,-4.56,-4.51
214,-3.51,1.01,-3.54,1.03,-1.03,-0.74,-4.54,-4.57,-4.52
216,-3.64,0.89,-3.54,1.02,-1.02,-0.72,-4.66,-4.55,-4.53
218,-3.86,0.68,-3.55,1.00,-1.00,-0.71,-4.86,-4.55,-4.54
221,-3.62,0.93,-3.59,0.99,-0.99,-0.69,-4.61,-4.57,-4.55
223,-3.62,0.93,-3.62,0.97,-0.97,-0.67,-4.59,-4.59,-4.55
225,-3.62,0.93,-3.65,0.96,-0.96,-0.66,-4.58,-4.61,-4.55
227,-3.62,0.93,-3.66,0.94,-0.94,-0.65,-4.56,-4.60,-4.56
229,-3.62,0.93,-3.66,0.92,-0.92,-0.64,-4.54,-4.58,-4.55
232,-3.37,1.18,-3.66,0.90,-0.90,-0.62,-4.28,-4.56,-4.55
234,-3.53,1.01,-3.66,0.88,-0.88,-0.61,-4.41,-4.54,-4.54
236,-3.69,0.84,-3.69,0.85,-0.85,-0.60,-4.54,-4.54,-4.53
239,-4.01,0.51,-3.72,0.82,-0.82,-0.58,-4.83,-4.53,-4.52
241,-3.92,0.59,-3.72,0.78,-0.78,-0.57,-4.70,-4.50,-4.51
244,-3.73,0.76,-3.76,0.74,-0.74,-0.55,-4.47,-4.50,-4.49
246,-3.71,0.77,-3.79,0.70,-0.70,-0.54,-4.41,-4.49,-4.48
248,-3.75,0.71,-3.83,0.65,-0.65,-0.53,-4.40,-4.48,-4.46
251,-3.80,0.65,-3.88,0.60,-0.60,-0.51,-4.40,-4.48,-4.45
253,-3.86,0.57,-3.91,0.55,-0.55,-0.50,-4.41,-4.47,-4.43
256,-4.09,0.33,-3.95,0.51,-0.51,-0.48,-4.60,-4.46,-4.42
259,-4.15,0.27,-3.97,0.47,-0.47,-0.46,-4.63,-4.45,-4.42
261,-3.79,0.62,-3.99,0.44,-0.44,-0.45,-4.23,-4.43,-4.41
264,-3.76,0.65,-4.00,0.40,-0.40,-0.43,-4.16,-4.40,-4.41
266,-4.23,0.18,-4.04,0.36,-0.36,-0.42,-4.59,-4.41,-4.41
269,-4.14,0.27,-4.09,0.33,-0.33,-0.40,-4.47,-4.42,-4.41
272,-4.22,0.19,-4.13,0.30,-0.30,-0.39,-4.52,-4.42,-4.41
274,-4.21,0.20,-4.17,0.26,-0.26,-0.37,-4.47,-4.43,-4.41
277,-4.01,0.40,-4.20,0.23,-0.23,-0.35,-4.24,-4.43,-4.41
280,-4.25,0.16,-4.21,0.20,-0.20,-0.34,-4.45,-4.41,-4.41
283,-4.28,0.12,-4.23,0.17,-0.17,-0.32,-4.45,-4.40,-4.40
286,-4.12,0.28,-4.26,0.14,-0.14,-0.30,-4.26,-4.40,-4.40
288,-4.24,0.15,-4.30,0.11,-0.11,-0.29,-4.35,-4.41,-4.39
291,-4.42,-0.04,-4.31,0.08,-0.08,-0.27,-4.50,-4.39,-4.38
294,-4.41,-0.04,-4.30,0.06,-0.06,-0.25,-4.47,-4.36,-4.37
297,-4.40,-0.04,-4.33,0.03,-0.03,-0.23,-4.43,-4.36,-4.36
300,-4.39,-0.04,-4.35,0.01,-0.01,-0.21,-4.40,-4.36,-4.35
303,-4.21,0.13,-4.38,-0.01,0.01,-0.19,-4.20,-4.36,-4.34
306,-4.23,0.10,-4.40,-0.03,0.03,-0.17,-4.20,-4.37,-4.33
309,-4.45,-0.13,-4.39,-0.05,0.05,-0.16,-4.40,-4.34,-4.32
312,-4.45,-0.14,-4.40,-0.07,0.07,-0.14,-4.39,-4.33,-4.31
316,-4.44,-0.14,-4.40,-0.07,0.07,-0.11,-4.37,-4.33,-4.31
319,-4.44,-0.14,-4.40,-0.08,0.08,-0.09,-4.36,-4.32,-4.30
322,-4.44,-0.14,-4.40,-0.09,0.09,-0.08,-4.35,-4.31,-4.30
325,-4.44,-0.15,-4.40,-0.10,0.10,-0.06,-4.34,-4.30,-4.30
328,-4.44,-0.15,-4.41,-0.11,0.11,-0.04,-4.33,-4.30,-4.29
332,-4.44,-0.15,-4.44,-0.12,0.12,-0.02,-4.32,-4.31,-4.29
335,-4.36,-0.07,-4.46,-0.14,0.14,0.00,-4.22,-4.32,-4.29
338,-4.27,0.02,-4.46,-0.15,0.15,0.02,-4.12,-4.31,-4.29
342,-4.52,-0.23,-4.47,-0.18,0.18,0.05,-4.34,-4.30,-4.29
345,-4.55,-0.26,-4.50,-0.20,0.20,0.06,-4.35,-4.30,-4.29
349,-4.55,-0.26,-4.52,-0.23,0.23,0.09,-4.33,-4.29,-4.29
352,-4.52,-0.23,-4.55,-0.26,0.26,0.11,-4.27,-4.30,-4.29
356,-4.45,-0.17,-4.58,-0.29,0.29,0.13,-4.16,-4.29,-4.28
359,-4.78,-0.50,-4.60,-0.32,0.32,0.15,-4.46,-4.28,-4.28
363,-4.80,-0.53,-4.64,-0.36,0.36,0.17,-4.44,-4.28,-4.27
366,-4.59,-0.33,-4.67,-0.40,0.40,0.19,-4.19,-4.28,-4.26
370,-4.67,-0.42,-4.71,-0.44,0.44,0.21,-4.23,-4.27,-4.25
374,-4.82,-0.58,-4.74,-0.48,0.48,0.24,-4.34,-4.26,-4.24
377,-4.70,-0.47,-4.77,-0.53,0.53,0.26,-4.17,-4.24,-4.24
381,-4.71,-0.48,-4.81,-0.58,0.58,0.28,-4.13,-4.23,-4.23
385,-4.90,-0.68,-4.86,-0.63,0.63,0.30,-4.27,-4.22,-4.22
389,-4.80,-0.58,-4.91,-0.69,0.69,0.32,-4.11,-4.22,-4.22
393,-4.90,-0.69,-4.96,-0.74,0.74,0.35,-4.16,-4.22,-4.21
397,-5.12,-0.91,-5.01,-0.80,0.80,0.37,-4.32,-4.20,-4.21
401,-5.05,-0.84,-5.08,-0.86,0.86,0.39,-4.19,-4.22,-4.21
405,-5.09,-0.88,-5.15,-0.91,0.91,0.41,-4.18,-4.24,-4.21
409,-5.19,-0.98,-5.20,-0.96,0.96,0.43,-4.23,-4.23,-4.21
413,-5.24,-1.03,-5.23,-1.00,1.00,0.45,-4.24,-4.23,-4.21
417,-5.23,-1.02,-5.26,-1.04,1.04,0.47,-4.19,-4.23,-4.21
421,-5.34,-1.14,-5.27,-1.05,1.05,0.49,-4.29,-4.22,-4.20
425,-5.37,-1.18,-5.26,-1.06,1.06,0.50,-4.31,-4.20,-4.19
430,-5.28,-1.11,-5.24,-1.05,1.05,0.52,-4.23,-4.18,-4.17
434,-5.24,-1.09,-5.19,-1.03,1.03,0.54,-4.21,-4.15,-4.15
438,-5.18,-1.07,-5.11,-1.00,1.00,0.55,-4.18,-4.11,-4.11
443,-5.03,-0.95,-5.04,-0.96,0.96,0.57,-4.07,-4.08,-4.08
447,-4.85,-0.82,-4.94,-0.90,0.90,0.58,-3.95,-4.04,-4.03
451,-4.80,-0.82,-4.82,-0.83,0.83,0.59,-3.97,-3.99,-3.98
456,-4.65,-0.72,-4.69,-0.75,0.75,0.59,-3.90,-3.94,-3.93
460,-4.58,-0.71,-4.55,-0.67,0.67,0.60,-3.91,-3.89,-3.87
465,-4.43,-0.62,-4.40,-0.58,0.58,0.60,-3.86,-3.82,-3.81
470,-4.24,-0.49,-4.23,-0.48,0.48,0.61,-3.77,-3.76,-3.75
474,-4.08,-0.39,-4.08,-0.37,0.37,0.60,-3.71,-3.71,-3.69
479,-3.94,-0.30,-3.92,-0.26,0.26,0.60,-3.68,-3.66,-3.64
484,-3.83,-0.25,-3.76,-0.16,0.16,0.59,-3.67,-3.61,-3.59
489,-3.66,-0.12,-3.61,-0.05,0.05,0.59,-3.61,-3.56,-3.54
494,-3.46,0.04,-3.47,0.04,-0.04,0.57,-3.51,-3.52,-3.50
499,-3.33,0.13,-3.34,0.13,-0.13,0.56,-3.46,-3.47,-3.46
504,-3.21,0.23,-3.23,0.21,-0.21,0.54,-3.42,-3.44,-3.44
509,-3.03,0.39,-3.14,0.27,-0.27,0.52,-3.30,-3.41,-3.42
514,-3.04,0.37,-3.09,0.31,-0.31,0.50,-3.35,-3.41,-3.41
519,-3.03,0.37,-3.07,0.34,-0.34,0.47,-3.37,-3.41,-3.40
524,-2.93,0.48,-3.08,0.35,-0.35,0.44,-3.29,-3.43,-3.41
529,-2.96,0.46,-3.10,0.35,-0.35,0.41,-3.31,-3.45,-3.42
535,-3.07,0.38,-3.13,0.34,-0.34,0.37,-3.41,-3.47,-3.45
540,-3.23,0.24,-3.18,0.31,-0.31,0.34,-3.54,-3.50,-3.47
545,-3.24,0.26,-3.25,0.28,-0.28,0.30,-3.52,-3.53,-3.51
551,-3.39,0.15,-3.32,0.25,-0.25,0.25,-3.64,-3.57,-3.54
556,-3.51,0.06,-3.39,0.21,-0.21,0.21,-3.72,-3.60,-3.57
562,-3.63,-0.03,-3.45,0.18,-0.18,0.16,-3.82,-3.63,-3.60
568,-3.51,0.12,-3.49,0.17,-0.17,0.11,-3.68,-3.66,-3.63
573,-3.53,0.13,-3.52,0.16,-0.16,0.06,-3.69,-3.68,-3.66
579,-3.46,0.21,-3.54,0.16,-0.16,0.01,-3.62,-3.70,-3.67
585,-3.48,0.21,-3.53,0.17,-0.17,-0.05,-3.65,-3.70,-3.69
591,-3.55,0.14,-3.50,0.19,-0.19,-0.11,-3.74,-3.69,-3.69
596,-3.50,0.19,-3.47,0.22,-0.22,-0.16,-3.72,-3.69,-3.69
602,-3.45,0.23,-3.42,0.26,-0.26,-0.22,-3.71,-3.68,-3.68
608,-3.34,0.32,-3.35,0.30,-0.30,-0.28,-3.64,-3.65,-3.66
615,-3.26,0.38,-3.28,0.35,-0.35,-0.35,-3.61,-3.63,-3.64
621,-3.20,0.41,-3.20,0.40,-0.40,-0.41,-3.60,-3.60,-3.61
627,-3.08,0.49,-3.12,0.45,-0.45,-0.47,-3.53,-3.57,-3.57
633,-3.01,0.52,-3.02,0.51,-0.51,-0.53,-3.52,-3.53,-3.53
639,-2.90,0.59,-2.93,0.57,-0.57,-0.60,-3.47,-3.49,-3.49
646,-2.92,0.52,-2.81,0.63,-0.63,-0.67,-3.55,-3.44,-3.44
652,-2.83,0.56,-2.69,0.69,-0.69,-0.74,-3.52,-3.39,-3.39
659,-2.46,0.88,-2.59,0.76,-0.76,-0.81,-3.22,-3.34,-3.34
665,-2.40,0.89,-2.48,0.82,-0.82,-0.88,-3.22,-3.30,-3.29
672,-2.45,0.79,-2.36,0.89,-0.89,-0.95,-3.34,-3.25,-3.24
679,-2.17,1.02,-2.24,0.96,-0.96,-1.03,-3.13,-3.20,-3.19
686,-2.11,1.03,-2.13,1.03,-1.03,-1.10,-3.14,-3.17,-3.14
692,-2.04,1.07,-2.03,1.10,-1.10,-1.17,-3.15,-3.13,-3.11
699,-1.97,1.10,-1.92,1.18,-1.18,-1.25,-3.15,-3.10,-3.08
706,-1.80,1.25,-1.82,1.24,-1.24,-1.32,-3.05,-3.06,-3.05
713,-1.71,1.33,-1.74,1.31,-1.31,-1.40,-3.02,-3.05,-3.04
721,-1.71,1.32,-1.67,1.37,-1.37,-1.49,-3.09,-3.04,-3.03
728,-1.52,1.50,-1.60,1.44,-1.44,-1.57,-2.96,-3.04,-3.03
735,-1.41,1.61,-1.53,1.49,-1.49,-1.65,-2.91,-3.02,-3.02
742,-1.51,1.51,-1.46,1.55,-1.55,-1.72,-3.06,-3.01,-3.03
750,-1.45,1.58,-1.42,1.60,-1.60,-1.81,-3.05,-3.02,-3.03
757,-1.33,1.69,-1.36,1.65,-1.65,-1.89,-2.99,-3.02,-3.03
765,-1.32,1.70,-1.31,1.70,-1.70,-1.98,-3.02,-3.02,-3.02
773,-1.29,1.72,-1.26,1.75,-1.75,-2.07,-3.04,-3.01,-3.02
780,-1.30,1.71,-1.21,1.80,-1.80,-2.15,-3.10,-3.01,-3.01
788,-1.08,1.91,-1.15,1.85,-1.85,-2.24,-2.93,-3.00,-2.99
796,-1.07,1.91,-1.08,1.90,-1.90,-2.33,-2.97,-2.98,-2.98
804,-1.10,1.86,-1.03,1.94,-1.94,-2.41,-3.05,-2.97,-2.96
812,-1.05,1.90,-0.96,1.99,-1.99,-2.50,-3.04,-2.96,-2.95
820,-0.91,2.02,-0.89,2.04,-2.04,-2.59,-2.95,-2.94,-2.93
828,-0.81,2.10,-0.84,2.09,-2.09,-2.67,-2.90,-2.92,-2.91
837,-0.77,2.13,-0.78,2.14,-2.14,-2.76,-2.91,-2.92,-2.90
845,-0.61,2.27,-0.72,2.18,-2.18,-2.85,-2.79,-2.90,-2.88
853,-0.57,2.30,-0.66,2.22,-2.22,-2.93,-2.79,-2.88,-2.87
862,-0.58,2.28,-0.61,2.26,-2.26,-3.01,-2.84,-2.87,-2.86
871,-0.58,2.28,-0.57,2.29,-2.29,-3.10,-2.88,-2.87,-2.86
879,-0.59,2.26,-0.53,2.33,-2.33,-3.17,-2.92,-2.85,-2.85
888,-0.54,2.31,-0.48,2.36,-2.36,-3.25,-2.90,-2.84,-2.85
897,-0.45,2.39,-0.45,2.39,-2.39,-3.32,-2.84,-2.84,-2.84
906,-0.41,2.43,-0.42,2.42,-2.42,-3.40,-2.83,-2.84,-2.84
915,-0.38,2.45,-0.39,2.44,-2.44,-3.46,-2.82,-2.84,-2.83
924,-0.32,2.50,-0.37,2.47,-2.47,-3.53,-2.79,-2.83,-2.82
933,-0.32,2.50,-0.33,2.50,-2.50,-3.58,-2.82,-2.83,-2.82
943,-0.32,2.49,-0.29,2.53,-2.53,-3.64,-2.85,-2.81,-2.81
952,-0.32,2.48,-0.24,2.56,-2.56,-3.69,-2.88,-2.80,-2.80
962,-0.17,2.62,-0.20,2.59,-2.59,-3.74,-2.76,-2.79,-2.79
971,-0.11,2.67,-0.15,2.63,-2.63,-3.77,-2.74,-2.78,-2.78
981,-0.10,2.66,-0.10,2.66,-2.66,-3.81,-2.77,-2.77,-2.76
991,-0.08,2.67,-0.05,2.70,-2.70,-3.84,-2.79,-2.75,-2.75
1001,0.01,2.74,0.02,2.75,-2.75,-3.86,-2.74,-2.73,-2.73
1011,0.07,2.78,0.08,2.79,-2.79,-3.88,-2.72,-2.71,-2.71
1021,0.18,2.87,0.14,2.83,-2.83,-3.89,-2.65,-2.69,-2.69
1031,0.20,2.86,0.22,2.88,-2.88,-3.89,-2.68,-2.66,-2.66
1041,0.23,2.86,0.29,2.92,-2.92,-3.90,-2.69,-2.63,-2.63
1052,0.37,2.98,0.36,2.97,-2.97,-3.89,-2.60,-2.61,-2.61
1062,0.50,3.08,0.43,3.02,-3.02,-3.88,-2.52,-2.58,-2.58
1073,0.55,3.10,0.51,3.06,-3.06,-3.87,-2.51,-2.55,-2.55
1084,0.60,3.12,0.59,3.11,-3.11,-3.85,-2.51,-2.52,-2.52
1094,0.66,3.15,0.67,3.16,-3.16,-3.83,-2.50,-2.49,-2.49
1105,0.71,3.17,0.75,3.21,-3.21,-3.81,-2.50,-2.46,-2.46
1116,0.85,3.27,0.83,3.26,-3.26,-3.78,-2.42,-2.43,-2.43
1128,0.95,3.34,0.92,3.32,-3.32,-3.74,-2.37,-2.40,-2.39
1139,1.02,3.38,1.02,3.38,-3.38,-3.71,-2.36,-2.36,-2.36
1150,1.10,3.42,1.11,3.44,-3.44,-3.68,-2.34,-2.33,-2.32
1162,1.19,3.47,1.21,3.51,-3.51,-3.64,-2.32,-2.30,-2.28
1173,1.28,3.53,1.32,3.58,-3.58,-3.61,-2.30,-2.26,-2.25
1185,1.38,3.59,1.43,3.66,-3.66,-3.57,-2.28,-2.23,-2.21
1197,1.58,3.75,1.55,3.74,-3.74,-3.53,-2.16,-2.19,-2.17
1209,1.70,3.84,1.68,3.83,-3.83,-3.50,-2.13,-2.15,-2.14
1221,1.82,3.92,1.81,3.92,-3.92,-3.46,-2.11,-2.12,-2.10
1233,1.95,4.02,1.93,4.02,-4.02,-3.42,-2.07,-2.09,-2.07
1246,2.00,4.04,2.06,4.12,-4.12,-3.39,-2.13,-2.06,-2.04
1258,2.18,4.19,2.20,4.23,-4.23,-3.35,-2.05,-2.03,-2.01
1271,2.36,4.35,2.33,4.34,-4.34,-3.32,-1.98,-2.01,-2.00
1283,2.50,4.48,2.45,4.45,-4.45,-3.29,-1.95,-2.00,-1.98
1296,2.55,4.53,2.56,4.56,-4.56,-3.26,-2.01,-2.00,-1.98
1309,2.70,4.68,2.68,4.67,-4.67,-3.24,-1.97,-1.99,-1.98
1322,2.80,4.78,2.78,4.78,-4.78,-3.21,-1.98,-2.00,-1.99
1335,2.90,4.89,2.88,4.89,-4.89,-3.19,-1.99,-2.01,-2.00
1349,2.97,4.98,2.97,4.99,-4.99,-3.17,-2.02,-2.02,-2.01
1362,3.07,5.10,3.06,5.10,-5.10,-3.15,-2.03,-2.04,-2.03
1376,3.15,5.20,3.15,5.20,-5.20,-3.13,-2.05,-2.05,-2.05
1390,3.22,5.29,3.23,5.30,-5.30,-3.12,-2.08,-2.06,-2.07
1404,3.28,5.37,3.31,5.39,-5.39,-3.11,-2.11,-2.08,-2.09
1418,3.37,5.48,3.38,5.48,-5.48,-3.10,-2.11,-2.10,-2.11
1432,3.50,5.62,3.45,5.56,-5.56,-3.10,-2.06,-2.11,-2.12
1446,3.47,5.60,3.51,5.64,-5.64,-3.09,-2.17,-2.13,-2.13
1461,3.52,5.65,3.58,5.71,-5.71,-3.09,-2.19,-2.13,-2.13
1475,3.65,5.78,3.65,5.78,-5.78,-3.10,-2.13,-2.13,-2.13
1490,3.76,5.89,3.71,5.84,-5.84,-3.10,-2.08,-2.13,-2.13
1505,3.86,5.98,3.76,5.89,-5.89,-3.11,-2.03,-2.13,-2.12
1520,3.82,5.93,3.82,5.94,-5.94,-3.12,-2.12,-2.12,-2.11
