frequency,raw,error,smoothed,error_smoothed,equalization,parametric_eq,equalized_raw,equalized_smoothed,target
20,-5.77,-7.55,-5.87,-7.62,6.00,1.35,0.23,0.13,1.78
21,-5.26,-7.03,-5.31,-7.05,5.95,1.58,0.69,0.64,1.77
22,-4.84,-6.61,-4.77,-6.51,5.81,1.82,0.97,1.04,1.77
23,-4.35,-6.11,-4.26,-6.00,5.59,2.09,1.25,1.34,1.76
24,-3.85,-5.61,-3.76,-5.50,5.31,2.38,1.46,1.55,1.76
25,-3.36,-5.11,-3.29,-5.02,4.96,2.66,1.61,1.68,1.75
26,-2.86,-4.60,-2.84,-4.57,4.57,2.94,1.71,1.73,1.75
27,-2.39,-4.13,-2.41,-4.13,4.13,3.20,1.75,1.72,1.74
28,-1.95,-3.68,-2.00,-3.72,3.72,3.41,1.77,1.72,1.73
29,-1.55,-3.27,-1.62,-3.33,3.33,3.56,1.78,1.71,1.73
30,-1.18,-2.90,-1.26,-2.96,2.96,3.63,1.78,1.70,1.72
31,-0.86,-2.57,-0.91,-2.62,2.62,3.62,1.76,1.70,1.71
32,-0.58,-2.28,-0.60,-2.30,2.30,3.53,1.72,1.70,1.70
33,-0.29,-1.98,-0.31,-2.00,2.00,3.36,1.72,1.70,1.69
34,-0.07,-1.75,-0.05,-1.73,1.73,3.13,1.66,1.68,1.68
35,0.15,-1.52,0.19,-1.47,1.47,2.86,1.62,1.67,1.67
36,0.41,-1.25,0.42,-1.23,1.23,2.56,1.64,1.65,1.66
37,0.64,-1.00,0.63,-1.00,1.00,2.23,1.64,1.63,1.65
38,0.83,-0.80,0.83,-0.78,0.78,1.90,1.62,1.62,1.63
39,1.02,-0.60,1.03,-0.57,0.57,1.57,1.59,1.60,1.62
40,1.20,-0.40,1.23,-0.36,0.36,1.24,1.56,1.59,1.61
41,1.39,-0.20,1.42,-0.15,0.15,0.91,1.54,1.57,1.59
42,1.58,0.00,1.62,0.06,-0.06,0.60,1.52,1.56,1.58
43,1.78,0.22,1.81,0.26,-0.26,0.28,1.52,1.55,1.56
44,1.99,0.45,2.01,0.47,-0.47,-0.02,1.52,1.53,1.55
45,2.19,0.66,2.20,0.68,-0.68,-0.32,1.51,1.52,1.53
46,2.38,0.87,2.38,0.89,-0.89,-0.61,1.50,1.50,1.51
47,2.57,1.08,2.57,1.09,-1.09,-0.90,1.48,1.48,1.49
48,2.76,1.29,2.76,1.29,-1.29,-1.18,1.47,1.47,1.47
49,2.94,1.49,2.94,1.49,-1.49,-1.45,1.46,1.45,1.45
50,3.12,1.69,3.11,1.68,-1.68,-1.72,1.45,1.43,1.43
51,3.28,1.87,3.27,1.86,-1.86,-1.97,1.42,1.41,1.41
52,3.44,2.05,3.43,2.04,-2.04,-2.22,1.40,1.39,1.39
53,3.58,2.22,3.57,2.21,-2.21,-2.46,1.37,1.37,1.36
54,3.72,2.38,3.71,2.37,-2.37,-2.69,1.35,1.34,1.34
55,3.84,2.53,3.83,2.52,-2.52,-2.90,1.32,1.31,1.32
56,3.96,2.67,3.95,2.67,-2.67,-3.10,1.29,1.29,1.29
57,4.06,2.80,4.07,2.81,-2.81,-3.29,1.25,1.26,1.27
58,4.16,2.92,4.17,2.94,-2.94,-3.45,1.22,1.23,1.24
59,4.25,3.04,4.27,3.06,-3.06,-3.60,1.19,1.21,1.21
60,4.34,3.16,4.36,3.18,-3.18,-3.73,1.16,1.18,1.18
61,4.42,3.27,4.44,3.29,-3.29,-3.84,1.13,1.15,1.16
62,4.50,3.38,4.51,3.39,-3.39,-3.93,1.11,1.12,1.13
63,4.58,3.49,4.58,3.48,-3.48,-4.01,1.10,1.09,1.10
64,4.66,3.60,4.63,3.57,-3.57,-4.07,1.09,1.06,1.07
65,4.71,3.68,4.68,3.65,-3.65,-4.11,1.06,1.03,1.04
66,4.75,3.75,4.72,3.73,-3.73,-4.13,1.03,1.00,1.00
67,4.77,3.80,4.76,3.79,-3.79,-4.15,0.98,0.97,0.97
68,4.79,3.85,4.79,3.86,-3.86,-4.16,0.94,0.94,0.94
69,4.80,3.89,4.82,3.91,-3.91,-4.15,0.89,0.90,0.91
70,4.81,3.94,4.83,3.96,-3.96,-4.14,0.85,0.87,0.87
71,4.82,3.98,4.85,4.01,-4.01,-4.13,0.81,0.84,0.84
72,4.84,4.04,4.85,4.06,-4.06,-4.11,0.79,0.80,0.81
73,4.85,4.08,4.86,4.10,-4.10,-4.08,0.76,0.76,0.77
74,4.87,4.14,4.86,4.13,-4.13,-4.06,0.74,0.73,0.74
75,4.88,4.18,4.87,4.17,-4.17,-4.04,0.71,0.69,0.70
76,4.88,4.22,4.87,4.21,-4.21,-4.02,0.67,0.66,0.67
77,4.87,4.24,4.87,4.25,-4.25,-4.00,0.63,0.63,0.63
78,4.86,4.27,4.87,4.28,-4.28,-3.98,0.58,0.59,0.60
79,4.86,4.30,4.87,4.31,-4.31,-3.97,0.55,0.56,0.56
80,4.86,4.34,4.87,4.35,-4.35,-3.96,0.52,0.52,0.52
81,4.86,4.38,4.86,4.38,-4.38,-3.95,0.49,0.49,0.49
82,4.86,4.41,4.85,4.40,-4.40,-3.95,0.46,0.45,0.45
83,4.85,4.44,4.84,4.43,-4.43,-3.95,0.42,0.41,0.41
84,4.84,4.46,4.83,4.46,-4.46,-3.95,0.38,0.38,0.38
85,4.83,4.49,4.82,4.48,-4.48,-3.96,0.35,0.34,0.34
86,4.80,4.50,4.81,4.51,-4.51,-3.97,0.29,0.30,0.31
87,4.79,4.52,4.80,4.53,-4.53,-3.99,0.26,0.27,0.27
88,4.78,4.55,4.79,4.55,-4.55,-4.01,0.23,0.23,0.23
89,4.77,4.58,4.77,4.58,-4.58,-4.03,0.20,0.19,0.20
90,4.75,4.59,4.76,4.60,-4.60,-4.06,0.15,0.16,0.16
91,4.73,4.61,4.74,4.62,-4.62,-4.09,0.11,0.12,0.12
92,4.73,4.64,4.73,4.64,-4.64,-4.12,0.09,0.09,0.09
93,4.71,4.66,4.71,4.66,-4.66,-4.16,0.05,0.05,0.05
94,4.69,4.67,4.70,4.68,-4.68,-4.20,0.01,0.02,0.02
95,4.67,4.69,4.68,4.70,-4.70,-4.25,-0.02,-0.01,-0.02
96,4.66,4.71,4.66,4.71,-4.71,-4.29,-0.05,-0.05,-0.05
97,4.66,4.75,4.64,4.73,-4.73,-4.34,-0.07,-0.09,-0.09
98,4.63,4.75,4.62,4.74,-4.74,-4.39,-0.11,-0.13,-0.12
99,4.61,4.77,4.59,4.76,-4.76,-4.45,-0.14,-0.16,-0.15
100,4.58,4.77,4.57,4.77,-4.77,-4.50,-0.19,-0.20,-0.19
101,4.55,4.77,4.55,4.78,-4.78,-4.56,-0.23,-0.24,-0.22
102,4.52,4.77,4.52,4.80,-4.80,-4.61,-0.28,-0.27,-0.25
104,4.47,4.79,4.50,4.81,-4.81,-4.73,-0.34,-0.31,-0.32
105,4.45,4.80,4.48,4.83,-4.83,-4.79,-0.38,-0.34,-0.35
106,4.44,4.82,4.47,4.84,-4.84,-4.85,-0.40,-0.38,-0.38
107,4.43,4.84,4.45,4.86,-4.86,-4.91,-0.42,-0.41,-0.41
108,4.43,4.87,4.43,4.87,-4.87,-4.96,-0.44,-0.44,-0.44
109,4.42,4.89,4.41,4.89,-4.89,-5.02,-0.46,-0.47,-0.47
110,4.41,4.91,4.39,4.90,-4.90,-5.08,-0.49,-0.51,-0.50
111,4.40,4.93,4.38,4.92,-4.92,-5.13,-0.51,-0.54,-0.53
112,4.37,4.93,4.36,4.93,-4.93,-5.18,-0.56,-0.57,-0.56
113,4.36,4.95,4.34,4.94,-4.94,-5.23,-0.58,-0.60,-0.59
114,4.33,4.95,4.33,4.96,-4.96,-5.28,-0.63,-0.63,-0.62
115,4.32,4.97,4.31,4.98,-4.98,-5.32,-0.65,-0.66,-0.64
117,4.27,4.97,4.30,4.99,-4.99,-5.40,-0.72,-0.69,-0.70
118,4.25,4.98,4.28,5.01,-5.01,-5.43,-0.76,-0.72,-0.72
119,4.23,4.98,4.27,5.02,-5.02,-5.46,-0.79,-0.76,-0.75
120,4.23,5.01,4.25,5.04,-5.04,-5.49,-0.81,-0.79,-0.78
121,4.23,5.03,4.24,5.06,-5.06,-5.51,-0.82,-0.82,-0.80
123,4.23,5.08,4.22,5.07,-5.07,-5.54,-0.84,-0.85,-0.85
124,4.24,5.12,4.21,5.09,-5.09,-5.56,-0.84,-0.88,-0.87
125,4.23,5.13,4.19,5.10,-5.10,-5.56,-0.87,-0.91,-0.90
126,4.21,5.13,4.18,5.11,-5.11,-5.57,-0.90,-0.94,-0.92
128,4.17,5.14,4.16,5.13,-5.13,-5.57,-0.96,-0.96,-0.96
129,4.13,5.12,4.15,5.14,-5.14,-5.56,-1.01,-0.99,-0.99
130,4.10,5.11,4.13,5.15,-5.15,-5.55,-1.05,-1.01,-1.01
131,4.09,5.12,4.12,5.16,-5.16,-5.54,-1.07,-1.04,-1.03
133,4.06,5.13,4.10,5.17,-5.17,-5.50,-1.10,-1.07,-1.07
134,4.06,5.15,4.07,5.17,-5.17,-5.48,-1.11,-1.10,-1.09
135,4.07,5.18,4.05,5.18,-5.18,-5.46,-1.11,-1.13,-1.11
137,4.06,5.21,4.03,5.18,-5.18,-5.41,-1.12,-1.15,-1.15
138,4.04,5.21,4.01,5.19,-5.19,-5.38,-1.15,-1.18,-1.16
140,4.00,5.20,3.99,5.20,-5.20,-5.33,-1.19,-1.20,-1.20
141,3.98,5.20,3.98,5.20,-5.20,-5.30,-1.22,-1.22,-1.22
142,3.95,5.19,3.97,5.21,-5.21,-5.27,-1.26,-1.24,-1.23
144,3.92,5.19,3.95,5.21,-5.21,-5.20,-1.29,-1.26,-1.27
145,3.90,5.18,3.93,5.22,-5.22,-5.17,-1.32,-1.29,-1.28
147,3.89,5.20,3.91,5.22,-5.22,-5.11,-1.33,-1.31,-1.31
148,3.89,5.22,3.88,5.22,-5.22,-5.08,-1.33,-1.34,-1.33
150,3.88,5.24,3.86,5.22,-5.22,-5.02,-1.34,-1.36,-1.36
151,3.87,5.24,3.84,5.22,-5.22,-4.99,-1.35,-1.38,-1.37
153,3.84,5.24,3.82,5.22,-5.22,-4.93,-1.38,-1.40,-1.40
154,3.81,5.22,3.80,5.22,-5.22,-4.90,-1.41,-1.42,-1.41
156,3.76,5.20,3.78,5.22,-5.22,-4.85,-1.46,-1.44,-1.44
157,3.74,5.19,3.76,5.22,-5.22,-4.83,-1.48,-1.46,-1.45
159,3.70,5.18,3.74,5.21,-5.21,-4.78,-1.51,-1.48,-1.47
160,3.69,5.18,3.71,5.21,-5.21,-4.76,-1.52,-1.50,-1.49
162,3.67,5.18,3.69,5.20,-5.20,-4.72,-1.53,-1.51,-1.51
164,3.67,5.20,3.66,5.19,-5.19,-4.69,-1.52,-1.53,-1.53
165,3.65,5.19,3.64,5.18,-5.18,-4.67,-1.53,-1.55,-1.54
167,3.63,5.19,3.61,5.17,-5.17,-4.65,-1.54,-1.57,-1.56
169,3.59,5.17,3.58,5.16,-5.16,-4.63,-1.57,-1.58,-1.58
170,3.57,5.16,3.54,5.14,-5.14,-4.62,-1.57,-1.60,-1.59
172,3.52,5.13,3.51,5.13,-5.13,-4.61,-1.61,-1.62,-1.61
174,3.47,5.10,3.48,5.11,-5.11,-4.60,-1.64,-1.63,-1.63
175,3.45,5.09,3.45,5.09,-5.09,-4.60,-1.64,-1.65,-1.64
177,3.40,5.05,3.41,5.07,-5.07,-4.60,-1.67,-1.66,-1.65
179,3.35,5.02,3.38,5.06,-5.06,-4.60,-1.70,-1.68,-1.67
181,3.31,5.00,3.35,5.04,-5.04,-4.61,-1.72,-1.69,-1.68
183,3.28,4.98,3.31,5.02,-5.02,-4.62,-1.73,-1.70,-1.70
184,3.27,4.98,3.28,5.00,-5.00,-4.63,-1.72,-1.72,-1.71
186,3.25,4.97,3.25,4.98,-4.98,-4.65,-1.72,-1.73,-1.72
188,3.24,4.98,3.21,4.95,-4.95,-4.67,-1.71,-1.74,-1.73
190,3.21,4.96,3.18,4.93,-4.93,-4.69,-1.72,-1.75,-1.75
192,3.17,4.93,3.15,4.91,-4.91,-4.72,-1.74,-1.77,-1.76
194,3.13,4.90,3.11,4.89,-4.89,-4.75,-1.76,-1.78,-1.77
196,3.08,4.87,3.08,4.86,-4.86,-4.79,-1.78,-1.79,-1.78
198,3.03,4.83,3.04,4.84,-4.84,-4.82,-1.81,-1.80,-1.79
200,2.99,4.80,3.01,4.81,-4.81,-4.86,-1.82,-1.81,-1.81
202,2.95,4.77,2.97,4.79,-4.79,-4.90,-1.84,-1.82,-1.82
204,2.91,4.74,2.93,4.77,-4.77,-4.94,-1.85,-1.83,-1.83
206,2.89,4.73,2.90,4.74,-4.74,-4.98,-1.85,-1.84,-1.84
208,2.85,4.70,2.87,4.72,-4.72,-5.02,-1.87,-1.85,-1.84
210,2.84,4.70,2.84,4.70,-4.70,-5.07,-1.85,-1.86,-1.85
212,2.81,4.67,2.81,4.68,-4.68,-5.11,-1.86,-1.87,-1.86
214,2.79,4.66,2.79,4.66,-4.66,-5.15,-1.87,-1.87,-1.87
216,2.78,4.66,2.76,4.64,-4.64,-5.19,-1.86,-1.88,-1.88
218,2.76,4.65,2.74,4.63,-4.63,-5.23,-1.87,-1.89,-1.89
221,2.73,4.63,2.71,4.62,-4.62,-5.29,-1.88,-1.90,-1.90
223,2.70,4.61,2.69,4.61,-4.61,-5.33,-1.90,-1.91,-1.90
225,2.67,4.58,2.68,4.60,-4.60,-5.36,-1.93,-1.92,-1.91
227,2.65,4.57,2.67,4.60,-4.60,-5.39,-1.95,-1.93,-1.92
229,2.63,4.56,2.66,4.60,-4.60,-5.41,-1.97,-1.94,-1.92
232,2.62,4.56,2.66,4.60,-4.60,-5.45,-1.98,-1.95,-1.93
234,2.62,4.56,2.66,4.61,-4.61,-5.47,-1.99,-1.95,-1.94
236,2.63,4.58,2.66,4.62,-4.62,-5.48,-1.99,-1.96,-1.95
239,2.66,4.62,2.67,4.63,-4.63,-5.49,-1.97,-1.96,-1.95
241,2.68,4.64,2.67,4.64,-4.64,-5.50,-1.96,-1.97,-1.96
244,2.70,4.67,2.68,4.65,-4.65,-5.49,-1.95,-1.97,-1.97
246,2.71,4.68,2.69,4.66,-4.66,-5.48,-1.95,-1.98,-1.97
248,2.72,4.70,2.69,4.67,-4.67,-5.47,-1.95,-1.98,-1.98
251,2.71,4.69,2.69,4.67,-4.67,-5.44,-1.96,-1.98,-1.98
253,2.70,4.69,2.68,4.67,-4.67,-5.42,-1.97,-1.99,-1.99
256,2.68,4.68,2.67,4.66,-4.66,-5.37,-1.98,-1.99,-1.99
259,2.65,4.65,2.65,4.65,-4.65,-5.32,-2.00,-2.00,-2.00
261,2.63,4.64,2.63,4.64,-4.64,-5.28,-2.00,-2.00,-2.00
264,2.59,4.60,2.61,4.62,-4.62,-5.21,-2.03,-2.01,-2.01
266,2.57,4.58,2.58,4.60,-4.60,-5.16,-2.02,-2.02,-2.01
269,2.54,4.56,2.55,4.57,-4.57,-5.09,-2.03,-2.02,-2.02
272,2.51,4.53,2.52,4.55,-4.55,-5.00,-2.03,-2.03,-2.02
274,2.49,4.52,2.49,4.52,-4.52,-4.94,-2.03,-2.03,-2.03
277,2.46,4.49,2.46,4.50,-4.50,-4.85,-2.04,-2.04,-2.03
280,2.43,4.47,2.44,4.48,-4.48,-4.76,-2.05,-2.04,-2.04
283,2.40,4.44,2.41,4.46,-4.46,-4.66,-2.05,-2.04,-2.04
286,2.38,4.43,2.39,4.44,-4.44,-4.56,-2.05,-2.05,-2.04
288,2.36,4.41,2.37,4.42,-4.42,-4.49,-2.05,-2.05,-2.05
291,2.34,4.39,2.34,4.40,-4.40,-4.39,-2.05,-2.05,-2.05
294,2.32,4.38,2.32,4.38,-4.38,-4.29,-2.06,-2.06,-2.05
297,2.30,4.36,2.30,4.36,-4.36,-4.18,-2.06,-2.06,-2.06
300,2.28,4.34,2.28,4.34,-4.34,-4.08,-2.06,-2.06,-2.06
303,2.25,4.32,2.25,4.32,-4.32,-3.98,-2.07,-2.06,-2.06
306,2.23,4.30,2.23,4.29,-4.29,-3.88,-2.06,-2.07,-2.07
309,2.20,4.27,2.20,4.27,-4.27,-3.78,-2.07,-2.07,-2.07
312,2.18,4.25,2.17,4.25,-4.25,-3.68,-2.06,-2.07,-2.07
316,2.14,4.22,2.14,4.22,-4.22,-3.55,-2.08,-2.08,-2.08
319,2.11,4.19,2.11,4.19,-4.19,-3.45,-2.08,-2.08,-2.08
322,2.07,4.15,2.08,4.16,-4.16,-3.36,-2.09,-2.08,-2.08
325,2.04,4.13,2.04,4.12,-4.12,-3.27,-2.08,-2.09,-2.08
328,2.00,4.09,2.00,4.09,-4.09,-3.18,-2.09,-2.09,-2.09
332,1.95,4.04,1.96,4.05,-4.05,-3.07,-2.10,-2.09,-2.09
335,1.91,4.00,1.92,4.01,-4.01,-2.99,-2.10,-2.09,-2.09
338,1.87,3.97,1.87,3.97,-3.97,-2.90,-2.09,-2.09,-2.09
342,1.82,3.92,1.82,3.92,-3.92,-2.80,-2.10,-2.10,-2.10
345,1.78,3.88,1.77,3.87,-3.87,-2.72,-2.09,-2.10,-2.10
349,1.72,3.82,1.72,3.82,-3.82,-2.63,-2.10,-2.10,-2.10
352,1.68,3.79,1.67,3.77,-3.77,-2.55,-2.09,-2.10,-2.10
356,1.61,3.72,1.61,3.72,-3.72,-2.46,-2.11,-2.11,-2.11
359,1.56,3.67,1.55,3.66,-3.66,-2.40,-2.10,-2.11,-2.11
363,1.49,3.60,1.49,3.61,-3.61,-2.31,-2.12,-2.11,-2.11
366,1.43,3.54,1.43,3.55,-3.55,-2.25,-2.12,-2.12,-2.11
370,1.36,3.48,1.37,3.49,-3.49,-2.17,-2.13,-2.12,-2.11
374,1.29,3.41,1.31,3.43,-3.43,-2.09,-2.14,-2.12,-2.12
377,1.24,3.36,1.25,3.37,-3.37,-2.03,-2.13,-2.12,-2.12
381,1.18,3.30,1.18,3.31,-3.31,-1.96,-2.13,-2.13,-2.12
385,1.11,3.23,1.12,3.25,-3.25,-1.89,-2.13,-2.13,-2.12
389,1.04,3.16,1.05,3.18,-3.18,-1.83,-2.14,-2.13,-2.12
393,0.98,3.11,0.99,3.11,-3.11,-1.76,-2.13,-2.13,-2.12
397,0.91,3.04,0.92,3.04,-3.04,-1.70,-2.13,-2.13,-2.13
401,0.84,2.97,0.84,2.97,-2.97,-1.64,-2.13,-2.13,-2.13
405,0.76,2.89,0.76,2.88,-2.88,-1.58,-2.12,-2.12,-2.13
409,0.68,2.81,0.67,2.79,-2.79,-1.52,-2.11,-2.12,-2.13
413,0.59,2.72,0.57,2.70,-2.70,-1.47,-2.11,-2.13,-2.13
417,0.49,2.62,0.46,2.60,-2.60,-1.42,-2.10,-2.13,-2.13
421,0.38,2.52,0.35,2.49,-2.49,-1.37,-2.10,-2.14,-2.13
425,0.27,2.41,0.22,2.37,-2.37,-1.32,-2.10,-2.14,-2.14
430,0.11,2.25,0.10,2.25,-2.25,-1.26,-2.14,-2.15,-2.14
434,-0.02,2.12,-0.03,2.12,-2.12,-1.22,-2.14,-2.15,-2.14
438,-0.15,1.99,-0.16,2.00,-2.00,-1.17,-2.15,-2.16,-2.14
443,-0.33,1.81,-0.28,1.87,-1.87,-1.12,-2.20,-2.15,-2.14
447,-0.47,1.67,-0.40,1.75,-1.75,-1.08,-2.21,-2.15,-2.14
451,-0.58,1.56,-0.53,1.62,-1.62,-1.05,-2.20,-2.15,-2.14
456,-0.69,1.44,-0.65,1.50,-1.50,-1.00,-2.18,-2.14,-2.13
460,-0.78,1.35,-0.76,1.38,-1.38,-0.96,-2.15,-2.14,-2.12
465,-0.86,1.26,-0.87,1.26,-1.26,-0.92,-2.11,-2.13,-2.12
470,-0.95,1.16,-0.98,1.14,-1.14,-0.88,-2.09,-2.12,-2.11
474,-1.03,1.07,-1.08,1.03,-1.03,-0.85,-2.06,-2.11,-2.10
479,-1.13,0.96,-1.18,0.92,-0.92,-0.81,-2.05,-2.10,-2.09
484,-1.25,0.83,-1.27,0.81,-0.81,-0.78,-2.06,-2.09,-2.08
489,-1.37,0.70,-1.36,0.71,-0.71,-0.74,-2.08,-2.07,-2.07
494,-1.47,0.58,-1.44,0.61,-0.61,-0.71,-2.08,-2.06,-2.05
499,-1.56,0.48,-1.52,0.52,-0.52,-0.68,-2.08,-2.04,-2.04
504,-1.64,0.38,-1.60,0.43,-0.43,-0.65,-2.07,-2.03,-2.02
509,-1.71,0.30,-1.67,0.34,-0.34,-0.62,-2.05,-2.02,-2.01
514,-1.75,0.24,-1.74,0.26,-0.26,-0.59,-2.01,-2.00,-1.99
519,-1.79,0.18,-1.80,0.19,-0.19,-0.57,-1.97,-1.98,-1.97
524,-1.84,0.12,-1.85,0.12,-0.12,-0.54,-1.96,-1.97,-1.95
529,-1.88,0.06,-1.89,0.05,-0.05,-0.52,-1.93,-1.94,-1.94
535,-1.92,-0.00,-1.93,-0.01,0.01,-0.49,-1.91,-1.92,-1.92
540,-1.95,-0.05,-1.96,-0.06,0.06,-0.47,-1.89,-1.90,-1.90
545,-1.98,-0.10,-1.98,-0.11,0.11,-0.45,-1.87,-1.87,-1.87
551,-2.02,-0.17,-2.01,-0.16,0.16,-0.42,-1.86,-1.85,-1.85
556,-2.03,-0.20,-2.03,-0.21,0.21,-0.40,-1.82,-1.82,-1.82
562,-2.05,-0.25,-2.04,-0.25,0.25,-0.38,-1.80,-1.79,-1.80
568,-2.07,-0.30,-2.06,-0.29,0.29,-0.36,-1.78,-1.77,-1.77
573,-2.08,-0.34,-2.07,-0.33,0.33,-0.34,-1.75,-1.74,-1.74
579,-2.09,-0.38,-2.09,-0.37,0.37,-0.32,-1.72,-1.71,-1.71
585,-2.09,-0.41,-2.10,-0.41,0.41,-0.30,-1.68,-1.68,-1.68
591,-2.10,-0.45,-2.10,-0.45,0.45,-0.28,-1.65,-1.66,-1.65
596,-2.10,-0.48,-2.11,-0.49,0.49,-0.27,-1.61,-1.63,-1.62
602,-2.12,-0.53,-2.12,-0.52,0.52,-0.25,-1.60,-1.60,-1.59
608,-2.12,-0.56,-2.12,-0.56,0.56,-0.23,-1.56,-1.56,-1.56
615,-2.13,-0.60,-2.13,-0.59,0.59,-0.21,-1.53,-1.53,-1.53
621,-2.14,-0.64,-2.13,-0.63,0.63,-0.20,-1.51,-1.50,-1.50
627,-2.14,-0.67,-2.14,-0.67,0.67,-0.18,-1.47,-1.47,-1.47
633,-2.16,-0.72,-2.14,-0.71,0.71,-0.17,-1.45,-1.43,-1.43
639,-2.16,-0.76,-2.15,-0.75,0.75,-0.15,-1.41,-1.40,-1.40
646,-2.16,-0.79,-2.16,-0.79,0.79,-0.13,-1.36,-1.37,-1.37
652,-2.17,-0.83,-2.17,-0.84,0.84,-0.12,-1.33,-1.33,-1.34
659,-2.17,-0.86,-2.19,-0.89,0.89,-0.10,-1.27,-1.30,-1.30
665,-2.19,-0.92,-2.21,-0.95,0.95,-0.09,-1.24,-1.26,-1.27
672,-2.21,-0.98,-2.24,-1.00,1.00,-0.07,-1.20,-1.23,-1.23
679,-2.23,-1.03,-2.26,-1.06,1.06,-0.06,-1.17,-1.20,-1.20
686,-2.26,-1.10,-2.29,-1.12,1.12,-0.04,-1.14,-1.17,-1.16
692,-2.30,-1.18,-2.31,-1.18,1.18,-0.03,-1.12,-1.13,-1.12
699,-2.34,-1.25,-2.33,-1.23,1.23,-0.01,-1.11,-1.10,-1.08
706,-2.36,-1.31,-2.34,-1.28,1.28,0.00,-1.08,-1.06,-1.05
713,-2.39,-1.38,-2.34,-1.33,1.33,0.02,-1.06,-1.02,-1.01
721,-2.40,-1.43,-2.34,-1.36,1.36,0.04,-1.03,-0.98,-0.97
728,-2.38,-1.45,-2.34,-1.40,1.40,0.05,-0.98,-0.94,-0.93
735,-2.34,-1.45,-2.32,-1.42,1.42,0.07,-0.92,-0.90,-0.89
742,-2.29,-1.44,-2.30,-1.44,1.44,0.08,-0.85,-0.86,-0.85
750,-2.24,-1.43,-2.26,-1.44,1.44,0.10,-0.80,-0.82,-0.81
757,-2.19,-1.41,-2.22,-1.44,1.44,0.11,-0.75,-0.78,-0.77
765,-2.14,-1.40,-2.17,-1.42,1.42,0.13,-0.71,-0.75,-0.74
773,-2.09,-1.39,-2.11,-1.40,1.40,0.15,-0.69,-0.71,-0.70
780,-2.05,-1.39,-2.04,-1.37,1.37,0.16,-0.68,-0.67,-0.66
788,-1.98,-1.35,-1.97,-1.33,1.33,0.18,-0.65,-0.64,-0.63
796,-1.91,-1.32,-1.88,-1.28,1.28,0.20,-0.63,-0.61,-0.59
804,-1.83,-1.27,-1.79,-1.22,1.22,0.21,-0.61,-0.57,-0.56
812,-1.72,-1.19,-1.69,-1.15,1.15,0.23,-0.57,-0.54,-0.53
820,-1.61,-1.11,-1.58,-1.07,1.07,0.25,-0.54,-0.51,-0.49
828,-1.50,-1.04,-1.47,-0.99,0.99,0.26,-0.51,-0.48,-0.46
837,-1.36,-0.93,-1.35,-0.90,0.90,0.28,-0.45,-0.44,-0.43
845,-1.23,-0.83,-1.22,-0.81,0.81,0.30,-0.41,-0.41,-0.40
853,-1.10,-0.73,-1.10,-0.72,0.72,0.31,-0.37,-0.37,-0.37
862,-0.95,-0.61,-0.97,-0.64,0.64,0.33,-0.31,-0.34,-0.34
871,-0.81,-0.50,-0.86,-0.55,0.55,0.35,-0.26,-0.30,-0.31
879,-0.71,-0.43,-0.75,-0.47,0.47,0.37,-0.23,-0.27,-0.28
888,-0.62,-0.37,-0.65,-0.40,0.40,0.39,-0.22,-0.24,-0.25
897,-0.54,-0.31,-0.55,-0.33,0.33,0.41,-0.20,-0.22,-0.22
906,-0.45,-0.25,-0.47,-0.28,0.28,0.42,-0.17,-0.19,-0.20
915,-0.39,-0.22,-0.39,-0.22,0.22,0.44,-0.16,-0.17,-0.17
924,-0.34,-0.19,-0.33,-0.18,0.18,0.46,-0.16,-0.15,-0.14
933,-0.29,-0.17,-0.27,-0.15,0.15,0.48,-0.14,-0.12,-0.12
943,-0.23,-0.14,-0.21,-0.12,0.12,0.50,-0.11,-0.10,-0.09
952,-0.19,-0.12,-0.17,-0.10,0.10,0.52,-0.09,-0.07,-0.07
962,-0.15,-0.11,-0.12,-0.08,0.08,0.54,-0.07,-0.04,-0.04
971,-0.11,-0.09,-0.09,-0.07,0.07,0.56,-0.04,-0.01,-0.01
981,-0.06,-0.07,-0.06,-0.07,0.07,0.58,0.01,0.01,0.01
991,-0.02,-0.06,-0.04,-0.08,0.08,0.60,0.06,0.04,0.04
1001,0.00,-0.06,-0.02,-0.09,0.09,0.62,0.09,0.07,0.07
1011,0.02,-0.07,-0.02,-0.11,0.11,0.64,0.13,0.10,0.09
1021,0.01,-0.11,-0.02,-0.14,0.14,0.66,0.15,0.12,0.12
1031,0.00,-0.14,-0.03,-0.18,0.18,0.68,0.18,0.15,0.15
1041,-0.03,-0.20,-0.04,-0.22,0.22,0.70,0.19,0.18,0.17
1052,-0.07,-0.27,-0.06,-0.26,0.26,0.73,0.20,0.20,0.20
1062,-0.10,-0.33,-0.09,-0.32,0.32,0.75,0.22,0.23,0.23
1073,-0.14,-0.40,-0.12,-0.37,0.37,0.77,0.23,0.25,0.26
1084,-0.17,-0.46,-0.15,-0.43,0.43,0.79,0.26,0.28,0.29
1094,-0.20,-0.52,-0.18,-0.48,0.48,0.82,0.28,0.31,0.32
1105,-0.22,-0.57,-0.20,-0.54,0.54,0.84,0.32,0.34,0.35
1116,-0.24,-0.62,-0.22,-0.59,0.59,0.87,0.35,0.37,0.38
1128,-0.25,-0.66,-0.24,-0.64,0.64,0.89,0.39,0.40,0.41
1139,-0.26,-0.70,-0.26,-0.69,0.69,0.92,0.43,0.43,0.44
1150,-0.27,-0.74,-0.27,-0.73,0.73,0.94,0.47,0.46,0.47
1162,-0.28,-0.78,-0.28,-0.78,0.78,0.97,0.50,0.50,0.50
1173,-0.28,-0.81,-0.29,-0.82,0.82,1.00,0.54,0.53,0.54
1185,-0.29,-0.86,-0.29,-0.86,0.86,1.03,0.57,0.56,0.57
1197,-0.30,-0.90,-0.30,-0.89,0.89,1.06,0.60,0.59,0.60
1209,-0.30,-0.93,-0.30,-0.93,0.93,1.09,0.63,0.63,0.63
1221,-0.31,-0.97,-0.31,-0.96,0.96,1.12,0.66,0.66,0.66
1233,-0.31,-1.00,-0.31,-1.00,1.00,1.15,0.69,0.69,0.70
1246,-0.31,-1.04,-0.31,-1.03,1.03,1.19,0.72,0.72,0.73
1258,-0.31,-1.07,-0.31,-1.06,1.06,1.22,0.75,0.75,0.76
1271,-0.31,-1.10,-0.31,-1.09,1.09,1.26,0.78,0.79,0.79
1283,-0.29,-1.12,-0.30,-1.12,1.12,1.29,0.83,0.82,0.83
1296,-0.29,-1.15,-0.29,-1.14,1.14,1.33,0.85,0.85,0.86
1309,-0.28,-1.18,-0.28,-1.16,1.16,1.37,0.88,0.88,0.90
1322,-0.27,-1.20,-0.26,-1.18,1.18,1.41,0.91,0.92,0.94
1335,-0.25,-1.22,-0.24,-1.19,1.19,1.45,0.94,0.95,0.97
1349,-0.22,-1.23,-0.21,-1.20,1.20,1.50,0.98,0.99,1.01
1362,-0.20,-1.24,-0.18,-1.20,1.20,1.54,1.00,1.03,1.05
1376,-0.16,-1.24,-0.13,-1.20,1.20,1.59,1.04,1.07,1.08
1390,-0.11,-1.23,-0.09,-1.19,1.19,1.63,1.09,1.11,1.12
1404,-0.06,-1.22,-0.04,-1.19,1.19,1.68,1.13,1.15,1.16
1418,0.00,-1.20,0.01,-1.18,1.18,1.73,1.18,1.19,1.20
1432,0.07,-1.17,0.07,-1.17,1.17,1.78,1.24,1.23,1.24
1446,0.13,-1.15,0.12,-1.16,1.16,1.83,1.29,1.27,1.28
1461,0.18,-1.13,0.17,-1.15,1.15,1.89,1.33,1.32,1.32
1475,0.24,-1.11,0.21,-1.15,1.15,1.94,1.39,1.36,1.36
1490,0.28,-1.11,0.26,-1.15,1.15,2.00,1.43,1.40,1.39
1505,0.31,-1.12,0.29,-1.15,1.15,2.05,1.46,1.45,1.43
1520,0.33,-1.14,0.32,-1.16,1.16,2.11,1.49,1.49,1.47
1535,0.35,-1.16,0.35,-1.18,1.18,2.17,1.53,1.53,1.52
1550,0.36,-1.20,0.37,-1.20,1.20,2.23,1.56,1.57,1.56
1566,0.38,-1.22,0.38,-1.23,1.23,2.29,1.61,1.61,1.60
1582,0.38,-1.27,0.39,-1.26,1.26,2.36,1.65,1.65,1.65
1597,0.39,-1.30,0.39,-1.30,1.30,2.42,1.69,1.69,1.69
1613,0.39,-1.35,0.39,-1.34,1.34,2.48,1.73,1.73,1.74
1629,0.38,-1.40,0.39,-1.38,1.38,2.55,1.77,1.78,1.78
1646,0.38,-1.45,0.39,-1.43,1.43,2.62,1.81,1.82,1.83
1662,0.38,-1.49,0.39,-1.47,1.47,2.68,1.86,1.87,1.88
1679,0.39,-1.53,0.39,-1.52,1.52,2.75,1.91,1.92,1.92
1696,0.39,-1.58,0.39,-1.57,1.57,2.81,1.96,1.96,1.97
1713,0.39,-1.62,0.39,-1.62,1.62,2.88,2.01,2.01,2.02
1730,0.38,-1.68,0.39,-1.67,1.67,2.94,2.05,2.06,2.06
1747,0.38,-1.73,0.39,-1.72,1.72,3.00,2.11,2.11,2.11
1764,0.39,-1.77,0.38,-1.78,1.78,3.06,2.17,2.16,2.16
1782,0.39,-1.82,0.38,-1.83,1.83,3.13,2.23,2.21,2.21
