frequency,raw,smoothed,error,error_smoothed,equalization,parametric_eq,fixed_band_eq,equalized_raw,equalized_smoothed,target
20.00,11.14,11.14,6.39,6.40,-6.40,-4.75,-2.45,4.74,4.74,4.74
20.20,11.15,11.14,6.37,6.37,-6.37,-4.75,-2.52,4.78,4.77,4.77
20.40,11.15,11.15,6.34,6.34,-6.34,-4.75,-2.60,4.81,4.80,4.80
20.61,11.15,11.14,6.33,6.32,-6.31,-4.75,-2.67,4.83,4.83,4.82
20.81,11.14,11.14,6.29,6.29,-6.29,-4.74,-2.75,4.85,4.85,4.85
21.02,11.13,11.13,6.25,6.26,-6.26,-4.74,-2.83,4.87,4.87,4.88
21.23,11.13,11.12,6.24,6.23,-6.24,-4.74,-2.91,4.89,4.88,4.89
21.44,11.11,11.11,6.21,6.21,-6.21,-4.74,-2.99,4.89,4.90,4.90
21.66,11.10,11.10,6.19,6.19,-6.19,-4.74,-3.08,4.91,4.91,4.91
21.87,11.09,11.08,6.18,6.17,-6.17,-4.74,-3.17,4.92,4.91,4.91
22.09,11.07,11.07,6.15,6.15,-6.15,-4.74,-3.26,4.92,4.92,4.92
22.31,11.05,11.05,6.13,6.13,-6.13,-4.74,-3.35,4.92,4.92,4.92
22.54,11.03,11.02,6.11,6.11,-6.11,-4.74,-3.45,4.92,4.91,4.92
22.76,11.00,11.00,6.08,6.09,-6.09,-4.73,-3.55,4.91,4.91,4.92
22.99,10.98,10.97,6.07,6.07,-6.06,-4.73,-3.65,4.91,4.91,4.91
23.22,10.95,10.95,6.04,6.04,-6.04,-4.73,-3.75,4.91,4.91,4.90
23.45,10.92,10.92,6.01,6.02,-6.01,-4.73,-3.86,4.91,4.91,4.90
23.69,10.89,10.89,5.98,5.98,-5.98,-4.73,-3.97,4.90,4.90,4.90
23.92,10.86,10.86,5.95,5.95,-5.95,-4.73,-4.08,4.90,4.90,4.90
24.16,10.83,10.83,5.92,5.92,-5.92,-4.73,-4.19,4.90,4.90,4.91
24.40,10.80,10.79,5.89,5.89,-5.89,-4.72,-4.30,4.91,4.90,4.91
24.65,10.76,10.76,5.86,5.86,-5.86,-4.72,-4.42,4.90,4.90,4.90
24.89,10.73,10.72,5.83,5.83,-5.82,-4.72,-4.53,4.90,4.90,4.90
25.14,10.69,10.69,5.79,5.79,-5.79,-4.72,-4.65,4.89,4.90,4.90
25.39,10.66,10.65,5.76,5.76,-5.76,-4.72,-4.77,4.90,4.90,4.90
25.65,10.62,10.62,5.72,5.72,-5.72,-4.71,-4.89,4.89,4.89,4.90
25.91,10.58,10.58,5.69,5.69,-5.69,-4.71,-5.01,4.89,4.89,4.88
26.16,10.54,10.54,5.65,5.65,-5.65,-4.71,-5.13,4.89,4.89,4.88
26.43,10.50,10.50,5.62,5.62,-5.61,-4.71,-5.25,4.88,4.88,4.88
26.69,10.46,10.46,5.58,5.58,-5.58,-4.71,-5.37,4.88,4.88,4.88
26.96,10.42,10.42,5.54,5.54,-5.54,-4.70,-5.49,4.88,4.88,4.88
27.23,10.38,10.38,5.50,5.50,-5.51,-4.70,-5.60,4.87,4.87,4.88
27.50,10.35,10.34,5.47,5.47,-5.47,-4.70,-5.71,4.88,4.87,4.88
27.77,10.31,10.31,5.44,5.44,-5.44,-4.70,-5.82,4.87,4.87,4.87
28.05,10.27,10.27,5.40,5.41,-5.40,-4.70,-5.92,4.86,4.86,4.86
28.33,10.23,10.23,5.37,5.37,-5.37,-4.69,-6.02,4.86,4.86,4.85
28.62,10.19,10.19,5.34,5.34,-5.33,-4.69,-6.11,4.85,4.85,4.85
28.90,10.15,10.15,5.30,5.30,-5.30,-4.69,-6.20,4.85,4.85,4.85
29.19,10.11,10.11,5.27,5.26,-5.26,-4.68,-6.28,4.85,4.85,4.84
29.48,10.07,10.06,5.22,5.22,-5.22,-4.68,-6.35,4.84,4.84,4.85
29.78,10.02,10.02,5.18,5.18,-5.19,-4.68,-6.41,4.83,4.83,4.83
30.08,9.98,9.98,5.14,5.15,-5.15,-4.68,-6.47,4.83,4.83,4.83
30.38,9.94,9.94,5.12,5.11,-5.11,-4.67,-6.51,4.82,4.82,4.82
30.68,9.90,9.90,5.08,5.08,-5.08,-4.67,-6.55,4.82,4.82,4.82
30.99,9.86,9.86,5.05,5.05,-5.05,-4.67,-6.57,4.81,4.81,4.81
31.30,9.82,9.82,5.01,5.02,-5.02,-4.66,-6.59,4.80,4.80,4.80
31.61,9.79,9.78,4.98,4.99,-4.99,-4.66,-6.59,4.80,4.80,4.80
31.93,9.75,9.75,4.96,4.96,-4.96,-4.66,-6.59,4.79,4.79,4.79
32.24,9.71,9.71,4.93,4.93,-4.93,-4.65,-6.57,4.78,4.78,4.78
32.57,9.68,9.68,4.90,4.90,-4.90,-4.65,-6.55,4.78,4.78,4.77
32.89,9.65,9.64,4.87,4.87,-4.87,-4.64,-6.52,4.77,4.77,4.77
33.22,9.61,9.61,4.85,4.85,-4.85,-4.64,-6.47,4.76,4.76,4.76
33.55,9.58,9.58,4.82,4.82,-4.82,-4.64,-6.42,4.75,4.75,4.76
33.89,9.55,9.55,4.80,4.80,-4.80,-4.63,-6.36,4.75,4.74,4.74
34.23,9.52,9.52,4.78,4.78,-4.78,-4.63,-6.30,4.74,4.74,4.74
34.57,9.49,9.49,4.76,4.76,-4.76,-4.62,-6.23,4.73,4.73,4.73
34.92,9.46,9.46,4.74,4.74,-4.74,-4.62,-6.15,4.72,4.72,4.71
35.27,9.44,9.43,4.73,4.73,-4.72,-4.61,-6.07,4.71,4.71,4.71
35.62,9.41,9.41,4.71,4.71,-4.71,-4.61,-5.99,4.70,4.70,4.70
35.97,9.38,9.38,4.69,4.69,-4.69,-4.60,-5.90,4.68,4.69,4.68
36.33,9.36,9.36,4.68,4.68,-4.68,-4.59,-5.81,4.68,4.68,4.68
36.70,9.34,9.33,4.67,4.67,-4.67,-4.59,-5.72,4.67,4.67,4.67
37.06,9.31,9.31,4.65,4.65,-4.65,-4.58,-5.63,4.65,4.66,4.65
37.43,9.29,9.29,4.64,4.64,-4.64,-4.58,-5.54,4.64,4.64,4.65
37.81,9.27,9.27,4.63,4.63,-4.63,-4.57,-5.45,4.63,4.63,4.63
38.19,9.25,9.25,4.63,4.62,-4.62,-4.56,-5.35,4.62,4.62,4.62
38.57,9.23,9.23,4.61,4.62,-4.62,-4.56,-5.26,4.61,4.61,4.61
38.95,9.21,9.21,4.61,4.61,-4.61,-4.55,-5.17,4.60,4.60,4.60
39.34,9.19,9.19,4.60,4.60,-4.60,-4.54,-5.09,4.59,4.59,4.58
39.74,9.17,9.17,4.60,4.60,-4.59,-4.53,-5.00,4.57,4.57,4.57
40.14,9.15,9.15,4.58,4.59,-4.59,-4.53,-4.92,4.56,4.56,4.56
40.54,9.13,9.13,4.58,4.58,-4.58,-4.52,-4.83,4.55,4.55,4.55
40.94,9.11,9.11,4.56,4.57,-4.57,-4.51,-4.75,4.54,4.54,4.54
41.35,9.09,9.09,4.56,4.56,-4.56,-4.50,-4.68,4.53,4.53,4.53
41.76,9.07,9.07,4.55,4.55,-4.54,-4.49,-4.60,4.52,4.52,4.52
42.18,9.05,9.04,4.53,4.53,-4.53,-4.48,-4.53,4.51,4.51,4.51
42.60,9.02,9.02,4.52,4.52,-4.52,-4.47,-4.47,4.49,4.50,4.50
43.03,9.00,8.99,4.51,4.51,-4.51,-4.46,-4.40,4.49,4.48,4.49
43.46,8.97,8.97,4.49,4.50,-4.50,-4.45,-4.34,4.47,4.47,4.47
43.90,8.94,8.94,4.49,4.49,-4.49,-4.44,-4.28,4.45,4.45,4.45
44.33,8.91,8.91,4.48,4.48,-4.48,-4.43,-4.23,4.43,4.43,4.43
44.78,8.88,8.88,4.47,4.47,-4.47,-4.42,-4.18,4.41,4.41,4.41
45.23,8.85,8.85,4.46,4.46,-4.45,-4.40,-4.13,4.39,4.39,4.39
45.68,8.82,8.81,4.44,4.44,-4.44,-4.39,-4.08,4.38,4.38,4.37
46.13,8.78,8.78,4.42,4.42,-4.42,-4.38,-4.04,4.36,4.36,4.35
46.60,8.75,8.74,4.40,4.40,-4.40,-4.37,-4.00,4.35,4.34,4.34
47.06,8.71,8.71,4.38,4.38,-4.38,-4.35,-3.97,4.32,4.32,4.32
47.53,8.67,8.67,4.36,4.36,-4.36,-4.34,-3.94,4.30,4.30,4.30
48.01,8.63,8.63,4.33,4.34,-4.35,-4.32,-3.91,4.28,4.28,4.29
48.49,8.59,8.58,4.32,4.32,-4.33,-4.31,-3.88,4.26,4.26,4.26
48.97,8.54,8.54,4.30,4.31,-4.31,-4.29,-3.85,4.23,4.23,4.23
49.46,8.50,8.49,4.30,4.29,-4.29,-4.27,-3.83,4.21,4.21,4.20
49.96,8.45,8.45,4.28,4.27,-4.27,-4.26,-3.81,4.18,4.18,4.17
50.46,8.40,8.40,4.24,4.24,-4.24,-4.24,-3.80,4.15,4.15,4.16
50.96,8.35,8.35,4.21,4.22,-4.22,-4.22,-3.78,4.13,4.13,4.13
51.47,8.30,8.30,4.20,4.19,-4.19,-4.20,-3.77,4.10,4.11,4.10
51.99,8.25,8.25,4.17,4.16,-4.16,-4.18,-3.75,4.08,4.08,4.08
52.51,8.20,8.19,4.13,4.13,-4.13,-4.16,-3.74,4.06,4.06,4.06
53.03,8.14,8.14,4.10,4.10,-4.10,-4.14,-3.73,4.03,4.04,4.04
53.56,8.09,8.08,4.07,4.07,-4.07,-4.12,-3.73,4.02,4.01,4.01
54.10,8.03,8.03,4.04,4.04,-4.04,-4.09,-3.72,3.99,3.99,3.99
54.64,7.97,7.97,4.00,4.01,-4.00,-4.07,-3.71,3.96,3.96,3.96
55.18,7.91,7.91,3.97,3.97,-3.97,-4.04,-3.70,3.94,3.94,3.94
55.74,7.85,7.85,3.94,3.93,-3.94,-4.02,-3.70,3.91,3.91,3.91
56.29,7.79,7.79,3.89,3.90,-3.90,-3.99,-3.69,3.89,3.89,3.89
56.86,7.73,7.73,3.86,3.86,-3.86,-3.97,-3.68,3.86,3.86,3.86
57.42,7.67,7.67,3.83,3.83,-3.82,-3.94,-3.67,3.84,3.84,3.84
58.00,7.61,7.61,3.79,3.79,-3.79,-3.91,-3.66,3.82,3.82,3.82
58.58,7.55,7.54,3.75,3.75,-3.75,-3.88,-3.65,3.80,3.80,3.80
59.16,7.48,7.48,3.70,3.71,-3.71,-3.85,-3.64,3.77,3.77,3.78
59.76,7.42,7.41,3.66,3.66,-3.67,-3.81,-3.62,3.75,3.75,3.75
60.35,7.35,7.35,3.62,3.62,-3.63,-3.78,-3.60,3.72,3.72,3.72
60.96,7.28,7.28,3.58,3.59,-3.59,-3.75,-3.59,3.69,3.69,3.70
61.57,7.21,7.21,3.55,3.55,-3.55,-3.71,-3.56,3.66,3.66,3.66
62.18,7.15,7.14,3.52,3.51,-3.51,-3.67,-3.54,3.64,3.63,3.62
62.80,7.07,7.07,3.47,3.47,-3.47,-3.63,-3.51,3.60,3.60,3.60
63.43,7.00,7.00,3.43,3.43,-3.43,-3.60,-3.49,3.57,3.57,3.56
64.07,6.93,6.93,3.39,3.39,-3.39,-3.56,-3.45,3.54,3.54,3.54
64.71,6.86,6.86,3.35,3.35,-3.35,-3.51,-3.42,3.51,3.51,3.51
65.35,6.79,6.78,3.30,3.30,-3.30,-3.47,-3.39,3.49,3.48,3.48
66.01,6.71,6.71,3.25,3.26,-3.26,-3.43,-3.35,3.45,3.45,3.46
66.67,6.64,6.64,3.21,3.21,-3.21,-3.38,-3.31,3.43,3.42,3.43
67.33,6.57,6.56,3.17,3.17,-3.17,-3.34,-3.26,3.40,3.40,3.40
68.01,6.49,6.49,3.12,3.12,-3.12,-3.29,-3.22,3.37,3.37,3.37
68.69,6.42,6.41,3.08,3.08,-3.08,-3.24,-3.18,3.34,3.34,3.34
69.37,6.34,6.34,3.03,3.03,-3.03,-3.19,-3.13,3.31,3.31,3.30
70.07,6.26,6.26,2.99,2.99,-2.99,-3.14,-3.08,3.27,3.27,3.27
70.77,6.19,6.18,2.94,2.94,-2.94,-3.09,-3.03,3.24,3.24,3.25
71.48,6.11,6.11,2.89,2.89,-2.90,-3.04,-2.98,3.21,3.21,3.21
72.19,6.03,6.03,2.85,2.85,-2.85,-2.98,-2.93,3.17,3.18,3.18
72.91,5.96,5.95,2.81,2.81,-2.81,-2.93,-2.88,3.15,3.14,3.14
73.64,5.88,5.88,2.77,2.77,-2.77,-2.88,-2.83,3.11,3.11,3.10
74.38,5.80,5.80,2.72,2.73,-2.72,-2.82,-2.78,3.07,3.08,3.08
75.12,5.72,5.72,2.68,2.68,-2.68,-2.77,-2.73,3.04,3.04,3.04
75.87,5.65,5.64,2.64,2.63,-2.63,-2.71,-2.68,3.01,3.01,3.01
76.63,5.57,5.57,2.59,2.59,-2.59,-2.66,-2.63,2.98,2.98,2.98
77.40,5.49,5.49,2.54,2.55,-2.54,-2.60,-2.58,2.94,2.95,2.95
78.17,5.42,5.41,2.51,2.50,-2.50,-2.55,-2.53,2.92,2.91,2.91
78.95,5.34,5.34,2.45,2.46,-2.46,-2.50,-2.49,2.88,2.88,2.88
79.74,5.26,5.26,2.41,2.41,-2.41,-2.45,-2.44,2.84,2.85,2.85
80.54,5.19,5.18,2.37,2.37,-2.37,-2.39,-2.40,2.82,2.81,2.82
81.35,5.11,5.11,2.33,2.33,-2.33,-2.34,-2.35,2.78,2.78,2.78
82.16,5.04,5.03,2.29,2.29,-2.29,-2.30,-2.31,2.75,2.75,2.75
82.98,4.96,4.96,2.24,2.25,-2.25,-2.25,-2.27,2.71,2.71,2.72
83.81,4.89,4.88,2.21,2.21,-2.21,-2.21,-2.23,2.68,2.68,2.67
84.65,4.81,4.81,2.17,2.17,-2.17,-2.16,-2.19,2.64,2.64,2.63
85.50,4.74,4.74,2.13,2.13,-2.13,-2.12,-2.16,2.61,2.60,2.61
86.35,4.66,4.66,2.09,2.09,-2.09,-2.08,-2.12,2.56,2.57,2.57
87.22,4.59,4.58,2.06,2.06,-2.06,-2.05,-2.09,2.53,2.53,2.53
88.09,4.51,4.51,2.02,2.02,-2.02,-2.01,-2.06,2.49,2.49,2.49
88.97,4.44,4.44,1.98,1.99,-1.99,-1.98,-2.03,2.45,2.45,2.46
89.86,4.37,4.36,1.95,1.95,-1.95,-1.95,-2.00,2.41,2.41,2.41
90.76,4.29,4.29,1.93,1.92,-1.92,-1.92,-1.97,2.36,2.37,2.36
91.66,4.22,4.22,1.89,1.89,-1.89,-1.89,-1.94,2.32,2.33,2.33
92.58,4.15,4.15,1.87,1.86,-1.86,-1.87,-1.92,2.28,2.28,2.28
93.51,4.08,4.08,1.83,1.84,-1.84,-1.84,-1.90,2.24,2.24,2.24
94.44,4.01,4.01,1.81,1.81,-1.81,-1.82,-1.88,2.20,2.20,2.20
95.39,3.94,3.93,1.78,1.78,-1.78,-1.80,-1.86,2.15,2.15,2.15
96.34,3.86,3.86,1.76,1.76,-1.76,-1.78,-1.84,2.10,2.10,2.10
97.30,3.79,3.79,1.73,1.74,-1.74,-1.76,-1.82,2.05,2.06,2.05
98.28,3.73,3.72,1.72,1.71,-1.71,-1.74,-1.80,2.01,2.01,2.01
99.26,3.66,3.66,1.69,1.69,-1.69,-1.72,-1.79,1.97,1.97,1.96
100.25,3.59,3.59,1.67,1.67,-1.67,-1.71,-1.78,1.92,1.92,1.92
101.25,3.52,3.52,1.65,1.65,-1.65,-1.69,-1.76,1.87,1.87,1.87
102.27,3.45,3.45,1.62,1.63,-1.63,-1.67,-1.75,1.82,1.82,1.83
103.29,3.39,3.38,1.62,1.61,-1.61,-1.66,-1.74,1.78,1.78,1.77
104.32,3.32,3.32,1.58,1.59,-1.59,-1.64,-1.73,1.73,1.73,1.73
105.37,3.26,3.25,1.57,1.57,-1.57,-1.63,-1.72,1.69,1.69,1.69
106.42,3.19,3.19,1.55,1.55,-1.55,-1.61,-1.71,1.64,1.64,1.64
107.48,3.13,3.12,1.53,1.53,-1.53,-1.59,-1.70,1.59,1.59,1.59
108.56,3.06,3.06,1.52,1.52,-1.52,-1.58,-1.69,1.54,1.54,1.54
109.64,3.00,2.99,1.51,1.50,-1.50,-1.56,-1.68,1.50,1.49,1.49
110.74,2.93,2.93,1.48,1.49,-1.49,-1.55,-1.67,1.44,1.44,1.45
111.85,2.87,2.87,1.47,1.47,-1.48,-1.53,-1.66,1.39,1.39,1.40
112.97,2.81,2.80,1.47,1.46,-1.46,-1.52,-1.65,1.34,1.34,1.33
114.10,2.74,2.74,1.45,1.45,-1.45,-1.50,-1.64,1.28,1.29,1.29
115.24,2.68,2.68,1.44,1.44,-1.44,-1.48,-1.63,1.23,1.23,1.23
116.39,2.62,2.62,1.44,1.44,-1.44,-1.47,-1.62,1.18,1.18,1.18
117.55,2.56,2.56,1.43,1.43,-1.43,-1.45,-1.61,1.13,1.13,1.13
118.73,2.50,2.50,1.43,1.42,-1.42,-1.44,-1.60,1.08,1.08,1.07
119.92,2.44,2.43,1.41,1.41,-1.41,-1.42,-1.58,1.03,1.03,1.03
121.12,2.37,2.37,1.39,1.40,-1.40,-1.40,-1.57,0.97,0.98,0.98
122.33,2.32,2.31,1.39,1.39,-1.39,-1.39,-1.55,0.93,0.93,0.92
123.55,2.26,2.26,1.38,1.38,-1.38,-1.37,-1.54,0.88,0.88,0.88
124.79,2.20,2.20,1.37,1.37,-1.37,-1.36,-1.52,0.83,0.83,0.83
126.03,2.14,2.14,1.36,1.36,-1.36,-1.34,-1.50,0.78,0.78,0.78
127.29,2.08,2.08,1.35,1.35,-1.35,-1.33,-1.48,0.73,0.73,0.73
128.57,2.02,2.02,1.35,1.34,-1.34,-1.32,-1.46,0.68,0.67,0.67
129.85,1.96,1.96,1.33,1.34,-1.33,-1.30,-1.43,0.62,0.62,0.62
131.15,1.90,1.90,1.32,1.33,-1.32,-1.29,-1.41,0.57,0.58,0.57
132.46,1.85,1.84,1.32,1.31,-1.31,-1.28,-1.38,0.53,0.53,0.53
133.79,1.79,1.79,1.30,1.30,-1.30,-1.27,-1.36,0.48,0.48,0.49
135.12,1.73,1.73,1.29,1.29,-1.29,-1.26,-1.33,0.43,0.44,0.43
136.48,1.68,1.67,1.28,1.28,-1.28,-1.25,-1.30,0.40,0.39,0.40
137.84,1.62,1.62,1.26,1.27,-1.27,-1.24,-1.27,0.35,0.35,0.35
139.22,1.57,1.56,1.27,1.26,-1.25,-1.23,-1.24,0.31,0.31,0.30
140.61,1.51,1.51,1.25,1.24,-1.24,-1.22,-1.21,0.27,0.27,0.26
142.02,1.46,1.46,1.22,1.23,-1.23,-1.21,-1.18,0.23,0.23,0.24
143.44,1.41,1.40,1.21,1.21,-1.21,-1.20,-1.15,0.20,0.19,0.20
144.87,1.35,1.35,1.19,1.19,-1.20,-1.19,-1.11,0.15,0.15,0.15
146.32,1.30,1.30,1.18,1.18,-1.18,-1.19,-1.08,0.12,0.12,0.12
147.78,1.25,1.25,1.16,1.16,-1.17,-1.18,-1.05,0.08,0.08,0.09
149.26,1.20,1.20,1.15,1.15,-1.15,-1.17,-1.01,0.05,0.05,0.05
150.75,1.15,1.15,1.15,1.14,-1.14,-1.17,-0.98,0.01,0.01,0.00
152.26,1.10,1.09,1.13,1.13,-1.13,-1.16,-0.95,-0.03,-0.03,-0.04
153.78,1.04,1.04,1.11,1.11,-1.12,-1.16,-0.91,-0.08,-0.08,-0.07
155.32,0.99,0.99,1.10,1.10,-1.11,-1.15,-0.88,-0.12,-0.12,-0.12
156.88,0.95,0.94,1.10,1.09,-1.10,-1.14,-0.85,-0.15,-0.15,-0.15
158.44,0.90,0.90,1.09,1.09,-1.09,-1.13,-0.81,-0.19,-0.19,-0.19
160.03,0.85,0.85,1.08,1.08,-1.08,-1.13,-0.78,-0.23,-0.23,-0.23
161.63,0.80,0.80,1.07,1.07,-1.07,-1.12,-0.75,-0.27,-0.27,-0.28
163.24,0.75,0.75,1.06,1.06,-1.06,-1.11,-0.72,-0.31,-0.31,-0.32
164.88,0.70,0.70,1.04,1.05,-1.05,-1.10,-0.68,-0.35,-0.35,-0.35
166.53,0.66,0.65,1.04,1.04,-1.04,-1.08,-0.65,-0.38,-0.39,-0.39
168.19,0.61,0.61,1.03,1.03,-1.03,-1.07,-0.62,-0.42,-0.42,-0.42
169.87,0.56,0.56,1.02,1.02,-1.02,-1.05,-0.59,-0.46,-0.46,-0.46
171.57,0.51,0.51,1.01,1.00,-1.01,-1.03,-0.56,-0.50,-0.50,-0.50
173.29,0.46,0.46,0.99,0.99,-0.99,-1.01,-0.53,-0.54,-0.54,-0.53
175.02,0.41,0.41,0.98,0.98,-0.98,-0.99,-0.50,-0.57,-0.57,-0.57
176.77,0.36,0.35,0.97,0.97,-0.97,-0.97,-0.47,-0.61,-0.61,-0.61
178.54,0.30,0.30,0.96,0.96,-0.95,-0.94,-0.44,-0.66,-0.65,-0.66
180.32,0.25,0.25,0.94,0.94,-0.94,-0.92,-0.41,-0.69,-0.69,-0.69
182.13,0.20,0.19,0.92,0.92,-0.92,-0.89,-0.38,-0.73,-0.73,-0.72
183.95,0.14,0.14,0.90,0.91,-0.91,-0.86,-0.35,-0.77,-0.76,-0.77
185.79,0.09,0.09,0.89,0.89,-0.89,-0.82,-0.32,-0.80,-0.80,-0.80
187.65,0.04,0.03,0.88,0.87,-0.87,-0.79,-0.30,-0.83,-0.83,-0.84
189.52,-0.02,-0.02,0.85,0.85,-0.85,-0.76,-0.27,-0.87,-0.87,-0.87
191.42,-0.07,-0.08,0.83,0.82,-0.82,-0.72,-0.24,-0.90,-0.90,-0.90
193.33,-0.13,-0.13,0.79,0.80,-0.80,-0.69,-0.21,-0.93,-0.93,-0.93
195.27,-0.18,-0.18,0.77,0.77,-0.78,-0.65,-0.19,-0.96,-0.96,-0.96
197.22,-0.23,-0.24,0.75,0.75,-0.75,-0.61,-0.16,-0.98,-0.98,-0.98
199.19,-0.29,-0.29,0.73,0.72,-0.72,-0.57,-0.13,-1.01,-1.01,-1.02
201.18,-0.34,-0.35,0.69,0.69,-0.69,-0.53,-0.11,-1.03,-1.04,-1.04
203.19,-0.40,-0.40,0.65,0.66,-0.66,-0.50,-0.08,-1.06,-1.06,-1.05
205.23,-0.45,-0.45,0.63,0.62,-0.62,-0.46,-0.06,-1.08,-1.08,-1.08
207.28,-0.50,-0.50,0.58,0.59,-0.59,-0.42,-0.03,-1.09,-1.09,-1.08
209.35,-0.55,-0.56,0.56,0.55,-0.55,-0.38,-0.01,-1.10,-1.11,-1.11
211.44,-0.61,-0.61,0.52,0.51,-0.51,-0.34,0.02,-1.13,-1.12,-1.13
213.56,-0.66,-0.66,0.47,0.47,-0.47,-0.30,0.04,-1.14,-1.14,-1.14
215.69,-0.71,-0.71,0.43,0.43,-0.43,-0.27,0.07,-1.15,-1.15,-1.14
217.85,-0.76,-0.76,0.39,0.39,-0.39,-0.23,0.09,-1.15,-1.15,-1.15
220.03,-0.81,-0.81,0.35,0.35,-0.35,-0.19,0.12,-1.16,-1.16,-1.16
222.23,-0.86,-0.86,0.31,0.31,-0.30,-0.16,0.14,-1.17,-1.17,-1.18
224.45,-0.91,-0.91,0.25,0.26,-0.26,-0.12,0.16,-1.17,-1.17,-1.17
226.70,-0.95,-0.96,0.22,0.21,-0.21,-0.08,0.19,-1.17,-1.17,-1.17
228.96,-1.00,-1.00,0.17,0.17,-0.17,-0.05,0.21,-1.17,-1.17,-1.17
231.25,-1.04,-1.04,0.12,0.12,-0.12,-0.01,0.23,-1.17,-1.17,-1.16
233.57,-1.08,-1.09,0.08,0.07,-0.08,0.02,0.26,-1.16,-1.16,-1.16
235.90,-1.13,-1.13,0.03,0.03,-0.03,0.06,0.28,-1.16,-1.16,-1.16
238.26,-1.17,-1.17,-0.01,-0.02,0.02,0.09,0.30,-1.16,-1.16,-1.16
240.64,-1.21,-1.21,-0.06,-0.06,0.06,0.12,0.32,-1.15,-1.15,-1.15
243.05,-1.24,-1.25,-0.11,-0.11,0.11,0.16,0.34,-1.13,-1.14,-1.14
245.48,-1.28,-1.28,-0.16,-0.16,0.16,0.19,0.37,-1.13,-1.13,-1.13
247.93,-1.32,-1.32,-0.21,-0.20,0.20,0.22,0.39,-1.12,-1.12,-1.11
250.41,-1.35,-1.36,-0.24,-0.25,0.25,0.25,0.41,-1.10,-1.10,-1.11
252.92,-1.39,-1.39,-0.30,-0.30,0.30,0.29,0.43,-1.09,-1.09,-1.09
255.45,-1.42,-1.43,-0.36,-0.35,0.35,0.32,0.45,-1.07,-1.07,-1.07
258.00,-1.46,-1.46,-0.41,-0.41,0.41,0.35,0.47,-1.06,-1.05,-1.05
260.58,-1.49,-1.49,-0.45,-0.46,0.46,0.38,0.49,-1.04,-1.04,-1.04
263.19,-1.52,-1.53,-0.51,-0.51,0.51,0.41,0.51,-1.01,-1.02,-1.02
265.82,-1.56,-1.56,-0.56,-0.56,0.56,0.44,0.53,-1.00,-1.00,-1.00
268.48,-1.59,-1.59,-0.61,-0.61,0.61,0.47,0.56,-0.98,-0.98,-0.98
271.16,-1.62,-1.62,-0.67,-0.67,0.66,0.51,0.58,-0.96,-0.96,-0.96
273.87,-1.65,-1.65,-0.71,-0.72,0.71,0.54,0.60,-0.94,-0.94,-0.94
276.61,-1.68,-1.68,-0.77,-0.76,0.76,0.57,0.62,-0.92,-0.92,-0.92
279.38,-1.71,-1.71,-0.81,-0.81,0.81,0.60,0.64,-0.90,-0.90,-0.90
282.17,-1.74,-1.74,-0.86,-0.86,0.86,0.63,0.66,-0.88,-0.88,-0.89
284.99,-1.77,-1.77,-0.91,-0.91,0.91,0.66,0.68,-0.87,-0.86,-0.86
287.84,-1.79,-1.80,-0.95,-0.95,0.95,0.70,0.71,-0.84,-0.84,-0.85
290.72,-1.82,-1.82,-1.00,-1.00,1.00,0.73,0.73,-0.82,-0.82,-0.82
293.63,-1.85,-1.85,-1.05,-1.05,1.05,0.76,0.75,-0.80,-0.80,-0.81
296.57,-1.88,-1.88,-1.10,-1.10,1.10,0.79,0.78,-0.79,-0.78,-0.78
299.53,-1.90,-1.91,-1.14,-1.14,1.15,0.83,0.80,-0.76,-0.76,-0.76
302.53,-1.93,-1.93,-1.19,-1.19,1.20,0.86,0.83,-0.74,-0.74,-0.75
305.55,-1.96,-1.96,-1.25,-1.24,1.25,0.89,0.85,-0.72,-0.71,-0.71
308.61,-1.98,-1.99,-1.29,-1.29,1.30,0.93,0.88,-0.69,-0.69,-0.69
311.69,-2.01,-2.01,-1.34,-1.35,1.34,0.96,0.91,-0.67,-0.67,-0.67
314.81,-2.03,-2.04,-1.40,-1.40,1.39,1.00,0.93,-0.64,-0.64,-0.63
317.96,-2.06,-2.06,-1.45,-1.45,1.44,1.03,0.96,-0.62,-0.62,-0.62
321.14,-2.08,-2.09,-1.48,-1.49,1.49,1.07,0.99,-0.60,-0.60,-0.60
324.35,-2.11,-2.11,-1.53,-1.53,1.53,1.10,1.02,-0.58,-0.58,-0.58
327.59,-2.13,-2.13,-1.58,-1.58,1.58,1.14,1.05,-0.56,-0.56,-0.55
330.87,-2.15,-2.16,-1.62,-1.62,1.62,1.17,1.09,-0.53,-0.54,-0.54
334.18,-2.18,-2.18,-1.66,-1.66,1.66,1.21,1.12,-0.52,-0.52,-0.52
337.52,-2.20,-2.20,-1.70,-1.70,1.70,1.25,1.15,-0.50,-0.50,-0.50
340.90,-2.22,-2.22,-1.75,-1.75,1.75,1.28,1.19,-0.48,-0.48,-0.48
344.30,-2.24,-2.24,-1.79,-1.79,1.79,1.32,1.23,-0.46,-0.46,-0.46
347.75,-2.26,-2.26,-1.82,-1.82,1.83,1.36,1.26,-0.44,-0.44,-0.44
351.23,-2.28,-2.28,-1.86,-1.86,1.86,1.40,1.30,-0.42,-0.42,-0.42
354.74,-2.30,-2.30,-1.90,-1.90,1.90,1.43,1.34,-0.40,-0.41,-0.40
358.28,-2.32,-2.32,-1.94,-1.94,1.93,1.47,1.38,-0.39,-0.39,-0.39
361.87,-2.34,-2.34,-1.97,-1.97,1.97,1.51,1.43,-0.38,-0.38,-0.37
365.49,-2.35,-2.36,-1.99,-2.00,2.00,1.55,1.47,-0.36,-0.36,-0.36
369.14,-2.37,-2.37,-2.02,-2.02,2.03,1.58,1.51,-0.35,-0.35,-0.35
372.83,-2.38,-2.38,-2.05,-2.05,2.05,1.62,1.56,-0.33,-0.33,-0.33
376.56,-2.39,-2.40,-2.07,-2.08,2.08,1.66,1.60,-0.32,-0.32,-0.33
380.33,-2.40,-2.40,-2.11,-2.10,2.10,1.70,1.65,-0.31,-0.31,-0.30
384.13,-2.41,-2.41,-2.12,-2.12,2.12,1.73,1.70,-0.30,-0.29,-0.29
387.97,-2.41,-2.41,-2.13,-2.14,2.13,1.77,1.75,-0.28,-0.28,-0.28
391.85,-2.41,-2.42,-2.14,-2.15,2.15,1.81,1.80,-0.27,-0.27,-0.27
395.77,-2.41,-2.41,-2.16,-2.16,2.16,1.84,1.85,-0.25,-0.25,-0.25
399.73,-2.41,-2.41,-2.17,-2.16,2.17,1.88,1.90,-0.25,-0.24,-0.25
403.72,-2.40,-2.41,-2.17,-2.17,2.17,1.91,1.95,-0.23,-0.23,-0.24
407.76,-2.40,-2.40,-2.18,-2.18,2.18,1.94,2.00,-0.23,-0.22,-0.23
411.84,-2.39,-2.39,-2.18,-2.18,2.18,1.98,2.05,-0.22,-0.21,-0.21
415.96,-2.38,-2.38,-2.18,-2.18,2.18,2.01,2.10,-0.21,-0.21,-0.20
420.12,-2.36,-2.37,-2.17,-2.18,2.17,2.04,2.15,-0.19,-0.19,-0.19
424.32,-2.35,-2.35,-2.17,-2.17,2.17,2.07,2.20,-0.19,-0.18,-0.18
428.56,-2.33,-2.33,-2.16,-2.16,2.16,2.09,2.25,-0.17,-0.17,-0.17
432.85,-2.31,-2.31,-2.15,-2.15,2.15,2.12,2.29,-0.16,-0.16,-0.16
437.18,-2.29,-2.29,-2.14,-2.14,2.14,2.14,2.34,-0.15,-0.15,-0.16
441.55,-2.27,-2.27,-2.14,-2.13,2.13,2.16,2.38,-0.14,-0.14,-0.14
445.96,-2.25,-2.25,-2.13,-2.13,2.13,2.18,2.43,-0.13,-0.13,-0.13
450.42,-2.23,-2.23,-2.11,-2.12,2.12,2.20,2.47,-0.11,-0.11,-0.12
454.93,-2.21,-2.21,-2.11,-2.11,2.11,2.22,2.50,-0.10,-0.10,-0.10
459.48,-2.19,-2.19,-2.10,-2.11,2.11,2.23,2.54,-0.09,-0.09,-0.09
464.07,-2.17,-2.17,-2.10,-2.10,2.10,2.24,2.57,-0.07,-0.07,-0.07
468.71,-2.15,-2.15,-2.10,-2.10,2.09,2.25,2.60,-0.06,-0.06,-0.05
473.40,-2.12,-2.13,-2.08,-2.09,2.08,2.26,2.62,-0.04,-0.04,-0.04
478.13,-2.10,-2.10,-2.08,-2.07,2.07,2.26,2.64,-0.03,-0.03,-0.02
482.91,-2.07,-2.07,-2.06,-2.06,2.06,2.27,2.66,-0.01,-0.01,-0.01
487.74,-2.04,-2.04,-2.05,-2.05,2.05,2.27,2.67,0.01,0.01,0.01
492.62,-2.01,-2.01,-2.04,-2.03,2.04,2.26,2.68,0.02,0.02,0.02
497.55,-1.98,-1.98,-2.02,-2.02,2.02,2.26,2.69,0.04,0.04,0.03
