frequency,raw,error,smoothed,error_smoothed,equalization,parametric_eq,equalized_raw,equalized_smoothed,target
20,-14.08,-15.76,-14.09,-15.75,6.00,2.95,-8.08,-8.09,1.68
21,-13.49,-15.17,-13.39,-15.06,6.00,3.38,-7.49,-7.39,1.68
22,-12.70,-14.38,-12.72,-14.39,6.00,3.86,-6.70,-6.72,1.68
23,-12.02,-13.70,-12.07,-13.74,6.00,4.37,-6.02,-6.07,1.68
24,-11.46,-13.13,-11.43,-13.10,6.00,4.91,-5.46,-5.43,1.68
25,-10.79,-12.46,-10.82,-12.49,6.00,5.48,-4.79,-4.82,1.67
26,-10.19,-11.86,-10.23,-11.90,6.00,6.04,-4.19,-4.23,1.67
27,-9.61,-11.27,-9.66,-11.33,6.00,6.58,-3.61,-3.66,1.67
28,-9.12,-10.78,-9.11,-10.78,6.00,7.05,-3.12,-3.11,1.66
29,-8.68,-10.34,-8.58,-10.25,6.00,7.43,-2.68,-2.58,1.66
30,-7.98,-9.63,-8.08,-9.73,6.00,7.67,-1.98,-2.08,1.65
31,-7.55,-9.20,-7.59,-9.25,6.00,7.76,-1.55,-1.59,1.65
32,-7.14,-8.78,-7.14,-8.78,6.00,7.70,-1.14,-1.14,1.64
33,-6.74,-8.37,-6.71,-8.34,6.00,7.50,-0.74,-0.71,1.63
34,-6.27,-7.90,-6.29,-7.91,6.00,7.20,-0.27,-0.29,1.63
35,-5.91,-7.53,-5.89,-7.50,6.00,6.83,0.09,0.11,1.62
36,-5.54,-7.15,-5.51,-7.11,6.00,6.42,0.46,0.49,1.61
37,-5.09,-6.69,-5.13,-6.73,6.00,6.00,0.91,0.87,1.60
38,-4.77,-6.36,-4.77,-6.36,5.92,5.58,1.15,1.16,1.59
39,-4.43,-6.01,-4.42,-6.00,5.77,5.17,1.34,1.35,1.58
40,-4.12,-5.69,-4.09,-5.65,5.53,4.79,1.41,1.44,1.57
41,-3.82,-5.38,-3.77,-5.32,5.26,4.42,1.44,1.49,1.56
42,-3.45,-5.00,-3.45,-4.99,4.97,4.08,1.52,1.53,1.55
43,-3.15,-4.69,-3.14,-4.67,4.67,3.76,1.52,1.53,1.54
44,-2.85,-4.37,-2.85,-4.37,4.37,3.46,1.52,1.51,1.52
45,-2.53,-4.04,-2.57,-4.07,4.07,3.18,1.54,1.50,1.51
46,-2.21,-3.70,-2.29,-3.77,3.77,2.92,1.57,1.49,1.49
47,-2.09,-3.57,-2.03,-3.50,3.50,2.67,1.41,1.47,1.48
48,-1.79,-3.25,-1.77,-3.23,3.23,2.45,1.44,1.45,1.46
49,-1.54,-2.98,-1.52,-2.96,2.96,2.23,1.43,1.45,1.44
50,-1.29,-2.71,-1.29,-2.71,2.71,2.04,1.43,1.42,1.42
51,-1.05,-2.45,-1.07,-2.47,2.47,1.85,1.43,1.40,1.40
52,-0.89,-2.27,-0.87,-2.24,2.24,1.67,1.36,1.38,1.38
53,-0.68,-2.04,-0.67,-2.03,2.03,1.51,1.35,1.36,1.36
54,-0.44,-1.78,-0.48,-1.82,1.82,1.35,1.38,1.33,1.34
55,-0.27,-1.58,-0.31,-1.62,1.62,1.21,1.35,1.31,1.31
56,-0.17,-1.46,-0.15,-1.42,1.42,1.07,1.25,1.28,1.29
57,0.01,-1.25,0.03,-1.24,1.24,0.94,1.25,1.26,1.27
58,0.23,-1.01,0.17,-1.06,1.06,0.82,1.29,1.24,1.24
59,0.18,-1.03,0.31,-0.90,0.90,0.71,1.08,1.21,1.21
60,0.47,-0.71,0.44,-0.74,0.74,0.61,1.21,1.18,1.18
61,0.60,-0.55,0.56,-0.58,0.58,0.51,1.19,1.15,1.15
62,0.67,-0.45,0.68,-0.44,0.44,0.42,1.11,1.12,1.13
63,0.77,-0.32,0.79,-0.30,0.30,0.33,1.07,1.09,1.09
64,0.87,-0.19,0.89,-0.17,0.17,0.25,1.04,1.06,1.06
65,0.97,-0.06,0.98,-0.04,0.04,0.18,1.01,1.02,1.03
66,1.20,0.20,1.07,0.08,-0.08,0.10,1.13,0.99,1.00
67,1.08,0.12,1.14,0.19,-0.19,0.04,0.89,0.96,0.96
68,1.18,0.25,1.22,0.29,-0.29,-0.03,0.89,0.93,0.93
69,1.28,0.39,1.29,0.39,-0.39,-0.09,0.89,0.90,0.89
70,1.28,0.42,1.33,0.48,-0.48,-0.15,0.81,0.86,0.86
71,1.47,0.65,1.38,0.56,-0.56,-0.20,0.91,0.83,0.82
72,1.44,0.66,1.42,0.63,-0.63,-0.26,0.81,0.80,0.78
73,1.38,0.63,1.43,0.70,-0.70,-0.31,0.68,0.73,0.75
74,1.38,0.67,1.44,0.76,-0.76,-0.36,0.62,0.68,0.71
75,1.64,0.97,1.46,0.82,-0.82,-0.41,0.82,0.64,0.67
76,1.52,0.89,1.47,0.87,-0.87,-0.47,0.65,0.60,0.63
77,1.48,0.89,1.50,0.93,-0.93,-0.52,0.55,0.57,0.59
78,1.48,0.93,1.51,0.99,-0.99,-0.57,0.49,0.53,0.55
79,1.48,0.97,1.53,1.04,-1.04,-0.62,0.44,0.48,0.51
80,1.48,1.01,1.55,1.10,-1.10,-0.67,0.38,0.44,0.47
81,1.40,0.97,1.56,1.16,-1.16,-0.72,0.24,0.40,0.43
82,1.37,0.98,1.58,1.22,-1.22,-0.77,0.15,0.36,0.39
83,1.84,1.50,1.60,1.28,-1.28,-0.82,0.56,0.32,0.35
84,1.72,1.42,1.62,1.34,-1.34,-0.88,0.38,0.28,0.30
85,1.68,1.42,1.63,1.40,-1.40,-0.93,0.28,0.23,0.26
86,1.68,1.46,1.65,1.45,-1.45,-0.99,0.23,0.20,0.22
87,1.68,1.50,1.67,1.51,-1.51,-1.04,0.17,0.17,0.18
88,1.68,1.54,1.69,1.56,-1.56,-1.10,0.12,0.13,0.14
89,1.68,1.58,1.70,1.61,-1.61,-1.15,0.07,0.10,0.10
90,1.68,1.63,1.71,1.65,-1.65,-1.21,0.03,0.06,0.05
91,1.68,1.67,1.71,1.70,-1.70,-1.27,-0.01,0.02,0.01
92,1.69,1.72,1.70,1.73,-1.73,-1.32,-0.04,-0.03,-0.03
93,1.69,1.76,1.66,1.77,-1.77,-1.38,-0.08,-0.11,-0.07
94,1.69,1.80,1.66,1.81,-1.81,-1.44,-0.12,-0.15,-0.11
95,1.68,1.83,1.67,1.85,-1.85,-1.50,-0.17,-0.18,-0.15
96,1.68,1.87,1.68,1.90,-1.90,-1.56,-0.22,-0.22,-0.19
97,1.68,1.91,1.70,1.95,-1.95,-1.62,-0.26,-0.24,-0.23
98,1.67,1.94,1.71,1.99,-1.99,-1.68,-0.32,-0.27,-0.27
99,1.66,1.97,1.71,2.03,-2.03,-1.74,-0.36,-0.31,-0.31
100,1.64,1.99,1.69,2.06,-2.06,-1.80,-0.42,-0.37,-0.35
101,1.62,2.01,1.67,2.09,-2.09,-1.86,-0.47,-0.42,-0.38
102,1.60,2.02,1.65,2.12,-2.12,-1.92,-0.52,-0.47,-0.42
104,1.86,2.36,1.62,2.14,-2.14,-2.04,-0.28,-0.51,-0.50
105,1.84,2.37,1.60,2.15,-2.15,-2.09,-0.31,-0.56,-0.53
106,1.63,2.20,1.57,2.17,-2.17,-2.15,-0.54,-0.60,-0.57
107,1.61,2.22,1.54,2.18,-2.18,-2.20,-0.57,-0.64,-0.61
108,1.31,1.95,1.51,2.19,-2.19,-2.26,-0.88,-0.68,-0.64
109,1.26,1.94,1.50,2.19,-2.19,-2.31,-0.93,-0.69,-0.68
110,1.33,2.04,1.47,2.20,-2.20,-2.36,-0.87,-0.73,-0.71
111,1.43,2.17,1.43,2.21,-2.21,-2.41,-0.78,-0.78,-0.74
112,1.42,2.20,1.38,2.21,-2.21,-2.45,-0.79,-0.83,-0.78
113,1.41,2.22,1.35,2.22,-2.22,-2.50,-0.81,-0.87,-0.81
114,1.40,2.24,1.33,2.23,-2.23,-2.54,-0.83,-0.90,-0.83
115,1.40,2.26,1.33,2.25,-2.25,-2.58,-0.85,-0.92,-0.86
117,1.40,2.32,1.35,2.28,-2.28,-2.65,-0.88,-0.93,-0.92
118,1.41,2.35,1.36,2.31,-2.31,-2.68,-0.90,-0.96,-0.94
119,1.32,2.29,1.37,2.34,-2.34,-2.70,-1.02,-0.97,-0.96
120,1.10,2.09,1.38,2.36,-2.36,-2.73,-1.26,-0.98,-0.98
121,1.17,2.17,1.36,2.38,-2.38,-2.75,-1.21,-1.01,-1.00
123,1.44,2.49,1.34,2.40,-2.40,-2.79,-0.95,-1.06,-1.05
124,1.56,2.63,1.32,2.41,-2.41,-2.80,-0.85,-1.09,-1.06
125,1.43,2.51,1.30,2.41,-2.41,-2.81,-0.98,-1.12,-1.08
126,1.25,2.35,1.28,2.42,-2.42,-2.82,-1.17,-1.14,-1.09
128,1.26,2.39,1.27,2.42,-2.42,-2.82,-1.16,-1.15,-1.13
129,1.27,2.42,1.27,2.42,-2.42,-2.82,-1.15,-1.16,-1.15
130,1.27,2.43,1.24,2.42,-2.42,-2.82,-1.15,-1.19,-1.16
131,1.28,2.46,1.21,2.42,-2.42,-2.81,-1.14,-1.21,-1.17
133,0.96,2.17,1.20,2.42,-2.42,-2.80,-1.46,-1.22,-1.21
134,1.02,2.25,1.17,2.42,-2.42,-2.79,-1.40,-1.25,-1.23
135,1.19,2.43,1.14,2.42,-2.42,-2.77,-1.23,-1.28,-1.24
137,1.19,2.47,1.12,2.43,-2.43,-2.74,-1.24,-1.30,-1.27
138,1.20,2.49,1.12,2.43,-2.43,-2.73,-1.23,-1.31,-1.29
140,1.20,2.52,1.12,2.44,-2.44,-2.69,-1.24,-1.33,-1.32
141,1.01,2.35,1.12,2.46,-2.46,-2.67,-1.45,-1.33,-1.34
142,0.86,2.21,1.12,2.47,-2.47,-2.65,-1.61,-1.35,-1.35
144,1.24,2.62,1.10,2.48,-2.48,-2.60,-1.24,-1.38,-1.38
145,1.34,2.74,1.08,2.49,-2.49,-2.58,-1.14,-1.41,-1.40
147,1.00,2.43,1.05,2.49,-2.49,-2.53,-1.49,-1.44,-1.43
148,1.00,2.44,1.01,2.49,-2.49,-2.51,-1.49,-1.48,-1.44
150,1.00,2.47,0.99,2.49,-2.49,-2.46,-1.49,-1.51,-1.47
151,1.00,2.48,0.99,2.50,-2.50,-2.44,-1.49,-1.51,-1.48
153,1.00,2.50,0.98,2.49,-2.49,-2.40,-1.49,-1.51,-1.50
154,1.00,2.51,0.96,2.49,-2.49,-2.37,-1.49,-1.53,-1.51
156,0.66,2.20,0.93,2.48,-2.48,-2.33,-1.82,-1.55,-1.54
157,0.66,2.21,0.90,2.48,-2.48,-2.31,-1.81,-1.58,-1.54
159,0.90,2.47,0.84,2.46,-2.46,-2.27,-1.56,-1.62,-1.57
160,0.90,2.48,0.82,2.45,-2.45,-2.25,-1.55,-1.64,-1.58
162,1.10,2.70,0.81,2.45,-2.45,-2.21,-1.34,-1.64,-1.60
164,0.99,2.61,0.78,2.44,-2.44,-2.17,-1.45,-1.66,-1.62
165,0.79,2.42,0.76,2.43,-2.43,-2.16,-1.64,-1.67,-1.63
167,0.54,2.19,0.75,2.43,-2.43,-2.12,-1.89,-1.68,-1.65
169,0.51,2.18,0.73,2.42,-2.42,-2.09,-1.91,-1.69,-1.67
170,0.65,2.34,0.70,2.41,-2.41,-2.08,-1.76,-1.71,-1.68
172,0.67,2.38,0.68,2.40,-2.40,-2.05,-1.73,-1.72,-1.70
174,0.66,2.38,0.63,2.38,-2.38,-2.03,-1.72,-1.75,-1.72
175,0.66,2.39,0.59,2.37,-2.37,-2.02,-1.71,-1.78,-1.73
177,0.65,2.40,0.56,2.36,-2.36,-2.00,-1.71,-1.80,-1.74
179,0.65,2.41,0.56,2.35,-2.35,-1.98,-1.70,-1.79,-1.76
181,0.65,2.41,0.57,2.34,-2.34,-1.97,-1.69,-1.77,-1.76
183,0.47,2.24,0.56,2.33,-2.33,-1.95,-1.86,-1.78,-1.77
184,0.31,2.07,0.55,2.33,-2.33,-1.95,-2.02,-1.78,-1.76
186,0.44,2.20,0.55,2.33,-2.33,-1.94,-1.88,-1.77,-1.76
188,0.60,2.36,0.55,2.32,-2.32,-1.93,-1.72,-1.78,-1.75
190,0.61,2.36,0.56,2.32,-2.32,-1.92,-1.71,-1.76,-1.75
192,0.63,2.37,0.58,2.32,-2.32,-1.92,-1.69,-1.74,-1.74
194,0.64,2.38,0.57,2.31,-2.31,-1.91,-1.67,-1.74,-1.73
196,0.64,2.37,0.55,2.31,-2.31,-1.91,-1.66,-1.76,-1.73
198,0.29,2.01,0.53,2.30,-2.30,-1.91,-2.01,-1.77,-1.72
200,0.41,2.13,0.55,2.29,-2.29,-1.91,-1.87,-1.74,-1.72
202,0.85,2.57,0.57,2.27,-2.27,-1.91,-1.42,-1.70,-1.72
204,0.74,2.46,0.55,2.25,-2.25,-1.91,-1.51,-1.70,-1.72
206,0.49,2.21,0.50,2.23,-2.23,-1.92,-1.74,-1.73,-1.72
208,0.49,2.22,0.46,2.20,-2.20,-1.92,-1.71,-1.75,-1.73
210,0.23,1.96,0.43,2.17,-2.17,-1.93,-1.94,-1.74,-1.73
212,0.12,1.86,0.38,2.14,-2.14,-1.93,-2.02,-1.76,-1.74
214,0.37,2.12,0.33,2.11,-2.11,-1.93,-1.74,-1.78,-1.75
216,0.50,2.26,0.30,2.08,-2.08,-1.94,-1.58,-1.78,-1.76
218,0.66,2.43,0.29,2.04,-2.04,-1.94,-1.38,-1.75,-1.77
221,0.05,1.83,0.24,2.01,-2.01,-1.95,-1.96,-1.77,-1.78
223,-0.11,1.67,0.17,1.98,-1.98,-1.96,-2.09,-1.81,-1.78
225,0.09,1.88,0.14,1.95,-1.95,-1.96,-1.86,-1.81,-1.78
227,0.17,1.96,0.12,1.92,-1.92,-1.96,-1.75,-1.80,-1.78
229,0.17,1.95,0.10,1.89,-1.89,-1.97,-1.71,-1.79,-1.78
232,-0.15,1.63,0.09,1.85,-1.85,-1.97,-2.00,-1.76,-1.78
234,0.23,2.00,0.04,1.82,-1.82,-1.97,-1.59,-1.78,-1.77
236,0.28,2.04,-0.00,1.79,-1.79,-1.97,-1.51,-1.79,-1.76
239,-0.01,1.74,-0.02,1.75,-1.75,-1.97,-1.76,-1.77,-1.75
241,-0.31,1.43,-0.04,1.71,-1.71,-1.96,-2.02,-1.75,-1.74
244,-0.20,1.52,-0.04,1.67,-1.67,-1.96,-1.87,-1.72,-1.72
246,-0.02,1.69,-0.06,1.64,-1.64,-1.95,-1.66,-1.70,-1.71
248,0.00,1.69,-0.09,1.60,-1.60,-1.94,-1.60,-1.69,-1.69
251,0.02,1.70,-0.13,1.56,-1.56,-1.93,-1.54,-1.69,-1.68
253,-0.20,1.46,-0.17,1.52,-1.52,-1.92,-1.72,-1.69,-1.66
256,-0.34,1.31,-0.21,1.48,-1.48,-1.91,-1.82,-1.69,-1.65
259,-0.05,1.60,-0.27,1.45,-1.45,-1.89,-1.50,-1.72,-1.65
261,-0.28,1.36,-0.28,1.43,-1.43,-1.88,-1.71,-1.71,-1.64
264,-0.46,1.18,-0.24,1.41,-1.41,-1.86,-1.87,-1.66,-1.64
266,-0.22,1.42,-0.24,1.39,-1.39,-1.84,-1.61,-1.62,-1.64
269,-0.15,1.49,-0.27,1.37,-1.37,-1.82,-1.52,-1.63,-1.64
272,-0.37,1.27,-0.31,1.35,-1.35,-1.79,-1.71,-1.65,-1.64
274,-0.62,1.02,-0.34,1.33,-1.33,-1.77,-1.94,-1.66,-1.64
277,-0.39,1.25,-0.36,1.31,-1.31,-1.75,-1.70,-1.67,-1.64
280,-0.26,1.38,-0.37,1.30,-1.30,-1.72,-1.56,-1.67,-1.64
283,-0.15,1.48,-0.41,1.29,-1.29,-1.69,-1.44,-1.70,-1.63
286,0.01,1.64,-0.41,1.29,-1.29,-1.66,-1.28,-1.70,-1.63
288,-0.26,1.36,-0.38,1.30,-1.30,-1.64,-1.56,-1.67,-1.62
291,-0.67,0.94,-0.35,1.31,-1.31,-1.61,-1.98,-1.66,-1.61
294,-0.68,0.92,-0.34,1.34,-1.34,-1.58,-2.02,-1.68,-1.60
297,-0.51,1.08,-0.30,1.37,-1.37,-1.55,-1.88,-1.68,-1.59
300,-0.39,1.19,-0.22,1.41,-1.41,-1.53,-1.80,-1.63,-1.58
303,-0.20,1.37,-0.15,1.45,-1.45,-1.50,-1.65,-1.60,-1.57
306,-0.19,1.37,-0.12,1.48,-1.48,-1.47,-1.67,-1.61,-1.56
309,0.01,1.56,-0.10,1.52,-1.52,-1.44,-1.51,-1.62,-1.55
312,0.38,1.92,-0.08,1.55,-1.55,-1.42,-1.17,-1.63,-1.54
316,0.05,1.59,-0.03,1.57,-1.57,-1.38,-1.52,-1.61,-1.53
319,0.05,1.58,0.03,1.59,-1.59,-1.36,-1.54,-1.56,-1.53
322,0.05,1.58,0.07,1.59,-1.59,-1.33,-1.54,-1.52,-1.53
325,0.19,1.72,0.07,1.59,-1.59,-1.31,-1.40,-1.52,-1.52
328,0.29,1.81,0.04,1.57,-1.57,-1.28,-1.28,-1.53,-1.52
332,-0.25,1.27,-0.01,1.54,-1.54,-1.26,-1.79,-1.55,-1.52
335,-0.39,1.13,-0.05,1.51,-1.51,-1.24,-1.90,-1.56,-1.52
338,-0.22,1.30,-0.09,1.48,-1.48,-1.22,-1.69,-1.57,-1.52
342,-0.05,1.47,-0.13,1.44,-1.44,-1.19,-1.49,-1.57,-1.52
345,0.08,1.60,-0.14,1.41,-1.41,-1.17,-1.33,-1.55,-1.52
349,-0.19,1.33,-0.14,1.38,-1.38,-1.15,-1.57,-1.52,-1.52
352,-0.26,1.26,-0.17,1.35,-1.35,-1.13,-1.61,-1.52,-1.52
356,-0.25,1.26,-0.19,1.33,-1.33,-1.11,-1.58,-1.52,-1.51
359,-0.25,1.26,-0.20,1.32,-1.32,-1.10,-1.57,-1.52,-1.51
363,-0.22,1.28,-0.20,1.31,-1.31,-1.08,-1.52,-1.51,-1.50
366,-0.04,1.45,-0.19,1.29,-1.29,-1.07,-1.33,-1.48,-1.49
370,-0.13,1.35,-0.21,1.28,-1.28,-1.05,-1.41,-1.49,-1.48
374,-0.02,1.45,-0.25,1.27,-1.27,-1.04,-1.29,-1.52,-1.47
377,-0.28,1.19,-0.26,1.27,-1.27,-1.03,-1.55,-1.52,-1.46
381,-0.50,0.96,-0.25,1.26,-1.26,-1.01,-1.76,-1.51,-1.46
385,-0.30,1.15,-0.22,1.25,-1.25,-1.00,-1.55,-1.46,-1.45
389,-0.30,1.15,-0.22,1.23,-1.23,-0.99,-1.53,-1.46,-1.45
393,-0.29,1.15,-0.25,1.22,-1.22,-0.98,-1.51,-1.47,-1.44
397,-0.29,1.15,-0.28,1.20,-1.20,-0.97,-1.49,-1.47,-1.44
401,-0.29,1.15,-0.31,1.17,-1.17,-0.96,-1.46,-1.48,-1.44
405,-0.29,1.15,-0.34,1.15,-1.15,-0.95,-1.44,-1.49,-1.44
409,-0.15,1.29,-0.36,1.13,-1.13,-0.95,-1.27,-1.49,-1.44
413,-0.06,1.38,-0.38,1.10,-1.10,-0.94,-1.16,-1.48,-1.44
417,-0.36,1.08,-0.40,1.08,-1.08,-0.93,-1.44,-1.47,-1.44
421,-0.51,0.92,-0.41,1.05,-1.05,-0.93,-1.56,-1.46,-1.43
425,-0.74,0.68,-0.42,1.03,-1.03,-0.92,-1.77,-1.45,-1.42
430,-0.54,0.86,-0.42,1.01,-1.01,-0.91,-1.55,-1.43,-1.40
434,-0.47,0.91,-0.41,0.99,-0.99,-0.91,-1.46,-1.40,-1.38
438,-0.44,0.91,-0.38,0.98,-0.98,-0.90,-1.42,-1.36,-1.34
443,-0.40,0.91,-0.36,0.96,-0.96,-0.90,-1.36,-1.31,-1.31
447,-0.36,0.90,-0.35,0.94,-0.94,-0.89,-1.30,-1.29,-1.26
451,-0.30,0.91,-0.34,0.93,-0.93,-0.88,-1.23,-1.27,-1.21
456,-0.25,0.91,-0.28,0.92,-0.92,-0.88,-1.17,-1.20,-1.16
460,0.01,1.11,-0.21,0.91,-0.91,-0.87,-0.90,-1.11,-1.10
465,0.02,1.06,-0.15,0.89,-0.89,-0.86,-0.87,-1.04,-1.04
470,-0.16,0.82,-0.10,0.87,-0.87,-0.85,-1.02,-0.97,-0.98
474,-0.11,0.81,-0.09,0.84,-0.84,-0.85,-0.95,-0.93,-0.92
479,-0.05,0.82,-0.07,0.81,-0.81,-0.84,-0.86,-0.88,-0.87
484,-0.24,0.58,-0.06,0.79,-0.79,-0.83,-1.03,-0.84,-0.82
489,-0.28,0.49,-0.04,0.76,-0.76,-0.82,-1.04,-0.80,-0.77
494,0.13,0.86,-0.02,0.73,-0.73,-0.81,-0.60,-0.75,-0.73
499,0.22,0.91,-0.01,0.71,-0.71,-0.79,-0.49,-0.72,-0.69
504,-0.08,0.59,-0.01,0.69,-0.69,-0.78,-0.77,-0.70,-0.67
509,-0.06,0.59,-0.01,0.67,-0.67,-0.77,-0.73,-0.69,-0.65
514,-0.05,0.59,-0.01,0.66,-0.66,-0.75,-0.71,-0.67,-0.64
519,-0.04,0.60,0.01,0.64,-0.64,-0.74,-0.68,-0.64,-0.63
524,-0.05,0.59,-0.01,0.63,-0.63,-0.72,-0.68,-0.64,-0.64
529,-0.02,0.64,-0.05,0.61,-0.61,-0.71,-0.63,-0.66,-0.65
535,0.14,0.82,-0.10,0.59,-0.59,-0.69,-0.45,-0.69,-0.68
540,-0.09,0.61,-0.17,0.56,-0.56,-0.67,-0.65,-0.74,-0.70
545,-0.25,0.49,-0.24,0.53,-0.53,-0.66,-0.78,-0.78,-0.74
551,-0.30,0.47,-0.29,0.50,-0.50,-0.64,-0.80,-0.79,-0.77
556,-0.35,0.45,-0.33,0.47,-0.47,-0.62,-0.82,-0.81,-0.80
562,-0.40,0.43,-0.40,0.44,-0.44,-0.60,-0.84,-0.84,-0.83
568,-0.45,0.41,-0.47,0.40,-0.40,-0.57,-0.85,-0.87,-0.86
573,-0.76,0.13,-0.53,0.36,-0.36,-0.55,-1.12,-0.89,-0.89
579,-0.79,0.12,-0.59,0.33,-0.33,-0.53,-1.12,-0.92,-0.90
585,-0.65,0.27,-0.64,0.29,-0.29,-0.51,-0.94,-0.93,-0.92
591,-0.48,0.44,-0.68,0.26,-0.26,-0.49,-0.74,-0.94,-0.92
596,-0.48,0.44,-0.69,0.24,-0.24,-0.47,-0.71,-0.93,-0.92
602,-0.77,0.14,-0.70,0.21,-0.21,-0.45,-0.98,-0.91,-0.91
608,-0.76,0.13,-0.71,0.19,-0.19,-0.42,-0.95,-0.90,-0.89
615,-0.74,0.13,-0.71,0.17,-0.17,-0.40,-0.91,-0.87,-0.87
621,-0.72,0.12,-0.69,0.15,-0.15,-0.37,-0.87,-0.84,-0.84
627,-0.69,0.12,-0.67,0.14,-0.14,-0.35,-0.82,-0.80,-0.80
633,-0.67,0.09,-0.63,0.12,-0.12,-0.33,-0.79,-0.76,-0.76
639,-0.63,0.09,-0.61,0.11,-0.11,-0.31,-0.74,-0.72,-0.72
646,-0.59,0.08,-0.58,0.10,-0.10,-0.28,-0.69,-0.68,-0.67
652,-0.55,0.07,-0.54,0.09,-0.09,-0.26,-0.64,-0.62,-0.62
659,-0.50,0.07,-0.49,0.08,-0.08,-0.23,-0.57,-0.57,-0.57
665,-0.45,0.07,-0.45,0.07,-0.07,-0.21,-0.51,-0.51,-0.52
672,-0.40,0.07,-0.43,0.06,-0.06,-0.19,-0.46,-0.49,-0.47
679,-0.35,0.07,-0.40,0.05,-0.05,-0.16,-0.40,-0.46,-0.42
686,-0.31,0.06,-0.37,0.04,-0.04,-0.14,-0.35,-0.41,-0.37
692,-0.27,0.07,-0.33,0.03,-0.03,-0.12,-0.30,-0.37,-0.34
699,-0.24,0.07,-0.31,0.03,-0.03,-0.09,-0.27,-0.34,-0.31
706,-0.23,0.05,-0.29,0.02,-0.02,-0.07,-0.25,-0.31,-0.28
713,-0.47,-0.20,-0.28,0.01,-0.01,-0.04,-0.48,-0.29,-0.27
721,-0.49,-0.23,-0.27,0.00,-0.00,-0.02,-0.49,-0.27,-0.26
728,-0.35,-0.09,-0.27,-0.01,0.01,0.01,-0.34,-0.25,-0.25
735,-0.25,0.01,-0.29,-0.03,0.03,0.03,-0.22,-0.26,-0.25
742,-0.06,0.20,-0.33,-0.04,0.04,0.05,-0.02,-0.29,-0.26
750,-0.14,0.12,-0.35,-0.06,0.06,0.08,-0.08,-0.29,-0.26
757,-0.36,-0.10,-0.36,-0.08,0.08,0.10,-0.28,-0.29,-0.25
765,-0.38,-0.13,-0.36,-0.09,0.09,0.12,-0.29,-0.27,-0.25
773,-0.40,-0.15,-0.36,-0.10,0.10,0.15,-0.30,-0.26,-0.25
780,-0.41,-0.17,-0.34,-0.11,0.11,0.17,-0.30,-0.24,-0.24
788,-0.41,-0.18,-0.34,-0.11,0.11,0.19,-0.30,-0.23,-0.22
796,-0.50,-0.29,-0.35,-0.11,0.11,0.21,-0.39,-0.23,-0.21
804,-0.65,-0.46,-0.34,-0.11,0.11,0.24,-0.54,-0.23,-0.19
812,-0.33,-0.15,-0.31,-0.10,0.10,0.26,-0.23,-0.22,-0.18
820,0.04,0.20,-0.28,-0.08,0.08,0.28,0.12,-0.20,-0.16
828,-0.08,0.06,-0.23,-0.06,0.06,0.30,-0.02,-0.17,-0.14
837,-0.19,-0.06,-0.18,-0.04,0.04,0.32,-0.15,-0.14,-0.13
845,-0.20,-0.08,-0.14,-0.02,0.02,0.34,-0.18,-0.12,-0.11
853,-0.20,-0.10,-0.11,-0.01,0.01,0.36,-0.19,-0.10,-0.10
862,-0.20,-0.11,-0.08,0.00,-0.00,0.38,-0.20,-0.09,-0.09
871,0.11,0.20,-0.06,0.01,-0.01,0.39,0.10,-0.07,-0.09
879,0.14,0.22,-0.04,0.01,-0.01,0.41,0.13,-0.05,-0.08
888,-0.02,0.06,-0.03,0.00,-0.00,0.42,-0.02,-0.04,-0.08
897,-0.13,-0.06,-0.09,-0.01,0.01,0.43,-0.12,-0.08,-0.07
906,-0.14,-0.07,-0.12,-0.03,0.03,0.45,-0.11,-0.09,-0.07
915,-0.15,-0.09,-0.13,-0.05,0.05,0.45,-0.10,-0.08,-0.06
924,-0.15,-0.10,-0.14,-0.07,0.07,0.46,-0.07,-0.06,-0.05
933,-0.15,-0.10,-0.15,-0.10,0.10,0.47,-0.05,-0.06,-0.05
943,-0.15,-0.11,-0.17,-0.11,0.11,0.47,-0.04,-0.06,-0.04
952,-0.15,-0.12,-0.18,-0.12,0.12,0.47,-0.03,-0.06,-0.03
962,-0.14,-0.12,-0.19,-0.13,0.13,0.47,-0.01,-0.06,-0.02
971,-0.40,-0.39,-0.16,-0.13,0.13,0.47,-0.27,-0.02,-0.01
981,-0.39,-0.40,-0.12,-0.13,0.13,0.46,-0.26,0.01,0.01
991,-0.01,-0.03,-0.11,-0.13,0.13,0.45,0.12,0.01,0.02
1001,0.00,-0.04,-0.10,-0.12,0.12,0.44,0.12,0.02,0.04
1011,0.02,-0.04,-0.06,-0.11,0.11,0.43,0.13,0.05,0.06
1021,0.04,-0.04,-0.01,-0.10,0.10,0.41,0.14,0.09,0.08
1031,0.07,-0.04,0.04,-0.09,0.09,0.39,0.17,0.13,0.11
1041,0.10,-0.04,0.06,-0.09,0.09,0.37,0.19,0.14,0.14
1052,0.14,-0.02,0.07,-0.08,0.08,0.35,0.22,0.15,0.16
1062,0.18,-0.01,0.10,-0.07,0.07,0.32,0.26,0.17,0.19
1073,-0.11,-0.33,0.14,-0.07,0.07,0.29,-0.04,0.21,0.22
1084,-0.01,-0.26,0.17,-0.07,0.07,0.26,0.06,0.24,0.25
1094,0.43,0.15,0.20,-0.06,0.06,0.23,0.49,0.26,0.28
1105,0.46,0.15,0.25,-0.05,0.05,0.19,0.51,0.30,0.31
1116,0.24,-0.10,0.30,-0.04,0.04,0.16,0.28,0.34,0.35
1128,0.05,-0.33,0.34,-0.03,0.03,0.11,0.08,0.37,0.38
1139,0.06,-0.35,0.39,-0.01,0.01,0.07,0.07,0.40,0.41
1150,0.52,0.07,0.45,0.01,-0.01,0.03,0.51,0.44,0.45
1162,0.72,0.23,0.51,0.03,-0.03,-0.01,0.69,0.48,0.49
1173,0.75,0.23,0.55,0.05,-0.05,-0.06,0.71,0.51,0.52
1185,0.81,0.25,0.62,0.06,-0.06,-0.11,0.75,0.56,0.56
1197,0.59,-0.00,0.66,0.06,-0.06,-0.16,0.53,0.60,0.60
1209,0.63,-0.00,0.70,0.07,-0.07,-0.21,0.56,0.63,0.63
1221,0.68,0.01,0.76,0.08,-0.08,-0.26,0.61,0.69,0.67
1233,0.71,0.01,0.81,0.08,-0.08,-0.31,0.63,0.73,0.70
1246,0.86,0.13,0.83,0.09,-0.09,-0.37,0.77,0.75,0.73
1258,0.87,0.11,0.83,0.09,-0.09,-0.42,0.78,0.74,0.76
1271,0.77,-0.00,0.80,0.10,-0.10,-0.48,0.67,0.70,0.78
1283,0.91,0.12,0.82,0.12,-0.12,-0.53,0.79,0.70,0.79
1296,1.10,0.31,0.87,0.15,-0.15,-0.59,0.95,0.72,0.79
1309,0.98,0.19,0.92,0.19,-0.19,-0.65,0.79,0.73,0.79
1322,0.91,0.13,0.99,0.24,-0.24,-0.71,0.67,0.76,0.78
1335,0.80,0.03,1.05,0.30,-0.30,-0.77,0.50,0.75,0.77
1349,0.80,0.04,1.11,0.37,-0.37,-0.84,0.43,0.74,0.76
1362,1.08,0.34,1.17,0.44,-0.44,-0.90,0.64,0.73,0.74
1376,1.25,0.53,1.23,0.53,-0.53,-0.97,0.72,0.70,0.72
1390,1.38,0.68,1.30,0.62,-0.62,-1.04,0.77,0.68,0.70
1404,1.68,1.00,1.37,0.70,-0.70,-1.10,0.98,0.67,0.68
1418,1.55,0.89,1.44,0.79,-0.79,-1.17,0.77,0.65,0.66
1432,1.50,0.85,1.51,0.86,-0.86,-1.24,0.64,0.64,0.65
1446,1.61,0.97,1.59,0.93,-0.93,-1.31,0.68,0.66,0.64
1461,1.56,0.92,1.67,0.99,-0.99,-1.38,0.57,0.68,0.64
1475,1.70,1.06,1.73,1.04,-1.04,-1.45,0.66,0.70,0.64
1490,1.72,1.08,1.77,1.08,-1.08,-1.53,0.64,0.69,0.64
1505,1.73,1.08,1.78,1.11,-1.11,-1.60,0.62,0.67,0.65
1520,1.78,1.12,1.79,1.14,-1.14,-1.67,0.64,0.65,0.66
1535,1.86,1.19,1.79,1.16,-1.16,-1.75,0.70,0.63,0.67
1550,1.92,1.24,1.80,1.17,-1.17,-1.82,0.75,0.62,0.68
1566,1.85,1.15,1.83,1.18,-1.18,-1.90,0.67,0.65,0.70
1582,1.95,1.23,1.87,1.18,-1.18,-1.98,0.77,0.68,0.72
1597,1.91,1.16,1.90,1.18,-1.18,-2.05,0.73,0.72,0.75
1613,1.82,1.04,1.93,1.16,-1.16,-2.13,0.66,0.77,0.78
1629,1.84,1.03,1.96,1.14,-1.14,-2.20,0.70,0.81,0.82
1646,1.85,1.00,1.97,1.12,-1.12,-2.28,0.73,0.85,0.85
1662,1.86,0.96,1.96,1.10,-1.10,-2.35,0.76,0.86,0.90
1679,2.01,1.06,1.95,1.09,-1.09,-2.43,0.92,0.87,0.95
1696,2.18,1.18,1.93,1.08,-1.08,-2.50,1.10,0.85,1.01
1713,2.29,1.22,1.92,1.08,-1.08,-2.57,1.21,0.85,1.07
1730,2.20,1.06,1.94,1.09,-1.09,-2.63,1.11,0.85,1.15
1747,2.10,0.87,1.99,1.11,-1.11,-2.70,0.99,0.88,1.23
