frequency,raw,smoothed,error,error_smoothed,equalization,parametric_eq,fixed_band_eq,equalized_raw,equalized_smoothed,target
20.00,-24.09,-24.09,-24.09,-24.08,6.00,6.50,2.70,-18.09,-18.09,-0.01
20.20,-23.91,-23.92,-23.94,-23.94,6.00,6.50,2.77,-17.91,-17.92,0.02
20.40,-23.75,-23.75,-23.80,-23.80,6.00,6.50,2.85,-17.75,-17.75,0.05
20.61,-23.59,-23.58,-23.66,-23.66,6.00,6.50,2.93,-17.59,-17.58,0.07
20.81,-23.40,-23.41,-23.50,-23.51,6.00,6.50,3.02,-17.40,-17.41,0.10
21.02,-23.23,-23.23,-23.36,-23.36,6.00,6.50,3.10,-17.23,-17.23,0.13
21.23,-23.07,-23.07,-23.21,-23.22,6.00,6.50,3.19,-17.07,-17.07,0.14
21.44,-22.91,-22.91,-23.06,-23.07,6.00,6.50,3.28,-16.91,-16.91,0.15
21.66,-22.76,-22.75,-22.92,-22.91,6.00,6.50,3.37,-16.76,-16.75,0.16
21.87,-22.59,-22.60,-22.75,-22.76,6.00,6.50,3.47,-16.59,-16.60,0.16
22.09,-22.44,-22.45,-22.61,-22.62,6.00,6.50,3.57,-16.44,-16.45,0.17
22.31,-22.32,-22.32,-22.49,-22.49,6.00,6.50,3.67,-16.32,-16.32,0.17
22.54,-22.20,-22.20,-22.37,-22.37,6.00,6.49,3.77,-16.20,-16.20,0.17
22.76,-22.07,-22.08,-22.24,-22.24,6.00,6.49,3.88,-16.07,-16.08,0.17
22.99,-21.95,-21.95,-22.11,-22.11,6.00,6.49,3.99,-15.95,-15.95,0.16
23.22,-21.81,-21.82,-21.97,-21.97,6.00,6.49,4.10,-15.81,-15.82,0.16
23.45,-21.68,-21.69,-21.84,-21.84,6.00,6.49,4.21,-15.68,-15.69,0.15
23.69,-21.56,-21.55,-21.71,-21.71,6.00,6.49,4.33,-15.56,-15.55,0.15
23.92,-21.41,-21.41,-21.56,-21.57,6.00,6.49,4.45,-15.41,-15.41,0.15
24.16,-21.26,-21.26,-21.42,-21.42,6.00,6.49,4.57,-15.26,-15.26,0.16
24.40,-21.09,-21.09,-21.25,-21.25,6.00,6.48,4.69,-15.09,-15.09,0.16
24.65,-20.93,-20.93,-21.09,-21.08,6.00,6.48,4.82,-14.93,-14.93,0.15
24.89,-20.76,-20.77,-20.91,-20.92,6.00,6.48,4.94,-14.76,-14.77,0.15
25.14,-20.62,-20.62,-20.77,-20.77,6.00,6.48,5.07,-14.62,-14.62,0.15
25.39,-20.49,-20.49,-20.64,-20.63,6.00,6.48,5.20,-14.49,-14.49,0.15
25.65,-20.37,-20.37,-20.52,-20.51,6.00,6.48,5.33,-14.37,-14.37,0.15
25.91,-20.26,-20.26,-20.39,-20.40,6.00,6.48,5.46,-14.26,-14.26,0.14
26.16,-20.18,-20.19,-20.32,-20.33,6.00,6.47,5.60,-14.18,-14.19,0.13
26.43,-20.14,-20.16,-20.28,-20.29,6.00,6.47,5.73,-14.14,-14.16,0.13
26.69,-20.11,-20.12,-20.25,-20.25,6.00,6.47,5.86,-14.11,-14.12,0.13
26.96,-20.07,-20.02,-20.20,-20.15,6.00,6.47,5.99,-14.07,-14.02,0.13
27.23,-19.83,-19.82,-19.96,-19.95,6.00,6.47,6.11,-13.83,-13.82,0.13
27.50,-19.52,-19.53,-19.65,-19.66,6.00,6.47,6.24,-13.52,-13.53,0.13
27.77,-19.23,-19.23,-19.35,-19.35,6.00,6.46,6.36,-13.23,-13.23,0.12
28.05,-18.96,-19.01,-19.08,-19.12,6.00,6.46,6.47,-12.96,-13.01,0.12
28.33,-18.86,-18.85,-18.97,-18.96,6.00,6.46,6.58,-12.86,-12.85,0.10
28.62,-18.75,-18.74,-18.86,-18.84,6.00,6.46,6.69,-12.75,-12.74,0.10
28.90,-18.64,-18.64,-18.74,-18.74,6.00,6.45,6.79,-12.64,-12.64,0.10
29.19,-18.51,-18.51,-18.60,-18.61,6.00,6.45,6.89,-12.51,-12.51,0.09
29.48,-18.38,-18.39,-18.48,-18.48,6.00,6.45,6.97,-12.38,-12.39,0.10
29.78,-18.25,-18.25,-18.34,-18.34,6.00,6.45,7.05,-12.25,-12.25,0.09
30.08,-18.12,-18.11,-18.20,-18.19,6.00,6.45,7.12,-12.12,-12.11,0.08
30.38,-17.96,-17.96,-18.03,-18.03,6.00,6.44,7.19,-11.96,-11.96,0.07
30.68,-17.79,-17.80,-17.86,-17.87,6.00,6.44,7.23,-11.79,-11.80,0.07
30.99,-17.64,-17.64,-17.70,-17.70,6.00,6.44,7.28,-11.64,-11.64,0.06
31.30,-17.49,-17.49,-17.55,-17.55,6.00,6.43,7.31,-11.49,-11.49,0.06
31.61,-17.34,-17.35,-17.40,-17.39,6.00,6.43,7.33,-11.34,-11.35,0.05
31.93,-17.21,-17.20,-17.25,-17.24,6.00,6.43,7.34,-11.21,-11.20,0.04
32.24,-17.06,-17.07,-17.09,-17.10,6.00,6.43,7.35,-11.06,-11.07,0.03
32.57,-16.94,-16.94,-16.97,-16.96,6.00,6.42,7.34,-10.94,-10.94,0.03
32.89,-16.81,-16.81,-16.84,-16.83,6.00,6.42,7.33,-10.81,-10.81,0.02
33.22,-16.69,-16.69,-16.70,-16.70,6.00,6.42,7.31,-10.69,-10.69,0.01
33.55,-16.56,-16.57,-16.57,-16.57,6.00,6.41,7.28,-10.56,-10.57,0.01
33.89,-16.44,-16.44,-16.44,-16.44,6.00,6.41,7.24,-10.44,-10.44,-0.00
34.23,-16.31,-16.31,-16.31,-16.30,6.00,6.40,7.20,-10.31,-10.31,-0.01
34.57,-16.17,-16.18,-16.15,-16.16,6.00,6.40,7.15,-10.17,-10.18,-0.02
34.92,-16.04,-16.03,-16.01,-16.00,6.00,6.40,7.10,-10.04,-10.03,-0.03
35.27,-15.88,-15.86,-15.84,-15.82,6.00,6.39,7.04,-9.88,-9.86,-0.04
35.62,-15.69,-15.70,-15.64,-15.64,6.00,6.39,6.99,-9.69,-9.70,-0.05
35.97,-15.52,-15.55,-15.46,-15.49,6.00,6.38,6.92,-9.52,-9.55,-0.06
36.33,-15.44,-15.45,-15.37,-15.37,6.00,6.38,6.86,-9.44,-9.45,-0.07
36.70,-15.37,-15.36,-15.29,-15.28,6.00,6.37,6.80,-9.37,-9.36,-0.08
37.06,-15.29,-15.27,-15.19,-15.18,6.00,6.37,6.73,-9.29,-9.27,-0.10
37.43,-15.15,-15.15,-15.05,-15.05,6.00,6.36,6.67,-9.15,-9.15,-0.10
37.81,-15.01,-15.03,-14.90,-14.91,6.00,6.36,6.61,-9.01,-9.03,-0.11
38.19,-14.90,-14.92,-14.77,-14.79,6.00,6.35,6.55,-8.90,-8.92,-0.13
38.57,-14.81,-14.81,-14.68,-14.68,6.00,6.35,6.49,-8.81,-8.81,-0.13
38.95,-14.72,-14.70,-14.57,-14.54,6.00,6.34,6.43,-8.72,-8.70,-0.15
39.34,-14.55,-14.54,-14.39,-14.38,6.00,6.34,6.38,-8.55,-8.54,-0.16
39.74,-14.36,-14.38,-14.18,-14.20,6.00,6.33,6.33,-8.36,-8.38,-0.18
40.14,-14.20,-14.21,-14.02,-14.03,6.00,6.33,6.28,-8.20,-8.21,-0.18
40.54,-14.08,-14.08,-13.88,-13.88,6.00,6.32,6.24,-8.08,-8.08,-0.20
40.94,-13.95,-13.96,-13.75,-13.75,6.00,6.31,6.20,-7.95,-7.96,-0.21
41.35,-13.84,-13.84,-13.62,-13.62,6.00,6.31,6.16,-7.84,-7.84,-0.22
41.76,-13.71,-13.71,-13.48,-13.48,6.00,6.30,6.13,-7.71,-7.71,-0.23
42.18,-13.58,-13.59,-13.35,-13.35,6.00,6.29,6.10,-7.58,-7.59,-0.24
42.60,-13.45,-13.45,-13.20,-13.20,6.00,6.28,6.08,-7.45,-7.45,-0.25
43.03,-13.31,-13.28,-13.05,-13.02,6.00,6.28,6.06,-7.31,-7.28,-0.26
43.46,-13.09,-13.10,-12.82,-12.82,6.00,6.27,6.04,-7.09,-7.10,-0.28
43.90,-12.89,-12.90,-12.58,-12.60,6.00,6.26,6.03,-6.89,-6.90,-0.30
44.33,-12.74,-12.73,-12.42,-12.41,6.00,6.25,6.03,-6.74,-6.73,-0.32
44.78,-12.62,-12.64,-12.28,-12.30,6.00,6.24,6.03,-6.62,-6.64,-0.34
45.23,-12.59,-12.63,-12.24,-12.27,6.00,6.24,6.03,-6.59,-6.63,-0.36
45.68,-12.64,-12.62,-12.27,-12.24,6.00,6.23,6.04,-6.64,-6.62,-0.38
46.13,-12.62,-12.57,-12.23,-12.18,6.00,6.22,6.05,-6.62,-6.57,-0.40
46.60,-12.45,-12.47,-12.05,-12.06,6.00,6.21,6.07,-6.45,-6.47,-0.40
47.06,-12.29,-12.31,-11.87,-11.89,6.00,6.20,6.09,-6.29,-6.31,-0.42
47.53,-12.18,-12.18,-11.74,-11.74,6.00,6.19,6.12,-6.18,-6.18,-0.44
48.01,-12.08,-12.12,-11.63,-11.66,6.00,6.18,6.14,-6.08,-6.12,-0.45
48.49,-12.07,-12.07,-11.59,-11.59,6.00,6.17,6.18,-6.07,-6.07,-0.48
48.97,-12.05,-11.99,-11.54,-11.48,6.00,6.16,6.22,-6.05,-5.99,-0.52
49.46,-11.88,-11.88,-11.33,-11.34,6.00,6.15,6.26,-5.88,-5.88,-0.55
49.96,-11.70,-11.75,-11.13,-11.18,6.00,6.14,6.30,-5.70,-5.75,-0.58
50.46,-11.61,-11.62,-11.02,-11.02,6.00,6.12,6.35,-5.61,-5.62,-0.59
50.96,-11.53,-11.51,-10.92,-10.89,6.00,6.11,6.40,-5.53,-5.51,-0.61
51.47,-11.40,-11.40,-10.76,-10.76,6.00,6.10,6.45,-5.40,-5.40,-0.65
51.99,-11.26,-11.28,-10.59,-10.61,6.00,6.09,6.50,-5.26,-5.28,-0.67
52.51,-11.16,-11.17,-10.48,-10.48,6.00,6.08,6.55,-5.16,-5.17,-0.68
53.03,-11.07,-11.08,-10.36,-10.37,6.00,6.06,6.61,-5.07,-5.08,-0.71
53.56,-11.01,-11.00,-10.28,-10.27,6.00,6.05,6.66,-5.01,-5.00,-0.73
54.10,-10.93,-10.92,-10.17,-10.17,6.00,6.04,6.71,-4.93,-4.92,-0.76
54.64,-10.84,-10.85,-10.06,-10.07,6.00,6.03,6.77,-4.84,-4.85,-0.79
55.18,-10.77,-10.79,-9.96,-9.98,6.00,6.01,6.82,-4.77,-4.79,-0.81
55.74,-10.73,-10.71,-9.89,-9.88,6.00,6.00,6.87,-4.73,-4.71,-0.84
56.29,-10.64,-10.62,-9.79,-9.76,6.00,5.99,6.91,-4.64,-4.62,-0.86
56.86,-10.50,-10.52,-9.62,-9.64,6.00,5.98,6.95,-4.50,-4.52,-0.88
57.42,-10.42,-10.44,-9.51,-9.53,6.00,5.96,6.99,-4.42,-4.44,-0.91
58.00,-10.36,-10.38,-9.43,-9.45,6.00,5.95,7.02,-4.36,-4.38,-0.93
58.58,-10.33,-10.30,-9.38,-9.35,6.00,5.94,7.04,-4.33,-4.30,-0.95
59.16,-10.23,-10.18,-9.26,-9.20,6.00,5.93,7.06,-4.23,-4.18,-0.97
59.76,-9.99,-10.04,-9.00,-9.05,6.00,5.92,7.07,-3.99,-4.04,-0.99
60.35,-9.87,-9.91,-8.85,-8.89,6.00,5.91,7.07,-3.87,-3.91,-1.03
60.96,-9.85,-9.82,-8.80,-8.76,6.00,5.90,7.07,-3.85,-3.82,-1.05
61.57,-9.76,-9.75,-8.67,-8.66,6.00,5.89,7.05,-3.76,-3.75,-1.09
62.18,-9.66,-9.66,-8.54,-8.54,6.00,5.88,7.03,-3.66,-3.66,-1.12
62.80,-9.56,-9.58,-8.41,-8.43,6.00,5.87,7.00,-3.56,-3.58,-1.15
63.43,-9.51,-9.52,-8.33,-8.34,6.00,5.87,6.95,-3.51,-3.52,-1.18
64.07,-9.49,-9.47,-8.28,-8.26,6.00,5.86,6.90,-3.49,-3.47,-1.21
64.71,-9.40,-9.39,-8.17,-8.16,6.00,5.86,6.84,-3.40,-3.39,-1.24
65.35,-9.30,-9.31,-8.04,-8.04,6.00,5.86,6.77,-3.30,-3.31,-1.26
66.01,-9.19,-9.22,-7.90,-7.93,6.00,5.86,6.69,-3.19,-3.22,-1.29
66.67,-9.16,-9.14,-7.84,-7.82,6.00,5.86,6.61,-3.16,-3.14,-1.32
67.33,-9.10,-9.09,-7.75,-7.74,6.00,5.87,6.51,-3.10,-3.09,-1.35
68.01,-9.02,-9.06,-7.64,-7.68,6.00,5.87,6.41,-3.02,-3.06,-1.38
68.69,-9.02,-9.00,-7.61,-7.58,6.00,5.89,6.31,-3.02,-3.00,-1.41
69.37,-8.95,-8.93,-7.51,-7.48,6.00,5.90,6.20,-2.95,-2.93,-1.45
70.07,-8.83,-8.86,-7.36,-7.38,6.00,5.92,6.08,-2.83,-2.86,-1.48
70.77,-8.77,-8.79,-7.27,-7.29,6.00,5.94,5.96,-2.77,-2.79,-1.50
71.48,-8.74,-8.73,-7.21,-7.19,6.00,5.96,5.84,-2.74,-2.73,-1.54
72.19,-8.71,-8.68,-7.14,-7.11,6.00,5.98,5.71,-2.71,-2.68,-1.57
72.91,-8.60,-8.64,-7.00,-7.03,6.00,6.01,5.58,-2.60,-2.64,-1.61
73.64,-8.60,-8.62,-6.96,-6.98,6.00,6.03,5.45,-2.60,-2.62,-1.64
74.38,-8.62,-8.61,-6.95,-6.93,6.00,6.06,5.32,-2.62,-2.61,-1.67
75.12,-8.63,-8.60,-6.92,-6.89,6.00,6.08,5.19,-2.63,-2.60,-1.71
75.87,-8.53,-8.57,-6.79,-6.83,6.00,6.09,5.06,-2.53,-2.57,-1.74
76.63,-8.52,-8.52,-6.75,-6.75,6.01,6.10,4.93,-2.52,-2.51,-1.77
77.40,-8.47,-8.46,-6.67,-6.65,6.02,6.09,4.79,-2.45,-2.44,-1.80
78.17,-8.39,-8.40,-6.55,-6.57,6.03,6.08,4.66,-2.37,-2.38,-1.84
78.95,-8.32,-8.34,-6.46,-6.47,6.02,6.04,4.54,-2.30,-2.31,-1.87
79.74,-8.27,-8.26,-6.37,-6.36,6.01,6.00,4.41,-2.26,-2.25,-1.90
80.54,-8.17,-8.16,-6.24,-6.22,5.97,5.93,4.28,-2.20,-2.18,-1.93
81.35,-8.03,-8.03,-6.07,-6.06,5.92,5.85,4.16,-2.11,-2.11,-1.97
82.16,-7.87,-7.90,-5.87,-5.90,5.85,5.75,4.04,-2.02,-2.05,-2.00
82.98,-7.78,-7.79,-5.75,-5.75,5.75,5.64,3.92,-2.03,-2.03,-2.03
83.81,-7.70,-7.68,-5.63,-5.61,5.63,5.52,3.80,-2.07,-2.05,-2.08
84.65,-7.58,-7.59,-5.47,-5.48,5.49,5.39,3.69,-2.09,-2.10,-2.11
85.50,-7.47,-7.48,-5.33,-5.33,5.33,5.25,3.57,-2.14,-2.15,-2.14
86.35,-7.37,-7.36,-5.19,-5.17,5.16,5.11,3.46,-2.21,-2.19,-2.18
87.22,-7.22,-7.22,-5.00,-5.00,4.99,4.96,3.36,-2.23,-2.23,-2.22
88.09,-7.08,-7.09,-4.82,-4.83,4.83,4.82,3.25,-2.26,-2.26,-2.26
88.97,-6.94,-6.95,-4.65,-4.65,4.67,4.68,3.15,-2.27,-2.28,-2.29
89.86,-6.84,-6.83,-4.51,-4.49,4.52,4.54,3.05,-2.32,-2.30,-2.33
90.76,-6.71,-6.72,-4.33,-4.34,4.38,4.40,2.95,-2.34,-2.35,-2.39
91.66,-6.62,-6.64,-4.20,-4.22,4.24,4.27,2.85,-2.38,-2.41,-2.42
92.58,-6.59,-6.58,-4.12,-4.11,4.11,4.14,2.76,-2.49,-2.47,-2.47
93.51,-6.52,-6.52,-4.02,-4.01,3.98,4.01,2.67,-2.54,-2.54,-2.51
94.44,-6.44,-6.44,-3.89,-3.89,3.86,3.88,2.58,-2.59,-2.58,-2.55
95.39,-6.35,-6.34,-3.76,-3.74,3.74,3.76,2.49,-2.62,-2.61,-2.59
96.34,-6.23,-6.25,-3.58,-3.61,3.61,3.63,2.41,-2.62,-2.64,-2.65
97.30,-6.16,-6.17,-3.47,-3.48,3.49,3.51,2.33,-2.67,-2.68,-2.69
98.28,-6.11,-6.09,-3.37,-3.35,3.36,3.40,2.25,-2.75,-2.73,-2.74
99.26,-6.01,-6.02,-3.23,-3.23,3.23,3.28,2.17,-2.78,-2.79,-2.79
100.25,-5.93,-5.94,-3.10,-3.11,3.10,3.17,2.09,-2.83,-2.84,-2.83
101.25,-5.86,-5.86,-2.99,-2.98,2.98,3.05,2.01,-2.88,-2.88,-2.88
102.27,-5.79,-5.79,-2.87,-2.86,2.86,2.94,1.94,-2.93,-2.93,-2.92
103.29,-5.72,-5.71,-2.74,-2.74,2.75,2.83,1.87,-2.97,-2.97,-2.98
104.32,-5.64,-5.65,-2.63,-2.63,2.63,2.72,1.80,-3.01,-3.01,-3.02
105.37,-5.57,-5.59,-2.51,-2.53,2.53,2.60,1.73,-3.05,-3.06,-3.06
106.42,-5.55,-5.54,-2.44,-2.43,2.43,2.49,1.66,-3.13,-3.11,-3.11
107.48,-5.49,-5.48,-2.34,-2.32,2.33,2.38,1.60,-3.16,-3.15,-3.16
108.56,-5.42,-5.43,-2.21,-2.22,2.24,2.27,1.53,-3.18,-3.19,-3.21
109.64,-5.37,-5.38,-2.12,-2.13,2.15,2.16,1.47,-3.22,-3.23,-3.26
110.74,-5.35,-5.36,-2.05,-2.05,2.06,2.05,1.41,-3.30,-3.30,-3.30
111.85,-5.33,-5.34,-1.98,-1.98,1.95,1.93,1.34,-3.38,-3.38,-3.35
112.97,-5.32,-5.30,-1.91,-1.89,1.85,1.82,1.28,-3.48,-3.45,-3.41
114.10,-5.22,-5.23,-1.76,-1.77,1.74,1.70,1.22,-3.49,-3.49,-3.46
115.24,-5.14,-5.14,-1.63,-1.62,1.62,1.59,1.17,-3.52,-3.52,-3.51
116.39,-5.03,-5.05,-1.46,-1.48,1.50,1.47,1.11,-3.54,-3.55,-3.57
117.55,-4.97,-4.97,-1.35,-1.35,1.37,1.35,1.05,-3.60,-3.60,-3.62
118.73,-4.90,-4.91,-1.23,-1.23,1.24,1.24,0.99,-3.66,-3.66,-3.68
119.92,-4.84,-4.84,-1.12,-1.12,1.12,1.12,0.94,-3.72,-3.72,-3.72
121.12,-4.79,-4.77,-1.02,-1.00,1.01,1.00,0.88,-3.79,-3.76,-3.77
122.33,-4.69,-4.71,-0.87,-0.89,0.90,0.88,0.82,-3.80,-3.81,-3.83
123.55,-4.63,-4.66,-0.77,-0.79,0.79,0.76,0.77,-3.85,-3.87,-3.87
124.79,-4.62,-4.61,-0.70,-0.69,0.68,0.65,0.71,-3.95,-3.93,-3.92
126.03,-4.58,-4.55,-0.61,-0.58,0.56,0.53,0.66,-4.02,-3.99,-3.97
127.29,-4.47,-4.50,-0.45,-0.48,0.45,0.42,0.61,-4.02,-4.05,-4.02
128.57,-4.40,-4.42,-0.32,-0.34,0.34,0.31,0.55,-4.06,-4.08,-4.08
129.85,-4.38,-4.34,-0.26,-0.21,0.23,0.20,0.50,-4.15,-4.11,-4.13
131.15,-4.24,-4.27,-0.07,-0.10,0.12,0.10,0.44,-4.12,-4.15,-4.17
132.46,-4.20,-4.22,0.02,-0.00,0.01,0.01,0.39,-4.19,-4.21,-4.22
133.79,-4.18,-4.17,0.08,0.09,-0.09,-0.09,0.33,-4.27,-4.26,-4.26
135.12,-4.17,-4.14,0.14,0.17,-0.18,-0.17,0.28,-4.35,-4.32,-4.31
136.48,-4.07,-4.09,0.28,0.26,-0.27,-0.26,0.22,-4.34,-4.36,-4.35
137.84,-4.02,-4.04,0.37,0.36,-0.35,-0.33,0.17,-4.38,-4.39,-4.39
139.22,-3.99,-3.99,0.45,0.45,-0.44,-0.41,0.11,-4.43,-4.43,-4.45
140.61,-3.97,-3.96,0.52,0.52,-0.52,-0.48,0.06,-4.50,-4.49,-4.49
142.02,-3.93,-3.93,0.58,0.59,-0.61,-0.54,0.00,-4.55,-4.54,-4.51
143.44,-3.87,-3.88,0.68,0.68,-0.70,-0.61,-0.05,-4.58,-4.58,-4.55
144.87,-3.82,-3.81,0.77,0.78,-0.79,-0.68,-0.11,-4.62,-4.61,-4.59
146.32,-3.74,-3.75,0.89,0.88,-0.88,-0.74,-0.17,-4.62,-4.63,-4.63
147.78,-3.68,-3.69,0.98,0.98,-0.96,-0.81,-0.22,-4.65,-4.65,-4.66
149.26,-3.64,-3.65,1.06,1.06,-1.04,-0.87,-0.28,-4.68,-4.69,-4.70
150.75,-3.62,-3.63,1.12,1.12,-1.11,-0.94,-0.34,-4.73,-4.73,-4.75
152.26,-3.62,-3.61,1.16,1.17,-1.16,-1.01,-0.40,-4.78,-4.78,-4.78
153.78,-3.61,-3.61,1.21,1.21,-1.19,-1.08,-0.46,-4.81,-4.81,-4.82
155.32,-3.61,-3.62,1.25,1.25,-1.21,-1.15,-0.52,-4.83,-4.83,-4.86
156.88,-3.63,-3.64,1.27,1.26,-1.23,-1.22,-0.58,-4.86,-4.87,-4.90
158.44,-3.67,-3.69,1.27,1.25,-1.25,-1.30,-0.64,-4.92,-4.94,-4.94
160.03,-3.74,-3.74,1.24,1.24,-1.27,-1.37,-0.70,-5.01,-5.01,-4.98
161.63,-3.79,-3.76,1.23,1.26,-1.31,-1.45,-0.77,-5.10,-5.07,-5.02
163.24,-3.74,-3.75,1.32,1.31,-1.36,-1.53,-0.83,-5.11,-5.12,-5.07
164.88,-3.69,-3.70,1.40,1.40,-1.43,-1.61,-0.90,-5.13,-5.13,-5.10
166.53,-3.63,-3.62,1.50,1.52,-1.52,-1.69,-0.96,-5.15,-5.14,-5.13
168.19,-3.53,-3.55,1.64,1.62,-1.61,-1.77,-1.03,-5.15,-5.16,-5.17
169.87,-3.46,-3.47,1.75,1.74,-1.72,-1.85,-1.10,-5.18,-5.19,-5.21
171.57,-3.41,-3.39,1.83,1.86,-1.83,-1.93,-1.17,-5.24,-5.22,-5.25
173.29,-3.31,-3.33,1.97,1.95,-1.94,-2.02,-1.24,-5.25,-5.26,-5.28
175.02,-3.25,-3.28,2.07,2.05,-2.04,-2.10,-1.31,-5.29,-5.32,-5.32
176.77,-3.26,-3.24,2.10,2.13,-2.13,-2.19,-1.39,-5.40,-5.37,-5.36
178.54,-3.20,-3.20,2.20,2.20,-2.22,-2.27,-1.46,-5.42,-5.42,-5.41
180.32,-3.16,-3.16,2.28,2.29,-2.30,-2.35,-1.54,-5.46,-5.45,-5.44
182.13,-3.09,-3.10,2.38,2.38,-2.37,-2.44,-1.61,-5.46,-5.47,-5.47
183.95,-3.04,-3.06,2.47,2.46,-2.44,-2.52,-1.69,-5.48,-5.49,-5.52
185.79,-3.03,-3.03,2.51,2.52,-2.51,-2.60,-1.77,-5.54,-5.53,-5.55
187.65,-3.01,-3.01,2.57,2.57,-2.57,-2.68,-1.85,-5.58,-5.59,-5.59
189.52,-2.99,-3.00,2.62,2.62,-2.64,-2.76,-1.93,-5.63,-5.64,-5.62
191.42,-2.98,-2.96,2.66,2.68,-2.70,-2.83,-2.01,-5.68,-5.66,-5.65
193.33,-2.92,-2.92,2.75,2.75,-2.76,-2.91,-2.09,-5.69,-5.68,-5.68
195.27,-2.86,-2.88,2.84,2.82,-2.83,-2.98,-2.18,-5.69,-5.71,-5.70
197.22,-2.84,-2.84,2.89,2.89,-2.89,-3.05,-2.26,-5.73,-5.73,-5.73
199.19,-2.83,-2.81,2.94,2.95,-2.95,-3.12,-2.35,-5.78,-5.76,-5.77
201.18,-2.76,-2.77,3.02,3.02,-3.02,-3.18,-2.43,-5.78,-5.78,-5.79
203.19,-2.71,-2.72,3.09,3.08,-3.08,-3.24,-2.52,-5.79,-5.80,-5.80
205.23,-2.68,-2.69,3.14,3.13,-3.13,-3.30,-2.60,-5.82,-5.82,-5.83
207.28,-2.66,-2.67,3.17,3.17,-3.18,-3.35,-2.69,-5.84,-5.85,-5.83
209.35,-2.66,-2.64,3.19,3.22,-3.22,-3.40,-2.77,-5.88,-5.86,-5.86
211.44,-2.60,-2.61,3.28,3.26,-3.26,-3.44,-2.85,-5.86,-5.87,-5.88
213.56,-2.57,-2.59,3.31,3.30,-3.28,-3.48,-2.94,-5.86,-5.87,-5.88
215.69,-2.57,-2.57,3.32,3.32,-3.31,-3.52,-3.02,-5.88,-5.88,-5.89
217.85,-2.58,-2.58,3.32,3.32,-3.32,-3.55,-3.10,-5.91,-5.90,-5.90
220.03,-2.58,-2.58,3.33,3.33,-3.34,-3.57,-3.17,-5.92,-5.92,-5.91
222.23,-2.58,-2.58,3.34,3.34,-3.35,-3.59,-3.25,-5.93,-5.93,-5.93
224.45,-2.57,-2.57,3.34,3.35,-3.36,-3.61,-3.32,-5.93,-5.93,-5.92
226.70,-2.54,-2.55,3.37,3.37,-3.37,-3.62,-3.39,-5.91,-5.92,-5.92
228.96,-2.53,-2.54,3.39,3.38,-3.39,-3.63,-3.45,-5.92,-5.92,-5.92
231.25,-2.52,-2.52,3.39,3.40,-3.40,-3.63,-3.51,-5.93,-5.92,-5.91
233.57,-2.50,-2.49,3.41,3.42,-3.42,-3.63,-3.57,-5.93,-5.92,-5.91
235.90,-2.45,-2.46,3.46,3.44,-3.44,-3.62,-3.62,-5.89,-5.90,-5.91
238.26,-2.43,-2.44,3.48,3.47,-3.46,-3.61,-3.66,-5.89,-5.90,-5.91
240.64,-2.42,-2.42,3.47,3.48,-3.47,-3.60,-3.70,-5.89,-5.89,-5.90
243.05,-2.41,-2.41,3.47,3.48,-3.48,-3.58,-3.74,-5.89,-5.88,-5.89
245.48,-2.38,-2.40,3.49,3.48,-3.48,-3.56,-3.77,-5.86,-5.88,-5.87
247.93,-2.39,-2.39,3.47,3.48,-3.48,-3.53,-3.79,-5.87,-5.87,-5.86
250.41,-2.39,-2.38,3.47,3.47,-3.47,-3.51,-3.81,-5.86,-5.85,-5.86
252.92,-2.37,-2.38,3.46,3.46,-3.46,-3.48,-3.82,-5.83,-5.84,-5.84
255.45,-2.37,-2.38,3.44,3.44,-3.44,-3.45,-3.82,-5.81,-5.82,-5.82
258.00,-2.39,-2.38,3.41,3.42,-3.42,-3.41,-3.82,-5.81,-5.81,-5.80
260.58,-2.39,-2.39,3.40,3.39,-3.40,-3.38,-3.81,-5.79,-5.79,-5.79
263.19,-2.39,-2.39,3.37,3.38,-3.37,-3.34,-3.80,-5.76,-5.76,-5.77
265.82,-2.39,-2.39,3.36,3.35,-3.34,-3.30,-3.79,-5.73,-5.74,-5.75
268.48,-2.40,-2.41,3.33,3.32,-3.31,-3.27,-3.76,-5.71,-5.72,-5.73
271.16,-2.42,-2.43,3.28,3.28,-3.28,-3.23,-3.74,-5.70,-5.71,-5.70
273.87,-2.45,-2.45,3.24,3.24,-3.25,-3.19,-3.71,-5.70,-5.70,-5.69
276.61,-2.46,-2.46,3.20,3.21,-3.23,-3.15,-3.67,-5.69,-5.68,-5.67
279.38,-2.46,-2.46,3.19,3.19,-3.20,-3.11,-3.63,-5.67,-5.67,-5.65
282.17,-2.45,-2.46,3.18,3.17,-3.18,-3.07,-3.59,-5.64,-5.64,-5.64
284.99,-2.45,-2.45,3.16,3.16,-3.17,-3.03,-3.55,-5.62,-5.62,-5.61
287.84,-2.44,-2.44,3.15,3.15,-3.15,-2.99,-3.50,-5.59,-5.59,-5.60
290.72,-2.43,-2.43,3.14,3.14,-3.13,-2.96,-3.46,-5.56,-5.56,-5.57
293.63,-2.42,-2.43,3.13,3.12,-3.11,-2.92,-3.41,-5.54,-5.54,-5.55
296.57,-2.42,-2.44,3.11,3.10,-3.09,-2.88,-3.36,-5.51,-5.52,-5.53
299.53,-2.46,-2.45,3.05,3.06,-3.06,-2.85,-3.31,-5.52,-5.51,-5.51
302.53,-2.47,-2.47,3.02,3.02,-3.02,-2.81,-3.26,-5.49,-5.49,-5.50
305.55,-2.48,-2.49,2.98,2.98,-2.98,-2.78,-3.21,-5.46,-5.47,-5.46
308.61,-2.51,-2.50,2.93,2.94,-2.94,-2.75,-3.16,-5.45,-5.44,-5.44
311.69,-2.51,-2.52,2.90,2.89,-2.89,-2.72,-3.11,-5.41,-5.42,-5.42
314.81,-2.53,-2.55,2.85,2.84,-2.85,-2.68,-3.06,-5.38,-5.40,-5.38
317.96,-2.59,-2.57,2.77,2.79,-2.80,-2.66,-3.01,-5.39,-5.37,-5.36
321.14,-2.61,-2.60,2.73,2.75,-2.75,-2.63,-2.96,-5.36,-5.34,-5.35
324.35,-2.60,-2.62,2.73,2.70,-2.69,-2.60,-2.92,-5.29,-5.31,-5.33
327.59,-2.64,-2.66,2.66,2.65,-2.63,-2.58,-2.87,-5.27,-5.29,-5.30
330.87,-2.72,-2.71,2.56,2.58,-2.57,-2.55,-2.83,-5.29,-5.27,-5.29
334.18,-2.76,-2.77,2.51,2.50,-2.51,-2.53,-2.79,-5.27,-5.27,-5.27
337.52,-2.81,-2.81,2.44,2.44,-2.45,-2.51,-2.75,-5.26,-5.26,-5.25
340.90,-2.85,-2.85,2.37,2.38,-2.38,-2.49,-2.72,-5.24,-5.23,-5.22
344.30,-2.88,-2.89,2.32,2.32,-2.32,-2.47,-2.68,-5.21,-5.21,-5.21
347.75,-2.92,-2.92,2.27,2.27,-2.27,-2.45,-2.65,-5.19,-5.18,-5.19
351.23,-2.94,-2.95,2.23,2.23,-2.22,-2.43,-2.62,-5.16,-5.16,-5.17
354.74,-2.96,-2.97,2.19,2.18,-2.18,-2.42,-2.59,-5.14,-5.15,-5.15
358.28,-3.00,-2.99,2.13,2.14,-2.15,-2.40,-2.56,-5.15,-5.14,-5.14
361.87,-3.00,-3.00,2.11,2.12,-2.13,-2.39,-2.53,-5.13,-5.13,-5.12
365.49,-2.99,-3.00,2.12,2.11,-2.12,-2.38,-2.51,-5.11,-5.12,-5.11
369.14,-2.98,-3.00,2.12,2.10,-2.11,-2.36,-2.49,-5.10,-5.11,-5.10
372.83,-2.99,-2.97,2.09,2.11,-2.12,-2.35,-2.47,-5.11,-5.09,-5.08
376.56,-2.96,-2.93,2.11,2.13,-2.13,-2.35,-2.45,-5.09,-5.06,-5.07
380.33,-2.85,-2.89,2.19,2.16,-2.15,-2.34,-2.44,-5.00,-5.04,-5.05
384.13,-2.84,-2.85,2.19,2.19,-2.18,-2.33,-2.43,-5.02,-5.03,-5.04
387.97,-2.84,-2.83,2.19,2.20,-2.21,-2.32,-2.42,-5.06,-5.04,-5.03
391.85,-2.81,-2.80,2.21,2.22,-2.24,-2.32,-2.41,-5.06,-5.05,-5.02
395.77,-2.74,-2.74,2.26,2.26,-2.27,-2.32,-2.40,-5.01,-5.01,-5.00
399.73,-2.68,-2.68,2.31,2.32,-2.28,-2.31,-2.39,-4.97,-4.96,-4.99
403.72,-2.61,-2.63,2.37,2.35,-2.30,-2.31,-2.39,-4.91,-4.93,-4.99
