frequency,raw
20.00,2.45
20.20,2.50
20.40,2.55
20.61,2.60
20.81,2.65
21.02,2.69
21.23,2.74
21.44,2.79
21.66,2.84
21.87,2.89
22.09,2.94
22.31,2.99
22.54,3.04
22.76,3.10
22.99,3.15
23.22,3.20
23.45,3.26
23.69,3.31
23.92,3.36
24.16,3.42
24.40,3.47
24.65,3.52
24.89,3.58
25.14,3.63
25.39,3.68
25.65,3.74
25.91,3.79
26.16,3.84
26.43,3.90
26.69,3.95
26.96,4.00
27.23,4.05
27.50,4.10
27.77,4.15
28.05,4.20
28.33,4.25
28.62,4.30
28.90,4.34
29.19,4.39
29.48,4.44
29.78,4.49
30.08,4.54
30.38,4.58
30.68,4.63
30.99,4.67
31.30,4.70
31.61,4.73
31.93,4.76
32.24,4.79
32.57,4.83
32.89,4.86
33.22,4.89
33.55,4.91
33.89,4.94
34.23,4.97
34.57,4.99
34.92,5.01
35.27,5.04
35.62,5.07
35.97,5.10
36.33,5.12
36.70,5.14
37.06,5.16
37.43,5.19
37.81,5.21
38.19,5.23
38.57,5.25
38.95,5.27
39.34,5.29
39.74,5.31
40.14,5.33
40.54,5.34
40.94,5.36
41.35,5.37
41.76,5.39
42.18,5.41
42.60,5.42
43.03,5.44
43.46,5.45
43.90,5.47
44.33,5.48
44.78,5.49
45.23,5.49
45.68,5.50
46.13,5.51
46.60,5.52
47.06,5.53
47.53,5.54
48.01,5.54
48.49,5.54
48.97,5.54
49.46,5.54
49.96,5.55
50.46,5.55
50.96,5.55
51.47,5.55
51.99,5.55
52.51,5.54
53.03,5.54
53.56,5.53
54.10,5.53
54.64,5.52
55.18,5.52
55.74,5.51
56.29,5.51
56.86,5.50
57.42,5.49
58.00,5.48
58.58,5.47
59.16,5.47
59.76,5.45
60.35,5.45
60.96,5.44
61.57,5.43
62.18,5.43
62.80,5.43
63.43,5.43
64.07,5.43
64.71,5.42
65.35,5.40
66.01,5.37
66.67,5.34
67.33,5.31
68.01,5.28
68.69,5.25
69.37,5.21
70.07,5.18
70.77,5.15
71.48,5.12
72.19,5.09
72.91,5.07
73.64,5.06
74.38,5.04
75.12,5.01
75.87,4.98
76.63,4.94
77.40,4.90
78.17,4.87
78.95,4.84
79.74,4.81
80.54,4.78
81.35,4.76
82.16,4.72
82.98,4.68
83.81,4.65
84.65,4.61
85.50,4.57
86.35,4.52
87.22,4.48
88.09,4.44
88.97,4.41
89.86,4.37
90.76,4.32
91.66,4.28
92.58,4.24
93.51,4.19
94.44,4.15
95.39,4.10
96.34,4.07
97.30,4.02
98.28,3.98
99.26,3.93
100.25,3.87
101.25,3.81
102.27,3.75
103.29,3.70
104.32,3.65
105.37,3.61
106.42,3.57
107.48,3.53
108.56,3.49
109.64,3.45
110.74,3.41
111.85,3.36
112.97,3.31
114.10,3.26
115.24,3.21
116.39,3.15
117.55,3.09
118.73,3.04
119.92,3.00
121.12,2.97
122.33,2.94
123.55,2.91
124.79,2.87
126.03,2.82
127.29,2.76
128.57,2.69
129.85,2.62
131.15,2.56
132.46,2.51
133.79,2.47
135.12,2.45
136.48,2.41
137.84,2.37
139.22,2.31
140.61,2.24
142.02,2.18
143.44,2.12
144.87,2.07
146.32,2.03
147.78,1.99
149.26,1.96
150.75,1.92
152.26,1.87
153.78,1.81
155.32,1.74
156.88,1.67
158.44,1.61
160.03,1.56
161.63,1.51
163.24,1.48
164.88,1.43
166.53,1.38
168.19,1.33
169.87,1.27
171.57,1.19
173.29,1.12
175.02,1.06
176.77,1.00
178.54,0.93
180.32,0.86
182.13,0.81
183.95,0.76
185.79,0.73
187.65,0.70
189.52,0.65
191.42,0.59
193.33,0.52
195.27,0.46
197.22,0.38
199.19,0.30
201.18,0.23
203.19,0.16
205.23,0.10
207.28,0.04
209.35,-0.02
211.44,-0.09
213.56,-0.15
215.69,-0.20
217.85,-0.27
220.03,-0.32
222.23,-0.39
224.45,-0.47
226.70,-0.54
228.96,-0.62
231.25,-0.68
233.57,-0.75
235.90,-0.80
238.26,-0.85
240.64,-0.90
243.05,-0.96
245.48,-1.02
247.93,-1.07
250.41,-1.13
252.92,-1.19
255.45,-1.25
258.00,-1.31
260.58,-1.36
263.19,-1.42
265.82,-1.49
268.48,-1.55
271.16,-1.61
273.87,-1.68
276.61,-1.74
279.38,-1.81
282.17,-1.88
284.99,-1.95
287.84,-2.03
290.72,-2.11
293.63,-2.19
296.57,-2.27
299.53,-2.36
302.53,-2.45
305.55,-2.54
308.61,-2.63
311.69,-2.73
314.81,-2.82
317.96,-2.92
321.14,-3.02
324.35,-3.12
327.59,-3.22
330.87,-3.31
334.18,-3.41
337.52,-3.51
340.90,-3.61
344.30,-3.72
347.75,-3.83
351.23,-3.94
354.74,-4.05
358.28,-4.16
361.87,-4.27
365.49,-4.37
369.14,-4.48
372.83,-4.57
376.56,-4.66
380.33,-4.74
384.13,-4.80
387.97,-4.86
391.85,-4.92
395.77,-4.95
399.73,-4.97
403.72,-4.98
407.76,-4.98
411.84,-4.96
415.96,-4.92
420.12,-4.88
424.32,-4.81
428.56,-4.74
432.85,-4.66
437.18,-4.57
441.55,-4.47
445.96,-4.37
450.42,-4.23
454.93,-4.06
459.48,-3.88
464.07,-3.67
468.71,-3.47
473.40,-3.28
478.13,-3.10
482.91,-2.94
487.74,-2.80
492.62,-2.66
497.55,-2.52
502.52,-2.39
507.55,-2.26
512.62,-2.13
517.75,-2.02
522.93,-1.92
528.16,-1.83
533.44,-1.76
538.77,-1.69
544.16,-1.65
549.60,-1.61
555.10,-1.58
560.65,-1.55
566.25,-1.55
571.92,-1.55
577.64,-1.56
583.41,-1.57
589.25,-1.60
595.14,-1.63
601.09,-1.67
607.10,-1.69
613.17,-1.71
619.30,-1.73
625.50,-1.75
631.75,-1.77
638.07,-1.77
644.45,-1.78
650.89,-1.78
657.40,-1.79
663.98,-1.79
670.62,-1.78
677.32,-1.78
684.10,-1.77
690.94,-1.75
697.85,-1.74
704.83,-1.72
711.87,-1.68
718.99,-1.66
726.18,-1.61
733.44,-1.54
740.78,-1.47
748.19,-1.40
755.67,-1.32
763.23,-1.26
770.86,-1.19
778.57,-1.13
786.35,-1.06
794.22,-1.00
802.16,-0.96
810.18,-0.90
818.28,-0.86
826.46,-0.83
834.73,-0.78
843.08,-0.73
851.51,-0.67
860.02,-0.62
868.62,-0.57
877.31,-0.53
886.08,-0.49
894.94,-0.46
903.89,-0.44
912.93,-0.41
922.06,-0.39
931.28,-0.36
940.59,-0.32
950.00,-0.27
959.50,-0.23
969.09,-0.17
978.78,-0.11
988.57,-0.05
998.46,-0.01
1008.44,0.02
1018.53,0.03
1028.71,0.03
1039.00,0.00
1049.39,-0.03
1059.88,-0.06
1070.48,-0.09
1081.19,-0.12
1092.00,-0.15
1102.92,-0.19
1113.95,-0.22
1125.09,-0.26
1136.34,-0.30
1147.70,-0.34
1159.18,-0.37
1170.77,-0.40
1182.48,-0.43
1194.30,-0.45
1206.25,-0.47
1218.31,-0.49
1230.49,-0.53
1242.80,-0.57
1255.22,-0.62
1267.78,-0.66
1280.45,-0.71
1293.26,-0.77
1306.19,-0.83
1319.25,-0.89
1332.45,-0.96
1345.77,-1.02
1359.23,-1.09
1372.82,-1.15
1386.55,-1.22
1400.41,-1.27
1414.42,-1.32
1428.56,-1.36
1442.85,-1.40
1457.28,-1.45
1471.85,-1.49
1486.57,-1.55
1501.43,-1.61
1516.45,-1.67
1531.61,-1.74
1546.93,-1.83
1562.40,-1.94
1578.02,-2.06
1593.80,-2.19
1609.74,-2.34
1625.84,-2.47
1642.10,-2.55
1658.52,-2.62
1675.10,-2.63
1691.85,-2.61
1708.77,-2.59
1725.86,-2.57
1743.12,-2.54
1760.55,-2.52
1778.15,-2.51
1795.94,-2.51
1813.90,-2.51
1832.03,-2.51
1850.36,-2.51
1868.86,-2.49
1887.55,-2.45
1906.42,-2.41
1925.49,-2.35
1944.74,-2.30
1964.19,-2.25
1983.83,-2.20
2003.67,-2.14
2023.71,-2.07
2043.94,-2.01
2064.38,-1.94
2085.03,-1.87
2105.88,-1.81
2126.94,-1.74
2148.20,-1.66
2169.69,-1.57
2191.38,-1.48
2213.30,-1.37
2235.43,-1.25
2257.78,-1.13
2280.36,-1.00
2303.17,-0.88
2326.20,-0.75
2349.46,-0.63
2372.95,-0.51
2396.68,-0.36
2420.65,-0.20
2444.86,-0.03
2469.31,0.17
2494.00,0.39
2518.94,0.60
2544.13,0.83
2569.57,1.07
2595.27,1.31
2621.22,1.53
2647.43,1.71
2673.90,1.87
2700.64,1.99
2727.65,2.05
2754.93,2.08
2782.48,2.09
2810.30,2.07
2838.40,2.05
2866.79,2.03
2895.46,2.05
2924.41,2.11
2953.65,2.19
2983.19,2.31
3013.02,2.44
3043.15,2.57
3073.58,2.68
3104.32,2.76
3135.36,2.84
3166.72,2.87
3198.38,2.89
3230.37,2.89
3262.67,2.87
3295.30,2.82
3328.25,2.74
3361.53,2.65
3395.15,2.53
3429.10,2.42
3463.39,2.30
3498.03,2.21
3533.01,2.15
3568.34,2.14
3604.02,2.21
3640.06,2.39
3676.46,2.65
3713.22,2.99
3750.36,3.41
3787.86,3.86
3825.74,4.32
3864.00,4.74
3902.64,5.10
3941.66,5.42
3981.08,5.68
4020.89,5.90
4061.10,6.11
4101.71,6.26
4142.73,6.37
4184.15,6.42
4226.00,6.40
4268.26,6.28
4310.94,6.12
4354.05,5.92
4397.59,5.67
4441.56,5.41
4485.98,5.13
4530.84,4.88
4576.15,4.66
4621.91,4.49
4668.13,4.41
4714.81,4.36
4761.96,4.33
4809.58,4.30
4857.67,4.26
4906.25,4.20
4955.31,4.12
5004.87,4.06
5054.91,4.04
5105.46,4.04
5156.52,4.05
5208.08,4.07
5260.16,4.06
5312.77,4.03
5365.89,3.99
5419.55,3.94
5473.75,3.89
5528.49,3.84
5583.77,3.79
5639.61,3.72
5696.00,3.63
5752.96,3.54
5810.49,3.44
5868.60,3.37
5927.28,3.33
5986.56,3.30
6046.42,3.34
6106.89,3.41
6167.96,3.53
6229.64,3.73
6291.93,3.96
6354.85,4.21
6418.40,4.48
6482.58,4.66
6547.41,4.76
6612.88,4.71
6679.01,4.47
6745.80,4.12
6813.26,3.66
6881.39,3.12
6950.21,2.57
7019.71,2.04
7089.91,1.57
7160.81,1.17
7232.41,0.81
7304.74,0.51
7377.79,0.26
7451.56,0.05
7526.08,-0.11
7601.34,-0.25
7677.35,-0.36
7754.13,-0.45
7831.67,-0.51
7909.98,-0.54
7989.08,-0.54
8068.98,-0.43
8149.67,-0.22
8231.16,0.07
8313.47,0.51
8396.61,1.02
8480.57,1.56
8565.38,2.10
8651.03,2.55
8737.54,2.87
8824.92,2.99
8913.17,3.04
9002.30,2.90
9092.32,2.40
9183.25,1.89
9275.08,1.43
9367.83,0.54
9461.51,-0.50
9556.12,-1.46
9651.68,-2.37
9748.20,-3.30
9845.68,-4.26
9944.14,-5.23
10043.58,-6.15
10144.02,-6.98
10245.46,-7.69
10347.91,-8.28
10451.39,-8.68
10555.91,-8.87
10661.46,-8.84
10768.08,-8.62
10875.76,-8.32
10984.52,-7.99
11094.36,-7.63
11205.31,-7.26
11317.36,-6.79
11430.53,-6.28
11544.84,-6.37
11660.29,-6.81
11776.89,-6.80
11894.66,-7.07
12013.60,-7.63
12133.74,-7.98
12255.08,-8.53
12377.63,-9.17
12501.41,-9.74
12626.42,-10.22
12752.68,-10.65
12880.21,-11.00
13009.01,-11.24
13139.10,-11.39
13270.49,-11.40
13403.20,-11.30
13537.23,-11.24
13672.60,-11.25
13809.33,-11.46
13947.42,-11.75
14086.90,-12.08
14227.77,-12.45
14370.04,-12.90
14513.74,-13.46
14658.88,-14.14
14805.47,-15.09
14953.52,-16.21
15103.06,-17.45
15254.09,-18.75
15406.63,-19.90
15560.70,-20.84
15716.30,-21.40
15873.47,-21.54
16032.20,-21.39
16192.52,-21.01
16354.45,-20.43
16517.99,-19.75
16683.17,-19.00
16850.01,-18.19
17018.51,-17.39
17188.69,-16.59
17360.58,-15.89
17534.18,-15.34
17709.53,-14.93
17886.62,-14.80
18065.49,-14.87
18246.14,-15.09
18428.60,-15.39
18612.89,-15.68
18799.02,-15.91
18987.01,-16.05
19176.88,-16.10
19368.65,-16.08
19562.33,-16.03
19757.96,-15.90
19955.54,-15.74
