frequency,raw,error,smoothed,error_smoothed,equalization,parametric_eq,equalized_raw,equalized_smoothed,target
20,0.44,-1.30,0.43,-1.32,1.32,-2.47,1.76,1.74,1.74
21,1.40,-0.34,1.38,-0.36,0.36,-2.82,1.77,1.74,1.74
22,2.23,0.49,2.28,0.54,-0.54,-3.21,1.69,1.74,1.74
23,3.08,1.35,3.13,1.39,-1.39,-3.63,1.69,1.74,1.74
24,3.94,2.21,3.92,2.18,-2.18,-4.07,1.76,1.74,1.74
25,4.62,2.89,4.66,2.93,-2.93,-4.52,1.70,1.73,1.73
26,5.34,3.61,5.35,3.62,-3.62,-4.98,1.73,1.73,1.73
27,5.98,4.26,5.98,4.25,-4.25,-5.41,1.73,1.73,1.73
28,6.52,4.80,6.55,4.82,-4.82,-5.80,1.70,1.72,1.72
29,7.09,5.38,7.05,5.34,-5.34,-6.12,1.76,1.72,1.72
30,7.51,5.80,7.50,5.78,-5.78,-6.35,1.73,1.71,1.71
31,7.90,6.20,7.87,6.16,-6.16,-6.48,1.74,1.71,1.71
32,8.23,6.53,8.18,6.48,-6.48,-6.53,1.75,1.70,1.70
33,8.42,6.73,8.43,6.73,-6.73,-6.49,1.69,1.70,1.70
34,8.60,6.92,8.62,6.93,-6.93,-6.39,1.67,1.69,1.69
35,8.75,7.07,8.75,7.07,-7.07,-6.24,1.68,1.68,1.68
36,8.82,7.15,8.83,7.16,-7.16,-6.08,1.66,1.67,1.67
37,8.83,7.17,8.87,7.21,-7.21,-5.91,1.63,1.66,1.66
38,8.86,7.21,8.87,7.21,-7.21,-5.74,1.65,1.65,1.65
39,8.85,7.21,8.82,7.18,-7.18,-5.59,1.68,1.64,1.64
40,8.74,7.11,8.75,7.11,-7.11,-5.46,1.63,1.63,1.63
41,8.67,7.05,8.64,7.01,-7.01,-5.35,1.66,1.62,1.62
42,8.52,6.91,8.50,6.89,-6.89,-5.26,1.63,1.61,1.61
43,8.33,6.74,8.35,6.75,-6.75,-5.19,1.59,1.60,1.60
44,8.16,6.58,8.17,6.59,-6.59,-5.15,1.57,1.58,1.58
45,7.97,6.40,7.99,6.43,-6.43,-5.12,1.55,1.57,1.57
46,7.82,6.27,7.81,6.26,-6.26,-5.12,1.56,1.55,1.55
47,7.60,6.07,7.64,6.10,-6.10,-5.13,1.51,1.54,1.54
48,7.46,5.94,7.47,5.95,-5.95,-5.16,1.52,1.52,1.52
49,7.30,5.80,7.31,5.81,-5.81,-5.21,1.49,1.50,1.50
50,7.15,5.67,7.18,5.69,-5.69,-5.26,1.46,1.48,1.48
51,7.06,5.60,7.06,5.60,-5.60,-5.33,1.47,1.46,1.46
52,6.95,5.51,6.96,5.52,-5.52,-5.40,1.44,1.44,1.44
53,6.84,5.42,6.88,5.46,-5.46,-5.47,1.38,1.42,1.42
54,6.82,5.43,6.82,5.42,-5.42,-5.55,1.40,1.40,1.40
55,6.77,5.40,6.78,5.40,-5.40,-5.63,1.37,1.38,1.38
56,6.77,5.42,6.75,5.40,-5.40,-5.71,1.37,1.35,1.35
57,6.70,5.38,6.73,5.41,-5.41,-5.78,1.30,1.33,1.33
58,6.73,5.43,6.73,5.43,-5.43,-5.84,1.31,1.30,1.30
59,6.77,5.50,6.73,5.46,-5.46,-5.90,1.32,1.27,1.27
60,6.73,5.49,6.74,5.49,-5.49,-5.95,1.24,1.24,1.24
61,6.73,5.52,6.75,5.53,-5.53,-5.99,1.20,1.22,1.22
62,6.77,5.59,6.77,5.58,-5.58,-6.01,1.19,1.19,1.19
63,6.76,5.61,6.79,5.63,-5.63,-6.03,1.13,1.16,1.16
64,6.80,5.68,6.81,5.69,-5.69,-6.04,1.12,1.12,1.12
65,6.82,5.73,6.83,5.74,-5.74,-6.04,1.09,1.09,1.09
66,6.82,5.77,6.85,5.79,-5.79,-6.03,1.04,1.06,1.06
67,6.89,5.87,6.86,5.83,-5.83,-6.01,1.06,1.02,1.02
68,6.88,5.89,6.86,5.87,-5.87,-5.99,1.02,0.99,0.99
69,6.85,5.90,6.85,5.89,-5.89,-5.97,0.96,0.95,0.95
70,6.86,5.95,6.82,5.91,-5.91,-5.94,0.96,0.92,0.92
71,6.81,5.93,6.80,5.91,-5.91,-5.92,0.90,0.88,0.88
72,6.75,5.91,6.76,5.91,-5.91,-5.89,0.84,0.84,0.84
73,6.68,5.88,6.72,5.91,-5.91,-5.86,0.77,0.81,0.81
74,6.63,5.87,6.68,5.91,-5.91,-5.84,0.72,0.77,0.77
75,6.63,5.90,6.64,5.91,-5.91,-5.82,0.72,0.73,0.73
76,6.61,5.92,6.60,5.91,-5.91,-5.80,0.70,0.69,0.69
77,6.57,5.92,6.57,5.92,-5.92,-5.79,0.65,0.65,0.65
78,6.54,5.93,6.54,5.93,-5.93,-5.78,0.62,0.61,0.61
79,6.50,5.93,6.51,5.94,-5.94,-5.78,0.57,0.57,0.57
80,6.47,5.94,6.48,5.95,-5.95,-5.78,0.53,0.53,0.53
81,6.45,5.97,6.45,5.96,-5.96,-5.79,0.50,0.49,0.49
82,6.45,6.01,6.42,5.97,-5.97,-5.80,0.49,0.45,0.45
83,6.37,5.97,6.38,5.98,-5.98,-5.82,0.40,0.41,0.41
84,6.34,5.98,6.35,5.99,-5.99,-5.84,0.35,0.36,0.36
85,6.30,5.98,6.33,6.00,-6.00,-5.87,0.30,0.32,0.32
86,6.28,6.00,6.30,6.02,-6.02,-5.91,0.26,0.28,0.28
87,6.28,6.04,6.28,6.04,-6.04,-5.95,0.24,0.24,0.24
88,6.28,6.09,6.26,6.06,-6.06,-5.99,0.22,0.20,0.20
89,6.24,6.09,6.24,6.09,-6.09,-6.05,0.16,0.16,0.16
90,6.21,6.10,6.23,6.11,-6.11,-6.10,0.10,0.12,0.12
91,6.21,6.14,6.21,6.14,-6.14,-6.16,0.07,0.07,0.07
92,6.18,6.15,6.20,6.17,-6.17,-6.23,0.02,0.03,0.03
93,6.21,6.22,6.18,6.19,-6.19,-6.30,0.02,-0.01,-0.01
94,6.19,6.24,6.17,6.21,-6.21,-6.37,-0.02,-0.05,-0.05
95,6.15,6.24,6.15,6.24,-6.24,-6.45,-0.09,-0.09,-0.09
96,6.11,6.24,6.14,6.27,-6.27,-6.54,-0.15,-0.13,-0.13
97,6.12,6.29,6.13,6.30,-6.30,-6.62,-0.17,-0.17,-0.17
98,6.11,6.32,6.12,6.33,-6.33,-6.71,-0.22,-0.21,-0.21
99,6.11,6.36,6.12,6.37,-6.37,-6.80,-0.26,-0.25,-0.25
100,6.11,6.40,6.12,6.41,-6.41,-6.90,-0.30,-0.29,-0.29
101,6.14,6.47,6.13,6.46,-6.46,-6.99,-0.32,-0.33,-0.32
102,6.11,6.48,6.13,6.51,-6.51,-7.09,-0.40,-0.38,-0.36
104,6.15,6.59,6.14,6.56,-6.56,-7.29,-0.41,-0.42,-0.44
105,6.19,6.67,6.15,6.61,-6.61,-7.39,-0.42,-0.46,-0.47
106,6.16,6.67,6.16,6.66,-6.66,-7.49,-0.50,-0.50,-0.51
107,6.12,6.67,6.17,6.71,-6.71,-7.58,-0.59,-0.54,-0.54
108,6.20,6.78,6.18,6.76,-6.76,-7.68,-0.55,-0.58,-0.58
109,6.19,6.81,6.19,6.81,-6.81,-7.78,-0.61,-0.61,-0.61
110,6.17,6.82,6.21,6.86,-6.86,-7.87,-0.68,-0.65,-0.65
111,6.23,6.91,6.23,6.91,-6.91,-7.96,-0.67,-0.68,-0.68
112,6.25,6.97,6.25,6.96,-6.96,-8.05,-0.71,-0.72,-0.71
113,6.28,7.03,6.27,7.02,-7.02,-8.13,-0.74,-0.75,-0.75
114,6.29,7.07,6.30,7.08,-7.08,-8.21,-0.79,-0.78,-0.78
115,6.29,7.10,6.33,7.15,-7.15,-8.29,-0.85,-0.82,-0.81
117,6.37,7.24,6.35,7.21,-7.21,-8.42,-0.83,-0.85,-0.87
118,6.41,7.31,6.38,7.27,-7.27,-8.48,-0.86,-0.89,-0.90
119,6.43,7.36,6.41,7.33,-7.33,-8.54,-0.90,-0.93,-0.93
120,6.42,7.38,6.44,7.40,-7.40,-8.58,-0.97,-0.96,-0.96
121,6.41,7.40,6.47,7.46,-7.46,-8.63,-1.05,-0.99,-0.98
123,6.50,7.54,6.50,7.53,-7.53,-8.69,-1.02,-1.03,-1.04
124,6.53,7.60,6.53,7.59,-7.59,-8.71,-1.06,-1.06,-1.06
125,6.56,7.65,6.56,7.66,-7.66,-8.73,-1.09,-1.09,-1.09
126,6.58,7.70,6.60,7.72,-7.72,-8.74,-1.14,-1.12,-1.11
128,6.68,7.85,6.63,7.78,-7.78,-8.74,-1.10,-1.15,-1.16
129,6.67,7.86,6.66,7.85,-7.85,-8.73,-1.17,-1.18,-1.19
130,6.68,7.89,6.69,7.91,-7.91,-8.72,-1.22,-1.21,-1.21
131,6.69,7.93,6.73,7.97,-7.97,-8.70,-1.27,-1.24,-1.23
133,6.77,8.05,6.76,8.03,-8.03,-8.65,-1.25,-1.27,-1.27
134,6.78,8.08,6.79,8.09,-8.09,-8.62,-1.30,-1.30,-1.30
135,6.80,8.12,6.82,8.15,-8.15,-8.58,-1.34,-1.32,-1.32
137,6.86,8.22,6.86,8.21,-8.21,-8.50,-1.34,-1.35,-1.36
138,6.89,8.27,6.89,8.27,-8.27,-8.46,-1.38,-1.38,-1.38
140,6.95,8.37,6.93,8.33,-8.33,-8.37,-1.38,-1.40,-1.41
141,6.96,8.39,6.96,8.39,-8.39,-8.33,-1.43,-1.43,-1.43
142,6.98,8.43,7.00,8.45,-8.45,-8.28,-1.47,-1.45,-1.45
144,7.02,8.51,7.03,8.51,-8.51,-8.18,-1.49,-1.48,-1.48
145,7.06,8.56,7.07,8.57,-8.57,-8.13,-1.51,-1.50,-1.50
147,7.08,8.61,7.10,8.63,-8.63,-8.04,-1.55,-1.53,-1.53
148,7.15,8.70,7.14,8.69,-8.69,-7.99,-1.53,-1.55,-1.55
150,7.18,8.76,7.18,8.75,-8.75,-7.90,-1.56,-1.57,-1.57
151,7.22,8.81,7.21,8.80,-8.80,-7.85,-1.58,-1.59,-1.59
153,7.24,8.86,7.25,8.86,-8.86,-7.77,-1.61,-1.61,-1.62
154,7.27,8.90,7.28,8.91,-8.91,-7.72,-1.64,-1.63,-1.63
156,7.31,8.97,7.31,8.96,-8.96,-7.65,-1.65,-1.65,-1.65
157,7.32,8.99,7.34,9.01,-9.01,-7.61,-1.69,-1.67,-1.67
159,7.38,9.07,7.37,9.06,-9.06,-7.54,-1.68,-1.69,-1.69
160,7.39,9.10,7.40,9.11,-9.11,-7.51,-1.72,-1.71,-1.70
162,7.44,9.17,7.43,9.16,-9.16,-7.46,-1.71,-1.72,-1.72
164,7.44,9.19,7.46,9.20,-9.20,-7.41,-1.76,-1.74,-1.75
165,7.48,9.24,7.49,9.24,-9.24,-7.39,-1.76,-1.76,-1.76
167,7.52,9.30,7.51,9.28,-9.28,-7.35,-1.76,-1.77,-1.78
169,7.52,9.32,7.53,9.32,-9.32,-7.32,-1.80,-1.79,-1.79
170,7.55,9.36,7.55,9.36,-9.36,-7.31,-1.80,-1.81,-1.80
172,7.56,9.38,7.56,9.38,-9.38,-7.29,-1.82,-1.82,-1.82
174,7.56,9.40,7.57,9.41,-9.41,-7.28,-1.85,-1.83,-1.84
175,7.58,9.43,7.58,9.43,-9.43,-7.28,-1.84,-1.85,-1.85
177,7.59,9.45,7.58,9.44,-9.44,-7.28,-1.85,-1.86,-1.86
179,7.57,9.45,7.57,9.45,-9.45,-7.29,-1.88,-1.87,-1.88
181,7.54,9.43,7.56,9.45,-9.45,-7.31,-1.91,-1.89,-1.89
183,7.55,9.46,7.55,9.45,-9.45,-7.33,-1.89,-1.90,-1.90
184,7.54,9.45,7.52,9.43,-9.43,-7.34,-1.89,-1.91,-1.91
186,7.51,9.44,7.49,9.42,-9.42,-7.37,-1.90,-1.92,-1.92
188,7.45,9.39,7.46,9.39,-9.39,-7.40,-1.94,-1.93,-1.93
190,7.39,9.34,7.42,9.37,-9.37,-7.44,-1.97,-1.95,-1.95
192,7.37,9.33,7.38,9.34,-9.34,-7.49,-1.97,-1.96,-1.96
194,7.34,9.31,7.34,9.31,-9.31,-7.54,-1.97,-1.97,-1.97
196,7.31,9.29,7.30,9.28,-9.28,-7.60,-1.97,-1.98,-1.98
198,7.26,9.25,7.26,9.25,-9.25,-7.65,-1.99,-1.99,-1.99
200,7.21,9.21,7.22,9.22,-9.22,-7.72,-2.01,-2.00,-2.00
202,7.18,9.19,7.19,9.19,-9.19,-7.78,-2.01,-2.01,-2.01
204,7.15,9.17,7.15,9.16,-9.16,-7.85,-2.01,-2.01,-2.01
206,7.13,9.16,7.11,9.13,-9.13,-7.92,-2.00,-2.02,-2.02
208,7.04,9.07,7.08,9.11,-9.11,-7.99,-2.06,-2.03,-2.03
210,7.01,9.05,7.04,9.08,-9.08,-8.06,-2.07,-2.04,-2.04
212,7.00,9.05,7.01,9.06,-9.06,-8.13,-2.05,-2.04,-2.04
214,6.98,9.04,6.97,9.03,-9.03,-8.20,-2.04,-2.05,-2.05
216,6.97,9.03,6.94,8.99,-8.99,-8.27,-2.02,-2.06,-2.06
218,6.92,8.99,6.89,8.96,-8.96,-8.34,-2.03,-2.06,-2.06
221,6.79,8.87,6.84,8.91,-8.91,-8.44,-2.12,-2.07,-2.07
223,6.78,8.86,6.78,8.86,-8.86,-8.51,-2.08,-2.08,-2.08
225,6.75,8.84,6.72,8.81,-8.81,-8.57,-2.05,-2.08,-2.08
227,6.64,8.73,6.65,8.74,-8.74,-8.63,-2.10,-2.09,-2.09
229,6.59,8.69,6.58,8.67,-8.67,-8.68,-2.08,-2.10,-2.09
232,6.47,8.58,6.50,8.60,-8.60,-8.75,-2.12,-2.10,-2.10
234,6.40,8.51,6.41,8.52,-8.52,-8.79,-2.12,-2.11,-2.11
236,6.34,8.45,6.33,8.44,-8.44,-8.82,-2.09,-2.11,-2.11
239,6.21,8.33,6.24,8.35,-8.35,-8.86,-2.14,-2.12,-2.12
241,6.15,8.27,6.14,8.26,-8.26,-8.88,-2.11,-2.12,-2.12
244,6.02,8.15,6.04,8.17,-8.17,-8.89,-2.15,-2.13,-2.13
246,5.95,8.08,5.94,8.07,-8.07,-8.89,-2.12,-2.13,-2.13
248,5.87,8.01,5.84,7.97,-7.97,-8.89,-2.10,-2.13,-2.13
251,5.72,7.86,5.73,7.87,-7.87,-8.87,-2.14,-2.14,-2.14
253,5.64,7.79,5.62,7.76,-7.76,-8.84,-2.12,-2.14,-2.14
256,5.48,7.63,5.51,7.65,-7.65,-8.80,-2.17,-2.15,-2.15
259,5.35,7.50,5.39,7.54,-7.54,-8.74,-2.19,-2.15,-2.15
261,5.29,7.45,5.28,7.44,-7.44,-8.69,-2.14,-2.15,-2.15
264,5.17,7.33,5.17,7.33,-7.33,-8.61,-2.16,-2.16,-2.16
266,5.08,7.24,5.07,7.23,-7.23,-8.55,-2.14,-2.16,-2.16
269,4.95,7.12,4.96,7.13,-7.13,-8.46,-2.17,-2.16,-2.16
272,4.86,7.03,4.86,7.03,-7.03,-8.35,-2.16,-2.17,-2.17
274,4.77,6.94,4.76,6.93,-6.93,-8.28,-2.16,-2.17,-2.17
277,4.64,6.82,4.67,6.84,-6.84,-8.16,-2.19,-2.17,-2.17
280,4.59,6.77,4.57,6.75,-6.75,-8.05,-2.16,-2.18,-2.18
283,4.47,6.65,4.49,6.67,-6.67,-7.92,-2.19,-2.18,-2.18
286,4.41,6.59,4.41,6.59,-6.59,-7.80,-2.17,-2.18,-2.18
288,4.30,6.49,4.33,6.51,-6.51,-7.72,-2.21,-2.18,-2.18
291,4.29,6.48,4.26,6.45,-6.45,-7.59,-2.15,-2.19,-2.18
294,4.20,6.39,4.20,6.39,-6.39,-7.47,-2.19,-2.19,-2.19
297,4.15,6.34,4.15,6.34,-6.34,-7.34,-2.19,-2.19,-2.19
300,4.05,6.25,4.11,6.30,-6.30,-7.22,-2.24,-2.19,-2.19
303,4.04,6.24,4.07,6.26,-6.26,-7.10,-2.22,-2.19,-2.19
306,4.03,6.23,4.04,6.23,-6.23,-6.99,-2.20,-2.20,-2.20
309,4.03,6.23,4.01,6.21,-6.21,-6.87,-2.17,-2.20,-2.20
312,3.98,6.18,3.98,6.18,-6.18,-6.76,-2.20,-2.20,-2.20
316,3.95,6.16,3.95,6.15,-6.15,-6.62,-2.20,-2.20,-2.20
319,3.91,6.12,3.91,6.12,-6.12,-6.52,-2.20,-2.20,-2.20
322,3.90,6.11,3.87,6.08,-6.08,-6.42,-2.17,-2.20,-2.20
325,3.83,6.04,3.82,6.03,-6.03,-6.32,-2.20,-2.21,-2.21
328,3.77,5.98,3.77,5.98,-5.98,-6.23,-2.20,-2.21,-2.21
332,3.71,5.92,3.71,5.92,-5.92,-6.12,-2.20,-2.21,-2.21
335,3.62,5.83,3.64,5.85,-5.85,-6.04,-2.23,-2.21,-2.21
338,3.60,5.82,3.57,5.79,-5.79,-5.96,-2.18,-2.21,-2.21
342,3.45,5.67,3.51,5.72,-5.72,-5.87,-2.27,-2.21,-2.21
345,3.45,5.67,3.44,5.65,-5.65,-5.80,-2.20,-2.21,-2.21
349,3.37,5.59,3.38,5.59,-5.59,-5.71,-2.22,-2.22,-2.22
352,3.30,5.52,3.31,5.53,-5.53,-5.65,-2.23,-2.22,-2.22
356,3.25,5.47,3.26,5.47,-5.47,-5.58,-2.22,-2.22,-2.22
359,3.21,5.43,3.20,5.42,-5.42,-5.53,-2.21,-2.22,-2.22
363,3.15,5.37,3.15,5.37,-5.37,-5.47,-2.21,-2.22,-2.22
366,3.06,5.29,3.10,5.32,-5.32,-5.42,-2.26,-2.22,-2.22
370,3.06,5.29,3.05,5.27,-5.27,-5.37,-2.21,-2.22,-2.22
374,3.01,5.24,3.01,5.23,-5.23,-5.32,-2.22,-2.22,-2.22
377,2.97,5.20,2.96,5.19,-5.19,-5.29,-2.21,-2.23,-2.23
381,2.90,5.13,2.92,5.15,-5.15,-5.25,-2.24,-2.23,-2.23
385,2.86,5.09,2.88,5.11,-5.11,-5.21,-2.25,-2.23,-2.23
389,2.84,5.07,2.84,5.07,-5.07,-5.18,-2.23,-2.23,-2.23
393,2.84,5.08,2.81,5.04,-5.04,-5.15,-2.19,-2.23,-2.23
397,2.77,5.01,2.77,5.00,-5.00,-5.13,-2.23,-2.23,-2.23
401,2.70,4.94,2.74,4.97,-4.97,-5.10,-2.27,-2.23,-2.23
405,2.69,4.93,2.70,4.94,-4.94,-5.09,-2.25,-2.24,-2.24
409,2.69,4.93,2.67,4.91,-4.91,-5.07,-2.22,-2.24,-2.24
413,2.63,4.87,2.64,4.88,-4.88,-5.05,-2.25,-2.24,-2.24
417,2.60,4.84,2.61,4.85,-4.85,-5.04,-2.25,-2.24,-2.24
421,2.60,4.84,2.59,4.82,-4.82,-5.03,-2.22,-2.24,-2.24
425,2.57,4.81,2.56,4.79,-4.79,-5.02,-2.22,-2.24,-2.24
430,2.53,4.77,2.53,4.77,-4.77,-5.01,-2.23,-2.24,-2.24
434,2.49,4.73,2.51,4.74,-4.74,-5.00,-2.25,-2.23,-2.23
438,2.45,4.69,2.48,4.71,-4.71,-4.99,-2.26,-2.23,-2.23
443,2.44,4.67,2.46,4.69,-4.69,-4.98,-2.24,-2.23,-2.23
447,2.44,4.67,2.43,4.66,-4.66,-4.97,-2.22,-2.23,-2.23
451,2.44,4.67,2.41,4.64,-4.64,-4.96,-2.19,-2.22,-2.22
456,2.43,4.65,2.39,4.61,-4.61,-4.94,-2.18,-2.22,-2.22
460,2.34,4.55,2.38,4.59,-4.59,-4.93,-2.24,-2.21,-2.21
465,2.31,4.52,2.36,4.56,-4.56,-4.91,-2.25,-2.20,-2.20
470,2.32,4.52,2.34,4.54,-4.54,-4.88,-2.21,-2.20,-2.20
474,2.34,4.53,2.32,4.51,-4.51,-4.86,-2.17,-2.19,-2.19
479,2.34,4.52,2.31,4.48,-4.48,-4.83,-2.14,-2.18,-2.18
484,2.30,4.47,2.29,4.46,-4.46,-4.80,-2.15,-2.17,-2.17
489,2.25,4.41,2.28,4.43,-4.43,-4.76,-2.18,-2.15,-2.15
494,2.24,4.38,2.26,4.40,-4.40,-4.71,-2.16,-2.14,-2.14
499,2.26,4.39,2.25,4.37,-4.37,-4.67,-2.11,-2.13,-2.13
504,2.22,4.34,2.23,4.34,-4.34,-4.62,-2.12,-2.11,-2.11
509,2.21,4.31,2.22,4.32,-4.32,-4.56,-2.10,-2.09,-2.09
514,2.20,4.28,2.21,4.28,-4.28,-4.50,-2.08,-2.08,-2.08
519,2.18,4.24,2.19,4.25,-4.25,-4.44,-2.07,-2.06,-2.06
524,2.16,4.20,2.17,4.21,-4.21,-4.38,-2.05,-2.04,-2.04
529,2.17,4.19,2.15,4.17,-4.17,-4.31,-2.00,-2.02,-2.02
535,2.16,4.16,2.13,4.12,-4.12,-4.22,-1.96,-2.00,-2.00
540,2.08,4.06,2.09,4.07,-4.07,-4.14,-1.99,-1.97,-1.97
545,2.06,4.02,2.06,4.01,-4.01,-4.07,-1.95,-1.95,-1.95
551,2.04,3.97,2.02,3.95,-3.95,-3.97,-1.90,-1.93,-1.93
556,1.95,3.86,1.98,3.88,-3.88,-3.89,-1.93,-1.90,-1.90
562,1.93,3.81,1.94,3.82,-3.82,-3.79,-1.88,-1.88,-1.88
568,1.85,3.70,1.90,3.75,-3.75,-3.69,-1.90,-1.85,-1.85
573,1.87,3.70,1.87,3.69,-3.69,-3.60,-1.81,-1.82,-1.82
579,1.85,3.65,1.83,3.63,-3.63,-3.50,-1.77,-1.79,-1.79
585,1.79,3.56,1.80,3.56,-3.56,-3.39,-1.77,-1.77,-1.77
591,1.77,3.51,1.76,3.50,-3.50,-3.29,-1.73,-1.74,-1.74
596,1.71,3.42,1.73,3.44,-3.44,-3.20,-1.72,-1.71,-1.71
602,1.71,3.39,1.70,3.37,-3.37,-3.10,-1.66,-1.68,-1.68
608,1.65,3.30,1.66,3.30,-3.30,-2.99,-1.65,-1.64,-1.64
615,1.63,3.25,1.62,3.23,-3.23,-2.87,-1.60,-1.61,-1.61
621,1.58,3.16,1.58,3.16,-3.16,-2.77,-1.58,-1.58,-1.58
627,1.54,3.09,1.54,3.09,-3.09,-2.67,-1.54,-1.55,-1.55
633,1.48,3.00,1.50,3.01,-3.01,-2.57,-1.53,-1.51,-1.51
639,1.45,2.93,1.46,2.94,-2.94,-2.47,-1.48,-1.48,-1.48
646,1.41,2.86,1.42,2.86,-2.86,-2.36,-1.45,-1.45,-1.45
652,1.38,2.79,1.38,2.79,-2.79,-2.26,-1.41,-1.41,-1.41
659,1.32,2.70,1.34,2.72,-2.72,-2.16,-1.39,-1.37,-1.37
665,1.32,2.66,1.31,2.65,-2.65,-2.06,-1.32,-1.34,-1.34
672,1.26,2.57,1.27,2.57,-2.57,-1.96,-1.31,-1.30,-1.30
679,1.24,2.51,1.24,2.50,-2.50,-1.85,-1.26,-1.27,-1.27
686,1.19,2.42,1.20,2.43,-2.43,-1.75,-1.23,-1.23,-1.23
692,1.17,2.37,1.16,2.35,-2.35,-1.66,-1.18,-1.19,-1.19
699,1.13,2.29,1.12,2.28,-2.28,-1.57,-1.14,-1.15,-1.15
706,1.08,2.20,1.08,2.20,-2.20,-1.47,-1.12,-1.12,-1.12
713,1.04,2.12,1.04,2.12,-2.12,-1.37,-1.08,-1.08,-1.08
721,0.99,2.03,1.00,2.04,-2.04,-1.27,-1.05,-1.04,-1.04
728,0.96,1.97,0.96,1.97,-1.97,-1.18,-1.00,-1.00,-1.00
735,0.92,1.89,0.93,1.89,-1.89,-1.09,-0.96,-0.96,-0.96
742,0.89,1.82,0.89,1.81,-1.81,-1.00,-0.92,-0.93,-0.93
750,0.84,1.73,0.85,1.74,-1.74,-0.90,-0.90,-0.89,-0.89
757,0.82,1.67,0.82,1.67,-1.67,-0.82,-0.84,-0.85,-0.85
765,0.78,1.60,0.78,1.60,-1.60,-0.72,-0.81,-0.81,-0.81
773,0.74,1.52,0.75,1.53,-1.53,-0.63,-0.79,-0.78,-0.78
780,0.70,1.44,0.72,1.47,-1.47,-0.55,-0.76,-0.74,-0.74
788,0.68,1.39,0.69,1.40,-1.40,-0.46,-0.72,-0.71,-0.71
796,0.68,1.35,0.66,1.33,-1.33,-0.38,-0.65,-0.67,-0.67
804,0.63,1.27,0.63,1.26,-1.26,-0.30,-0.63,-0.64,-0.64
812,0.61,1.22,0.59,1.19,-1.19,-0.21,-0.58,-0.60,-0.60
820,0.54,1.11,0.55,1.12,-1.12,-0.14,-0.57,-0.57,-0.57
828,0.54,1.08,0.51,1.04,-1.04,-0.06,-0.50,-0.54,-0.54
837,0.44,0.95,0.46,0.96,-0.96,0.02,-0.52,-0.50,-0.50
845,0.39,0.87,0.42,0.89,-0.89,0.09,-0.49,-0.47,-0.47
853,0.37,0.82,0.37,0.81,-0.81,0.16,-0.44,-0.44,-0.44
862,0.30,0.72,0.33,0.75,-0.75,0.23,-0.44,-0.41,-0.41
871,0.32,0.71,0.30,0.68,-0.68,0.29,-0.36,-0.38,-0.38
879,0.24,0.60,0.27,0.62,-0.62,0.35,-0.38,-0.35,-0.35
888,0.24,0.57,0.25,0.57,-0.57,0.41,-0.33,-0.32,-0.32
897,0.25,0.55,0.22,0.52,-0.52,0.46,-0.26,-0.30,-0.30
906,0.17,0.44,0.20,0.47,-0.47,0.51,-0.30,-0.27,-0.27
915,0.17,0.41,0.18,0.42,-0.42,0.55,-0.25,-0.24,-0.24
924,0.19,0.41,0.16,0.38,-0.38,0.58,-0.18,-0.21,-0.21
933,0.17,0.36,0.15,0.33,-0.33,0.62,-0.16,-0.19,-0.19
943,0.09,0.25,0.12,0.28,-0.28,0.64,-0.19,-0.16,-0.16
952,0.12,0.26,0.10,0.24,-0.24,0.66,-0.11,-0.13,-0.13
962,0.08,0.19,0.08,0.19,-0.19,0.68,-0.11,-0.11,-0.11
971,0.04,0.12,0.06,0.15,-0.15,0.68,-0.10,-0.08,-0.08
981,0.05,0.11,0.05,0.10,-0.10,0.68,-0.05,-0.05,-0.05
991,0.05,0.08,0.03,0.06,-0.06,0.68,-0.01,-0.03,-0.03
1001,-0.01,-0.01,0.02,0.02,-0.02,0.66,-0.03,0.00,0.00
1011,-0.01,-0.03,0.01,-0.01,0.01,0.64,0.01,0.03,0.03
1021,0.01,-0.04,0.01,-0.05,0.05,0.62,0.06,0.05,0.05
1031,0.04,-0.04,0.01,-0.07,0.07,0.58,0.12,0.08,0.08
1041,0.03,-0.08,0.01,-0.10,0.10,0.54,0.13,0.11,0.11
1052,-0.02,-0.15,0.02,-0.12,0.12,0.49,0.10,0.14,0.14
1062,0.00,-0.16,0.03,-0.14,0.14,0.44,0.14,0.17,0.17
1073,0.02,-0.17,0.05,-0.15,0.15,0.38,0.17,0.19,0.19
1084,0.05,-0.17,0.06,-0.16,0.16,0.31,0.22,0.22,0.22
1094,0.12,-0.13,0.08,-0.17,0.17,0.24,0.30,0.25,0.25
1105,0.12,-0.16,0.10,-0.19,0.19,0.16,0.31,0.28,0.28
1116,0.12,-0.19,0.11,-0.20,0.20,0.08,0.32,0.31,0.31
1128,0.15,-0.19,0.13,-0.21,0.21,-0.01,0.36,0.34,0.34
1139,0.17,-0.20,0.15,-0.22,0.22,-0.10,0.39,0.37,0.37
1150,0.14,-0.26,0.18,-0.23,0.23,-0.20,0.37,0.40,0.40
1162,0.17,-0.26,0.21,-0.22,0.22,-0.30,0.40,0.44,0.44
1173,0.23,-0.23,0.26,-0.21,0.21,-0.40,0.44,0.47,0.47
1185,0.31,-0.19,0.31,-0.19,0.19,-0.51,0.50,0.50,0.50
1197,0.35,-0.18,0.37,-0.16,0.16,-0.62,0.51,0.53,0.53
1209,0.44,-0.12,0.45,-0.12,0.12,-0.74,0.56,0.56,0.56
1221,0.53,-0.06,0.52,-0.07,0.07,-0.85,0.61,0.60,0.60
1233,0.63,0.00,0.60,-0.03,0.03,-0.97,0.66,0.63,0.63
1246,0.69,0.03,0.68,0.02,-0.02,-1.10,0.68,0.66,0.66
1258,0.77,0.08,0.76,0.06,-0.06,-1.22,0.71,0.70,0.70
1271,0.84,0.11,0.84,0.11,-0.11,-1.35,0.74,0.73,0.73
1283,0.92,0.16,0.92,0.15,-0.15,-1.47,0.77,0.77,0.77
1296,0.98,0.18,0.99,0.19,-0.19,-1.61,0.79,0.80,0.80
1309,1.04,0.21,1.07,0.24,-0.24,-1.74,0.81,0.84,0.84
1322,1.19,0.32,1.16,0.28,-0.28,-1.88,0.91,0.87,0.87
1335,1.23,0.32,1.24,0.33,-0.33,-2.01,0.90,0.91,0.91
1349,1.31,0.37,1.34,0.39,-0.39,-2.16,0.92,0.95,0.95
1362,1.46,0.48,1.44,0.46,-0.46,-2.29,1.01,0.98,0.98
1376,1.51,0.49,1.55,0.53,-0.53,-2.44,0.99,1.02,1.02
1390,1.69,0.64,1.66,0.61,-0.61,-2.59,1.09,1.06,1.06
1404,1.76,0.67,1.79,0.69,-0.69,-2.74,1.07,1.10,1.10
1418,1.93,0.80,1.92,0.79,-0.79,-2.88,1.14,1.13,1.13
1432,2.05,0.88,2.06,0.89,-0.89,-3.03,1.16,1.17,1.17
1446,2.19,0.98,2.21,1.00,-1.00,-3.18,1.19,1.21,1.21
1461,2.38,1.13,2.37,1.11,-1.11,-3.35,1.27,1.25,1.25
1475,2.53,1.24,2.53,1.23,-1.23,-3.50,1.30,1.29,1.29
1490,2.69,1.36,2.69,1.36,-1.36,-3.66,1.34,1.33,1.33
1505,2.85,1.48,2.85,1.48,-1.48,-3.82,1.37,1.37,1.37
1520,3.02,1.61,3.02,1.61,-1.61,-3.98,1.41,1.41,1.41
1535,3.20,1.75,3.20,1.74,-1.74,-4.15,1.46,1.46,1.46
1550,3.38,1.89,3.37,1.87,-1.87,-4.31,1.51,1.50,1.50
1566,3.55,2.01,3.55,2.01,-2.01,-4.48,1.54,1.54,1.54
1582,3.75,2.17,3.74,2.16,-2.16,-4.66,1.60,1.58,1.58
1597,3.94,2.32,3.94,2.31,-2.31,-4.82,1.63,1.63,1.63
1613,4.15,2.48,4.15,2.48,-2.48,-4.99,1.68,1.67,1.67
1629,4.35,2.64,4.37,2.66,-2.66,-5.16,1.70,1.71,1.71
1646,4.60,2.85,4.61,2.85,-2.85,-5.34,1.75,1.76,1.76
1662,4.87,3.07,4.87,3.07,-3.07,-5.51,1.81,1.80,1.80
1679,5.19,3.34,5.16,3.31,-3.31,-5.68,1.88,1.85,1.85
1696,5.41,3.52,5.47,3.58,-3.58,-5.85,1.84,1.90,1.90
1713,5.80,3.86,5.82,3.88,-3.88,-6.02,1.93,1.94,1.94
1730,6.17,4.18,6.19,4.20,-4.20,-6.18,1.97,1.99,1.99
1747,6.60,4.57,6.60,4.56,-4.56,-6.34,2.04,2.04,2.04
1764,6.99,4.91,7.04,4.95,-4.95,-6.49,2.04,2.09,2.09
1782,7.45,5.32,7.50,5.36,-5.36,-6.65,2.09,2.14,2.14
1800,7.96,5.77,7.98,5.79,-5.79,-6.79,2.17,2.19,2.19
1818,8.47,6.23,8.48,6.23,-6.23,-6.93,2.24,2.24,2.24
1836,8.97,6.67,8.97,6.67,-6.67,-7.05,2.30,2.30,2.30
1854,9.49,7.14,9.46,7.10,-7.10,-7.17,2.39,2.36,2.36
1873,9.98,7.57,9.93,7.51,-7.51,-7.27,2.47,2.42,2.42
1892,10.40,7.92,10.37,7.89,-7.89,-7.37,2.51,2.48,2.48
