frequency,raw,error,smoothed,error_smoothed,equalization,parametric_eq,equalized_raw,equalized_smoothed,target
20.00,0.24,-2.66,0.25,-2.66,2.66,0.43,2.90,2.90,2.91
20.20,0.30,-2.61,0.31,-2.61,2.61,0.44,2.91,2.92,2.92
20.40,0.36,-2.56,0.36,-2.56,2.56,0.46,2.93,2.93,2.93
20.61,0.42,-2.51,0.42,-2.51,2.51,0.47,2.94,2.94,2.94
20.81,0.48,-2.46,0.48,-2.47,2.47,0.48,2.95,2.95,2.95
21.02,0.54,-2.41,0.54,-2.42,2.42,0.50,2.96,2.96,2.96
21.23,0.59,-2.37,0.60,-2.37,2.37,0.52,2.97,2.97,2.97
21.44,0.65,-2.32,0.65,-2.32,2.32,0.53,2.98,2.98,2.98
21.66,0.71,-2.28,0.71,-2.28,2.28,0.55,2.99,2.99,2.99
21.87,0.77,-2.23,0.77,-2.23,2.23,0.57,3.00,3.00,3.00
22.09,0.82,-2.19,0.83,-2.18,2.18,0.58,3.01,3.01,3.01
22.31,0.88,-2.14,0.89,-2.13,2.13,0.60,3.02,3.02,3.02
22.54,0.94,-2.09,0.95,-2.09,2.09,0.62,3.03,3.03,3.03
22.76,1.00,-2.04,1.00,-2.04,2.04,0.64,3.04,3.04,3.04
22.99,1.06,-1.99,1.06,-1.99,1.99,0.66,3.06,3.05,3.05
23.22,1.12,-1.94,1.12,-1.95,1.95,0.68,3.07,3.07,3.07
23.45,1.17,-1.90,1.18,-1.90,1.90,0.70,3.07,3.08,3.08
23.69,1.23,-1.86,1.24,-1.85,1.85,0.72,3.08,3.09,3.09
23.92,1.29,-1.81,1.30,-1.80,1.80,0.74,3.10,3.10,3.10
24.16,1.35,-1.76,1.35,-1.76,1.76,0.76,3.11,3.11,3.11
24.40,1.41,-1.71,1.41,-1.71,1.71,0.78,3.12,3.12,3.12
24.65,1.47,-1.66,1.47,-1.66,1.66,0.80,3.13,3.13,3.13
24.89,1.53,-1.61,1.53,-1.61,1.61,0.82,3.15,3.14,3.14
25.14,1.58,-1.57,1.59,-1.56,1.56,0.85,3.15,3.15,3.15
25.39,1.64,-1.52,1.65,-1.52,1.52,0.87,3.16,3.16,3.16
25.65,1.70,-1.47,1.70,-1.47,1.47,0.89,3.17,3.17,3.18
25.91,1.76,-1.42,1.76,-1.42,1.42,0.91,3.19,3.18,3.19
26.16,1.82,-1.37,1.82,-1.38,1.38,0.93,3.20,3.20,3.20
26.43,1.87,-1.33,1.88,-1.33,1.33,0.95,3.20,3.21,3.21
26.69,1.93,-1.28,1.93,-1.28,1.28,0.97,3.22,3.22,3.22
26.96,1.98,-1.24,1.99,-1.24,1.24,0.99,3.22,3.23,3.23
27.23,2.04,-1.19,2.04,-1.19,1.19,1.01,3.24,3.24,3.24
27.50,2.09,-1.15,2.10,-1.15,1.15,1.03,3.24,3.25,3.25
27.77,2.15,-1.10,2.15,-1.11,1.11,1.04,3.26,3.26,3.26
28.05,2.20,-1.06,2.20,-1.07,1.07,1.06,3.27,3.27,3.27
28.33,2.25,-1.02,2.25,-1.02,1.02,1.07,3.28,3.28,3.28
28.62,2.30,-0.99,2.31,-0.98,0.98,1.09,3.29,3.29,3.29
28.90,2.35,-0.94,2.36,-0.94,0.94,1.10,3.30,3.30,3.30
29.19,2.40,-0.91,2.41,-0.90,0.90,1.11,3.31,3.31,3.31
29.48,2.45,-0.87,2.46,-0.86,0.86,1.11,3.32,3.32,3.32
29.78,2.50,-0.83,2.50,-0.83,0.83,1.12,3.33,3.33,3.33
30.08,2.55,-0.79,2.55,-0.79,0.79,1.12,3.34,3.34,3.34
30.38,2.60,-0.75,2.60,-0.75,0.75,1.13,3.36,3.35,3.35
30.68,2.64,-0.72,2.64,-0.72,0.72,1.12,3.36,3.36,3.36
30.99,2.69,-0.68,2.69,-0.68,0.68,1.12,3.38,3.37,3.37
31.30,2.73,-0.65,2.73,-0.65,0.65,1.12,3.38,3.38,3.38
31.61,2.77,-0.62,2.77,-0.62,0.62,1.11,3.39,3.39,3.39
31.93,2.81,-0.59,2.82,-0.59,0.59,1.10,3.40,3.40,3.40
32.24,2.85,-0.56,2.86,-0.55,0.55,1.09,3.41,3.41,3.41
32.57,2.89,-0.53,2.90,-0.52,0.52,1.08,3.42,3.42,3.42
32.89,2.94,-0.49,2.93,-0.49,0.49,1.06,3.44,3.43,3.43
33.22,2.97,-0.46,2.97,-0.47,0.47,1.04,3.44,3.44,3.44
33.55,3.01,-0.43,3.01,-0.44,0.44,1.02,3.45,3.45,3.45
33.89,3.04,-0.41,3.05,-0.41,0.41,1.00,3.45,3.45,3.46
34.23,3.08,-0.38,3.08,-0.38,0.38,0.98,3.46,3.46,3.46
34.57,3.11,-0.36,3.12,-0.35,0.35,0.95,3.46,3.47,3.47
34.92,3.15,-0.33,3.16,-0.32,0.32,0.93,3.48,3.48,3.48
35.27,3.19,-0.29,3.19,-0.29,0.29,0.90,3.49,3.49,3.49
35.62,3.22,-0.27,3.23,-0.26,0.26,0.87,3.49,3.49,3.49
35.97,3.26,-0.24,3.27,-0.23,0.23,0.84,3.50,3.50,3.50
36.33,3.30,-0.21,3.31,-0.20,0.20,0.81,3.51,3.51,3.51
36.70,3.34,-0.17,3.34,-0.17,0.17,0.78,3.51,3.51,3.52
37.06,3.38,-0.14,3.38,-0.14,0.14,0.75,3.52,3.52,3.52
37.43,3.42,-0.11,3.42,-0.10,0.10,0.71,3.53,3.53,3.53
37.81,3.46,-0.07,3.46,-0.07,0.07,0.68,3.53,3.54,3.54
38.19,3.50,-0.04,3.50,-0.04,0.04,0.64,3.54,3.54,3.54
38.57,3.54,-0.01,3.54,-0.00,0.00,0.61,3.55,3.55,3.55
38.95,3.58,0.03,3.58,0.03,-0.03,0.57,3.55,3.55,3.55
39.34,3.62,0.06,3.62,0.07,-0.07,0.54,3.56,3.56,3.56
39.74,3.66,0.10,3.66,0.10,-0.10,0.50,3.56,3.56,3.56
40.14,3.70,0.13,3.70,0.13,-0.13,0.47,3.57,3.57,3.57
40.54,3.74,0.17,3.74,0.17,-0.17,0.43,3.58,3.57,3.57
40.94,3.77,0.19,3.78,0.20,-0.20,0.40,3.58,3.58,3.58
41.35,3.81,0.23,3.81,0.23,-0.23,0.36,3.58,3.58,3.58
41.76,3.84,0.26,3.85,0.26,-0.26,0.33,3.58,3.59,3.59
42.18,3.87,0.28,3.88,0.29,-0.29,0.29,3.59,3.59,3.59
42.60,3.91,0.32,3.91,0.32,-0.32,0.26,3.60,3.60,3.60
43.03,3.94,0.34,3.94,0.34,-0.34,0.22,3.60,3.60,3.60
43.46,3.97,0.37,3.97,0.36,-0.36,0.19,3.61,3.61,3.60
43.90,3.99,0.38,3.99,0.38,-0.38,0.15,3.61,3.61,3.61
44.33,4.02,0.41,4.01,0.40,-0.40,0.12,3.62,3.61,3.61
44.78,4.04,0.42,4.04,0.42,-0.42,0.08,3.63,3.62,3.62
45.23,4.06,0.44,4.05,0.43,-0.43,0.05,3.63,3.62,3.62
45.68,4.07,0.45,4.07,0.44,-0.44,0.01,3.63,3.63,3.63
46.13,4.08,0.45,4.08,0.45,-0.45,-0.02,3.63,3.63,3.63
46.60,4.09,0.46,4.10,0.46,-0.46,-0.05,3.63,3.64,3.64
47.06,4.10,0.46,4.11,0.47,-0.47,-0.09,3.63,3.64,3.64
47.53,4.11,0.47,4.12,0.48,-0.48,-0.12,3.64,3.64,3.64
48.01,4.12,0.48,4.13,0.48,-0.48,-0.16,3.64,3.64,3.65
48.49,4.13,0.49,4.14,0.49,-0.49,-0.19,3.64,3.65,3.65
48.97,4.15,0.50,4.15,0.50,-0.50,-0.22,3.65,3.65,3.65
49.46,4.15,0.50,4.16,0.51,-0.51,-0.26,3.65,3.65,3.65
49.96,4.16,0.51,4.17,0.52,-0.52,-0.29,3.65,3.65,3.65
50.46,4.17,0.52,4.18,0.53,-0.53,-0.32,3.65,3.65,3.65
50.96,4.18,0.53,4.19,0.54,-0.54,-0.35,3.65,3.65,3.65
51.47,4.19,0.55,4.20,0.55,-0.55,-0.39,3.64,3.65,3.65
51.99,4.21,0.57,4.21,0.57,-0.57,-0.42,3.65,3.64,3.64
52.51,4.22,0.59,4.22,0.58,-0.58,-0.45,3.64,3.64,3.64
53.03,4.23,0.60,4.23,0.60,-0.60,-0.48,3.63,3.63,3.63
53.56,4.24,0.62,4.25,0.62,-0.62,-0.51,3.62,3.62,3.63
54.10,4.25,0.63,4.26,0.64,-0.64,-0.54,3.61,3.62,3.62
54.64,4.27,0.66,4.28,0.67,-0.67,-0.57,3.60,3.61,3.61
55.18,4.29,0.69,4.30,0.70,-0.70,-0.60,3.60,3.60,3.60
55.74,4.30,0.71,4.31,0.73,-0.73,-0.63,3.58,3.59,3.59
56.29,4.32,0.74,4.33,0.76,-0.76,-0.66,3.56,3.57,3.58
56.86,4.34,0.78,4.35,0.79,-0.79,-0.68,3.55,3.56,3.57
57.42,4.37,0.82,4.37,0.83,-0.83,-0.71,3.55,3.55,3.55
58.00,4.39,0.86,4.40,0.86,-0.86,-0.74,3.53,3.53,3.54
58.58,4.41,0.89,4.42,0.90,-0.90,-0.76,3.51,3.52,3.52
59.16,4.43,0.93,4.44,0.94,-0.94,-0.78,3.50,3.50,3.50
59.76,4.45,0.97,4.45,0.97,-0.97,-0.81,3.48,3.48,3.48
60.35,4.47,1.01,4.47,1.01,-1.01,-0.83,3.47,3.46,3.46
60.96,4.48,1.04,4.48,1.04,-1.04,-0.85,3.44,3.44,3.44
61.57,4.49,1.07,4.49,1.07,-1.07,-0.87,3.43,3.42,3.42
62.18,4.49,1.10,4.49,1.09,-1.09,-0.88,3.40,3.40,3.39
62.80,4.49,1.12,4.49,1.11,-1.11,-0.90,3.38,3.37,3.37
63.43,4.49,1.15,4.48,1.13,-1.13,-0.92,3.36,3.35,3.34
64.07,4.48,1.17,4.46,1.14,-1.14,-0.93,3.34,3.32,3.32
64.71,4.45,1.16,4.44,1.15,-1.15,-0.95,3.30,3.29,3.29
65.35,4.42,1.16,4.42,1.15,-1.15,-0.96,3.27,3.26,3.26
66.01,4.39,1.16,4.39,1.16,-1.16,-0.97,3.24,3.23,3.24
66.67,4.35,1.15,4.36,1.15,-1.15,-0.98,3.20,3.20,3.21
67.33,4.31,1.14,4.32,1.15,-1.15,-0.99,3.17,3.17,3.18
68.01,4.27,1.13,4.28,1.14,-1.14,-1.00,3.14,3.14,3.15
68.69,4.23,1.12,4.24,1.13,-1.13,-1.01,3.11,3.11,3.12
69.37,4.19,1.11,4.20,1.12,-1.12,-1.02,3.08,3.08,3.09
70.07,4.15,1.10,4.16,1.10,-1.10,-1.03,3.05,3.05,3.06
70.77,4.10,1.08,4.11,1.09,-1.09,-1.04,3.01,3.02,3.03
71.48,4.07,1.08,4.07,1.08,-1.08,-1.05,2.99,2.99,3.00
72.19,4.03,1.07,4.03,1.07,-1.07,-1.05,2.96,2.96,2.97
72.91,3.99,1.06,4.00,1.06,-1.06,-1.06,2.93,2.93,2.94
73.64,3.95,1.04,3.96,1.06,-1.06,-1.07,2.90,2.90,2.91
74.38,3.91,1.03,3.92,1.05,-1.05,-1.08,2.86,2.88,2.88
75.12,3.88,1.03,3.89,1.04,-1.04,-1.09,2.84,2.85,2.86
75.87,3.85,1.02,3.86,1.04,-1.04,-1.10,2.82,2.82,2.83
76.63,3.82,1.02,3.83,1.03,-1.03,-1.10,2.79,2.80,2.80
77.40,3.79,1.01,3.80,1.03,-1.03,-1.11,2.77,2.78,2.78
78.17,3.76,1.01,3.77,1.02,-1.02,-1.12,2.74,2.75,2.76
78.95,3.73,1.00,3.74,1.01,-1.01,-1.14,2.72,2.73,2.73
79.74,3.70,0.99,3.71,1.00,-1.00,-1.15,2.70,2.71,2.71
80.54,3.67,0.98,3.67,0.98,-0.98,-1.16,2.69,2.69,2.69
81.35,3.64,0.97,3.63,0.96,-0.96,-1.17,2.68,2.67,2.67
82.16,3.60,0.95,3.59,0.94,-0.94,-1.19,2.67,2.65,2.66
82.98,3.57,0.93,3.54,0.90,-0.90,-1.20,2.67,2.64,2.64
83.81,3.51,0.89,3.49,0.86,-0.86,-1.22,2.65,2.62,2.62
84.65,3.44,0.84,3.43,0.82,-0.82,-1.23,2.63,2.61,2.61
85.50,3.37,0.78,3.36,0.76,-0.76,-1.25,2.61,2.60,2.59
86.35,3.29,0.71,3.29,0.70,-0.70,-1.27,2.59,2.59,2.58
87.22,3.21,0.65,3.21,0.64,-0.64,-1.29,2.58,2.58,2.57
88.09,3.13,0.58,3.13,0.56,-0.56,-1.31,2.57,2.57,2.56
88.97,3.04,0.50,3.04,0.49,-0.49,-1.33,2.56,2.55,2.55
89.86,2.96,0.42,2.95,0.41,-0.41,-1.36,2.56,2.54,2.54
90.76,2.87,0.34,2.86,0.33,-0.33,-1.38,2.55,2.53,2.53
91.66,2.79,0.27,2.77,0.25,-0.25,-1.40,2.55,2.52,2.52
92.58,2.70,0.19,2.68,0.17,-0.17,-1.43,2.53,2.51,2.52
93.51,2.59,0.08,2.60,0.10,-0.10,-1.46,2.50,2.50,2.51
94.44,2.50,-0.00,2.53,0.03,-0.03,-1.48,2.47,2.49,2.50
95.39,2.44,-0.05,2.46,-0.02,0.02,-1.51,2.47,2.48,2.50
96.34,2.38,-0.10,2.40,-0.07,0.07,-1.54,2.45,2.47,2.49
97.30,2.32,-0.15,2.36,-0.10,0.10,-1.57,2.43,2.46,2.48
98.28,2.28,-0.18,2.32,-0.12,0.12,-1.60,2.41,2.44,2.46
99.26,2.27,-0.18,2.30,-0.13,0.13,-1.64,2.40,2.43,2.45
100.25,2.28,-0.15,2.30,-0.12,0.12,-1.67,2.40,2.41,2.44
101.25,2.30,-0.12,2.30,-0.09,0.09,-1.70,2.39,2.40,2.42
102.27,2.33,-0.07,2.33,-0.05,0.05,-1.73,2.38,2.38,2.40
103.29,2.36,-0.02,2.37,0.01,-0.01,-1.77,2.35,2.36,2.38
104.32,2.40,0.05,2.42,0.08,-0.08,-1.80,2.32,2.34,2.36
105.37,2.46,0.13,2.49,0.17,-0.17,-1.84,2.30,2.32,2.33
106.42,2.53,0.23,2.56,0.26,-0.26,-1.87,2.27,2.30,2.31
107.48,2.62,0.35,2.64,0.37,-0.37,-1.90,2.25,2.27,2.28
108.56,2.73,0.49,2.73,0.49,-0.49,-1.94,2.25,2.24,2.25
109.64,2.83,0.62,2.82,0.61,-0.61,-1.97,2.22,2.21,2.21
110.74,2.93,0.75,2.92,0.74,-0.74,-2.00,2.19,2.18,2.18
111.85,3.03,0.89,3.01,0.87,-0.87,-2.03,2.16,2.14,2.14
112.97,3.14,1.03,3.11,1.01,-1.01,-2.06,2.14,2.11,2.11
114.10,3.23,1.16,3.21,1.14,-1.14,-2.09,2.09,2.07,2.07
115.24,3.33,1.30,3.31,1.28,-1.28,-2.12,2.06,2.04,2.04
116.39,3.40,1.40,3.41,1.41,-1.41,-2.15,1.99,2.00,2.00
117.55,3.48,1.52,3.51,1.54,-1.54,-2.17,1.94,1.97,1.97
118.73,3.59,1.66,3.60,1.67,-1.67,-2.19,1.92,1.93,1.93
119.92,3.69,1.80,3.70,1.80,-1.80,-2.21,1.89,1.90,1.89
121.12,3.81,1.95,3.78,1.92,-1.92,-2.23,1.89,1.86,1.86
122.33,3.86,2.04,3.87,2.04,-2.04,-2.25,1.82,1.83,1.83
123.55,3.93,2.14,3.95,2.16,-2.16,-2.26,1.78,1.80,1.80
124.79,4.04,2.28,4.04,2.27,-2.27,-2.27,1.77,1.77,1.77
126.03,4.14,2.41,4.12,2.38,-2.38,-2.28,1.77,1.74,1.74
127.29,4.19,2.48,4.19,2.48,-2.48,-2.29,1.71,1.71,1.71
128.57,4.24,2.56,4.27,2.58,-2.58,-2.29,1.66,1.69,1.69
129.85,4.34,2.68,4.34,2.67,-2.67,-2.30,1.67,1.66,1.66
131.15,4.41,2.78,4.40,2.76,-2.76,-2.30,1.65,1.64,1.64
132.46,4.45,2.84,4.46,2.85,-2.85,-2.30,1.61,1.62,1.62
133.79,4.52,2.93,4.52,2.93,-2.93,-2.30,1.60,1.59,1.59
135.12,4.58,3.01,4.57,3.00,-3.00,-2.29,1.59,1.57,1.57
136.48,4.62,3.07,4.62,3.07,-3.07,-2.29,1.56,1.55,1.55
137.84,4.66,3.13,4.66,3.13,-3.13,-2.28,1.54,1.53,1.53
139.22,4.69,3.18,4.70,3.19,-3.19,-2.27,1.51,1.51,1.51
140.61,4.73,3.24,4.73,3.24,-3.24,-2.26,1.49,1.49,1.49
142.02,4.76,3.29,4.76,3.29,-3.29,-2.25,1.47,1.47,1.47
143.44,4.77,3.33,4.78,3.33,-3.33,-2.24,1.44,1.45,1.45
144.87,4.80,3.38,4.80,3.37,-3.37,-2.23,1.43,1.42,1.43
146.32,4.81,3.41,4.81,3.41,-3.41,-2.22,1.40,1.40,1.40
147.78,4.82,3.44,4.82,3.45,-3.45,-2.21,1.38,1.38,1.38
149.26,4.82,3.47,4.83,3.48,-3.48,-2.20,1.35,1.35,1.36
150.75,4.81,3.48,4.83,3.50,-3.50,-2.19,1.31,1.33,1.34
152.26,4.82,3.51,4.83,3.53,-3.53,-2.18,1.30,1.31,1.31
153.78,4.82,3.54,4.83,3.55,-3.55,-2.17,1.28,1.29,1.29
155.32,4.82,3.56,4.82,3.56,-3.56,-2.17,1.26,1.26,1.27
156.88,4.81,3.57,4.81,3.57,-3.57,-2.16,1.24,1.24,1.24
158.44,4.80,3.59,4.80,3.58,-3.58,-2.15,1.22,1.22,1.22
160.03,4.77,3.58,4.78,3.58,-3.58,-2.15,1.19,1.19,1.19
161.63,4.76,3.60,4.75,3.58,-3.58,-2.15,1.18,1.17,1.17
163.24,4.74,3.60,4.72,3.58,-3.58,-2.15,1.17,1.14,1.14
164.88,4.70,3.59,4.69,3.57,-3.57,-2.15,1.13,1.12,1.12
166.53,4.66,3.57,4.65,3.56,-3.56,-2.15,1.11,1.09,1.09
168.19,4.62,3.56,4.61,3.54,-3.54,-2.15,1.08,1.06,1.07
169.87,4.56,3.53,4.56,3.53,-3.53,-2.15,1.04,1.03,1.04
171.57,4.50,3.49,4.51,3.51,-3.51,-2.16,0.99,1.00,1.01
173.29,4.45,3.47,4.46,3.49,-3.49,-2.17,0.96,0.97,0.98
175.02,4.38,3.44,4.41,3.47,-3.47,-2.18,0.91,0.94,0.95
176.77,4.34,3.43,4.36,3.45,-3.45,-2.19,0.89,0.91,0.92
178.54,4.30,3.42,4.31,3.44,-3.44,-2.20,0.87,0.88,0.89
180.32,4.26,3.41,4.27,3.42,-3.42,-2.22,0.84,0.85,0.85
182.13,4.21,3.39,4.22,3.41,-3.41,-2.23,0.81,0.81,0.82
183.95,4.16,3.38,4.18,3.40,-3.40,-2.25,0.77,0.78,0.79
185.79,4.12,3.37,4.13,3.39,-3.39,-2.27,0.74,0.75,0.75
187.65,4.09,3.37,4.09,3.38,-3.38,-2.29,0.72,0.72,0.72
189.52,4.05,3.37,4.06,3.37,-3.37,-2.31,0.68,0.69,0.69
191.42,4.02,3.37,4.02,3.36,-3.36,-2.34,0.66,0.65,0.65
193.33,3.98,3.36,3.98,3.36,-3.36,-2.36,0.63,0.62,0.62
195.27,3.94,3.36,3.94,3.35,-3.35,-2.39,0.59,0.59,0.59
197.22,3.91,3.36,3.90,3.35,-3.35,-2.42,0.57,0.55,0.55
199.19,3.86,3.35,3.85,3.34,-3.34,-2.45,0.52,0.51,0.52
201.18,3.81,3.33,3.81,3.34,-3.34,-2.48,0.48,0.48,0.48
203.19,3.77,3.33,3.77,3.33,-3.33,-2.51,0.44,0.44,0.45
205.23,3.72,3.31,3.73,3.33,-3.33,-2.54,0.40,0.40,0.41
207.28,3.67,3.30,3.68,3.32,-3.32,-2.57,0.35,0.36,0.37
209.35,3.62,3.29,3.64,3.31,-3.31,-2.60,0.31,0.33,0.34
211.44,3.58,3.28,3.59,3.30,-3.30,-2.64,0.28,0.29,0.30
213.56,3.54,3.28,3.55,3.29,-3.29,-2.67,0.25,0.25,0.26
215.69,3.50,3.28,3.50,3.28,-3.28,-2.70,0.22,0.22,0.22
217.85,3.44,3.26,3.45,3.27,-3.27,-2.73,0.18,0.18,0.19
220.03,3.40,3.25,3.40,3.25,-3.25,-2.76,0.15,0.15,0.15
222.23,3.35,3.23,3.35,3.23,-3.23,-2.79,0.13,0.12,0.12
224.45,3.29,3.20,3.30,3.20,-3.20,-2.82,0.09,0.09,0.09
226.70,3.24,3.18,3.24,3.17,-3.17,-2.84,0.07,0.07,0.06
228.96,3.18,3.15,3.18,3.13,-3.13,-2.87,0.05,0.04,0.04
231.25,3.13,3.12,3.11,3.09,-3.09,-2.89,0.05,0.02,0.02
233.57,3.06,3.07,3.04,3.04,-3.04,-2.90,0.03,0.00,-0.00
235.90,2.95,2.97,2.97,2.98,-2.98,-2.92,-0.03,-0.01,-0.02
238.26,2.90,2.93,2.89,2.92,-2.92,-2.93,-0.01,-0.03,-0.03
240.64,2.81,2.85,2.81,2.85,-2.85,-2.94,-0.03,-0.04,-0.04
243.05,2.74,2.79,2.73,2.77,-2.77,-2.95,-0.03,-0.05,-0.05
245.48,2.64,2.70,2.64,2.70,-2.70,-2.95,-0.05,-0.05,-0.06
247.93,2.53,2.59,2.55,2.61,-2.61,-2.95,-0.08,-0.06,-0.06
250.41,2.46,2.52,2.47,2.53,-2.53,-2.94,-0.07,-0.06,-0.06
252.92,2.36,2.42,2.38,2.44,-2.44,-2.94,-0.08,-0.07,-0.06
255.45,2.29,2.35,2.29,2.36,-2.36,-2.92,-0.06,-0.07,-0.06
258.00,2.22,2.28,2.20,2.27,-2.27,-2.91,-0.05,-0.07,-0.06
260.58,2.13,2.19,2.12,2.19,-2.19,-2.89,-0.05,-0.07,-0.06
263.19,2.04,2.10,2.04,2.11,-2.11,-2.86,-0.06,-0.06,-0.06
265.82,1.95,2.01,1.97,2.03,-2.03,-2.84,-0.07,-0.06,-0.06
268.48,1.88,1.94,1.90,1.95,-1.95,-2.81,-0.07,-0.06,-0.06
271.16,1.83,1.89,1.83,1.89,-1.89,-2.78,-0.05,-0.05,-0.05
273.87,1.75,1.80,1.77,1.82,-1.82,-2.74,-0.07,-0.05,-0.05
276.61,1.71,1.75,1.72,1.76,-1.76,-2.71,-0.05,-0.04,-0.04
279.38,1.67,1.70,1.68,1.71,-1.71,-2.67,-0.04,-0.03,-0.03
282.17,1.63,1.65,1.64,1.67,-1.67,-2.63,-0.03,-0.03,-0.02
284.99,1.60,1.61,1.61,1.63,-1.63,-2.58,-0.02,-0.02,-0.01
287.84,1.56,1.56,1.59,1.59,-1.59,-2.54,-0.03,-0.01,0.01
290.72,1.56,1.54,1.57,1.57,-1.57,-2.49,-0.00,0.01,0.02
293.63,1.54,1.51,1.56,1.54,-1.54,-2.45,-0.00,0.02,0.03
296.57,1.53,1.49,1.56,1.53,-1.53,-2.40,0.01,0.03,0.04
299.53,1.53,1.48,1.55,1.51,-1.51,-2.36,0.02,0.04,0.05
302.53,1.54,1.49,1.55,1.50,-1.50,-2.31,0.04,0.05,0.06
305.55,1.56,1.50,1.55,1.49,-1.49,-2.26,0.08,0.06,0.07
308.61,1.57,1.50,1.54,1.47,-1.47,-2.22,0.10,0.07,0.07
311.69,1.56,1.49,1.53,1.46,-1.46,-2.17,0.10,0.07,0.08
314.81,1.55,1.47,1.52,1.45,-1.45,-2.12,0.11,0.08,0.08
317.96,1.54,1.46,1.51,1.43,-1.43,-2.08,0.11,0.08,0.08
321.14,1.51,1.43,1.50,1.41,-1.41,-2.03,0.10,0.09,0.08
324.35,1.48,1.40,1.48,1.39,-1.39,-1.99,0.10,0.09,0.09
327.59,1.45,1.37,1.45,1.36,-1.36,-1.95,0.09,0.09,0.09
330.87,1.42,1.33,1.43,1.34,-1.34,-1.91,0.08,0.09,0.09
334.18,1.39,1.30,1.40,1.31,-1.31,-1.87,0.08,0.09,0.09
337.52,1.35,1.26,1.37,1.28,-1.28,-1.83,0.07,0.09,0.09
340.90,1.32,1.23,1.34,1.26,-1.26,-1.79,0.07,0.09,0.10
344.30,1.29,1.20,1.32,1.23,-1.23,-1.75,0.06,0.09,0.10
347.75,1.28,1.19,1.29,1.20,-1.20,-1.72,0.08,0.09,0.10
351.23,1.26,1.17,1.27,1.18,-1.18,-1.68,0.09,0.09,0.10
354.74,1.24,1.15,1.24,1.15,-1.15,-1.65,0.09,0.09,0.09
358.28,1.21,1.12,1.22,1.13,-1.13,-1.62,0.08,0.09,0.09
361.87,1.19,1.11,1.19,1.11,-1.11,-1.59,0.09,0.08,0.09
365.49,1.17,1.09,1.17,1.09,-1.09,-1.56,0.09,0.08,0.08
369.14,1.15,1.08,1.14,1.06,-1.06,-1.53,0.09,0.08,0.07
372.83,1.13,1.07,1.11,1.04,-1.04,-1.50,0.09,0.07,0.06
376.56,1.09,1.04,1.08,1.02,-1.02,-1.48,0.07,0.06,0.06
380.33,1.06,1.02,1.05,1.00,-1.00,-1.46,0.06,0.05,0.05
384.13,1.03,1.00,1.02,0.98,-0.98,-1.43,0.05,0.03,0.04
387.97,1.00,0.98,0.99,0.97,-0.97,-1.41,0.03,0.02,0.03
391.85,0.96,0.95,0.96,0.96,-0.96,-1.39,0.01,0.00,0.02
395.77,0.93,0.93,0.94,0.95,-0.95,-1.37,-0.02,-0.01,0.01
399.73,0.90,0.91,0.92,0.95,-0.95,-1.35,-0.04,-0.02,-0.01
403.72,0.88,0.90,0.91,0.95,-0.95,-1.33,-0.06,-0.03,-0.02
407.76,0.86,0.89,0.91,0.95,-0.95,-1.32,-0.09,-0.05,-0.03
411.84,0.87,0.92,0.91,0.97,-0.97,-1.30,-0.09,-0.06,-0.04
415.96,0.89,0.95,0.92,0.99,-0.99,-1.29,-0.09,-0.07,-0.05
420.12,0.92,0.99,0.93,1.01,-1.01,-1.27,-0.09,-0.08,-0.06
424.32,0.95,1.03,0.96,1.04,-1.04,-1.26,-0.09,-0.08,-0.07
428.56,0.98,1.06,0.98,1.07,-1.07,-1.24,-0.09,-0.09,-0.08
432.85,1.02,1.11,1.02,1.11,-1.11,-1.23,-0.08,-0.09,-0.09
437.18,1.05,1.15,1.05,1.14,-1.14,-1.22,-0.09,-0.09,-0.09
441.55,1.09,1.19,1.08,1.18,-1.18,-1.21,-0.08,-0.09,-0.10
445.96,1.12,1.23,1.12,1.21,-1.21,-1.19,-0.09,-0.09,-0.10
450.42,1.16,1.27,1.15,1.24,-1.24,-1.18,-0.07,-0.09,-0.10
454.93,1.18,1.28,1.17,1.26,-1.26,-1.17,-0.08,-0.09,-0.10
459.48,1.21,1.31,1.20,1.29,-1.29,-1.16,-0.07,-0.09,-0.10
464.07,1.23,1.33,1.21,1.30,-1.30,-1.15,-0.07,-0.09,-0.09
468.71,1.24,1.33,1.23,1.32,-1.32,-1.14,-0.07,-0.09,-0.09
473.40,1.25,1.34,1.24,1.33,-1.33,-1.12,-0.07,-0.09,-0.09
478.13,1.25,1.34,1.24,1.33,-1.33,-1.11,-0.08,-0.09,-0.08
482.91,1.24,1.32,1.25,1.33,-1.33,-1.10,-0.09,-0.09,-0.08
487.74,1.23,1.31,1.25,1.33,-1.33,-1.09,-0.10,-0.08,-0.08
492.62,1.23,1.31,1.25,1.33,-1.33,-1.07,-0.09,-0.08,-0.07
497.55,1.23,1.31,1.25,1.32,-1.32,-1.06,-0.09,-0.08,-0.07
502.52,1.23,1.30,1.24,1.32,-1.32,-1.05,-0.08,-0.07,-0.07
507.55,1.23,1.30,1.24,1.31,-1.31,-1.03,-0.08,-0.07,-0.07
512.62,1.23,1.30,1.24,1.31,-1.31,-1.02,-0.07,-0.07,-0.07
517.75,1.23,1.30,1.23,1.30,-1.30,-1.00,-0.07,-0.07,-0.06
522.93,1.23,1.29,1.23,1.30,-1.30,-0.99,-0.06,-0.07,-0.06
528.16,1.23,1.29,1.23,1.30,-1.30,-0.97,-0.06,-0.06,-0.06
533.44,1.23,1.29,1.24,1.29,-1.29,-0.95,-0.06,-0.06,-0.05
538.77,1.23,1.28,1.24,1.29,-1.29,-0.94,-0.06,-0.05,-0.05
544.16,1.23,1.28,1.24,1.29,-1.29,-0.92,-0.05,-0.05,-0.05
549.60,1.23,1.28,1.24,1.29,-1.29,-0.90,-0.05,-0.04,-0.04
555.10,1.23,1.27,1.24,1.28,-1.28,-0.89,-0.05,-0.04,-0.04
560.65,1.23,1.27,1.24,1.28,-1.28,-0.87,-0.05,-0.04,-0.03
566.25,1.24,1.27,1.24,1.27,-1.27,-0.85,-0.03,-0.03,-0.03
571.92,1.24,1.27,1.24,1.27,-1.27,-0.83,-0.02,-0.03,-0.03
577.64,1.24,1.27,1.23,1.26,-1.26,-0.82,-0.01,-0.03,-0.02
583.41,1.24,1.26,1.22,1.25,-1.25,-0.80,-0.00,-0.02,-0.02
589.25,1.23,1.25,1.21,1.23,-1.23,-0.78,0.00,-0.02,-0.02
595.14,1.20,1.22,1.20,1.21,-1.21,-0.76,-0.01,-0.02,-0.02
601.09,1.17,1.19,1.18,1.19,-1.19,-0.74,-0.02,-0.01,-0.02
607.10,1.14,1.16,1.16,1.17,-1.17,-0.73,-0.02,-0.01,-0.01
613.17,1.13,1.15,1.13,1.14,-1.14,-0.71,-0.00,-0.01,-0.01
619.30,1.10,1.12,1.10,1.11,-1.11,-0.69,-0.00,-0.01,-0.01
625.50,1.07,1.08,1.07,1.07,-1.07,-0.68,0.00,-0.00,-0.01
631.75,1.04,1.05,1.04,1.03,-1.03,-0.66,0.01,0.00,-0.00
638.07,1.00,1.00,1.00,0.99,-0.99,-0.64,0.01,0.01,0.01
644.45,0.96,0.95,0.97,0.95,-0.95,-0.63,0.01,0.01,0.01
650.89,0.92,0.90,0.93,0.91,-0.91,-0.61,0.01,0.02,0.02
657.40,0.88,0.85,0.90,0.87,-0.87,-0.59,0.02,0.03,0.03
663.98,0.84,0.80,0.86,0.82,-0.82,-0.58,0.02,0.04,0.04
670.62,0.81,0.76,0.83,0.78,-0.78,-0.56,0.04,0.05,0.05
677.32,0.78,0.72,0.79,0.73,-0.73,-0.55,0.05,0.06,0.06
684.10,0.75,0.69,0.74,0.69,-0.69,-0.54,0.07,0.06,0.07
690.94,0.71,0.64,0.70,0.64,-0.64,-0.52,0.07,0.06,0.07
697.85,0.67,0.60,0.66,0.59,-0.59,-0.51,0.08,0.06,0.07
704.83,0.62,0.55,0.62,0.55,-0.55,-0.50,0.07,0.07,0.07
711.87,0.58,0.51,0.57,0.51,-0.51,-0.48,0.08,0.07,0.07
718.99,0.53,0.47,0.52,0.46,-0.46,-0.47,0.07,0.06,0.07
726.18,0.48,0.42,0.48,0.42,-0.42,-0.46,0.07,0.06,0.06
733.44,0.41,0.36,0.43,0.37,-0.37,-0.45,0.04,0.05,0.05
740.78,0.35,0.31,0.37,0.33,-0.33,-0.44,0.02,0.04,0.04
748.19,0.30,0.27,0.32,0.29,-0.29,-0.43,0.01,0.03,0.03
755.67,0.26,0.25,0.27,0.25,-0.25,-0.41,0.02,0.02,0.02
763.23,0.22,0.22,0.21,0.21,-0.21,-0.40,0.02,0.01,0.00
