frequency,raw,smoothed,error,error_smoothed,equalization,parametric_eq,fixed_band_eq,equalized_raw,equalized_smoothed,target
20.00,8.35,8.35,-0.78,-0.78,0.79,0.57,0.18,9.14,9.14,9.13
20.20,8.36,8.36,-0.77,-0.77,0.78,0.57,0.18,9.14,9.13,9.13
20.40,8.36,8.36,-0.77,-0.77,0.76,0.56,0.19,9.12,9.12,9.13
20.61,8.37,8.37,-0.76,-0.75,0.74,0.56,0.20,9.12,9.12,9.13
20.81,8.39,8.39,-0.74,-0.74,0.73,0.56,0.20,9.12,9.12,9.13
21.02,8.41,8.41,-0.72,-0.72,0.71,0.55,0.21,9.12,9.12,9.13
21.23,8.43,8.43,-0.70,-0.70,0.69,0.55,0.22,9.12,9.12,9.13
21.44,8.45,8.45,-0.67,-0.67,0.68,0.55,0.22,9.13,9.13,9.13
21.66,8.47,8.47,-0.65,-0.65,0.65,0.54,0.23,9.13,9.13,9.12
21.87,8.49,8.49,-0.63,-0.63,0.63,0.54,0.24,9.13,9.13,9.12
22.09,8.51,8.51,-0.61,-0.61,0.61,0.53,0.25,9.13,9.12,9.12
22.31,8.53,8.53,-0.59,-0.59,0.60,0.53,0.25,9.13,9.12,9.12
22.54,8.54,8.54,-0.58,-0.58,0.58,0.52,0.26,9.12,9.12,9.12
22.76,8.56,8.56,-0.56,-0.56,0.56,0.52,0.27,9.13,9.12,9.12
22.99,8.57,8.57,-0.55,-0.55,0.55,0.51,0.28,9.12,9.12,9.12
23.22,8.58,8.58,-0.54,-0.54,0.54,0.51,0.29,9.12,9.12,9.12
23.45,8.59,8.59,-0.53,-0.52,0.52,0.50,0.29,9.11,9.11,9.12
23.69,8.61,8.61,-0.51,-0.51,0.51,0.50,0.30,9.12,9.11,9.12
23.92,8.62,8.62,-0.49,-0.49,0.49,0.49,0.31,9.11,9.11,9.12
24.16,8.64,8.64,-0.47,-0.48,0.47,0.49,0.32,9.11,9.11,9.11
24.40,8.65,8.65,-0.46,-0.46,0.46,0.48,0.33,9.11,9.11,9.11
24.65,8.67,8.67,-0.44,-0.44,0.44,0.47,0.34,9.11,9.11,9.11
24.89,8.69,8.69,-0.42,-0.42,0.42,0.47,0.35,9.12,9.11,9.11
25.14,8.70,8.70,-0.41,-0.41,0.41,0.46,0.36,9.11,9.11,9.11
25.39,8.71,8.71,-0.40,-0.40,0.41,0.45,0.37,9.12,9.12,9.11
25.65,8.71,8.71,-0.40,-0.39,0.40,0.44,0.38,9.11,9.11,9.11
25.91,8.71,8.71,-0.39,-0.40,0.40,0.43,0.39,9.11,9.11,9.10
26.16,8.70,8.70,-0.40,-0.40,0.41,0.43,0.40,9.11,9.11,9.10
26.43,8.69,8.69,-0.41,-0.41,0.41,0.42,0.41,9.10,9.10,9.10
26.69,8.68,8.68,-0.42,-0.42,0.41,0.41,0.42,9.09,9.09,9.10
26.96,8.68,8.68,-0.42,-0.42,0.41,0.40,0.43,9.09,9.09,9.10
27.23,8.68,8.68,-0.42,-0.42,0.41,0.39,0.43,9.09,9.09,9.10
27.50,8.69,8.69,-0.40,-0.40,0.39,0.38,0.44,9.09,9.08,9.09
27.77,8.70,8.71,-0.39,-0.39,0.38,0.37,0.45,9.08,9.08,9.09
28.05,8.73,8.73,-0.36,-0.36,0.36,0.36,0.46,9.09,9.09,9.09
28.33,8.76,8.76,-0.33,-0.33,0.33,0.35,0.46,9.09,9.09,9.09
28.62,8.78,8.79,-0.31,-0.30,0.31,0.34,0.47,9.09,9.09,9.09
28.90,8.81,8.81,-0.27,-0.28,0.28,0.33,0.48,9.09,9.09,9.08
29.19,8.83,8.83,-0.25,-0.25,0.26,0.31,0.48,9.09,9.09,9.08
29.48,8.84,8.84,-0.24,-0.24,0.24,0.30,0.49,9.09,9.09,9.08
29.78,8.85,8.85,-0.23,-0.23,0.24,0.29,0.49,9.09,9.08,9.08
30.08,8.85,8.85,-0.22,-0.23,0.23,0.28,0.49,9.08,9.08,9.07
30.38,8.84,8.84,-0.23,-0.23,0.23,0.27,0.50,9.07,9.07,9.07
30.68,8.83,8.83,-0.24,-0.24,0.24,0.27,0.50,9.07,9.07,9.07
30.99,8.82,8.82,-0.24,-0.25,0.24,0.26,0.50,9.06,9.06,9.07
31.30,8.81,8.81,-0.25,-0.25,0.25,0.25,0.50,9.06,9.06,9.06
31.61,8.80,8.80,-0.26,-0.26,0.25,0.24,0.49,9.05,9.05,9.06
31.93,8.80,8.80,-0.26,-0.26,0.25,0.24,0.49,9.05,9.05,9.06
32.24,8.80,8.80,-0.25,-0.25,0.24,0.23,0.49,9.04,9.05,9.05
32.57,8.81,8.81,-0.24,-0.24,0.24,0.23,0.48,9.05,9.05,9.05
32.89,8.82,8.82,-0.22,-0.23,0.23,0.23,0.48,9.05,9.05,9.05
33.22,8.83,8.83,-0.21,-0.21,0.22,0.23,0.47,9.05,9.05,9.04
33.55,8.83,8.83,-0.21,-0.20,0.21,0.22,0.47,9.04,9.05,9.04
33.89,8.84,8.84,-0.19,-0.20,0.20,0.22,0.46,9.05,9.04,9.03
34.23,8.83,8.83,-0.20,-0.20,0.20,0.22,0.45,9.03,9.03,9.03
34.57,8.83,8.83,-0.19,-0.20,0.20,0.22,0.44,9.03,9.02,9.03
34.92,8.82,8.82,-0.20,-0.20,0.19,0.22,0.44,9.01,9.02,9.02
35.27,8.82,8.82,-0.20,-0.19,0.19,0.22,0.43,9.01,9.01,9.02
35.62,8.82,8.82,-0.19,-0.19,0.19,0.22,0.42,9.01,9.01,9.01
35.97,8.82,8.82,-0.19,-0.19,0.18,0.22,0.41,9.00,9.00,9.01
36.33,8.82,8.82,-0.18,-0.18,0.18,0.22,0.40,9.00,9.00,9.00
36.70,8.82,8.82,-0.17,-0.17,0.17,0.22,0.39,8.99,8.99,9.00
37.06,8.82,8.83,-0.17,-0.16,0.16,0.22,0.37,8.99,8.99,8.99
37.43,8.83,8.83,-0.15,-0.16,0.16,0.22,0.36,8.99,8.99,8.98
37.81,8.83,8.83,-0.15,-0.15,0.15,0.21,0.35,8.99,8.98,8.98
38.19,8.82,8.83,-0.15,-0.15,0.15,0.21,0.34,8.97,8.98,8.97
38.57,8.82,8.82,-0.14,-0.15,0.15,0.21,0.33,8.97,8.97,8.96
38.95,8.81,8.81,-0.15,-0.15,0.15,0.20,0.32,8.96,8.96,8.96
39.34,8.80,8.80,-0.15,-0.15,0.15,0.20,0.31,8.95,8.95,8.95
39.74,8.79,8.79,-0.15,-0.15,0.15,0.20,0.30,8.94,8.94,8.94
40.14,8.79,8.79,-0.15,-0.15,0.15,0.19,0.28,8.94,8.93,8.94
40.54,8.78,8.78,-0.15,-0.15,0.14,0.19,0.27,8.92,8.93,8.93
40.94,8.78,8.78,-0.14,-0.14,0.14,0.18,0.26,8.92,8.92,8.92
41.35,8.77,8.77,-0.14,-0.14,0.14,0.18,0.25,8.91,8.91,8.91
41.76,8.77,8.77,-0.13,-0.13,0.13,0.17,0.24,8.91,8.90,8.90
42.18,8.76,8.76,-0.13,-0.13,0.13,0.16,0.23,8.89,8.89,8.89
42.60,8.76,8.76,-0.12,-0.13,0.13,0.16,0.22,8.89,8.89,8.88
43.03,8.75,8.75,-0.12,-0.12,0.13,0.15,0.21,8.88,8.88,8.87
43.46,8.74,8.74,-0.12,-0.12,0.12,0.14,0.20,8.87,8.87,8.86
43.90,8.73,8.73,-0.12,-0.12,0.12,0.13,0.19,8.85,8.85,8.85
44.33,8.72,8.72,-0.12,-0.12,0.12,0.13,0.18,8.84,8.84,8.84
44.78,8.71,8.71,-0.12,-0.12,0.12,0.12,0.17,8.83,8.83,8.83
45.23,8.70,8.70,-0.12,-0.12,0.12,0.11,0.16,8.82,8.82,8.82
45.68,8.69,8.69,-0.12,-0.12,0.11,0.10,0.16,8.81,8.81,8.81
46.13,8.68,8.68,-0.12,-0.11,0.11,0.09,0.15,8.79,8.79,8.80
46.60,8.68,8.68,-0.10,-0.11,0.11,0.08,0.14,8.79,8.78,8.78
47.06,8.67,8.67,-0.10,-0.10,0.10,0.07,0.13,8.77,8.77,8.77
47.53,8.66,8.66,-0.10,-0.09,0.10,0.06,0.12,8.76,8.76,8.76
48.01,8.65,8.65,-0.09,-0.09,0.09,0.05,0.11,8.74,8.74,8.74
48.49,8.64,8.64,-0.09,-0.09,0.08,0.04,0.11,8.73,8.73,8.73
48.97,8.63,8.63,-0.08,-0.08,0.08,0.03,0.10,8.71,8.71,8.71
49.46,8.62,8.62,-0.07,-0.08,0.08,0.01,0.09,8.70,8.70,8.70
49.96,8.61,8.61,-0.07,-0.07,0.07,0.00,0.08,8.68,8.68,8.68
50.46,8.59,8.59,-0.07,-0.07,0.07,-0.01,0.08,8.66,8.66,8.66
50.96,8.58,8.58,-0.06,-0.07,0.07,-0.02,0.07,8.65,8.65,8.64
51.47,8.56,8.56,-0.07,-0.06,0.06,-0.04,0.06,8.62,8.62,8.63
51.99,8.55,8.55,-0.06,-0.06,0.06,-0.05,0.05,8.61,8.60,8.61
52.51,8.53,8.53,-0.06,-0.06,0.05,-0.06,0.04,8.58,8.58,8.59
53.03,8.52,8.52,-0.05,-0.04,0.04,-0.08,0.03,8.56,8.56,8.57
53.56,8.52,8.52,-0.03,-0.03,0.03,-0.09,0.03,8.55,8.55,8.55
54.10,8.51,8.51,-0.02,-0.02,0.02,-0.11,0.02,8.53,8.53,8.53
54.64,8.50,8.50,-0.00,-0.01,0.01,-0.12,0.01,8.51,8.51,8.50
55.18,8.48,8.48,-0.00,0.00,0.00,-0.14,-0.00,8.48,8.49,8.48
55.74,8.47,8.47,0.01,0.01,-0.01,-0.15,-0.01,8.46,8.46,8.46
56.29,8.45,8.45,0.02,0.01,-0.02,-0.17,-0.02,8.43,8.43,8.43
56.86,8.43,8.43,0.02,0.02,-0.03,-0.19,-0.03,8.40,8.41,8.41
57.42,8.41,8.41,0.03,0.03,-0.03,-0.20,-0.04,8.38,8.38,8.38
58.00,8.40,8.40,0.04,0.04,-0.04,-0.22,-0.06,8.36,8.36,8.36
58.58,8.38,8.38,0.05,0.05,-0.04,-0.24,-0.07,8.34,8.34,8.33
59.16,8.36,8.36,0.06,0.06,-0.05,-0.26,-0.08,8.31,8.31,8.30
59.76,8.34,8.34,0.07,0.06,-0.06,-0.27,-0.10,8.28,8.28,8.27
60.35,8.31,8.31,0.07,0.06,-0.07,-0.29,-0.11,8.24,8.24,8.24
60.96,8.28,8.28,0.07,0.07,-0.08,-0.31,-0.13,8.20,8.20,8.21
61.57,8.26,8.27,0.08,0.08,-0.10,-0.33,-0.14,8.16,8.16,8.18
62.18,8.26,8.26,0.11,0.11,-0.12,-0.35,-0.16,8.14,8.14,8.15
62.80,8.26,8.26,0.14,0.14,-0.15,-0.37,-0.18,8.11,8.11,8.12
63.43,8.26,8.26,0.18,0.18,-0.17,-0.39,-0.20,8.09,8.09,8.08
64.07,8.26,8.26,0.21,0.21,-0.19,-0.41,-0.22,8.07,8.06,8.05
64.71,8.24,8.24,0.23,0.23,-0.22,-0.43,-0.24,8.03,8.03,8.01
65.35,8.22,8.22,0.25,0.25,-0.23,-0.46,-0.26,7.99,7.99,7.97
66.01,8.19,8.19,0.26,0.25,-0.25,-0.48,-0.29,7.94,7.94,7.94
66.67,8.15,8.15,0.25,0.26,-0.26,-0.50,-0.31,7.89,7.89,7.90
67.33,8.12,8.12,0.26,0.26,-0.27,-0.52,-0.34,7.85,7.85,7.86
68.01,8.09,8.09,0.28,0.28,-0.28,-0.55,-0.36,7.81,7.81,7.82
68.69,8.07,8.07,0.30,0.30,-0.30,-0.57,-0.39,7.77,7.77,7.77
69.37,8.05,8.05,0.32,0.32,-0.32,-0.60,-0.42,7.73,7.73,7.73
70.07,8.03,8.03,0.34,0.34,-0.34,-0.62,-0.44,7.69,7.69,7.69
70.77,8.01,8.01,0.37,0.37,-0.37,-0.65,-0.47,7.64,7.64,7.64
71.48,8.00,8.00,0.41,0.40,-0.41,-0.67,-0.50,7.59,7.59,7.60
72.19,7.99,7.99,0.44,0.44,-0.45,-0.70,-0.54,7.54,7.54,7.55
72.91,7.98,7.98,0.48,0.48,-0.49,-0.72,-0.57,7.49,7.50,7.50
73.64,7.98,7.98,0.53,0.53,-0.53,-0.75,-0.60,7.45,7.45,7.45
74.38,7.97,7.97,0.57,0.57,-0.57,-0.78,-0.64,7.40,7.40,7.40
75.12,7.97,7.97,0.62,0.62,-0.62,-0.81,-0.67,7.35,7.36,7.35
75.87,7.97,7.96,0.67,0.67,-0.66,-0.83,-0.71,7.31,7.30,7.30
76.63,7.95,7.95,0.71,0.71,-0.70,-0.86,-0.74,7.25,7.25,7.24
77.40,7.93,7.93,0.74,0.75,-0.75,-0.89,-0.78,7.18,7.19,7.19
78.17,7.92,7.92,0.79,0.78,-0.79,-0.92,-0.82,7.13,7.13,7.13
78.95,7.90,7.90,0.82,0.83,-0.83,-0.95,-0.86,7.07,7.07,7.08
79.74,7.89,7.89,0.87,0.87,-0.87,-0.98,-0.90,7.02,7.02,7.02
80.54,7.87,7.87,0.91,0.91,-0.90,-1.01,-0.94,6.97,6.97,6.96
81.35,7.85,7.85,0.95,0.95,-0.94,-1.04,-0.98,6.91,6.91,6.90
82.16,7.82,7.82,0.98,0.98,-0.97,-1.07,-1.03,6.85,6.85,6.84
82.98,7.79,7.79,1.01,1.01,-1.00,-1.11,-1.07,6.79,6.78,6.78
83.81,7.75,7.75,1.03,1.03,-1.04,-1.14,-1.12,6.71,6.71,6.72
84.65,7.72,7.72,1.06,1.06,-1.07,-1.17,-1.16,6.65,6.65,6.66
85.50,7.69,7.69,1.10,1.10,-1.11,-1.21,-1.21,6.58,6.58,6.59
86.35,7.67,7.67,1.14,1.14,-1.15,-1.24,-1.26,6.52,6.52,6.53
87.22,7.65,7.65,1.19,1.19,-1.19,-1.27,-1.31,6.46,6.46,6.46
88.09,7.63,7.63,1.23,1.23,-1.23,-1.31,-1.36,6.40,6.40,6.40
88.97,7.61,7.61,1.28,1.28,-1.27,-1.34,-1.41,6.34,6.34,6.33
89.86,7.59,7.59,1.33,1.32,-1.32,-1.38,-1.47,6.27,6.27,6.26
90.76,7.56,7.56,1.37,1.36,-1.36,-1.41,-1.52,6.20,6.20,6.20
91.66,7.53,7.53,1.40,1.41,-1.40,-1.45,-1.58,6.13,6.13,6.13
92.58,7.50,7.50,1.44,1.45,-1.45,-1.49,-1.63,6.05,6.05,6.06
93.51,7.48,7.48,1.49,1.49,-1.49,-1.52,-1.69,5.99,5.98,5.99
94.44,7.45,7.45,1.53,1.54,-1.54,-1.56,-1.75,5.91,5.92,5.92
95.39,7.43,7.43,1.58,1.58,-1.59,-1.60,-1.80,5.85,5.85,5.85
96.34,7.41,7.41,1.63,1.63,-1.64,-1.63,-1.86,5.78,5.77,5.78
97.30,7.39,7.39,1.69,1.69,-1.69,-1.67,-1.92,5.70,5.70,5.70
98.28,7.37,7.37,1.74,1.74,-1.74,-1.71,-1.99,5.63,5.63,5.63
99.26,7.35,7.35,1.79,1.79,-1.79,-1.75,-2.05,5.56,5.56,5.56
100.25,7.34,7.34,1.85,1.85,-1.85,-1.79,-2.11,5.49,5.49,5.49
101.25,7.32,7.32,1.91,1.91,-1.90,-1.83,-2.17,5.42,5.42,5.41
102.27,7.30,7.30,1.96,1.96,-1.95,-1.87,-2.23,5.35,5.35,5.34
103.29,7.28,7.28,2.01,2.01,-2.01,-1.91,-2.30,5.27,5.27,5.27
104.32,7.25,7.25,2.05,2.06,-2.06,-1.94,-2.36,5.19,5.20,5.20
105.37,7.23,7.23,2.11,2.11,-2.11,-1.98,-2.42,5.12,5.12,5.12
106.42,7.20,7.20,2.15,2.15,-2.16,-2.02,-2.48,5.04,5.05,5.05
107.48,7.18,7.18,2.20,2.20,-2.20,-2.06,-2.54,4.98,4.98,4.98
108.56,7.15,7.15,2.25,2.25,-2.25,-2.10,-2.60,4.90,4.90,4.90
109.64,7.13,7.13,2.30,2.30,-2.29,-2.14,-2.66,4.84,4.83,4.83
110.74,7.10,7.10,2.34,2.34,-2.34,-2.18,-2.72,4.76,4.76,4.76
111.85,7.07,7.07,2.38,2.39,-2.38,-2.22,-2.77,4.69,4.69,4.69
112.97,7.04,7.04,2.43,2.43,-2.43,-2.26,-2.82,4.61,4.61,4.61
114.10,7.01,7.01,2.47,2.47,-2.47,-2.30,-2.87,4.54,4.54,4.54
115.24,6.98,6.98,2.51,2.51,-2.51,-2.34,-2.92,4.47,4.47,4.47
116.39,6.95,6.95,2.55,2.55,-2.55,-2.38,-2.97,4.40,4.40,4.40
117.55,6.92,6.92,2.59,2.59,-2.59,-2.42,-3.01,4.33,4.33,4.33
118.73,6.89,6.89,2.63,2.63,-2.63,-2.46,-3.04,4.26,4.26,4.26
119.92,6.86,6.86,2.67,2.67,-2.67,-2.50,-3.08,4.19,4.19,4.19
121.12,6.82,6.83,2.70,2.70,-2.70,-2.54,-3.11,4.12,4.12,4.12
122.33,6.79,6.79,2.74,2.74,-2.74,-2.58,-3.13,4.05,4.06,4.05
123.55,6.76,6.76,2.77,2.77,-2.77,-2.62,-3.16,3.99,3.99,3.99
124.79,6.72,6.72,2.80,2.80,-2.80,-2.65,-3.17,3.92,3.92,3.92
126.03,6.68,6.68,2.83,2.83,-2.83,-2.69,-3.19,3.85,3.85,3.85
127.29,6.64,6.64,2.85,2.85,-2.85,-2.73,-3.20,3.79,3.79,3.79
128.57,6.60,6.60,2.88,2.88,-2.88,-2.77,-3.21,3.72,3.72,3.72
129.85,6.57,6.57,2.91,2.91,-2.91,-2.80,-3.21,3.66,3.66,3.66
131.15,6.53,6.53,2.93,2.94,-2.94,-2.84,-3.21,3.59,3.59,3.60
132.46,6.50,6.50,2.97,2.97,-2.97,-2.87,-3.20,3.53,3.53,3.53
133.79,6.47,6.47,3.00,3.00,-3.00,-2.91,-3.19,3.47,3.47,3.47
135.12,6.44,6.44,3.03,3.03,-3.03,-2.94,-3.18,3.41,3.41,3.41
136.48,6.42,6.42,3.07,3.07,-3.06,-2.97,-3.17,3.36,3.36,3.35
137.84,6.39,6.39,3.10,3.10,-3.09,-3.01,-3.15,3.30,3.30,3.29
139.22,6.36,6.36,3.12,3.12,-3.11,-3.04,-3.13,3.25,3.25,3.24
140.61,6.32,6.32,3.14,3.14,-3.14,-3.07,-3.11,3.19,3.19,3.18
142.02,6.28,6.28,3.16,3.16,-3.16,-3.10,-3.09,3.12,3.12,3.12
143.44,6.25,6.25,3.18,3.18,-3.19,-3.13,-3.07,3.06,3.06,3.07
144.87,6.21,6.22,3.19,3.20,-3.22,-3.16,-3.04,2.99,3.00,3.02
146.32,6.20,6.20,3.24,3.23,-3.25,-3.18,-3.02,2.95,2.95,2.96
147.78,6.18,6.19,3.27,3.27,-3.28,-3.21,-2.99,2.90,2.90,2.91
149.26,6.18,6.18,3.32,3.32,-3.31,-3.23,-2.97,2.87,2.87,2.86
150.75,6.17,6.17,3.36,3.36,-3.34,-3.26,-2.94,2.83,2.83,2.81
152.26,6.15,6.15,3.39,3.38,-3.36,-3.28,-2.92,2.79,2.79,2.76
153.78,6.11,6.11,3.39,3.39,-3.38,-3.30,-2.89,2.73,2.73,2.72
155.32,6.06,6.06,3.39,3.39,-3.39,-3.32,-2.87,2.67,2.67,2.67
156.88,6.01,6.01,3.39,3.39,-3.40,-3.34,-2.85,2.61,2.61,2.62
158.44,5.97,5.97,3.39,3.39,-3.40,-3.36,-2.83,2.57,2.56,2.58
160.03,5.93,5.93,3.39,3.40,-3.41,-3.38,-2.81,2.52,2.52,2.54
161.63,5.89,5.89,3.41,3.41,-3.41,-3.39,-2.79,2.48,2.49,2.48
163.24,5.86,5.86,3.42,3.41,-3.41,-3.41,-2.77,2.45,2.45,2.44
164.88,5.82,5.82,3.42,3.42,-3.41,-3.42,-2.76,2.41,2.41,2.40
166.53,5.78,5.78,3.42,3.42,-3.42,-3.43,-2.75,2.36,2.36,2.36
168.19,5.74,5.74,3.42,3.42,-3.42,-3.44,-2.74,2.32,2.32,2.32
169.87,5.71,5.71,3.42,3.42,-3.42,-3.45,-2.73,2.29,2.28,2.29
171.57,5.67,5.67,3.42,3.42,-3.42,-3.46,-2.72,2.25,2.25,2.25
173.29,5.63,5.63,3.42,3.42,-3.42,-3.46,-2.72,2.21,2.22,2.22
175.02,5.60,5.60,3.42,3.42,-3.42,-3.47,-2.72,2.19,2.18,2.18
176.77,5.56,5.56,3.41,3.41,-3.41,-3.47,-2.71,2.15,2.15,2.15
178.54,5.52,5.52,3.41,3.41,-3.41,-3.47,-2.72,2.12,2.12,2.11
180.32,5.48,5.48,3.40,3.40,-3.40,-3.47,-2.72,2.08,2.08,2.08
182.13,5.44,5.44,3.39,3.39,-3.39,-3.47,-2.73,2.05,2.05,2.05
183.95,5.40,5.40,3.38,3.38,-3.38,-3.47,-2.74,2.02,2.02,2.02
185.79,5.36,5.36,3.37,3.37,-3.37,-3.46,-2.75,1.99,1.99,1.99
187.65,5.32,5.32,3.36,3.36,-3.36,-3.45,-2.76,1.96,1.96,1.96
189.52,5.28,5.28,3.34,3.34,-3.34,-3.45,-2.77,1.94,1.94,1.94
191.42,5.24,5.24,3.33,3.33,-3.33,-3.44,-2.79,1.91,1.91,1.91
193.33,5.20,5.20,3.32,3.32,-3.32,-3.42,-2.81,1.88,1.88,1.88
195.27,5.16,5.16,3.30,3.30,-3.30,-3.41,-2.83,1.86,1.86,1.86
197.22,5.12,5.12,3.29,3.29,-3.29,-3.40,-2.85,1.84,1.84,1.84
199.19,5.08,5.08,3.27,3.27,-3.27,-3.38,-2.87,1.81,1.81,1.81
201.18,5.04,5.04,3.25,3.25,-3.25,-3.37,-2.90,1.79,1.79,1.79
203.19,4.99,4.99,3.22,3.23,-3.23,-3.35,-2.92,1.77,1.77,1.77
205.23,4.95,4.95,3.21,3.20,-3.20,-3.33,-2.95,1.75,1.75,1.75
207.28,4.90,4.90,3.18,3.18,-3.18,-3.31,-2.97,1.72,1.72,1.72
209.35,4.86,4.86,3.16,3.15,-3.16,-3.28,-3.00,1.70,1.70,1.70
211.44,4.81,4.81,3.13,3.13,-3.13,-3.26,-3.02,1.68,1.68,1.68
213.56,4.77,4.77,3.10,3.11,-3.11,-3.24,-3.05,1.66,1.66,1.67
215.69,4.73,4.73,3.08,3.08,-3.08,-3.21,-3.08,1.65,1.65,1.65
217.85,4.69,4.69,3.06,3.06,-3.06,-3.18,-3.10,1.63,1.63,1.63
220.03,4.65,4.65,3.04,3.04,-3.03,-3.15,-3.12,1.62,1.62,1.61
222.23,4.60,4.60,3.00,3.01,-3.00,-3.12,-3.14,1.60,1.60,1.60
224.45,4.56,4.56,2.98,2.98,-2.98,-3.09,-3.16,1.58,1.58,1.58
226.70,4.51,4.51,2.95,2.95,-2.95,-3.06,-3.18,1.56,1.56,1.56
228.96,4.47,4.47,2.92,2.92,-2.92,-3.03,-3.20,1.55,1.55,1.55
231.25,4.42,4.42,2.89,2.89,-2.89,-2.99,-3.21,1.53,1.53,1.54
233.57,4.38,4.38,2.86,2.86,-2.86,-2.96,-3.22,1.52,1.52,1.52
235.90,4.33,4.33,2.83,2.83,-2.83,-2.92,-3.22,1.50,1.50,1.50
238.26,4.29,4.29,2.81,2.80,-2.80,-2.89,-3.23,1.49,1.49,1.49
240.64,4.24,4.24,2.77,2.77,-2.77,-2.85,-3.22,1.47,1.47,1.47
243.05,4.19,4.19,2.73,2.73,-2.73,-2.81,-3.22,1.46,1.46,1.46
245.48,4.15,4.15,2.70,2.70,-2.70,-2.77,-3.20,1.45,1.45,1.45
247.93,4.10,4.10,2.66,2.66,-2.66,-2.73,-3.19,1.44,1.44,1.44
250.41,4.05,4.05,2.62,2.63,-2.63,-2.69,-3.17,1.42,1.43,1.43
252.92,4.01,4.01,2.59,2.59,-2.59,-2.65,-3.15,1.42,1.42,1.42
255.45,3.96,3.96,2.56,2.55,-2.55,-2.60,-3.11,1.41,1.41,1.41
258.00,3.91,3.91,2.51,2.52,-2.52,-2.56,-3.08,1.39,1.40,1.40
260.58,3.86,3.86,2.47,2.48,-2.48,-2.52,-3.04,1.38,1.38,1.39
263.19,3.82,3.82,2.44,2.44,-2.44,-2.47,-3.00,1.38,1.37,1.38
265.82,3.77,3.77,2.40,2.40,-2.40,-2.43,-2.95,1.37,1.37,1.37
268.48,3.72,3.72,2.36,2.37,-2.37,-2.38,-2.90,1.36,1.36,1.36
271.16,3.68,3.68,2.33,2.33,-2.33,-2.34,-2.84,1.36,1.35,1.35
273.87,3.63,3.63,2.29,2.29,-2.28,-2.29,-2.79,1.35,1.35,1.34
276.61,3.58,3.58,2.24,2.25,-2.24,-2.24,-2.72,1.34,1.34,1.34
279.38,3.53,3.53,2.20,2.20,-2.20,-2.20,-2.66,1.33,1.33,1.33
282.17,3.48,3.48,2.16,2.15,-2.16,-2.15,-2.59,1.33,1.32,1.32
284.99,3.43,3.43,2.11,2.11,-2.11,-2.10,-2.52,1.32,1.32,1.32
287.84,3.38,3.38,2.05,2.06,-2.06,-2.05,-2.45,1.32,1.32,1.33
290.72,3.34,3.34,2.02,2.02,-2.02,-2.00,-2.38,1.32,1.32,1.32
293.63,3.29,3.29,1.98,1.97,-1.97,-1.96,-2.30,1.32,1.32,1.32
296.57,3.24,3.24,1.92,1.92,-1.92,-1.91,-2.22,1.32,1.32,1.32
299.53,3.19,3.19,1.87,1.87,-1.87,-1.86,-2.15,1.32,1.32,1.32
302.53,3.14,3.14,1.82,1.82,-1.83,-1.81,-2.07,1.32,1.32,1.32
305.55,3.10,3.10,1.78,1.78,-1.78,-1.76,-1.99,1.32,1.32,1.32
308.61,3.05,3.05,1.73,1.73,-1.73,-1.71,-1.91,1.32,1.32,1.32
311.69,3.00,3.00,1.68,1.68,-1.68,-1.66,-1.83,1.32,1.32,1.32
314.81,2.95,2.95,1.63,1.63,-1.63,-1.61,-1.75,1.32,1.32,1.32
317.96,2.90,2.90,1.58,1.58,-1.58,-1.56,-1.67,1.32,1.32,1.32
321.14,2.86,2.86,1.54,1.54,-1.53,-1.51,-1.59,1.33,1.32,1.32
324.35,2.81,2.81,1.49,1.48,-1.49,-1.45,-1.51,1.33,1.32,1.32
327.59,2.76,2.76,1.43,1.43,-1.44,-1.40,-1.44,1.32,1.33,1.33
330.87,2.71,2.71,1.38,1.38,-1.39,-1.35,-1.36,1.32,1.33,1.33
334.18,2.67,2.67,1.34,1.34,-1.34,-1.30,-1.28,1.33,1.33,1.33
337.52,2.62,2.62,1.29,1.29,-1.29,-1.25,-1.20,1.33,1.33,1.33
340.90,2.57,2.57,1.24,1.24,-1.24,-1.20,-1.13,1.33,1.34,1.34
344.30,2.53,2.53,1.19,1.19,-1.18,-1.15,-1.05,1.35,1.34,1.34
347.75,2.48,2.48,1.13,1.13,-1.13,-1.09,-0.98,1.35,1.35,1.35
351.23,2.43,2.43,1.09,1.08,-1.08,-1.04,-0.90,1.35,1.35,1.35
354.74,2.38,2.38,1.02,1.03,-1.03,-0.99,-0.83,1.35,1.36,1.36
358.28,2.34,2.34,0.98,0.97,-0.98,-0.94,-0.76,1.37,1.36,1.36
361.87,2.29,2.29,0.92,0.92,-0.92,-0.89,-0.68,1.37,1.37,1.37
365.49,2.24,2.24,0.87,0.87,-0.87,-0.84,-0.61,1.37,1.37,1.37
369.14,2.19,2.19,0.82,0.82,-0.82,-0.78,-0.54,1.37,1.38,1.37
372.83,2.15,2.15,0.76,0.76,-0.77,-0.73,-0.47,1.39,1.38,1.39
376.56,2.10,2.10,0.71,0.71,-0.71,-0.68,-0.40,1.39,1.39,1.39
380.33,2.05,2.05,0.66,0.66,-0.66,-0.63,-0.33,1.39,1.39,1.39
384.13,2.00,2.00,0.61,0.61,-0.61,-0.57,-0.26,1.39,1.40,1.39
387.97,1.96,1.96,0.56,0.55,-0.55,-0.52,-0.20,1.41,1.40,1.40
391.85,1.91,1.91,0.49,0.50,-0.50,-0.47,-0.13,1.41,1.41,1.42
395.77,1.86,1.86,0.45,0.44,-0.45,-0.42,-0.06,1.42,1.42,1.42
399.73,1.81,1.81,0.39,0.39,-0.39,-0.36,0.00,1.42,1.42,1.42
403.72,1.77,1.77,0.34,0.34,-0.34,-0.31,0.07,1.43,1.43,1.43
407.76,1.72,1.72,0.29,0.29,-0.29,-0.26,0.13,1.44,1.43,1.43
411.84,1.67,1.67,0.23,0.23,-0.23,-0.21,0.20,1.44,1.44,1.44
415.96,1.62,1.62,0.17,0.18,-0.18,-0.15,0.26,1.44,1.44,1.45
420.12,1.58,1.58,0.14,0.13,-0.13,-0.10,0.32,1.45,1.45,1.44
424.32,1.53,1.53,0.08,0.08,-0.08,-0.05,0.38,1.45,1.45,1.45
428.56,1.49,1.49,0.03,0.03,-0.03,0.00,0.44,1.46,1.46,1.46
432.85,1.45,1.45,-0.02,-0.02,0.02,0.06,0.50,1.47,1.47,1.47
437.18,1.40,1.41,-0.07,-0.07,0.07,0.11,0.55,1.47,1.48,1.47
441.55,1.36,1.36,-0.12,-0.12,0.12,0.16,0.61,1.48,1.48,1.48
445.96,1.32,1.32,-0.17,-0.17,0.17,0.22,0.66,1.49,1.49,1.49
450.42,1.27,1.27,-0.23,-0.23,0.22,0.27,0.72,1.50,1.50,1.50
454.93,1.23,1.23,-0.28,-0.28,0.28,0.32,0.77,1.51,1.51,1.51
459.48,1.19,1.19,-0.33,-0.33,0.33,0.37,0.82,1.52,1.52,1.52
464.07,1.14,1.15,-0.38,-0.38,0.38,0.43,0.86,1.52,1.53,1.52
468.71,1.10,1.10,-0.43,-0.43,0.43,0.48,0.91,1.53,1.53,1.53
473.40,1.06,1.06,-0.48,-0.48,0.48,0.53,0.95,1.54,1.54,1.54
478.13,1.01,1.01,-0.54,-0.53,0.53,0.59,0.99,1.54,1.55,1.55
482.91,0.97,0.97,-0.59,-0.59,0.58,0.64,1.03,1.55,1.56,1.56
487.74,0.93,0.93,-0.64,-0.64,0.63,0.69,1.07,1.56,1.56,1.57
492.62,0.89,0.89,-0.68,-0.68,0.68,0.75,1.11,1.58,1.57,1.58
497.55,0.85,0.85,-0.73,-0.73,0.74,0.80,1.14,1.59,1.59,1.58
502.52,0.81,0.81,-0.78,-0.78,0.79,0.85,1.17,1.60,1.60,1.59
507.55,0.78,0.78,-0.83,-0.83,0.83,0.91,1.20,1.61,1.61,1.61
512.62,0.74,0.74,-0.88,-0.88,0.88,0.96,1.23,1.62,1.62,1.62
517.75,0.70,0.70,-0.93,-0.93,0.93,1.01,1.25,1.63,1.63,1.63
522.93,0.66,0.66,-0.98,-0.98,0.97,1.06,1.28,1.63,1.64,1.64
528.16,0.63,0.63,-1.02,-1.02,1.01,1.12,1.30,1.65,1.64,1.65
533.44,0.60,0.60,-1.06,-1.06,1.06,1.17,1.32,1.66,1.65,1.66
538.77,0.56,0.56,-1.10,-1.10,1.10,1.22,1.34,1.66,1.67,1.66
544.16,0.53,0.53,-1.15,-1.14,1.14,1.27,1.36,1.67,1.67,1.68
549.60,0.50,0.50,-1.19,-1.19,1.19,1.32,1.37,1.69,1.69,1.69
555.10,0.46,0.46,-1.25,-1.24,1.24,1.38,1.39,1.70,1.70,1.71
560.65,0.42,0.42,-1.29,-1.29,1.29,1.43,1.40,1.71,1.72,1.72
