frequency,raw,error,smoothed,error_smoothed,equalization,parametric_eq,equalized_raw,equalized_smoothed,target
20,2.88,-3.13,2.91,-3.10,3.10,0.11,5.98,6.01,6.02
21,3.22,-2.79,3.26,-2.76,2.76,0.13,5.98,6.01,6.01
22,3.61,-2.40,3.58,-2.43,2.43,0.15,6.04,6.01,6.01
23,3.93,-2.08,3.89,-2.12,2.12,0.17,6.05,6.01,6.01
24,4.24,-1.76,4.19,-1.82,1.82,0.20,6.06,6.01,6.01
25,4.48,-1.52,4.47,-1.53,1.53,0.22,6.02,6.00,6.00
26,4.71,-1.29,4.73,-1.27,1.27,0.24,5.98,6.00,6.00
27,4.99,-1.00,4.98,-1.01,1.01,0.25,6.01,6.00,6.00
28,5.26,-0.73,5.22,-0.78,0.78,0.26,6.04,5.99,5.99
29,5.47,-0.52,5.44,-0.55,0.55,0.25,6.03,5.99,5.99
30,5.66,-0.32,5.64,-0.34,0.34,0.24,6.01,5.98,5.98
31,5.80,-0.18,5.83,-0.15,0.15,0.20,5.95,5.98,5.98
32,5.97,-0.00,6.01,0.04,-0.04,0.16,5.94,5.97,5.97
33,6.09,0.13,6.18,0.21,-0.21,0.10,5.88,5.97,5.97
34,6.30,0.34,6.33,0.37,-0.37,0.03,5.93,5.96,5.96
35,6.51,0.56,6.48,0.53,-0.53,-0.04,5.98,5.95,5.95
36,6.67,0.73,6.62,0.67,-0.67,-0.12,6.00,5.94,5.94
37,6.76,0.83,6.74,0.81,-0.81,-0.21,5.95,5.93,5.93
38,6.84,0.92,6.86,0.94,-0.94,-0.30,5.90,5.93,5.93
39,6.97,1.06,6.98,1.06,-1.06,-0.39,5.91,5.92,5.92
40,7.10,1.20,7.08,1.17,-1.17,-0.48,5.93,5.90,5.90
41,7.18,1.29,7.18,1.28,-1.28,-0.58,5.90,5.89,5.89
42,7.27,1.39,7.27,1.39,-1.39,-0.67,5.89,5.88,5.88
43,7.35,1.48,7.35,1.48,-1.48,-0.77,5.87,5.87,5.87
44,7.43,1.58,7.43,1.58,-1.58,-0.86,5.86,5.85,5.85
45,7.46,1.62,7.50,1.66,-1.66,-0.96,5.80,5.84,5.84
46,7.54,1.72,7.57,1.75,-1.75,-1.06,5.79,5.82,5.82
47,7.62,1.81,7.64,1.83,-1.83,-1.16,5.79,5.81,5.81
48,7.67,1.88,7.70,1.91,-1.91,-1.26,5.76,5.79,5.79
49,7.76,1.99,7.75,1.98,-1.98,-1.36,5.78,5.77,5.77
50,7.80,2.05,7.80,2.05,-2.05,-1.46,5.75,5.75,5.75
51,7.86,2.13,7.85,2.11,-2.11,-1.56,5.75,5.73,5.73
52,7.93,2.22,7.89,2.17,-2.17,-1.65,5.76,5.71,5.71
53,7.97,2.28,7.92,2.23,-2.23,-1.75,5.74,5.69,5.69
54,7.97,2.30,7.95,2.28,-2.28,-1.84,5.69,5.67,5.67
55,7.97,2.33,7.97,2.33,-2.33,-1.93,5.64,5.65,5.65
56,7.97,2.35,7.99,2.37,-2.37,-2.02,5.60,5.62,5.62
57,7.97,2.38,8.01,2.41,-2.41,-2.10,5.56,5.60,5.60
58,8.01,2.44,8.02,2.45,-2.45,-2.17,5.56,5.57,5.57
59,7.97,2.43,8.03,2.49,-2.49,-2.24,5.48,5.54,5.54
60,8.02,2.51,8.04,2.52,-2.52,-2.31,5.50,5.51,5.52
61,8.03,2.55,8.04,2.55,-2.55,-2.37,5.48,5.49,5.49
62,8.04,2.59,8.04,2.58,-2.58,-2.42,5.46,5.46,5.46
63,8.02,2.60,8.03,2.60,-2.60,-2.47,5.42,5.43,5.43
64,8.02,2.63,8.02,2.62,-2.62,-2.52,5.40,5.39,5.39
65,8.02,2.66,8.00,2.64,-2.64,-2.56,5.39,5.36,5.36
66,7.97,2.64,7.97,2.64,-2.64,-2.59,5.33,5.33,5.33
67,7.97,2.68,7.94,2.64,-2.64,-2.62,5.33,5.29,5.30
68,7.93,2.67,7.89,2.63,-2.63,-2.65,5.30,5.26,5.26
69,7.86,2.64,7.84,2.62,-2.62,-2.68,5.24,5.23,5.23
70,7.77,2.58,7.78,2.59,-2.59,-2.71,5.18,5.19,5.19
71,7.72,2.57,7.71,2.56,-2.56,-2.73,5.16,5.15,5.15
72,7.68,2.57,7.64,2.52,-2.52,-2.76,5.16,5.12,5.12
73,7.61,2.53,7.56,2.48,-2.48,-2.79,5.13,5.08,5.08
74,7.49,2.45,7.48,2.44,-2.44,-2.81,5.06,5.04,5.04
75,7.37,2.37,7.39,2.39,-2.39,-2.84,4.98,5.00,5.00
76,7.30,2.34,7.31,2.34,-2.34,-2.87,4.96,4.96,4.96
77,7.20,2.28,7.22,2.30,-2.30,-2.90,4.90,4.92,4.92
78,7.15,2.27,7.15,2.27,-2.27,-2.94,4.89,4.88,4.88
79,7.06,2.22,7.08,2.24,-2.24,-2.97,4.83,4.84,4.84
80,7.01,2.21,7.02,2.22,-2.22,-3.01,4.79,4.80,4.80
81,6.95,2.19,6.97,2.21,-2.21,-3.06,4.74,4.76,4.76
82,6.90,2.18,6.94,2.22,-2.22,-3.10,4.68,4.72,4.72
83,6.90,2.23,6.92,2.24,-2.24,-3.15,4.66,4.68,4.68
84,6.90,2.27,6.92,2.28,-2.28,-3.20,4.62,4.64,4.64
85,6.90,2.31,6.93,2.34,-2.34,-3.25,4.56,4.59,4.59
86,6.95,2.40,6.96,2.41,-2.41,-3.31,4.54,4.55,4.55
87,6.96,2.45,7.01,2.50,-2.50,-3.37,4.46,4.51,4.51
88,7.02,2.55,7.07,2.60,-2.60,-3.43,4.42,4.47,4.47
89,7.09,2.66,7.15,2.72,-2.72,-3.49,4.37,4.43,4.43
90,7.20,2.82,7.23,2.84,-2.84,-3.56,4.36,4.39,4.39
91,7.33,2.99,7.33,2.98,-2.98,-3.63,4.35,4.35,4.34
92,7.45,3.15,7.43,3.12,-3.12,-3.70,4.33,4.31,4.30
93,7.57,3.31,7.53,3.26,-3.26,-3.78,4.31,4.26,4.26
94,7.69,3.47,7.63,3.41,-3.41,-3.85,4.28,4.22,4.22
95,7.76,3.58,7.74,3.55,-3.55,-3.93,4.21,4.18,4.18
96,7.85,3.71,7.83,3.69,-3.69,-4.01,4.16,4.14,4.14
97,7.94,3.84,7.93,3.83,-3.83,-4.09,4.11,4.10,4.10
98,8.01,3.95,8.02,3.96,-3.96,-4.18,4.05,4.06,4.06
99,8.09,4.07,8.10,4.08,-4.08,-4.26,4.01,4.02,4.02
100,8.18,4.20,8.17,4.20,-4.20,-4.35,3.98,3.98,3.98
101,8.25,4.31,8.24,4.31,-4.31,-4.43,3.95,3.93,3.95
102,8.32,4.41,8.30,4.41,-4.41,-4.52,3.92,3.89,3.91
104,8.38,4.55,8.35,4.50,-4.50,-4.69,3.88,3.85,3.83
105,8.41,4.61,8.40,4.58,-4.58,-4.78,3.83,3.81,3.80
106,8.44,4.68,8.43,4.66,-4.66,-4.86,3.78,3.77,3.76
107,8.49,4.77,8.47,4.73,-4.73,-4.94,3.76,3.73,3.73
108,8.49,4.80,8.50,4.80,-4.80,-5.03,3.69,3.70,3.69
109,8.52,4.86,8.53,4.87,-4.87,-5.11,3.65,3.66,3.66
110,8.53,4.91,8.55,4.93,-4.93,-5.18,3.60,3.62,3.62
111,8.53,4.94,8.58,4.99,-4.99,-5.26,3.54,3.59,3.59
112,8.58,5.02,8.60,5.05,-5.05,-5.33,3.53,3.55,3.56
113,8.61,5.09,8.62,5.11,-5.11,-5.40,3.50,3.52,3.53
114,8.63,5.14,8.65,5.17,-5.17,-5.47,3.47,3.48,3.49
115,8.67,5.21,8.67,5.22,-5.22,-5.53,3.45,3.45,3.46
117,8.68,5.28,8.70,5.28,-5.28,-5.65,3.40,3.41,3.40
118,8.72,5.35,8.72,5.34,-5.34,-5.70,3.38,3.38,3.37
119,8.75,5.41,8.74,5.39,-5.39,-5.74,3.36,3.35,3.34
120,8.77,5.46,8.76,5.45,-5.45,-5.79,3.33,3.31,3.32
121,8.79,5.50,8.77,5.50,-5.50,-5.82,3.30,3.28,3.29
123,8.81,5.58,8.79,5.54,-5.54,-5.88,3.27,3.25,3.23
124,8.81,5.60,8.80,5.59,-5.59,-5.91,3.23,3.21,3.21
125,8.81,5.63,8.81,5.63,-5.63,-5.93,3.18,3.18,3.18
126,8.81,5.66,8.81,5.66,-5.66,-5.94,3.15,3.15,3.16
128,8.81,5.70,8.82,5.70,-5.70,-5.96,3.11,3.12,3.11
129,8.81,5.73,8.82,5.73,-5.73,-5.96,3.08,3.09,3.08
130,8.81,5.75,8.82,5.76,-5.76,-5.96,3.05,3.06,3.06
131,8.81,5.77,8.82,5.79,-5.79,-5.96,3.02,3.03,3.04
133,8.81,5.82,8.82,5.82,-5.82,-5.94,3.00,3.00,3.00
134,8.81,5.84,8.82,5.84,-5.84,-5.92,2.97,2.97,2.97
135,8.81,5.86,8.81,5.87,-5.87,-5.91,2.94,2.95,2.95
137,8.81,5.90,8.81,5.90,-5.90,-5.87,2.92,2.92,2.91
138,8.81,5.92,8.81,5.92,-5.92,-5.85,2.89,2.89,2.90
140,8.81,5.95,8.82,5.95,-5.95,-5.80,2.86,2.87,2.86
141,8.81,5.97,8.82,5.98,-5.98,-5.77,2.84,2.84,2.84
142,8.81,5.99,8.82,6.00,-6.00,-5.75,2.81,2.82,2.82
144,8.81,6.02,8.82,6.03,-6.03,-5.69,2.78,2.79,2.79
145,8.81,6.04,8.82,6.05,-6.05,-5.66,2.76,2.77,2.77
147,8.81,6.07,8.82,6.07,-6.07,-5.61,2.74,2.75,2.74
148,8.81,6.09,8.82,6.09,-6.09,-5.58,2.72,2.72,2.73
150,8.81,6.12,8.81,6.11,-6.11,-5.53,2.70,2.70,2.70
151,8.81,6.13,8.81,6.13,-6.13,-5.50,2.69,2.68,2.68
153,8.81,6.16,8.80,6.14,-6.14,-5.45,2.67,2.66,2.65
154,8.81,6.17,8.78,6.14,-6.14,-5.43,2.67,2.64,2.64
156,8.79,6.18,8.77,6.15,-6.15,-5.39,2.64,2.62,2.62
157,8.76,6.16,8.75,6.15,-6.15,-5.37,2.61,2.60,2.60
159,8.72,6.14,8.73,6.14,-6.14,-5.33,2.58,2.58,2.58
160,8.70,6.13,8.70,6.14,-6.14,-5.31,2.56,2.56,2.57
162,8.67,6.13,8.67,6.13,-6.13,-5.28,2.54,2.55,2.55
164,8.65,6.13,8.65,6.12,-6.12,-5.26,2.53,2.53,2.53
165,8.60,6.09,8.62,6.10,-6.10,-5.25,2.50,2.51,2.52
167,8.56,6.07,8.59,6.09,-6.09,-5.24,2.47,2.50,2.50
169,8.53,6.05,8.56,6.08,-6.08,-5.23,2.46,2.48,2.48
170,8.53,6.06,8.53,6.06,-6.06,-5.22,2.47,2.47,2.47
172,8.49,6.04,8.50,6.05,-6.05,-5.22,2.45,2.45,2.45
174,8.49,6.06,8.47,6.03,-6.03,-5.23,2.46,2.44,2.43
175,8.47,6.05,8.44,6.02,-6.02,-5.23,2.46,2.42,2.43
177,8.43,6.02,8.41,6.00,-6.00,-5.24,2.43,2.41,2.41
179,8.39,6.00,8.39,5.99,-5.99,-5.26,2.40,2.40,2.40
181,8.35,5.97,8.36,5.98,-5.98,-5.28,2.37,2.38,2.38
183,8.32,5.95,8.34,5.97,-5.97,-5.31,2.35,2.37,2.37
184,8.30,5.94,8.33,5.97,-5.97,-5.33,2.33,2.36,2.36
186,8.30,5.95,8.31,5.97,-5.97,-5.36,2.33,2.35,2.35
188,8.30,5.97,8.31,5.97,-5.97,-5.40,2.33,2.33,2.33
190,8.30,5.98,8.30,5.98,-5.98,-5.44,2.32,2.32,2.32
192,8.30,5.99,8.30,5.99,-5.99,-5.48,2.31,2.31,2.31
194,8.30,6.00,8.31,6.01,-6.01,-5.53,2.29,2.30,2.30
196,8.30,6.01,8.32,6.03,-6.03,-5.58,2.27,2.29,2.29
198,8.30,6.02,8.34,6.06,-6.06,-5.63,2.24,2.28,2.28
200,8.35,6.08,8.36,6.09,-6.09,-5.69,2.26,2.27,2.27
202,8.36,6.10,8.38,6.12,-6.12,-5.75,2.24,2.26,2.26
204,8.41,6.16,8.41,6.16,-6.16,-5.80,2.26,2.25,2.25
206,8.44,6.20,8.43,6.19,-6.19,-5.86,2.25,2.24,2.24
208,8.49,6.26,8.45,6.22,-6.22,-5.92,2.27,2.23,2.23
210,8.49,6.26,8.47,6.25,-6.25,-5.98,2.25,2.23,2.23
212,8.49,6.27,8.49,6.27,-6.27,-6.04,2.22,2.22,2.22
214,8.49,6.28,8.50,6.29,-6.29,-6.10,2.20,2.22,2.22
216,8.53,6.32,8.51,6.30,-6.30,-6.16,2.23,2.21,2.21
218,8.53,6.33,8.52,6.31,-6.31,-6.22,2.22,2.21,2.21
221,8.53,6.33,8.51,6.31,-6.31,-6.30,2.22,2.20,2.20
223,8.49,6.29,8.50,6.30,-6.30,-6.35,2.19,2.20,2.20
225,8.49,6.29,8.49,6.29,-6.29,-6.40,2.20,2.20,2.20
227,8.49,6.29,8.47,6.27,-6.27,-6.44,2.22,2.20,2.20
229,8.44,6.24,8.44,6.25,-6.25,-6.48,2.20,2.20,2.20
232,8.42,6.22,8.41,6.21,-6.21,-6.53,2.21,2.20,2.20
234,8.39,6.19,8.38,6.18,-6.18,-6.56,2.22,2.20,2.20
236,8.35,6.15,8.34,6.13,-6.13,-6.58,2.22,2.20,2.20
239,8.28,6.08,8.30,6.09,-6.09,-6.60,2.19,2.21,2.21
241,8.23,6.02,8.25,6.04,-6.04,-6.61,2.19,2.21,2.21
244,8.18,5.96,8.21,5.99,-5.99,-6.61,2.19,2.22,2.22
246,8.14,5.92,8.16,5.93,-5.93,-6.60,2.21,2.23,2.23
248,8.11,5.88,8.11,5.88,-5.88,-6.59,2.23,2.23,2.23
251,8.07,5.83,8.06,5.82,-5.82,-6.56,2.25,2.24,2.24
253,8.04,5.79,8.01,5.76,-5.76,-6.53,2.28,2.25,2.25
256,7.97,5.71,7.97,5.70,-5.70,-6.48,2.27,2.26,2.26
259,7.91,5.64,7.92,5.64,-5.64,-6.42,2.27,2.27,2.27
261,7.87,5.59,7.87,5.58,-5.58,-6.37,2.29,2.29,2.29
264,7.80,5.50,7.82,5.52,-5.52,-6.29,2.28,2.30,2.30
266,7.76,5.45,7.77,5.46,-5.46,-6.23,2.30,2.31,2.31
269,7.72,5.39,7.73,5.40,-5.40,-6.14,2.32,2.33,2.33
272,7.67,5.33,7.68,5.34,-5.34,-6.03,2.33,2.34,2.34
274,7.62,5.26,7.63,5.28,-5.28,-5.96,2.35,2.36,2.36
277,7.59,5.22,7.59,5.22,-5.22,-5.85,2.38,2.37,2.37
280,7.53,5.14,7.55,5.16,-5.16,-5.73,2.38,2.39,2.39
283,7.49,5.09,7.50,5.09,-5.09,-5.61,2.40,2.41,2.41
286,7.46,5.04,7.46,5.03,-5.03,-5.49,2.43,2.42,2.42
288,7.44,5.00,7.41,4.97,-4.97,-5.40,2.47,2.44,2.44
291,7.38,4.92,7.37,4.91,-4.91,-5.28,2.48,2.46,2.46
294,7.32,4.84,7.32,4.84,-4.84,-5.15,2.48,2.48,2.48
297,7.27,4.77,7.27,4.77,-4.77,-5.03,2.50,2.50,2.50
300,7.24,4.72,7.23,4.71,-4.71,-4.90,2.54,2.52,2.52
303,7.17,4.63,7.18,4.64,-4.64,-4.77,2.53,2.54,2.54
306,7.11,4.55,7.13,4.57,-4.57,-4.65,2.54,2.56,2.56
309,7.06,4.48,7.08,4.50,-4.50,-4.53,2.57,2.58,2.58
312,7.02,4.42,7.02,4.42,-4.42,-4.41,2.60,2.60,2.60
316,6.96,4.34,6.97,4.35,-4.35,-4.25,2.61,2.62,2.62
319,6.91,4.27,6.92,4.28,-4.28,-4.14,2.63,2.64,2.64
322,6.88,4.22,6.87,4.20,-4.20,-4.02,2.68,2.66,2.66
325,6.83,4.15,6.81,4.13,-4.13,-3.91,2.70,2.68,2.68
328,6.77,4.07,6.76,4.05,-4.05,-3.81,2.72,2.70,2.70
332,6.69,3.97,6.70,3.97,-3.97,-3.67,2.72,2.73,2.72
335,6.64,3.90,6.64,3.90,-3.90,-3.57,2.75,2.75,2.75
338,6.59,3.83,6.58,3.82,-3.82,-3.47,2.77,2.77,2.77
342,6.50,3.72,6.53,3.74,-3.74,-3.34,2.76,2.79,2.79
345,6.45,3.65,6.47,3.66,-3.66,-3.25,2.79,2.80,2.80
349,6.39,3.57,6.40,3.58,-3.58,-3.13,2.81,2.82,2.82
352,6.34,3.50,6.34,3.50,-3.50,-3.04,2.84,2.84,2.84
356,6.30,3.44,6.28,3.42,-3.42,-2.93,2.88,2.86,2.86
359,6.24,3.37,6.22,3.34,-3.34,-2.85,2.90,2.88,2.88
363,6.15,3.26,6.16,3.26,-3.26,-2.75,2.89,2.89,2.89
366,6.11,3.20,6.09,3.19,-3.19,-2.67,2.93,2.91,2.91
370,6.03,3.11,6.03,3.11,-3.11,-2.58,2.92,2.92,2.92
374,5.94,3.01,5.97,3.03,-3.03,-2.48,2.91,2.94,2.94
377,5.90,2.95,5.90,2.96,-2.96,-2.41,2.95,2.95,2.95
381,5.83,2.87,5.84,2.88,-2.88,-2.33,2.95,2.96,2.96
385,5.76,2.79,5.78,2.81,-2.81,-2.24,2.95,2.97,2.97
389,5.71,2.73,5.72,2.74,-2.74,-2.16,2.98,2.98,2.98
393,5.65,2.66,5.66,2.66,-2.66,-2.08,2.99,2.99,2.99
397,5.59,2.59,5.60,2.59,-2.59,-2.00,3.00,3.00,3.00
401,5.51,2.50,5.53,2.52,-2.52,-1.93,2.99,3.01,3.01
405,5.44,2.42,5.47,2.45,-2.45,-1.86,2.99,3.02,3.02
409,5.38,2.36,5.40,2.37,-2.37,-1.79,3.01,3.03,3.03
413,5.34,2.31,5.33,2.29,-2.29,-1.72,3.05,3.03,3.03
417,5.28,2.24,5.25,2.21,-2.21,-1.65,3.07,3.04,3.04
421,5.21,2.16,5.17,2.12,-2.12,-1.59,3.09,3.05,3.05
425,5.15,2.10,5.08,2.03,-2.03,-1.53,3.13,3.06,3.06
430,5.03,1.97,4.99,1.93,-1.93,-1.45,3.10,3.06,3.06
434,4.94,1.87,4.90,1.83,-1.83,-1.39,3.11,3.07,3.07
438,4.80,1.72,4.80,1.72,-1.72,-1.34,3.08,3.08,3.08
443,4.67,1.58,4.71,1.62,-1.62,-1.27,3.05,3.09,3.09
447,4.55,1.46,4.61,1.52,-1.52,-1.21,3.04,3.10,3.10
451,4.45,1.35,4.52,1.41,-1.41,-1.16,3.04,3.11,3.11
456,4.36,1.25,4.42,1.31,-1.31,-1.09,3.06,3.12,3.12
460,4.31,1.19,4.33,1.20,-1.20,-1.04,3.11,3.13,3.13
465,4.26,1.12,4.24,1.10,-1.10,-0.97,3.16,3.14,3.14
470,4.16,1.01,4.15,1.00,-1.00,-0.91,3.16,3.15,3.15
474,4.11,0.95,4.07,0.91,-0.91,-0.86,3.21,3.16,3.16
479,4.01,0.84,3.99,0.81,-0.81,-0.80,3.20,3.18,3.18
484,3.94,0.75,3.90,0.71,-0.71,-0.74,3.23,3.19,3.19
489,3.85,0.65,3.83,0.62,-0.62,-0.67,3.23,3.21,3.20
494,3.76,0.54,3.75,0.53,-0.53,-0.61,3.23,3.22,3.22
499,3.67,0.44,3.68,0.44,-0.44,-0.55,3.23,3.24,3.24
504,3.56,0.31,3.61,0.35,-0.35,-0.49,3.21,3.25,3.25
509,3.49,0.22,3.54,0.27,-0.27,-0.43,3.23,3.27,3.27
514,3.43,0.14,3.47,0.18,-0.18,-0.37,3.25,3.29,3.29
519,3.38,0.07,3.42,0.11,-0.11,-0.31,3.28,3.31,3.31
524,3.35,0.02,3.36,0.03,-0.03,-0.25,3.32,3.33,3.33
529,3.30,-0.05,3.31,-0.04,0.04,-0.19,3.34,3.35,3.35
535,3.26,-0.11,3.25,-0.11,0.11,-0.12,3.38,3.37,3.37
540,3.22,-0.17,3.20,-0.18,0.18,-0.06,3.41,3.39,3.39
545,3.18,-0.23,3.15,-0.25,0.25,-0.00,3.44,3.41,3.41
551,3.12,-0.31,3.10,-0.33,0.33,0.07,3.45,3.43,3.43
556,3.05,-0.40,3.05,-0.40,0.40,0.13,3.45,3.45,3.45
562,3.03,-0.44,3.00,-0.47,0.47,0.20,3.50,3.47,3.47
568,2.96,-0.53,2.94,-0.55,0.55,0.27,3.51,3.49,3.49
573,2.91,-0.60,2.89,-0.62,0.62,0.33,3.53,3.51,3.51
579,2.83,-0.70,2.83,-0.70,0.70,0.41,3.53,3.53,3.53
585,2.75,-0.80,2.77,-0.78,0.78,0.48,3.53,3.55,3.55
591,2.65,-0.91,2.71,-0.85,0.85,0.55,3.51,3.57,3.57
596,2.60,-0.98,2.65,-0.93,0.93,0.61,3.53,3.58,3.58
602,2.54,-1.06,2.59,-1.01,1.01,0.69,3.55,3.60,3.60
608,2.52,-1.10,2.53,-1.09,1.09,0.76,3.61,3.62,3.62
615,2.47,-1.16,2.46,-1.18,1.18,0.85,3.65,3.64,3.64
621,2.40,-1.25,2.39,-1.26,1.26,0.92,3.67,3.65,3.65
627,2.32,-1.34,2.31,-1.36,1.36,1.00,3.68,3.67,3.67
633,2.26,-1.42,2.22,-1.46,1.46,1.07,3.72,3.68,3.68
639,2.15,-1.54,2.13,-1.57,1.57,1.15,3.72,3.70,3.70
646,2.06,-1.65,2.02,-1.69,1.69,1.24,3.75,3.71,3.71
652,1.96,-1.76,1.91,-1.81,1.81,1.31,3.77,3.72,3.72
659,1.84,-1.89,1.79,-1.95,1.95,1.41,3.79,3.73,3.73
665,1.72,-2.02,1.66,-2.09,2.09,1.48,3.81,3.75,3.75
672,1.56,-2.20,1.53,-2.23,2.23,1.57,3.79,3.76,3.76
679,1.42,-2.35,1.39,-2.38,2.38,1.67,3.80,3.77,3.77
686,1.26,-2.52,1.26,-2.52,2.52,1.76,3.78,3.78,3.78
692,1.12,-2.67,1.13,-2.66,2.66,1.84,3.78,3.79,3.79
699,0.97,-2.83,1.01,-2.78,2.78,1.93,3.76,3.80,3.80
706,0.83,-2.97,0.91,-2.90,2.90,2.03,3.73,3.81,3.81
713,0.72,-3.09,0.82,-3.00,3.00,2.12,3.72,3.82,3.82
721,0.63,-3.19,0.74,-3.08,3.08,2.23,3.71,3.82,3.82
728,0.60,-3.23,0.68,-3.15,3.15,2.33,3.75,3.83,3.83
735,0.60,-3.24,0.64,-3.20,3.20,2.43,3.80,3.84,3.84
742,0.60,-3.24,0.61,-3.24,3.24,2.53,3.84,3.85,3.85
750,0.60,-3.25,0.59,-3.26,3.26,2.64,3.86,3.85,3.85
757,0.60,-3.26,0.59,-3.27,3.27,2.74,3.87,3.86,3.86
765,0.63,-3.23,0.59,-3.28,3.28,2.85,3.91,3.87,3.87
773,0.63,-3.24,0.60,-3.28,3.28,2.97,3.91,3.87,3.87
780,0.63,-3.24,0.60,-3.27,3.27,3.07,3.91,3.88,3.88
788,0.63,-3.25,0.61,-3.27,3.27,3.18,3.90,3.88,3.88
796,0.63,-3.25,0.61,-3.27,3.27,3.30,3.90,3.89,3.89
804,0.63,-3.26,0.61,-3.28,3.28,3.41,3.91,3.89,3.89
812,0.63,-3.26,0.61,-3.28,3.28,3.52,3.92,3.89,3.89
820,0.60,-3.30,0.60,-3.30,3.30,3.63,3.90,3.90,3.90
828,0.60,-3.30,0.58,-3.32,3.32,3.75,3.92,3.90,3.90
837,0.60,-3.30,0.56,-3.34,3.34,3.87,3.94,3.90,3.90
845,0.55,-3.35,0.54,-3.36,3.36,3.98,3.92,3.91,3.91
853,0.52,-3.39,0.52,-3.39,3.39,4.08,3.91,3.91,3.91
862,0.46,-3.45,0.49,-3.42,3.42,4.20,3.88,3.91,3.91
871,0.45,-3.46,0.46,-3.45,3.45,4.31,3.90,3.92,3.92
879,0.42,-3.50,0.44,-3.48,3.48,4.41,3.90,3.92,3.92
888,0.39,-3.53,0.41,-3.51,3.51,4.52,3.90,3.92,3.92
897,0.37,-3.56,0.39,-3.54,3.54,4.62,3.91,3.93,3.93
906,0.33,-3.60,0.37,-3.56,3.56,4.72,3.90,3.93,3.93
915,0.32,-3.62,0.35,-3.59,3.59,4.81,3.92,3.94,3.94
924,0.28,-3.66,0.32,-3.62,3.62,4.89,3.90,3.95,3.95
933,0.28,-3.67,0.30,-3.66,3.66,4.97,3.94,3.96,3.95
943,0.28,-3.68,0.27,-3.69,3.69,5.05,3.97,3.97,3.96
952,0.28,-3.69,0.24,-3.74,3.74,5.12,4.02,3.98,3.98
962,0.26,-3.73,0.20,-3.79,3.79,5.19,4.05,3.99,3.99
971,0.21,-3.79,0.16,-3.84,3.84,5.24,4.06,4.00,4.00
981,0.15,-3.86,0.11,-3.91,3.91,5.29,4.06,4.02,4.02
991,0.07,-3.96,0.05,-3.98,3.98,5.33,4.06,4.03,4.03
1001,-0.01,-4.06,-0.02,-4.07,4.07,5.37,4.06,4.05,4.05
1011,-0.10,-4.17,-0.09,-4.16,4.16,5.39,4.06,4.07,4.07
1021,-0.18,-4.27,-0.16,-4.25,4.25,5.41,4.08,4.09,4.09
1031,-0.26,-4.37,-0.24,-4.36,4.36,5.42,4.10,4.11,4.11
1041,-0.34,-4.47,-0.33,-4.46,4.46,5.43,4.12,4.14,4.14
1052,-0.41,-4.57,-0.41,-4.57,4.57,5.42,4.16,4.16,4.16
1062,-0.52,-4.70,-0.49,-4.68,4.68,5.42,4.16,4.19,4.19
1073,-0.58,-4.79,-0.58,-4.79,4.79,5.40,4.21,4.21,4.21
1084,-0.65,-4.89,-0.66,-4.90,4.90,5.38,4.25,4.24,4.24
1094,-0.72,-4.99,-0.73,-5.01,5.01,5.36,4.29,4.27,4.27
1105,-0.80,-5.10,-0.80,-5.11,5.11,5.33,4.31,4.31,4.31
1116,-0.88,-5.22,-0.87,-5.21,5.21,5.30,4.33,4.34,4.34
1128,-0.96,-5.33,-0.93,-5.30,5.30,5.26,4.35,4.38,4.38
1139,-1.02,-5.43,-0.98,-5.39,5.39,5.22,4.38,4.41,4.41
1150,-1.04,-5.49,-1.03,-5.48,5.48,5.19,4.44,4.45,4.45
1162,-1.08,-5.57,-1.07,-5.56,5.56,5.14,4.48,4.49,4.49
1173,-1.08,-5.61,-1.10,-5.64,5.64,5.10,4.56,4.53,4.53
1185,-1.14,-5.71,-1.13,-5.71,5.71,5.06,4.57,4.58,4.57
1197,-1.17,-5.79,-1.15,-5.77,5.77,5.02,4.61,4.62,4.62
1209,-1.22,-5.88,-1.17,-5.84,5.84,4.98,4.62,4.67,4.67
1221,-1.22,-5.93,-1.18,-5.90,5.89,4.94,4.67,4.71,4.71
1233,-1.21,-5.97,-1.19,-5.96,5.93,4.90,4.72,4.74,4.76
1246,-1.17,-5.98,-1.20,-6.02,5.96,4.86,4.79,4.76,4.82
1258,-1.17,-6.04,-1.21,-6.08,5.98,4.82,4.81,4.77,4.87
1271,-1.22,-6.14,-1.22,-6.15,5.99,4.79,4.78,4.77,4.93
1283,-1.23,-6.21,-1.23,-6.21,6.00,4.76,4.77,4.77,4.98
1296,-1.23,-6.27,-1.24,-6.28,6.00,4.73,4.77,4.76,5.04
1309,-1.22,-6.32,-1.26,-6.36,6.00,4.71,4.78,4.74,5.10
1322,-1.22,-6.38,-1.28,-6.44,6.00,4.69,4.78,4.72,5.16
1335,-1.26,-6.48,-1.30,-6.52,6.00,4.67,4.74,4.70,5.23
1349,-1.29,-6.58,-1.32,-6.61,6.00,4.66,4.71,4.68,5.29
1362,-1.34,-6.69,-1.34,-6.69,6.00,4.64,4.66,4.66,5.36
1376,-1.36,-6.78,-1.35,-6.77,6.00,4.64,4.64,4.65,5.42
1390,-1.36,-6.85,-1.36,-6.85,6.00,4.63,4.64,4.64,5.49
1404,-1.38,-6.94,-1.36,-6.92,6.00,4.63,4.62,4.64,5.56
1418,-1.36,-6.99,-1.35,-6.99,6.00,4.64,4.64,4.65,5.63
1432,-1.36,-7.06,-1.33,-7.03,6.00,4.65,4.64,4.67,5.70
1446,-1.32,-7.09,-1.29,-7.07,6.00,4.66,4.68,4.71,5.78
1461,-1.29,-7.14,-1.24,-7.09,6.00,4.67,4.71,4.76,5.85
1475,-1.24,-7.16,-1.17,-7.09,6.00,4.69,4.76,4.83,5.93
1490,-1.16,-7.16,-1.08,-7.08,6.00,4.71,4.84,4.92,6.00
1505,-1.06,-7.14,-0.97,-7.06,6.00,4.74,4.94,5.03,6.08
1520,-0.93,-7.09,-0.86,-7.02,6.00,4.77,5.07,5.14,6.16
1535,-0.80,-7.04,-0.74,-6.98,6.00,4.80,5.20,5.26,6.24
1550,-0.63,-6.96,-0.61,-6.94,6.00,4.84,5.37,5.39,6.33
1566,-0.46,-6.87,-0.49,-6.90,6.00,4.88,5.54,5.51,6.41
1582,-0.29,-6.79,-0.37,-6.87,6.00,4.92,5.71,5.63,6.50
1597,-0.13,-6.72,-0.25,-6.85,6.00,4.96,5.87,5.75,6.59
1613,0.00,-6.68,-0.15,-6.84,6.00,5.01,6.00,5.85,6.69
1629,0.08,-6.70,-0.06,-6.84,6.00,5.05,6.08,5.94,6.78
1646,0.11,-6.77,0.02,-6.86,6.00,5.10,6.11,6.02,6.88
1662,0.14,-6.84,0.09,-6.89,6.00,5.15,6.14,6.09,6.98
1679,0.14,-6.94,0.15,-6.94,6.00,5.20,6.14,6.15,7.08
1696,0.14,-7.05,0.20,-6.99,6.00,5.25,6.14,6.20,7.19
1713,0.19,-7.11,0.26,-7.04,6.00,5.30,6.19,6.26,7.30
1730,0.27,-7.14,0.32,-7.10,6.00,5.35,6.27,6.32,7.41
1747,0.32,-7.20,0.38,-7.15,6.00,5.39,6.32,6.38,7.52
1764,0.42,-7.22,0.45,-7.19,6.00,5.44,6.42,6.45,7.64
1782,0.51,-7.24,0.54,-7.22,6.00,5.48,6.51,6.54,7.76
1800,0.60,-7.27,0.63,-7.24,6.00,5.51,6.60,6.63,7.88
1818,0.72,-7.27,0.75,-7.25,6.00,5.54,6.72,6.75,8.00
1836,0.85,-7.27,0.87,-7.25,6.00,5.57,6.85,6.87,8.12
1854,1.03,-7.21,1.02,-7.23,6.00,5.59,7.03,7.02,8.24
1873,1.20,-7.17,1.18,-7.19,6.00,5.60,7.20,7.18,8.37
1892,1.40,-7.09,1.35,-7.14,6.00,5.60,7.40,7.35,8.49
1911,1.58,-7.03,1.54,-7.07,6.00,5.60,7.58,7.54,8.62
1930,1.76,-6.98,1.75,-6.99,6.00,5.58,7.76,7.75,8.74
1949,1.98,-6.88,1.97,-6.89,6.00,5.56,7.98,7.97,8.87
1969,2.20,-6.79,2.22,-6.77,6.00,5.52,8.20,8.22,8.99
1988,2.46,-6.65,2.48,-6.63,6.00,5.48,8.46,8.48,9.11
2008,2.74,-6.49,2.76,-6.47,6.00,5.42,8.74,8.76,9.24
2028,3.05,-6.30,3.07,-6.28,5.96,5.36,9.01,9.03,9.36
2048,3.35,-6.12,3.40,-6.07,5.86,5.28,9.22,9.27,9.48
2069,3.71,-5.88,3.76,-5.84,5.72,5.19,9.43,9.47,9.59
2090,4.08,-5.63,4.13,-5.58,5.52,5.09,9.60,9.65,9.71
2111,4.50,-5.32,4.54,-5.29,5.27,4.98,9.78,9.81,9.83
2132,4.91,-5.03,4.96,-4.98,4.98,4.86,9.89,9.94,9.94
