frequency,raw,smoothed,error,error_smoothed,equalization,parametric_eq,fixed_band_eq,equalized_raw,equalized_smoothed,target
20.00,5.45,5.45,-1.21,-1.21,1.20,0.62,0.13,6.65,6.65,6.66
20.20,5.48,5.48,-1.18,-1.18,1.18,0.62,0.13,6.66,6.66,6.66
20.40,5.51,5.51,-1.15,-1.15,1.15,0.62,0.14,6.67,6.67,6.66
20.61,5.54,5.54,-1.12,-1.12,1.13,0.62,0.14,6.67,6.67,6.66
20.81,5.55,5.56,-1.11,-1.10,1.11,0.61,0.15,6.66,6.67,6.66
21.02,5.57,5.57,-1.08,-1.08,1.09,0.61,0.15,6.66,6.66,6.66
21.23,5.59,5.59,-1.06,-1.06,1.06,0.61,0.16,6.66,6.66,6.66
21.44,5.61,5.61,-1.04,-1.04,1.04,0.61,0.16,6.65,6.65,6.66
21.66,5.63,5.63,-1.02,-1.02,1.02,0.61,0.17,6.65,6.65,6.65
21.87,5.65,5.65,-1.00,-1.00,1.00,0.60,0.17,6.65,6.65,6.65
22.09,5.68,5.68,-0.97,-0.97,0.97,0.60,0.18,6.65,6.65,6.65
22.31,5.70,5.71,-0.95,-0.95,0.95,0.60,0.19,6.65,6.65,6.65
22.54,5.73,5.73,-0.92,-0.92,0.92,0.60,0.19,6.65,6.65,6.65
22.76,5.76,5.76,-0.89,-0.89,0.89,0.59,0.20,6.66,6.65,6.65
22.99,5.78,5.79,-0.87,-0.86,0.87,0.59,0.20,6.65,6.65,6.65
23.22,5.81,5.81,-0.84,-0.84,0.84,0.59,0.21,6.65,6.65,6.65
23.45,5.83,5.83,-0.82,-0.82,0.81,0.58,0.22,6.65,6.65,6.65
23.69,5.85,5.86,-0.79,-0.79,0.79,0.58,0.22,6.64,6.65,6.65
23.92,5.88,5.88,-0.76,-0.77,0.77,0.58,0.23,6.65,6.64,6.65
24.16,5.90,5.90,-0.74,-0.74,0.74,0.58,0.24,6.65,6.64,6.64
24.40,5.92,5.92,-0.72,-0.72,0.72,0.57,0.24,6.64,6.64,6.64
24.65,5.94,5.94,-0.70,-0.70,0.70,0.57,0.25,6.64,6.64,6.64
24.89,5.96,5.96,-0.68,-0.68,0.68,0.57,0.26,6.64,6.64,6.64
25.14,5.98,5.98,-0.66,-0.66,0.66,0.56,0.26,6.64,6.64,6.64
25.39,6.00,6.00,-0.63,-0.64,0.64,0.56,0.27,6.64,6.64,6.64
25.65,6.02,6.02,-0.61,-0.62,0.62,0.56,0.28,6.64,6.64,6.64
25.91,6.03,6.04,-0.60,-0.60,0.60,0.55,0.29,6.63,6.64,6.63
26.16,6.05,6.05,-0.58,-0.58,0.58,0.55,0.29,6.63,6.63,6.63
26.43,6.07,6.07,-0.56,-0.56,0.56,0.55,0.30,6.63,6.63,6.63
26.69,6.08,6.09,-0.55,-0.54,0.54,0.54,0.31,6.62,6.63,6.63
26.96,6.10,6.10,-0.53,-0.53,0.52,0.54,0.31,6.62,6.62,6.63
27.23,6.12,6.12,-0.50,-0.50,0.50,0.54,0.32,6.63,6.63,6.63
27.50,6.14,6.14,-0.48,-0.48,0.49,0.53,0.33,6.63,6.63,6.62
27.77,6.16,6.16,-0.46,-0.46,0.47,0.53,0.33,6.63,6.63,6.62
28.05,6.17,6.17,-0.45,-0.45,0.45,0.52,0.34,6.62,6.62,6.62
28.33,6.18,6.18,-0.44,-0.43,0.43,0.52,0.34,6.62,6.62,6.62
28.62,6.19,6.20,-0.42,-0.42,0.42,0.52,0.35,6.61,6.61,6.62
28.90,6.21,6.21,-0.40,-0.40,0.40,0.51,0.35,6.62,6.61,6.61
29.19,6.22,6.22,-0.39,-0.39,0.39,0.51,0.36,6.61,6.61,6.61
29.48,6.23,6.23,-0.38,-0.38,0.38,0.50,0.36,6.61,6.61,6.61
29.78,6.24,6.24,-0.36,-0.36,0.36,0.50,0.36,6.61,6.61,6.61
30.08,6.25,6.25,-0.35,-0.35,0.35,0.49,0.36,6.60,6.60,6.60
30.38,6.26,6.26,-0.34,-0.34,0.34,0.49,0.37,6.60,6.60,6.60
30.68,6.27,6.27,-0.33,-0.33,0.33,0.48,0.37,6.60,6.60,6.60
30.99,6.27,6.28,-0.32,-0.32,0.32,0.48,0.37,6.59,6.60,6.60
31.30,6.28,6.28,-0.31,-0.31,0.31,0.48,0.37,6.59,6.59,6.59
31.61,6.28,6.28,-0.31,-0.31,0.30,0.47,0.37,6.59,6.59,6.59
31.93,6.29,6.29,-0.29,-0.30,0.30,0.46,0.37,6.59,6.59,6.59
32.24,6.29,6.29,-0.29,-0.29,0.29,0.46,0.36,6.58,6.58,6.58
32.57,6.30,6.30,-0.28,-0.28,0.28,0.45,0.36,6.58,6.58,6.58
32.89,6.30,6.30,-0.27,-0.27,0.27,0.45,0.36,6.57,6.57,6.58
33.22,6.31,6.31,-0.26,-0.26,0.26,0.44,0.35,6.57,6.57,6.57
33.55,6.32,6.32,-0.25,-0.25,0.24,0.44,0.35,6.57,6.57,6.57
33.89,6.33,6.33,-0.23,-0.23,0.23,0.43,0.35,6.57,6.57,6.56
34.23,6.34,6.34,-0.22,-0.22,0.22,0.43,0.34,6.57,6.56,6.56
34.57,6.34,6.35,-0.21,-0.21,0.21,0.42,0.34,6.55,6.56,6.56
34.92,6.35,6.35,-0.20,-0.20,0.20,0.41,0.33,6.55,6.55,6.55
35.27,6.35,6.35,-0.19,-0.19,0.19,0.41,0.32,6.55,6.54,6.55
35.62,6.35,6.35,-0.19,-0.19,0.18,0.40,0.32,6.54,6.54,6.54
35.97,6.35,6.36,-0.18,-0.18,0.18,0.39,0.31,6.53,6.53,6.54
36.33,6.36,6.36,-0.17,-0.17,0.17,0.39,0.30,6.53,6.53,6.53
36.70,6.36,6.36,-0.16,-0.16,0.17,0.38,0.30,6.53,6.53,6.53
37.06,6.36,6.36,-0.16,-0.16,0.16,0.37,0.29,6.52,6.52,6.52
37.43,6.36,6.36,-0.15,-0.15,0.16,0.37,0.28,6.52,6.51,6.51
37.81,6.35,6.36,-0.16,-0.15,0.15,0.36,0.27,6.50,6.50,6.51
38.19,6.35,6.35,-0.15,-0.15,0.14,0.35,0.27,6.50,6.50,6.50
38.57,6.35,6.35,-0.14,-0.14,0.14,0.35,0.26,6.49,6.49,6.49
38.95,6.35,6.36,-0.14,-0.13,0.13,0.34,0.25,6.49,6.49,6.49
39.34,6.36,6.36,-0.12,-0.12,0.13,0.33,0.25,6.49,6.49,6.48
39.74,6.35,6.35,-0.12,-0.12,0.12,0.32,0.24,6.47,6.48,6.47
40.14,6.35,6.35,-0.11,-0.12,0.11,0.31,0.23,6.47,6.46,6.47
40.54,6.34,6.35,-0.12,-0.11,0.11,0.31,0.23,6.45,6.45,6.46
40.94,6.34,6.35,-0.11,-0.10,0.10,0.30,0.22,6.44,6.44,6.45
41.35,6.35,6.35,-0.09,-0.09,0.09,0.29,0.21,6.44,6.44,6.44
41.76,6.35,6.35,-0.08,-0.08,0.09,0.28,0.21,6.44,6.44,6.43
42.18,6.35,6.35,-0.07,-0.07,0.08,0.27,0.20,6.43,6.43,6.42
42.60,6.34,6.34,-0.07,-0.07,0.08,0.26,0.19,6.42,6.42,6.41
43.03,6.33,6.33,-0.07,-0.07,0.07,0.25,0.19,6.40,6.41,6.40
43.46,6.32,6.32,-0.07,-0.07,0.07,0.24,0.18,6.39,6.39,6.39
43.90,6.31,6.31,-0.07,-0.07,0.06,0.23,0.18,6.38,6.38,6.38
44.33,6.30,6.31,-0.07,-0.07,0.06,0.22,0.17,6.36,6.37,6.37
44.78,6.30,6.30,-0.06,-0.06,0.06,0.21,0.17,6.36,6.36,6.36
45.23,6.30,6.30,-0.05,-0.05,0.06,0.20,0.16,6.36,6.35,6.35
45.68,6.29,6.29,-0.05,-0.04,0.05,0.19,0.16,6.35,6.35,6.34
46.13,6.28,6.28,-0.04,-0.04,0.05,0.18,0.15,6.33,6.33,6.33
46.60,6.27,6.27,-0.04,-0.05,0.05,0.17,0.15,6.32,6.31,6.31
47.06,6.25,6.25,-0.05,-0.05,0.04,0.16,0.14,6.30,6.30,6.30
47.53,6.23,6.24,-0.05,-0.05,0.04,0.15,0.14,6.27,6.28,6.29
48.01,6.23,6.23,-0.04,-0.04,0.03,0.14,0.14,6.27,6.26,6.27
48.49,6.22,6.22,-0.03,-0.03,0.03,0.12,0.13,6.25,6.25,6.26
48.97,6.22,6.22,-0.02,-0.02,0.02,0.11,0.13,6.24,6.24,6.24
49.46,6.22,6.22,-0.00,-0.01,0.01,0.10,0.12,6.23,6.23,6.23
49.96,6.21,6.21,0.00,0.00,0.00,0.09,0.12,6.21,6.22,6.21
50.46,6.20,6.20,0.01,0.01,-0.00,0.08,0.12,6.20,6.20,6.19
50.96,6.19,6.19,0.02,0.01,-0.01,0.06,0.11,6.18,6.18,6.17
51.47,6.17,6.17,0.02,0.02,-0.01,0.05,0.11,6.16,6.16,6.16
51.99,6.15,6.15,0.01,0.01,-0.02,0.04,0.10,6.14,6.14,6.14
52.51,6.13,6.13,0.01,0.01,-0.02,0.02,0.10,6.12,6.12,6.12
53.03,6.11,6.11,0.01,0.02,-0.02,0.01,0.10,6.09,6.09,6.10
53.56,6.10,6.10,0.02,0.02,-0.03,-0.01,0.09,6.08,6.07,6.08
54.10,6.08,6.09,0.03,0.03,-0.03,-0.02,0.09,6.05,6.05,6.06
54.64,6.07,6.08,0.04,0.04,-0.04,-0.04,0.08,6.03,6.03,6.03
55.18,6.07,6.06,0.06,0.05,-0.05,-0.05,0.07,6.02,6.01,6.01
55.74,6.05,6.06,0.06,0.07,-0.06,-0.07,0.07,5.99,5.99,5.99
56.29,6.04,6.04,0.08,0.08,-0.07,-0.08,0.06,5.97,5.97,5.96
56.86,6.03,6.03,0.09,0.09,-0.08,-0.10,0.05,5.95,5.95,5.94
57.42,6.01,6.01,0.10,0.10,-0.09,-0.11,0.04,5.92,5.92,5.91
58.00,5.99,5.99,0.10,0.10,-0.10,-0.13,0.04,5.89,5.89,5.89
58.58,5.96,5.97,0.10,0.11,-0.11,-0.15,0.03,5.85,5.86,5.86
59.16,5.94,5.95,0.11,0.11,-0.12,-0.17,0.02,5.82,5.83,5.83
59.76,5.93,5.93,0.13,0.12,-0.13,-0.18,0.00,5.80,5.80,5.80
60.35,5.91,5.91,0.14,0.14,-0.14,-0.20,-0.01,5.77,5.77,5.77
60.96,5.89,5.89,0.15,0.15,-0.15,-0.22,-0.02,5.74,5.74,5.74
61.57,5.87,5.88,0.16,0.16,-0.16,-0.24,-0.03,5.71,5.71,5.71
62.18,5.86,5.86,0.18,0.18,-0.18,-0.26,-0.05,5.68,5.68,5.68
62.80,5.84,5.84,0.20,0.20,-0.19,-0.28,-0.07,5.65,5.65,5.65
63.43,5.82,5.82,0.21,0.21,-0.21,-0.30,-0.08,5.62,5.61,5.61
64.07,5.79,5.80,0.22,0.22,-0.22,-0.32,-0.10,5.57,5.58,5.58
64.71,5.77,5.77,0.23,0.23,-0.23,-0.34,-0.12,5.54,5.54,5.54
65.35,5.75,5.75,0.25,0.24,-0.25,-0.36,-0.14,5.51,5.50,5.50
66.01,5.72,5.73,0.26,0.26,-0.26,-0.38,-0.16,5.46,5.47,5.47
66.67,5.70,5.70,0.28,0.28,-0.28,-0.40,-0.18,5.43,5.43,5.43
67.33,5.68,5.68,0.30,0.29,-0.29,-0.42,-0.21,5.39,5.38,5.39
68.01,5.65,5.66,0.31,0.31,-0.31,-0.44,-0.23,5.34,5.34,5.35
68.69,5.63,5.63,0.33,0.33,-0.33,-0.47,-0.25,5.30,5.30,5.30
69.37,5.61,5.61,0.35,0.35,-0.35,-0.49,-0.28,5.26,5.26,5.26
70.07,5.59,5.59,0.38,0.38,-0.37,-0.51,-0.31,5.22,5.22,5.22
70.77,5.57,5.57,0.40,0.40,-0.39,-0.54,-0.34,5.18,5.18,5.17
71.48,5.54,5.55,0.42,0.42,-0.42,-0.56,-0.36,5.12,5.13,5.13
72.19,5.52,5.52,0.44,0.44,-0.44,-0.58,-0.39,5.08,5.08,5.08
72.91,5.49,5.49,0.46,0.46,-0.47,-0.61,-0.42,5.02,5.03,5.03
73.64,5.47,5.47,0.49,0.49,-0.50,-0.63,-0.46,4.98,4.98,4.98
74.38,5.45,5.45,0.52,0.52,-0.52,-0.66,-0.49,4.93,4.93,4.93
75.12,5.43,5.43,0.55,0.55,-0.55,-0.69,-0.52,4.88,4.88,4.88
75.87,5.41,5.41,0.59,0.59,-0.58,-0.71,-0.55,4.83,4.83,4.83
76.63,5.39,5.39,0.62,0.62,-0.62,-0.74,-0.59,4.78,4.77,4.77
77.40,5.36,5.37,0.64,0.65,-0.65,-0.77,-0.62,4.71,4.72,4.72
78.17,5.34,5.34,0.68,0.68,-0.68,-0.80,-0.66,4.66,4.66,4.66
78.95,5.32,5.32,0.71,0.71,-0.71,-0.82,-0.70,4.61,4.61,4.61
79.74,5.30,5.30,0.75,0.75,-0.75,-0.85,-0.74,4.55,4.55,4.55
80.54,5.27,5.28,0.78,0.78,-0.78,-0.88,-0.77,4.49,4.50,4.49
81.35,5.25,5.25,0.82,0.82,-0.81,-0.91,-0.81,4.44,4.44,4.43
82.16,5.22,5.22,0.85,0.85,-0.85,-0.94,-0.85,4.37,4.37,4.37
82.98,5.19,5.19,0.88,0.88,-0.88,-0.97,-0.90,4.31,4.31,4.31
83.81,5.16,5.16,0.91,0.92,-0.92,-1.00,-0.94,4.24,4.25,4.25
84.65,5.14,5.14,0.96,0.95,-0.95,-1.03,-0.98,4.19,4.18,4.19
85.50,5.11,5.12,0.99,0.99,-0.99,-1.06,-1.02,4.12,4.12,4.12
86.35,5.09,5.09,1.03,1.03,-1.03,-1.10,-1.07,4.06,4.06,4.06
87.22,5.06,5.06,1.07,1.07,-1.07,-1.13,-1.11,3.99,3.99,3.99
88.09,5.03,5.04,1.10,1.11,-1.11,-1.16,-1.16,3.92,3.93,3.93
88.97,5.01,5.01,1.15,1.15,-1.15,-1.19,-1.21,3.86,3.86,3.86
89.86,4.98,4.98,1.19,1.19,-1.19,-1.23,-1.26,3.79,3.79,3.79
90.76,4.95,4.96,1.23,1.23,-1.23,-1.26,-1.31,3.72,3.73,3.73
91.66,4.93,4.93,1.28,1.28,-1.27,-1.30,-1.35,3.66,3.66,3.66
92.58,4.91,4.91,1.32,1.32,-1.32,-1.33,-1.41,3.60,3.59,3.59
93.51,4.88,4.88,1.36,1.36,-1.36,-1.37,-1.46,3.52,3.52,3.52
94.44,4.84,4.85,1.39,1.40,-1.40,-1.40,-1.51,3.44,3.44,3.45
95.39,4.81,4.82,1.44,1.44,-1.44,-1.44,-1.56,3.37,3.37,3.38
96.34,4.79,4.79,1.49,1.49,-1.49,-1.47,-1.62,3.30,3.30,3.31
97.30,4.77,4.77,1.54,1.53,-1.53,-1.51,-1.67,3.24,3.24,3.23
98.28,4.74,4.74,1.58,1.58,-1.57,-1.55,-1.73,3.17,3.16,3.16
99.26,4.70,4.71,1.61,1.62,-1.62,-1.58,-1.78,3.09,3.09,3.09
100.25,4.67,4.68,1.65,1.66,-1.66,-1.62,-1.84,3.01,3.02,3.02
101.25,4.65,4.65,1.71,1.70,-1.70,-1.66,-1.89,2.95,2.94,2.94
102.27,4.62,4.62,1.75,1.75,-1.75,-1.69,-1.95,2.87,2.87,2.87
103.29,4.59,4.59,1.79,1.79,-1.79,-1.73,-2.01,2.80,2.80,2.80
104.32,4.55,4.56,1.83,1.83,-1.83,-1.77,-2.06,2.72,2.72,2.73
105.37,4.53,4.53,1.88,1.88,-1.88,-1.81,-2.12,2.65,2.65,2.65
106.42,4.50,4.50,1.92,1.92,-1.92,-1.85,-2.17,2.58,2.58,2.58
107.48,4.47,4.47,1.97,1.97,-1.96,-1.89,-2.23,2.51,2.51,2.51
108.56,4.44,4.44,2.01,2.01,-2.01,-1.92,-2.28,2.44,2.44,2.43
109.64,4.41,4.41,2.05,2.05,-2.05,-1.96,-2.34,2.36,2.36,2.36
110.74,4.38,4.38,2.09,2.09,-2.09,-2.00,-2.39,2.29,2.29,2.29
111.85,4.34,4.35,2.13,2.13,-2.13,-2.04,-2.44,2.21,2.22,2.22
112.97,4.31,4.31,2.17,2.17,-2.17,-2.08,-2.48,2.14,2.14,2.14
114.10,4.28,4.28,2.21,2.21,-2.21,-2.12,-2.53,2.07,2.07,2.07
115.24,4.25,4.25,2.25,2.25,-2.25,-2.16,-2.57,2.00,2.00,2.00
116.39,4.22,4.22,2.29,2.29,-2.29,-2.20,-2.62,1.93,1.93,1.93
117.55,4.20,4.20,2.34,2.34,-2.34,-2.24,-2.65,1.86,1.86,1.86
118.73,4.17,4.17,2.38,2.38,-2.39,-2.28,-2.69,1.78,1.78,1.79
119.92,4.15,4.16,2.43,2.44,-2.44,-2.32,-2.72,1.71,1.72,1.72
121.12,4.14,4.14,2.49,2.49,-2.49,-2.36,-2.76,1.65,1.65,1.65
122.33,4.13,4.13,2.55,2.55,-2.54,-2.40,-2.78,1.59,1.58,1.58
123.55,4.11,4.12,2.60,2.60,-2.60,-2.44,-2.81,1.52,1.52,1.52
124.79,4.10,4.10,2.65,2.65,-2.65,-2.48,-2.83,1.45,1.45,1.45
126.03,4.08,4.08,2.70,2.70,-2.70,-2.51,-2.85,1.39,1.39,1.38
127.29,4.06,4.06,2.74,2.75,-2.74,-2.55,-2.86,1.32,1.32,1.32
128.57,4.04,4.04,2.79,2.79,-2.78,-2.59,-2.87,1.26,1.26,1.25
129.85,4.01,4.01,2.82,2.82,-2.82,-2.63,-2.88,1.19,1.19,1.19
131.15,3.98,3.98,2.86,2.86,-2.86,-2.67,-2.88,1.12,1.13,1.13
132.46,3.95,3.95,2.89,2.89,-2.89,-2.71,-2.88,1.06,1.06,1.06
133.79,3.92,3.92,2.92,2.92,-2.92,-2.74,-2.88,1.00,1.00,1.00
135.12,3.89,3.90,2.95,2.95,-2.96,-2.78,-2.88,0.94,0.94,0.94
136.48,3.87,3.87,2.99,2.99,-2.99,-2.82,-2.88,0.89,0.88,0.88
137.84,3.84,3.84,3.02,3.02,-3.02,-2.86,-2.87,0.83,0.83,0.82
139.22,3.81,3.81,3.05,3.05,-3.04,-2.89,-2.86,0.77,0.77,0.77
140.61,3.78,3.78,3.07,3.07,-3.07,-2.93,-2.85,0.71,0.71,0.71
142.02,3.75,3.75,3.10,3.10,-3.10,-2.96,-2.84,0.65,0.65,0.65
143.44,3.72,3.72,3.12,3.12,-3.12,-3.00,-2.83,0.60,0.60,0.60
144.87,3.69,3.69,3.15,3.15,-3.15,-3.03,-2.82,0.55,0.55,0.55
146.32,3.66,3.66,3.17,3.17,-3.17,-3.07,-2.80,0.49,0.49,0.49
147.78,3.63,3.63,3.19,3.19,-3.19,-3.10,-2.79,0.44,0.44,0.44
149.26,3.60,3.60,3.21,3.21,-3.21,-3.13,-2.78,0.39,0.39,0.39
150.75,3.57,3.57,3.23,3.23,-3.23,-3.16,-2.76,0.34,0.34,0.34
152.26,3.54,3.54,3.25,3.25,-3.25,-3.19,-2.75,0.29,0.29,0.29
153.78,3.51,3.51,3.27,3.27,-3.27,-3.23,-2.74,0.24,0.24,0.25
155.32,3.48,3.49,3.28,3.29,-3.29,-3.26,-2.73,0.20,0.20,0.20
156.88,3.46,3.46,3.31,3.30,-3.30,-3.28,-2.72,0.16,0.15,0.15
158.44,3.43,3.43,3.32,3.32,-3.32,-3.31,-2.72,0.11,0.11,0.11
160.03,3.40,3.40,3.34,3.34,-3.34,-3.34,-2.71,0.06,0.07,0.07
161.63,3.37,3.37,3.36,3.35,-3.35,-3.37,-2.71,0.02,0.02,0.01
163.24,3.34,3.34,3.37,3.37,-3.37,-3.39,-2.70,-0.03,-0.03,-0.03
164.88,3.31,3.31,3.38,3.38,-3.38,-3.42,-2.70,-0.07,-0.07,-0.07
166.53,3.28,3.29,3.39,3.39,-3.39,-3.44,-2.70,-0.11,-0.11,-0.11
168.19,3.26,3.26,3.41,3.40,-3.40,-3.46,-2.70,-0.14,-0.15,-0.15
169.87,3.23,3.23,3.41,3.41,-3.42,-3.49,-2.71,-0.18,-0.18,-0.18
171.57,3.20,3.21,3.42,3.42,-3.43,-3.51,-2.72,-0.22,-0.22,-0.22
173.29,3.18,3.18,3.44,3.43,-3.43,-3.53,-2.72,-0.25,-0.26,-0.25
175.02,3.15,3.15,3.44,3.44,-3.44,-3.55,-2.74,-0.29,-0.29,-0.29
176.77,3.13,3.13,3.45,3.45,-3.45,-3.56,-2.75,-0.32,-0.32,-0.32
178.54,3.10,3.10,3.46,3.46,-3.46,-3.58,-2.76,-0.36,-0.36,-0.36
180.32,3.08,3.08,3.47,3.47,-3.47,-3.60,-2.78,-0.38,-0.39,-0.39
182.13,3.05,3.06,3.47,3.47,-3.47,-3.61,-2.80,-0.42,-0.42,-0.42
183.95,3.03,3.03,3.48,3.48,-3.47,-3.62,-2.82,-0.44,-0.44,-0.45
185.79,3.00,3.00,3.48,3.48,-3.48,-3.64,-2.85,-0.47,-0.47,-0.48
187.65,2.97,2.97,3.48,3.48,-3.48,-3.65,-2.87,-0.50,-0.50,-0.51
189.52,2.94,2.94,3.48,3.47,-3.48,-3.66,-2.90,-0.53,-0.53,-0.53
191.42,2.91,2.91,3.47,3.47,-3.47,-3.67,-2.93,-0.56,-0.56,-0.56
193.33,2.88,2.89,3.47,3.47,-3.47,-3.67,-2.96,-0.59,-0.58,-0.59
195.27,2.86,2.86,3.47,3.47,-3.47,-3.68,-2.99,-0.61,-0.61,-0.61
197.22,2.83,2.83,3.47,3.47,-3.47,-3.69,-3.03,-0.64,-0.64,-0.63
199.19,2.80,2.81,3.46,3.46,-3.47,-3.69,-3.06,-0.67,-0.66,-0.66
201.18,2.78,2.78,3.46,3.47,-3.47,-3.69,-3.10,-0.69,-0.69,-0.68
203.19,2.77,2.77,3.48,3.47,-3.47,-3.69,-3.14,-0.70,-0.71,-0.70
205.23,2.75,2.76,3.48,3.48,-3.48,-3.69,-3.18,-0.73,-0.72,-0.72
207.28,2.74,2.74,3.49,3.49,-3.48,-3.69,-3.22,-0.74,-0.74,-0.75
209.35,2.72,2.72,3.49,3.49,-3.49,-3.69,-3.26,-0.76,-0.76,-0.77
211.44,2.70,2.70,3.49,3.49,-3.49,-3.69,-3.30,-0.79,-0.78,-0.79
213.56,2.68,2.68,3.49,3.49,-3.49,-3.68,-3.34,-0.80,-0.80,-0.80
215.69,2.66,2.66,3.48,3.49,-3.48,-3.68,-3.38,-0.82,-0.82,-0.82
217.85,2.64,2.64,3.48,3.48,-3.48,-3.67,-3.41,-0.83,-0.84,-0.84
220.03,2.61,2.61,3.47,3.47,-3.47,-3.66,-3.45,-0.85,-0.85,-0.86
222.23,2.58,2.58,3.46,3.46,-3.45,-3.65,-3.49,-0.87,-0.87,-0.87
224.45,2.55,2.55,3.44,3.44,-3.44,-3.64,-3.52,-0.89,-0.89,-0.89
226.70,2.52,2.52,3.43,3.43,-3.43,-3.63,-3.56,-0.91,-0.91,-0.91
228.96,2.49,2.49,3.41,3.41,-3.41,-3.62,-3.59,-0.92,-0.92,-0.92
231.25,2.46,2.46,3.40,3.40,-3.40,-3.60,-3.61,-0.94,-0.94,-0.93
233.57,2.43,2.44,3.38,3.39,-3.39,-3.59,-3.64,-0.96,-0.96,-0.95
235.90,2.41,2.41,3.38,3.38,-3.38,-3.57,-3.66,-0.97,-0.97,-0.97
238.26,2.39,2.39,3.38,3.37,-3.37,-3.56,-3.68,-0.98,-0.98,-0.98
240.64,2.37,2.37,3.37,3.37,-3.37,-3.54,-3.69,-1.00,-1.00,-1.00
243.05,2.35,2.36,3.36,3.37,-3.36,-3.52,-3.70,-1.01,-1.01,-1.01
245.48,2.34,2.34,3.36,3.36,-3.36,-3.50,-3.70,-1.02,-1.02,-1.02
247.93,2.32,2.32,3.36,3.35,-3.35,-3.48,-3.71,-1.03,-1.03,-1.03
250.41,2.30,2.31,3.35,3.35,-3.35,-3.46,-3.70,-1.05,-1.04,-1.04
252.92,2.29,2.29,3.35,3.35,-3.35,-3.44,-3.69,-1.05,-1.05,-1.05
255.45,2.28,2.28,3.35,3.34,-3.34,-3.42,-3.68,-1.06,-1.07,-1.06
258.00,2.26,2.26,3.34,3.34,-3.34,-3.39,-3.67,-1.08,-1.08,-1.07
260.58,2.25,2.25,3.34,3.34,-3.34,-3.37,-3.64,-1.09,-1.09,-1.08
263.19,2.24,2.24,3.34,3.34,-3.34,-3.34,-3.62,-1.10,-1.10,-1.09
265.82,2.24,2.24,3.34,3.34,-3.34,-3.32,-3.59,-1.10,-1.10,-1.10
268.48,2.23,2.23,3.34,3.34,-3.34,-3.29,-3.56,-1.11,-1.11,-1.11
271.16,2.22,2.22,3.34,3.34,-3.34,-3.26,-3.52,-1.12,-1.12,-1.12
273.87,2.21,2.21,3.34,3.34,-3.34,-3.24,-3.48,-1.13,-1.13,-1.13
276.61,2.20,2.20,3.34,3.34,-3.33,-3.21,-3.44,-1.13,-1.13,-1.13
279.38,2.19,2.19,3.33,3.33,-3.33,-3.18,-3.40,-1.13,-1.14,-1.14
282.17,2.17,2.17,3.32,3.32,-3.31,-3.15,-3.35,-1.14,-1.14,-1.15
284.99,2.15,2.15,3.30,3.30,-3.30,-3.12,-3.31,-1.15,-1.14,-1.15
287.84,2.13,2.13,3.27,3.28,-3.28,-3.09,-3.26,-1.15,-1.15,-1.14
290.72,2.11,2.11,3.26,3.26,-3.26,-3.06,-3.21,-1.15,-1.15,-1.15
293.63,2.08,2.08,3.24,3.23,-3.23,-3.03,-3.16,-1.15,-1.15,-1.15
296.57,2.05,2.06,3.20,3.21,-3.21,-3.00,-3.11,-1.16,-1.15,-1.15
299.53,2.03,2.03,3.18,3.18,-3.18,-2.97,-3.05,-1.15,-1.15,-1.15
302.53,2.00,2.00,3.15,3.15,-3.15,-2.94,-3.00,-1.15,-1.15,-1.15
305.55,1.97,1.97,3.12,3.12,-3.12,-2.90,-2.95,-1.15,-1.15,-1.15
308.61,1.94,1.94,3.09,3.09,-3.09,-2.87,-2.90,-1.15,-1.15,-1.15
311.69,1.91,1.91,3.06,3.06,-3.06,-2.84,-2.85,-1.15,-1.15,-1.15
314.81,1.88,1.88,3.03,3.03,-3.03,-2.81,-2.80,-1.15,-1.15,-1.15
317.96,1.85,1.85,3.00,3.00,-3.00,-2.77,-2.75,-1.15,-1.15,-1.15
321.14,1.82,1.82,2.97,2.97,-2.97,-2.74,-2.70,-1.15,-1.15,-1.15
324.35,1.79,1.80,2.94,2.94,-2.94,-2.71,-2.66,-1.15,-1.15,-1.15
327.59,1.77,1.77,2.91,2.91,-2.92,-2.67,-2.61,-1.15,-1.15,-1.14
330.87,1.75,1.75,2.90,2.89,-2.90,-2.64,-2.57,-1.14,-1.14,-1.14
334.18,1.73,1.73,2.87,2.87,-2.87,-2.61,-2.53,-1.14,-1.14,-1.14
337.52,1.71,1.72,2.85,2.85,-2.86,-2.57,-2.49,-1.14,-1.14,-1.14
340.90,1.70,1.70,2.84,2.84,-2.84,-2.54,-2.45,-1.14,-1.13,-1.13
344.30,1.69,1.69,2.82,2.82,-2.82,-2.51,-2.42,-1.13,-1.13,-1.13
347.75,1.68,1.68,2.80,2.80,-2.80,-2.47,-2.38,-1.12,-1.12,-1.12
351.23,1.66,1.67,2.79,2.79,-2.78,-2.44,-2.35,-1.12,-1.11,-1.12
354.74,1.65,1.65,2.76,2.76,-2.76,-2.40,-2.32,-1.11,-1.11,-1.11
358.28,1.63,1.63,2.74,2.74,-2.73,-2.37,-2.29,-1.10,-1.10,-1.11
361.87,1.60,1.61,2.71,2.71,-2.71,-2.34,-2.26,-1.11,-1.10,-1.10
365.49,1.58,1.58,2.68,2.68,-2.68,-2.30,-2.24,-1.10,-1.10,-1.10
369.14,1.55,1.56,2.65,2.65,-2.65,-2.27,-2.21,-1.10,-1.09,-1.10
372.83,1.53,1.53,2.61,2.62,-2.62,-2.24,-2.19,-1.09,-1.09,-1.08
376.56,1.50,1.50,2.59,2.58,-2.59,-2.21,-2.17,-1.08,-1.08,-1.08
380.33,1.47,1.48,2.55,2.56,-2.55,-2.17,-2.15,-1.08,-1.08,-1.08
384.13,1.45,1.45,2.53,2.52,-2.52,-2.14,-2.13,-1.07,-1.07,-1.08
387.97,1.42,1.42,2.49,2.49,-2.49,-2.11,-2.12,-1.06,-1.07,-1.07
391.85,1.39,1.39,2.44,2.45,-2.45,-2.07,-2.11,-1.06,-1.06,-1.05
395.77,1.36,1.37,2.42,2.42,-2.42,-2.04,-2.09,-1.06,-1.05,-1.05
399.73,1.34,1.34,2.39,2.38,-2.39,-2.01,-2.08,-1.04,-1.05,-1.05
403.72,1.31,1.31,2.35,2.35,-2.35,-1.98,-2.07,-1.04,-1.04,-1.04
407.76,1.28,1.28,2.32,2.32,-2.32,-1.95,-2.06,-1.04,-1.04,-1.04
411.84,1.25,1.26,2.28,2.29,-2.29,-1.92,-2.05,-1.04,-1.03,-1.03
415.96,1.23,1.23,2.26,2.26,-2.26,-1.88,-2.05,-1.02,-1.03,-1.02
420.12,1.20,1.20,2.23,2.22,-2.22,-1.85,-2.04,-1.02,-1.02,-1.03
424.32,1.17,1.17,2.19,2.19,-2.19,-1.82,-2.03,-1.02,-1.02,-1.02
428.56,1.14,1.15,2.15,2.16,-2.16,-1.79,-2.03,-1.01,-1.01,-1.01
432.85,1.12,1.12,2.12,2.12,-2.12,-1.76,-2.02,-1.00,-1.00,-1.00
437.18,1.09,1.09,2.09,2.09,-2.09,-1.73,-2.02,-0.99,-1.00,-1.00
441.55,1.06,1.06,2.06,2.06,-2.05,-1.70,-2.01,-0.99,-0.99,-0.99
445.96,1.03,1.04,2.02,2.02,-2.02,-1.67,-2.01,-0.98,-0.98,-0.98
450.42,1.01,1.01,1.98,1.98,-1.98,-1.64,-2.00,-0.97,-0.97,-0.97
454.93,0.98,0.98,1.94,1.94,-1.94,-1.61,-1.99,-0.96,-0.96,-0.96
459.48,0.95,0.95,1.90,1.90,-1.91,-1.58,-1.99,-0.96,-0.95,-0.95
464.07,0.92,0.93,1.87,1.87,-1.87,-1.55,-1.98,-0.95,-0.95,-0.95
468.71,0.90,0.90,1.84,1.84,-1.84,-1.52,-1.97,-0.93,-0.94,-0.94
473.40,0.87,0.87,1.80,1.80,-1.80,-1.50,-1.96,-0.93,-0.93,-0.93
478.13,0.84,0.84,1.76,1.77,-1.77,-1.47,-1.95,-0.92,-0.92,-0.92
482.91,0.81,0.82,1.73,1.73,-1.73,-1.44,-1.94,-0.92,-0.91,-0.91
487.74,0.79,0.79,1.70,1.69,-1.69,-1.41,-1.92,-0.90,-0.90,-0.90
492.62,0.76,0.76,1.66,1.66,-1.65,-1.38,-1.91,-0.89,-0.89,-0.90
497.55,0.73,0.73,1.62,1.62,-1.62,-1.35,-1.89,-0.88,-0.88,-0.89
502.52,0.70,0.70,1.58,1.58,-1.58,-1.33,-1.87,-0.87,-0.87,-0.88
507.55,0.67,0.68,1.53,1.54,-1.54,-1.30,-1.85,-0.87,-0.86,-0.86
512.62,0.65,0.65,1.50,1.50,-1.50,-1.27,-1.83,-0.85,-0.85,-0.85
517.75,0.62,0.62,1.46,1.46,-1.46,-1.25,-1.80,-0.84,-0.84,-0.84
522.93,0.59,0.59,1.42,1.42,-1.42,-1.22,-1.78,-0.83,-0.83,-0.83
