frequency,raw
20.00,-7.54
20.20,-7.48
20.40,-7.42
20.61,-7.36
20.81,-7.30
21.02,-7.23
21.23,-7.17
21.44,-7.11
21.66,-7.05
21.87,-6.99
22.09,-6.94
22.31,-6.89
22.54,-6.84
22.76,-6.79
22.99,-6.74
23.22,-6.69
23.45,-6.64
23.69,-6.59
23.92,-6.54
24.16,-6.48
24.40,-6.43
24.65,-6.37
24.89,-6.31
25.14,-6.27
25.39,-6.23
25.65,-6.19
25.91,-6.15
26.16,-6.12
26.43,-6.08
26.69,-6.04
26.96,-6.01
27.23,-5.97
27.50,-5.93
27.77,-5.89
28.05,-5.86
28.33,-5.83
28.62,-5.81
28.90,-5.79
29.19,-5.76
29.48,-5.73
29.78,-5.69
30.08,-5.66
30.38,-5.63
30.68,-5.59
30.99,-5.56
31.30,-5.53
31.61,-5.49
31.93,-5.46
32.24,-5.44
32.57,-5.42
32.89,-5.40
33.22,-5.37
33.55,-5.35
33.89,-5.32
34.23,-5.29
34.57,-5.25
34.92,-5.22
35.27,-5.18
35.62,-5.14
35.97,-5.10
36.33,-5.07
36.70,-5.04
37.06,-5.01
37.43,-4.98
37.81,-4.95
38.19,-4.92
38.57,-4.90
38.95,-4.88
39.34,-4.85
39.74,-4.82
40.14,-4.79
40.54,-4.75
40.94,-4.72
41.35,-4.68
41.76,-4.64
42.18,-4.61
42.60,-4.58
43.03,-4.56
43.46,-4.53
43.90,-4.51
44.33,-4.47
44.78,-4.44
45.23,-4.41
45.68,-4.39
46.13,-4.36
46.60,-4.33
47.06,-4.31
47.53,-4.28
48.01,-4.26
48.49,-4.24
48.97,-4.21
49.46,-4.18
49.96,-4.14
50.46,-4.09
50.96,-4.03
51.47,-3.99
51.99,-3.94
52.51,-3.91
53.03,-3.88
53.56,-3.84
54.10,-3.80
54.64,-3.77
55.18,-3.74
55.74,-3.69
56.29,-3.65
56.86,-3.61
57.42,-3.57
58.00,-3.53
58.58,-3.50
59.16,-3.46
59.76,-3.42
60.35,-3.37
60.96,-3.32
61.57,-3.27
62.18,-3.22
62.80,-3.20
63.43,-3.15
64.07,-3.10
64.71,-3.06
65.35,-3.03
66.01,-3.02
66.67,-2.99
67.33,-2.95
68.01,-2.92
68.69,-2.90
69.37,-2.87
70.07,-2.84
70.77,-2.82
71.48,-2.79
72.19,-2.76
72.91,-2.71
73.64,-2.68
74.38,-2.64
75.12,-2.60
75.87,-2.57
76.63,-2.52
77.40,-2.46
78.17,-2.40
78.95,-2.36
79.74,-2.35
80.54,-2.32
81.35,-2.29
82.16,-2.26
82.98,-2.26
83.81,-2.26
84.65,-2.24
85.50,-2.22
86.35,-2.20
87.22,-2.20
88.09,-2.20
88.97,-2.20
89.86,-2.20
90.76,-2.21
91.66,-2.22
92.58,-2.24
93.51,-2.23
94.44,-2.22
95.39,-2.21
96.34,-2.20
97.30,-2.18
98.28,-2.16
99.26,-2.13
100.25,-2.11
101.25,-2.07
102.27,-2.00
103.29,-1.94
104.32,-1.87
105.37,-1.81
106.42,-1.74
107.48,-1.70
108.56,-1.63
109.64,-1.51
110.74,-1.41
111.85,-1.31
112.97,-1.19
114.10,-1.19
115.24,-1.01
116.39,-0.91
117.55,-0.82
118.73,-0.72
119.92,-0.55
121.12,-0.54
122.33,-0.39
123.55,-0.22
124.79,-0.13
126.03,-0.02
127.29,0.08
128.57,0.19
129.85,0.31
131.15,0.42
132.46,0.51
133.79,0.61
135.12,0.65
136.48,0.70
137.84,0.75
139.22,0.83
140.61,0.86
142.02,0.95
143.44,1.04
144.87,1.13
146.32,1.21
147.78,1.29
149.26,1.41
150.75,1.58
152.26,1.66
153.78,1.75
155.32,1.88
156.88,1.92
158.44,2.06
160.03,2.22
161.63,2.29
163.24,2.38
164.88,2.53
166.53,2.58
168.19,2.65
169.87,2.72
171.57,2.78
173.29,2.85
175.02,2.92
176.77,2.97
178.54,3.00
180.32,3.10
182.13,3.17
183.95,3.25
185.79,3.35
187.65,3.44
189.52,3.51
191.42,3.58
193.33,3.65
195.27,3.74
197.22,3.79
199.19,3.87
201.18,3.96
203.19,4.00
205.23,4.09
207.28,4.22
209.35,4.29
211.44,4.34
213.56,4.43
215.69,4.43
217.85,4.50
220.03,4.52
222.23,4.53
224.45,4.54
226.70,4.53
228.96,4.54
231.25,4.55
233.57,4.56
235.90,4.54
238.26,4.56
240.64,4.60
243.05,4.65
245.48,4.73
247.93,4.79
250.41,4.81
252.92,4.86
255.45,4.91
258.00,4.95
260.58,4.98
263.19,5.02
265.82,5.04
268.48,5.11
271.16,5.22
273.87,5.35
276.61,5.49
279.38,5.71
282.17,5.90
284.99,6.05
287.84,6.17
290.72,6.23
293.63,6.24
296.57,6.24
299.53,6.22
302.53,6.19
305.55,6.18
308.61,6.17
311.69,6.17
314.81,6.18
317.96,6.19
321.14,6.19
324.35,6.18
327.59,6.17
330.87,6.18
334.18,6.20
337.52,6.20
340.90,6.18
344.30,6.19
347.75,6.17
351.23,6.16
354.74,6.17
358.28,6.15
361.87,6.13
365.49,6.11
369.14,6.06
372.83,6.04
376.56,5.97
380.33,5.95
384.13,5.92
387.97,5.87
391.85,5.81
395.77,5.79
399.73,5.70
403.72,5.66
407.76,5.59
411.84,5.58
415.96,5.50
420.12,5.44
424.32,5.38
428.56,5.38
432.85,5.31
437.18,5.25
441.55,5.19
445.96,5.17
450.42,5.06
454.93,5.02
459.48,4.95
464.07,4.91
468.71,4.83
473.40,4.78
478.13,4.65
482.91,4.59
487.74,4.51
492.62,4.45
497.55,4.38
502.52,4.30
507.55,4.23
512.62,4.16
517.75,4.06
522.93,3.96
528.16,3.90
533.44,3.82
538.77,3.74
544.16,3.66
549.60,3.57
555.10,3.49
560.65,3.39
566.25,3.31
571.92,3.19
577.64,3.11
583.41,3.03
589.25,2.92
595.14,2.87
601.09,2.76
607.10,2.66
613.17,2.54
619.30,2.46
625.50,2.32
631.75,2.21
638.07,2.07
644.45,2.00
650.89,1.88
657.40,1.80
663.98,1.72
670.62,1.62
677.32,1.53
684.10,1.42
690.94,1.31
697.85,1.25
704.83,1.19
711.87,1.12
718.99,1.05
726.18,0.98
733.44,0.94
740.78,0.91
748.19,0.89
755.67,0.85
763.23,0.80
770.86,0.75
778.57,0.70
786.35,0.65
794.22,0.59
802.16,0.53
810.18,0.46
818.28,0.38
826.46,0.30
834.73,0.22
843.08,0.18
851.51,0.16
860.02,0.10
868.62,0.06
877.31,0.02
886.08,-0.01
894.94,-0.06
903.89,-0.04
912.93,-0.05
922.06,-0.07
931.28,-0.07
940.59,-0.05
950.00,-0.05
959.50,0.01
969.09,0.01
978.78,-0.01
988.57,-0.01
998.46,-0.00
1008.44,0.02
1018.53,0.05
1028.71,0.08
1039.00,0.11
1049.39,0.11
1059.88,0.10
1070.48,0.11
1081.19,0.11
1092.00,0.13
1102.92,0.16
1113.95,0.19
1125.09,0.23
1136.34,0.26
1147.70,0.32
1159.18,0.37
1170.77,0.41
1182.48,0.47
1194.30,0.53
1206.25,0.57
1218.31,0.59
1230.49,0.59
1242.80,0.60
1255.22,0.62
1267.78,0.64
1280.45,0.65
1293.26,0.70
1306.19,0.74
1319.25,0.78
1332.45,0.83
1345.77,0.87
1359.23,0.98
1372.82,1.02
1386.55,1.13
1400.41,1.28
1414.42,1.36
1428.56,1.47
1442.85,1.61
1457.28,1.70
1471.85,1.77
1486.57,1.81
1501.43,1.87
1516.45,1.97
1531.61,2.05
1546.93,2.14
1562.40,2.23
1578.02,2.32
1593.80,2.40
1609.74,2.40
1625.84,2.38
1642.10,2.36
1658.52,2.35
1675.10,2.34
1691.85,2.32
1708.77,2.27
1725.86,2.17
1743.12,2.07
1760.55,1.82
1778.15,1.56
1795.94,1.24
1813.90,0.97
1832.03,0.83
1850.36,0.78
1868.86,0.76
1887.55,0.71
1906.42,0.64
1925.49,0.58
1944.74,0.44
1964.19,0.27
1983.83,0.12
2003.67,-0.11
2023.71,-0.29
2043.94,-0.53
2064.38,-0.71
2085.03,-0.97
2105.88,-1.24
2126.94,-1.43
2148.20,-1.76
2169.69,-1.98
2191.38,-2.31
2213.30,-2.63
2235.43,-2.87
2257.78,-3.10
2280.36,-3.44
2303.17,-3.75
2326.20,-3.96
2349.46,-4.19
2372.95,-4.31
2396.68,-4.51
2420.65,-4.67
2444.86,-5.00
2469.31,-5.17
2494.00,-5.48
2518.94,-5.69
2544.13,-5.98
2569.57,-6.25
2595.27,-6.49
2621.22,-6.73
2647.43,-6.93
2673.90,-7.11
2700.64,-7.31
2727.65,-7.52
2754.93,-7.63
2782.48,-7.76
2810.30,-7.84
2838.40,-7.85
2866.79,-7.81
2895.46,-7.68
2924.41,-7.40
2953.65,-7.13
2983.19,-6.82
3013.02,-6.52
3043.15,-6.27
3073.58,-6.02
3104.32,-5.83
3135.36,-5.69
3166.72,-5.56
3198.38,-5.55
3230.37,-5.61
3262.67,-5.77
3295.30,-5.95
3328.25,-6.20
3361.53,-6.49
3395.15,-6.90
3429.10,-7.32
3463.39,-7.59
3498.03,-7.95
3533.01,-8.20
3568.34,-8.36
3604.02,-8.51
3640.06,-8.66
3676.46,-8.78
3713.22,-8.88
3750.36,-8.99
3787.86,-9.11
3825.74,-9.19
3864.00,-9.30
3902.64,-9.35
3941.66,-9.38
3981.08,-9.35
4020.89,-9.32
4061.10,-9.09
4101.71,-8.98
4142.73,-8.81
4184.15,-8.70
4226.00,-8.66
4268.26,-8.67
4310.94,-8.64
4354.05,-8.65
4397.59,-8.75
4441.56,-9.11
4485.98,-9.70
4530.84,-10.64
4576.15,-11.71
4621.91,-13.95
4668.13,-15.09
4714.81,-15.93
4761.96,-17.51
4809.58,-17.88
4857.67,-17.39
4906.25,-15.48
4955.31,-13.94
5004.87,-13.33
5054.91,-13.06
5105.46,-12.85
5156.52,-12.81
5208.08,-12.87
5260.16,-12.90
5312.77,-12.95
5365.89,-12.63
5419.55,-12.35
5473.75,-11.79
5528.49,-11.12
5583.77,-10.20
5639.61,-9.25
5696.00,-8.13
5752.96,-8.03
5810.49,-7.67
5868.60,-7.71
5927.28,-8.13
5986.56,-8.46
6046.42,-8.66
6106.89,-8.88
6167.96,-9.07
6229.64,-9.17
6291.93,-9.17
6354.85,-9.17
6418.40,-9.18
6482.58,-9.21
6547.41,-9.24
6612.88,-9.26
6679.01,-9.26
6745.80,-9.32
6813.26,-9.29
6881.39,-9.26
6950.21,-9.37
7019.71,-9.43
7089.91,-9.50
7160.81,-9.55
7232.41,-9.58
7304.74,-9.56
7377.79,-9.56
7451.56,-9.51
7526.08,-9.43
7601.34,-9.31
7677.35,-9.08
7754.13,-8.82
7831.67,-8.48
7909.98,-8.21
7989.08,-7.96
8068.98,-7.77
8149.67,-7.46
8231.16,-7.23
8313.47,-7.04
8396.61,-6.85
8480.57,-6.75
8565.38,-6.67
8651.03,-6.60
8737.54,-6.53
8824.92,-6.47
8913.17,-6.39
9002.30,-6.25
9092.32,-6.15
9183.25,-5.99
9275.08,-5.95
9367.83,-5.94
9461.51,-6.06
9556.12,-6.33
9651.68,-6.73
9748.20,-7.26
9845.68,-7.81
9944.14,-8.38
10043.58,-8.94
10144.02,-9.18
10245.46,-9.46
10347.91,-9.62
10451.39,-9.72
10555.91,-9.86
10661.46,-10.14
10768.08,-10.48
10875.76,-10.71
10984.52,-10.74
11094.36,-10.65
11205.31,-10.11
11317.36,-9.41
11430.53,-8.54
11544.84,-8.02
11660.29,-7.45
11776.89,-7.19
11894.66,-6.90
12013.60,-6.71
12133.74,-6.68
12255.08,-6.83
12377.63,-6.93
12501.41,-7.07
12626.42,-7.15
12752.68,-7.08
12880.21,-6.66
13009.01,-5.61
13139.10,-5.26
13270.49,-4.84
13403.20,-3.78
13537.23,-3.02
13672.60,-2.83
13809.33,-2.51
13947.42,-2.09
14086.90,-1.80
14227.77,-1.52
14370.04,-1.10
14513.74,-0.62
14658.88,-0.06
14805.47,0.47
14953.52,1.09
15103.06,1.32
15254.09,1.90
15406.63,2.14
15560.70,2.19
15716.30,2.22
15873.47,2.13
16032.20,2.03
16192.52,1.89
16354.45,1.60
16517.99,1.30
16683.17,1.14
16850.01,0.69
17018.51,0.35
17188.69,-0.01
17360.58,-0.70
17534.18,-1.41
17709.53,-2.86
17886.62,-3.89
18065.49,-4.40
18246.14,-5.27
18428.60,-6.33
18612.89,-7.26
18799.02,-7.93
18987.01,-8.04
19176.88,-8.73
19368.65,-9.16
19562.33,-9.45
19757.96,-9.53
19955.54,-9.25
