frequency,raw,smoothed,error,error_smoothed,equalization,parametric_eq,fixed_band_eq,equalized_raw,equalized_smoothed,target
20.00,-18.79,-18.80,-20.38,-20.38,6.00,5.95,2.69,-12.79,-12.80,1.59
20.20,-18.67,-18.67,-20.29,-20.29,6.00,5.95,2.77,-12.67,-12.67,1.62
20.40,-18.55,-18.55,-20.20,-20.19,6.00,5.95,2.85,-12.55,-12.55,1.65
20.61,-18.43,-18.43,-20.09,-20.10,6.00,5.95,2.93,-12.43,-12.43,1.67
20.81,-18.30,-18.30,-20.00,-20.00,6.00,5.96,3.01,-12.30,-12.30,1.70
21.02,-18.18,-18.18,-19.91,-19.90,6.00,5.96,3.10,-12.18,-12.18,1.72
21.23,-18.06,-18.06,-19.80,-19.80,6.00,5.96,3.18,-12.06,-12.06,1.73
21.44,-17.94,-17.94,-19.69,-19.69,6.00,5.96,3.27,-11.94,-11.94,1.74
21.66,-17.82,-17.82,-19.57,-19.57,6.00,5.96,3.37,-11.82,-11.82,1.75
21.87,-17.69,-17.69,-19.44,-19.45,6.00,5.96,3.46,-11.69,-11.69,1.75
22.09,-17.57,-17.57,-19.33,-19.33,6.00,5.96,3.56,-11.57,-11.57,1.76
22.31,-17.45,-17.46,-19.21,-19.22,6.00,5.96,3.66,-11.45,-11.46,1.76
22.54,-17.35,-17.34,-19.11,-19.10,6.00,5.96,3.76,-11.35,-11.34,1.76
22.76,-17.22,-17.23,-18.98,-18.98,6.00,5.96,3.87,-11.22,-11.23,1.76
22.99,-17.11,-17.11,-18.86,-18.87,6.00,5.96,3.98,-11.11,-11.11,1.75
23.22,-17.00,-17.00,-18.75,-18.75,6.00,5.96,4.09,-11.00,-11.00,1.75
23.45,-16.88,-16.89,-18.63,-18.63,6.00,5.97,4.20,-10.88,-10.89,1.75
23.69,-16.77,-16.77,-18.51,-18.52,6.00,5.97,4.32,-10.77,-10.77,1.75
23.92,-16.65,-16.65,-18.40,-18.40,6.00,5.97,4.44,-10.65,-10.65,1.75
24.16,-16.53,-16.53,-18.29,-18.28,6.00,5.97,4.56,-10.53,-10.53,1.76
24.40,-16.41,-16.41,-18.17,-18.16,6.00,5.97,4.68,-10.41,-10.41,1.75
24.65,-16.29,-16.30,-18.04,-18.04,6.00,5.97,4.81,-10.29,-10.30,1.74
24.89,-16.18,-16.18,-17.92,-17.92,6.00,5.97,4.93,-10.18,-10.18,1.74
25.14,-16.06,-16.06,-17.80,-17.81,6.00,5.97,5.06,-10.06,-10.06,1.74
25.39,-15.95,-15.95,-17.69,-17.69,6.00,5.97,5.19,-9.95,-9.95,1.74
25.65,-15.83,-15.84,-17.57,-17.57,6.00,5.97,5.32,-9.83,-9.84,1.74
25.91,-15.73,-15.72,-17.45,-17.45,6.00,5.97,5.45,-9.73,-9.72,1.73
26.16,-15.60,-15.61,-17.33,-17.33,6.00,5.98,5.58,-9.60,-9.61,1.73
26.43,-15.50,-15.49,-17.22,-17.22,6.00,5.98,5.71,-9.50,-9.49,1.73
26.69,-15.37,-15.38,-17.10,-17.10,6.00,5.98,5.84,-9.37,-9.38,1.73
26.96,-15.27,-15.27,-17.00,-17.00,6.00,5.98,5.97,-9.27,-9.27,1.72
27.23,-15.17,-15.17,-16.89,-16.89,6.00,5.98,6.10,-9.17,-9.17,1.72
27.50,-15.06,-15.06,-16.79,-16.78,6.00,5.98,6.22,-9.06,-9.06,1.72
27.77,-14.96,-14.96,-16.67,-16.67,6.00,5.98,6.34,-8.96,-8.96,1.71
28.05,-14.86,-14.86,-16.57,-16.57,6.00,5.98,6.46,-8.86,-8.86,1.71
28.33,-14.77,-14.77,-16.47,-16.47,6.00,5.98,6.57,-8.77,-8.77,1.70
28.62,-14.69,-14.69,-16.38,-16.38,6.00,5.99,6.67,-8.69,-8.69,1.70
28.90,-14.61,-14.61,-16.31,-16.31,6.00,5.99,6.77,-8.61,-8.61,1.69
29.19,-14.54,-14.54,-16.23,-16.23,6.00,5.99,6.86,-8.54,-8.54,1.68
29.48,-14.48,-14.48,-16.17,-16.17,6.00,5.99,6.95,-8.48,-8.48,1.69
29.78,-14.40,-14.41,-16.08,-16.09,6.00,5.99,7.03,-8.40,-8.41,1.68
30.08,-14.33,-14.33,-16.01,-16.00,6.00,5.99,7.09,-8.33,-8.33,1.68
30.38,-14.24,-14.23,-15.90,-15.89,6.00,5.99,7.15,-8.24,-8.23,1.67
30.68,-14.11,-14.12,-15.78,-15.78,6.00,5.99,7.20,-8.11,-8.12,1.66
30.99,-14.00,-14.00,-15.65,-15.65,6.00,5.99,7.24,-8.00,-8.00,1.65
31.30,-13.90,-13.89,-15.54,-15.54,6.00,5.99,7.27,-7.90,-7.89,1.65
31.61,-13.79,-13.80,-15.44,-15.44,6.00,6.00,7.29,-7.79,-7.80,1.65
31.93,-13.71,-13.72,-15.35,-15.35,6.00,6.00,7.30,-7.71,-7.72,1.63
32.24,-13.64,-13.64,-15.26,-15.27,6.00,6.00,7.30,-7.64,-7.64,1.62
32.57,-13.56,-13.56,-15.18,-15.18,6.00,6.00,7.29,-7.56,-7.56,1.62
32.89,-13.46,-13.47,-15.08,-15.08,6.00,6.00,7.28,-7.46,-7.47,1.62
33.22,-13.36,-13.36,-14.97,-14.97,6.00,6.00,7.25,-7.36,-7.36,1.60
33.55,-13.26,-13.26,-14.86,-14.86,6.00,6.00,7.22,-7.26,-7.26,1.60
33.89,-13.16,-13.17,-14.75,-14.76,6.00,6.00,7.18,-7.16,-7.17,1.59
34.23,-13.09,-13.09,-14.68,-14.67,6.00,6.00,7.13,-7.09,-7.09,1.59
34.57,-13.02,-13.03,-14.60,-14.60,6.00,6.01,7.08,-7.02,-7.03,1.57
34.92,-12.96,-12.96,-14.52,-14.53,6.00,6.01,7.02,-6.96,-6.96,1.56
35.27,-12.89,-12.89,-14.45,-14.44,6.00,6.01,6.96,-6.89,-6.89,1.56
35.62,-12.80,-12.80,-14.35,-14.35,6.00,6.01,6.90,-6.80,-6.80,1.54
35.97,-12.71,-12.72,-14.24,-14.25,6.00,6.01,6.83,-6.71,-6.72,1.53
36.33,-12.63,-12.64,-14.16,-14.16,6.00,6.01,6.76,-6.63,-6.64,1.52
36.70,-12.57,-12.57,-14.09,-14.08,6.00,6.01,6.70,-6.57,-6.57,1.51
37.06,-12.51,-12.52,-14.01,-14.02,6.00,6.01,6.63,-6.51,-6.52,1.50
37.43,-12.46,-12.46,-13.96,-13.95,6.00,6.01,6.56,-6.46,-6.46,1.49
37.81,-12.39,-12.39,-13.87,-13.87,6.00,6.01,6.49,-6.39,-6.39,1.48
38.19,-12.32,-12.32,-13.79,-13.79,6.00,6.02,6.42,-6.32,-6.32,1.46
38.57,-12.23,-12.23,-13.69,-13.69,6.00,6.02,6.36,-6.23,-6.23,1.46
38.95,-12.14,-12.14,-13.59,-13.59,6.00,6.02,6.29,-6.14,-6.14,1.44
39.34,-12.05,-12.06,-13.48,-13.49,6.00,6.02,6.23,-6.05,-6.06,1.43
39.74,-11.98,-11.98,-13.40,-13.40,6.00,6.02,6.18,-5.98,-5.98,1.41
40.14,-11.91,-11.91,-13.32,-13.32,6.00,6.02,6.12,-5.91,-5.91,1.41
40.54,-11.84,-11.85,-13.24,-13.24,6.00,6.02,6.07,-5.84,-5.85,1.39
40.94,-11.78,-11.78,-13.17,-13.17,6.00,6.02,6.02,-5.78,-5.78,1.39
41.35,-11.72,-11.72,-13.09,-13.10,6.00,6.02,5.98,-5.72,-5.72,1.37
41.76,-11.66,-11.67,-13.03,-13.03,6.00,6.02,5.94,-5.66,-5.67,1.36
42.18,-11.61,-11.61,-12.97,-12.97,6.00,6.02,5.90,-5.61,-5.61,1.36
42.60,-11.56,-11.56,-12.90,-12.91,6.00,6.02,5.87,-5.56,-5.56,1.34
43.03,-11.51,-11.51,-12.85,-12.84,6.00,6.02,5.84,-5.51,-5.51,1.33
43.46,-11.45,-11.45,-12.77,-12.77,6.00,6.02,5.82,-5.45,-5.45,1.32
43.90,-11.39,-11.39,-12.68,-12.69,6.00,6.02,5.80,-5.39,-5.39,1.29
44.33,-11.33,-11.33,-12.61,-12.61,6.00,6.03,5.79,-5.33,-5.33,1.27
44.78,-11.27,-11.27,-12.53,-12.53,6.00,6.03,5.78,-5.27,-5.27,1.25
45.23,-11.21,-11.21,-12.45,-12.45,6.00,6.03,5.77,-5.21,-5.21,1.24
45.68,-11.15,-11.15,-12.37,-12.37,6.00,6.03,5.77,-5.15,-5.15,1.22
46.13,-11.09,-11.09,-12.29,-12.29,6.00,6.03,5.77,-5.09,-5.09,1.20
46.60,-11.02,-11.03,-12.21,-12.21,6.00,6.03,5.78,-5.02,-5.03,1.19
47.06,-10.95,-10.96,-12.12,-12.13,6.00,6.03,5.79,-4.95,-4.96,1.17
47.53,-10.89,-10.89,-12.04,-12.04,6.00,6.03,5.81,-4.89,-4.89,1.15
48.01,-10.81,-10.81,-11.95,-11.95,6.00,6.03,5.83,-4.81,-4.81,1.14
48.49,-10.73,-10.73,-11.84,-11.84,6.00,6.03,5.85,-4.73,-4.73,1.11
48.97,-10.65,-10.65,-11.73,-11.73,6.00,6.03,5.88,-4.65,-4.65,1.08
49.46,-10.57,-10.58,-11.62,-11.62,6.00,6.03,5.91,-4.57,-4.58,1.05
49.96,-10.50,-10.51,-11.52,-11.53,6.00,6.03,5.94,-4.50,-4.51,1.01
50.46,-10.44,-10.44,-11.45,-11.44,6.00,6.03,5.98,-4.44,-4.44,1.00
50.96,-10.38,-10.38,-11.36,-11.36,6.00,6.03,6.01,-4.38,-4.38,0.98
51.47,-10.32,-10.32,-11.27,-11.27,6.00,6.03,6.05,-4.32,-4.32,0.95
51.99,-10.26,-10.26,-11.19,-11.19,6.00,6.03,6.10,-4.26,-4.26,0.92
52.51,-10.20,-10.20,-11.11,-11.11,6.00,6.02,6.14,-4.20,-4.20,0.91
53.03,-10.14,-10.14,-11.03,-11.03,6.00,6.02,6.18,-4.14,-4.14,0.88
53.56,-10.08,-10.08,-10.94,-10.94,6.00,6.02,6.23,-4.08,-4.08,0.86
54.10,-10.02,-10.03,-10.86,-10.86,6.00,6.02,6.27,-4.02,-4.03,0.83
54.64,-9.97,-9.97,-10.78,-10.78,6.00,6.02,6.32,-3.97,-3.97,0.81
55.18,-9.92,-9.92,-10.70,-10.70,6.00,6.02,6.36,-3.92,-3.92,0.78
55.74,-9.87,-9.87,-10.63,-10.63,6.00,6.02,6.41,-3.87,-3.87,0.75
56.29,-9.82,-9.82,-10.56,-10.56,6.00,6.02,6.45,-3.82,-3.82,0.74
56.86,-9.77,-9.77,-10.48,-10.48,6.00,6.02,6.48,-3.77,-3.77,0.71
57.42,-9.72,-9.72,-10.40,-10.41,6.00,6.02,6.52,-3.72,-3.72,0.68
58.00,-9.67,-9.67,-10.33,-10.34,6.00,6.02,6.55,-3.67,-3.67,0.66
58.58,-9.62,-9.62,-10.26,-10.27,6.00,6.02,6.58,-3.62,-3.62,0.64
59.16,-9.57,-9.57,-10.19,-10.19,6.00,6.02,6.60,-3.57,-3.57,0.62
59.76,-9.51,-9.51,-10.11,-10.11,6.00,6.01,6.62,-3.51,-3.51,0.60
60.35,-9.45,-9.46,-10.02,-10.03,6.00,6.01,6.63,-3.45,-3.46,0.57
60.96,-9.40,-9.40,-9.95,-9.94,6.00,6.01,6.63,-3.40,-3.40,0.55
61.57,-9.35,-9.35,-9.86,-9.86,6.00,6.01,6.63,-3.35,-3.35,0.50
62.18,-9.30,-9.31,-9.77,-9.78,6.00,6.01,6.62,-3.30,-3.31,0.47
62.80,-9.26,-9.26,-9.71,-9.70,6.00,6.01,6.61,-3.26,-3.26,0.44
63.43,-9.20,-9.21,-9.61,-9.62,6.00,6.01,6.59,-3.20,-3.21,0.41
64.07,-9.15,-9.15,-9.54,-9.54,6.00,6.01,6.56,-3.15,-3.15,0.38
64.71,-9.10,-9.10,-9.46,-9.46,6.00,6.01,6.53,-3.10,-3.10,0.36
65.35,-9.04,-9.05,-9.37,-9.38,6.00,6.01,6.49,-3.04,-3.05,0.33
66.01,-8.99,-8.99,-9.29,-9.29,6.00,6.01,6.45,-2.99,-2.99,0.30
66.67,-8.93,-8.94,-9.21,-9.21,6.00,6.01,6.40,-2.93,-2.94,0.27
67.33,-8.88,-8.88,-9.13,-9.12,6.00,6.01,6.34,-2.88,-2.88,0.24
68.01,-8.82,-8.82,-9.04,-9.03,6.00,6.00,6.29,-2.82,-2.82,0.21
68.69,-8.76,-8.76,-8.94,-8.94,6.00,6.00,6.22,-2.76,-2.76,0.18
69.37,-8.70,-8.70,-8.85,-8.85,6.00,6.00,6.16,-2.70,-2.70,0.15
70.07,-8.64,-8.64,-8.76,-8.76,6.00,6.00,6.09,-2.64,-2.64,0.12
70.77,-8.58,-8.58,-8.68,-8.67,6.00,6.01,6.02,-2.58,-2.58,0.09
71.48,-8.52,-8.52,-8.58,-8.58,6.00,6.01,5.94,-2.52,-2.52,0.06
72.19,-8.46,-8.46,-8.49,-8.49,6.00,6.01,5.87,-2.46,-2.46,0.02
72.91,-8.40,-8.40,-8.39,-8.39,6.00,6.01,5.79,-2.40,-2.40,-0.01
73.64,-8.34,-8.34,-8.29,-8.30,6.00,6.01,5.72,-2.34,-2.34,-0.05
74.38,-8.28,-8.28,-8.21,-8.20,6.00,6.01,5.64,-2.28,-2.28,-0.08
75.12,-8.22,-8.22,-8.11,-8.11,6.00,6.01,5.57,-2.22,-2.22,-0.12
75.87,-8.16,-8.16,-8.02,-8.02,6.00,6.01,5.49,-2.16,-2.16,-0.15
76.63,-8.10,-8.10,-7.93,-7.92,6.00,6.01,5.42,-2.10,-2.10,-0.18
77.40,-8.04,-8.04,-7.84,-7.83,6.00,6.02,5.35,-2.04,-2.04,-0.21
78.17,-7.98,-7.99,-7.73,-7.74,6.00,6.02,5.28,-1.98,-1.99,-0.25
78.95,-7.93,-7.93,-7.66,-7.66,6.00,6.02,5.21,-1.93,-1.93,-0.27
79.74,-7.87,-7.88,-7.57,-7.57,6.00,6.02,5.15,-1.87,-1.88,-0.31
80.54,-7.83,-7.83,-7.49,-7.49,6.00,6.02,5.09,-1.83,-1.83,-0.34
81.35,-7.78,-7.78,-7.41,-7.41,6.00,6.03,5.03,-1.78,-1.78,-0.37
82.16,-7.74,-7.74,-7.33,-7.33,6.00,6.03,4.97,-1.74,-1.74,-0.41
82.98,-7.69,-7.70,-7.26,-7.25,6.00,6.03,4.92,-1.69,-1.70,-0.44
83.81,-7.65,-7.66,-7.17,-7.18,6.00,6.03,4.87,-1.65,-1.66,-0.48
84.65,-7.62,-7.62,-7.10,-7.10,6.00,6.03,4.82,-1.62,-1.62,-0.52
85.50,-7.58,-7.58,-7.03,-7.03,6.00,6.04,4.78,-1.58,-1.58,-0.55
86.35,-7.54,-7.55,-6.95,-6.96,6.00,6.04,4.74,-1.54,-1.55,-0.59
87.22,-7.51,-7.51,-6.89,-6.89,6.00,6.04,4.71,-1.51,-1.51,-0.63
88.09,-7.48,-7.49,-6.81,-6.82,6.00,6.04,4.67,-1.48,-1.49,-0.67
88.97,-7.46,-7.46,-6.76,-6.76,6.00,6.04,4.65,-1.46,-1.46,-0.70
89.86,-7.44,-7.44,-6.70,-6.70,6.00,6.03,4.62,-1.44,-1.44,-0.74
90.76,-7.42,-7.43,-6.63,-6.64,6.00,6.03,4.60,-1.42,-1.43,-0.79
91.66,-7.41,-7.41,-6.59,-6.58,6.00,6.02,4.58,-1.41,-1.41,-0.83
92.58,-7.40,-7.41,-6.52,-6.53,6.00,6.02,4.57,-1.40,-1.41,-0.88
93.51,-7.40,-7.40,-6.49,-6.49,6.00,6.01,4.56,-1.40,-1.40,-0.91
94.44,-7.40,-7.40,-6.45,-6.44,6.00,6.00,4.55,-1.40,-1.40,-0.96
95.39,-7.40,-7.41,-6.40,-6.40,6.00,5.99,4.54,-1.40,-1.41,-1.00
96.34,-7.41,-7.41,-6.36,-6.36,6.00,5.97,4.54,-1.41,-1.41,-1.06
97.30,-7.41,-7.41,-6.31,-6.31,6.01,5.95,4.54,-1.40,-1.40,-1.10
98.28,-7.41,-7.42,-6.27,-6.27,6.02,5.93,4.55,-1.40,-1.40,-1.15
99.26,-7.41,-7.41,-6.22,-6.22,6.02,5.91,4.55,-1.40,-1.40,-1.19
100.25,-7.40,-7.40,-6.17,-6.16,6.01,5.88,4.56,-1.39,-1.39,-1.24
101.25,-7.38,-7.39,-6.10,-6.10,5.99,5.85,4.57,-1.39,-1.40,-1.28
102.27,-7.36,-7.36,-6.03,-6.03,5.96,5.82,4.58,-1.40,-1.40,-1.33
103.29,-7.33,-7.33,-5.95,-5.95,5.92,5.78,4.60,-1.42,-1.42,-1.39
104.32,-7.29,-7.30,-5.87,-5.87,5.86,5.74,4.61,-1.44,-1.44,-1.42
105.37,-7.25,-7.25,-5.78,-5.78,5.78,5.69,4.63,-1.47,-1.47,-1.47
106.42,-7.20,-7.20,-5.69,-5.69,5.70,5.64,4.64,-1.51,-1.51,-1.52
107.48,-7.15,-7.15,-5.59,-5.59,5.60,5.59,4.66,-1.55,-1.55,-1.56
108.56,-7.10,-7.10,-5.49,-5.49,5.50,5.53,4.68,-1.60,-1.60,-1.62
109.64,-7.05,-7.06,-5.39,-5.39,5.40,5.47,4.69,-1.65,-1.65,-1.66
110.74,-7.01,-7.01,-5.30,-5.30,5.31,5.40,4.71,-1.71,-1.71,-1.71
111.85,-6.97,-6.97,-5.22,-5.21,5.21,5.33,4.72,-1.76,-1.76,-1.76
112.97,-6.93,-6.94,-5.11,-5.12,5.12,5.26,4.73,-1.81,-1.81,-1.82
114.10,-6.90,-6.90,-5.04,-5.04,5.04,5.18,4.75,-1.87,-1.87,-1.87
115.24,-6.87,-6.87,-4.95,-4.95,4.95,5.10,4.75,-1.92,-1.92,-1.92
116.39,-6.84,-6.84,-4.87,-4.87,4.86,5.02,4.76,-1.98,-1.98,-1.98
117.55,-6.80,-6.81,-4.77,-4.78,4.78,4.93,4.76,-2.03,-2.03,-2.03
118.73,-6.77,-6.77,-4.69,-4.69,4.69,4.84,4.76,-2.08,-2.08,-2.08
119.92,-6.73,-6.73,-4.61,-4.60,4.60,4.75,4.75,-2.13,-2.13,-2.13
121.12,-6.69,-6.69,-4.51,-4.52,4.52,4.66,4.74,-2.18,-2.18,-2.18
122.33,-6.65,-6.65,-4.42,-4.43,4.43,4.56,4.72,-2.23,-2.23,-2.23
123.55,-6.61,-6.61,-4.34,-4.34,4.33,4.47,4.70,-2.28,-2.28,-2.27
124.79,-6.57,-6.57,-4.25,-4.25,4.24,4.37,4.67,-2.33,-2.33,-2.33
126.03,-6.52,-6.53,-4.15,-4.15,4.15,4.27,4.65,-2.38,-2.38,-2.38
127.29,-6.48,-6.48,-4.06,-4.05,4.05,4.17,4.61,-2.43,-2.43,-2.43
128.57,-6.44,-6.44,-3.96,-3.96,3.96,4.07,4.57,-2.48,-2.48,-2.49
129.85,-6.39,-6.40,-3.86,-3.86,3.87,3.98,4.52,-2.53,-2.53,-2.53
131.15,-6.35,-6.35,-3.77,-3.77,3.78,3.88,4.48,-2.58,-2.58,-2.58
132.46,-6.31,-6.31,-3.68,-3.69,3.69,3.78,4.42,-2.63,-2.63,-2.63
133.79,-6.27,-6.27,-3.61,-3.60,3.60,3.68,4.37,-2.67,-2.67,-2.67
135.12,-6.23,-6.23,-3.51,-3.52,3.52,3.58,4.30,-2.72,-2.72,-2.72
136.48,-6.19,-6.20,-3.44,-3.44,3.44,3.49,4.24,-2.76,-2.76,-2.76
137.84,-6.16,-6.16,-3.36,-3.36,3.36,3.39,4.17,-2.80,-2.80,-2.80
139.22,-6.13,-6.13,-3.28,-3.28,3.28,3.30,4.10,-2.85,-2.85,-2.85
140.61,-6.09,-6.10,-3.20,-3.21,3.21,3.21,4.02,-2.88,-2.89,-2.90
142.02,-6.06,-6.06,-3.14,-3.14,3.14,3.11,3.95,-2.93,-2.93,-2.92
143.44,-6.03,-6.03,-3.07,-3.07,3.07,3.03,3.87,-2.97,-2.96,-2.96
144.87,-5.99,-6.00,-2.99,-3.00,2.99,2.94,3.79,-3.00,-3.00,-3.00
146.32,-5.96,-5.96,-2.92,-2.93,2.92,2.85,3.71,-3.04,-3.04,-3.04
147.78,-5.92,-5.92,-2.85,-2.85,2.85,2.77,3.63,-3.08,-3.08,-3.07
149.26,-5.88,-5.88,-2.78,-2.77,2.77,2.68,3.55,-3.11,-3.11,-3.11
150.75,-5.84,-5.84,-2.69,-2.69,2.70,2.60,3.47,-3.15,-3.15,-3.15
152.26,-5.80,-5.81,-2.61,-2.62,2.62,2.52,3.38,-3.18,-3.19,-3.19
153.78,-5.77,-5.77,-2.55,-2.54,2.55,2.45,3.30,-3.23,-3.23,-3.23
155.32,-5.74,-5.74,-2.47,-2.47,2.47,2.37,3.22,-3.27,-3.27,-3.27
156.88,-5.70,-5.71,-2.40,-2.40,2.40,2.30,3.14,-3.31,-3.31,-3.30
158.44,-5.67,-5.67,-2.33,-2.33,2.32,2.23,3.06,-3.35,-3.35,-3.35
160.03,-5.64,-5.64,-2.25,-2.25,2.25,2.16,2.99,-3.39,-3.39,-3.39
161.63,-5.61,-5.61,-2.18,-2.18,2.19,2.09,2.91,-3.43,-3.43,-3.43
163.24,-5.58,-5.59,-2.11,-2.12,2.12,2.02,2.83,-3.46,-3.47,-3.47
164.88,-5.56,-5.56,-2.06,-2.05,2.06,1.96,2.76,-3.51,-3.50,-3.50
166.53,-5.53,-5.54,-1.99,-1.99,1.99,1.90,2.69,-3.54,-3.54,-3.54
168.19,-5.51,-5.51,-1.93,-1.94,1.93,1.84,2.62,-3.58,-3.58,-3.58
169.87,-5.49,-5.49,-1.88,-1.88,1.88,1.78,2.55,-3.62,-3.62,-3.62
171.57,-5.47,-5.47,-1.82,-1.82,1.82,1.73,2.48,-3.66,-3.66,-3.65
173.29,-5.45,-5.45,-1.76,-1.76,1.76,1.68,2.42,-3.69,-3.69,-3.69
175.02,-5.43,-5.43,-1.71,-1.70,1.70,1.63,2.35,-3.73,-3.73,-3.73
176.77,-5.41,-5.41,-1.64,-1.64,1.64,1.58,2.29,-3.77,-3.77,-3.77
178.54,-5.39,-5.39,-1.58,-1.58,1.58,1.53,2.23,-3.81,-3.81,-3.81
180.32,-5.37,-5.37,-1.53,-1.53,1.52,1.49,2.17,-3.85,-3.85,-3.85
182.13,-5.35,-5.35,-1.47,-1.47,1.47,1.44,2.12,-3.89,-3.89,-3.88
183.95,-5.33,-5.33,-1.41,-1.41,1.41,1.40,2.06,-3.92,-3.92,-3.92
185.79,-5.31,-5.32,-1.36,-1.36,1.36,1.37,2.01,-3.95,-3.96,-3.95
187.65,-5.30,-5.30,-1.31,-1.31,1.31,1.33,1.95,-3.99,-3.99,-3.99
189.52,-5.29,-5.29,-1.27,-1.27,1.27,1.29,1.90,-4.02,-4.02,-4.02
191.42,-5.28,-5.29,-1.23,-1.23,1.24,1.26,1.86,-4.05,-4.05,-4.05
193.33,-5.28,-5.29,-1.20,-1.20,1.21,1.23,1.81,-4.08,-4.08,-4.08
195.27,-5.29,-5.29,-1.18,-1.18,1.18,1.20,1.76,-4.11,-4.11,-4.11
197.22,-5.30,-5.30,-1.16,-1.16,1.16,1.18,1.72,-4.14,-4.14,-4.14
199.19,-5.31,-5.31,-1.14,-1.14,1.15,1.16,1.67,-4.17,-4.17,-4.18
201.18,-5.32,-5.33,-1.13,-1.13,1.13,1.14,1.63,-4.19,-4.20,-4.19
203.19,-5.33,-5.33,-1.13,-1.12,1.11,1.12,1.59,-4.22,-4.22,-4.21
205.23,-5.34,-5.34,-1.11,-1.11,1.09,1.11,1.55,-4.25,-4.24,-4.23
207.28,-5.33,-5.33,-1.09,-1.09,1.07,1.09,1.51,-4.26,-4.26,-4.24
209.35,-5.32,-5.33,-1.06,-1.06,1.06,1.08,1.47,-4.27,-4.27,-4.26
211.44,-5.31,-5.32,-1.03,-1.04,1.04,1.08,1.44,-4.28,-4.28,-4.29
213.56,-5.31,-5.31,-1.02,-1.02,1.03,1.07,1.40,-4.29,-4.29,-4.29
215.69,-5.31,-5.31,-1.02,-1.01,1.02,1.07,1.36,-4.29,-4.29,-4.29
217.85,-5.32,-5.33,-1.02,-1.02,1.02,1.08,1.33,-4.30,-4.30,-4.31
220.03,-5.34,-5.35,-1.02,-1.03,1.04,1.08,1.29,-4.30,-4.31,-4.32
222.23,-5.38,-5.38,-1.05,-1.05,1.07,1.09,1.25,-4.32,-4.31,-4.33
224.45,-5.42,-5.42,-1.10,-1.10,1.11,1.10,1.22,-4.32,-4.32,-4.32
226.70,-5.47,-5.48,-1.15,-1.15,1.15,1.12,1.18,-4.32,-4.32,-4.32
228.96,-5.53,-5.53,-1.21,-1.21,1.21,1.14,1.15,-4.32,-4.32,-4.33
231.25,-5.59,-5.59,-1.28,-1.27,1.28,1.16,1.11,-4.32,-4.32,-4.32
233.57,-5.65,-5.65,-1.34,-1.34,1.34,1.19,1.08,-4.31,-4.31,-4.32
235.90,-5.71,-5.72,-1.40,-1.40,1.40,1.22,1.04,-4.31,-4.31,-4.32
238.26,-5.77,-5.77,-1.46,-1.46,1.46,1.25,1.00,-4.31,-4.31,-4.31
240.64,-5.82,-5.82,-1.52,-1.52,1.51,1.28,0.96,-4.32,-4.31,-4.30
243.05,-5.85,-5.85,-1.56,-1.56,1.54,1.32,0.93,-4.31,-4.31,-4.29
245.48,-5.86,-5.86,-1.58,-1.58,1.56,1.36,0.89,-4.31,-4.31,-4.28
247.93,-5.85,-5.85,-1.58,-1.58,1.56,1.39,0.85,-4.29,-4.29,-4.27
250.41,-5.82,-5.82,-1.56,-1.56,1.55,1.43,0.81,-4.28,-4.27,-4.27
252.92,-5.77,-5.78,-1.53,-1.53,1.53,1.47,0.76,-4.25,-4.25,-4.24
255.45,-5.72,-5.72,-1.50,-1.49,1.50,1.50,0.72,-4.23,-4.22,-4.22
258.00,-5.66,-5.67,-1.45,-1.46,1.47,1.53,0.68,-4.19,-4.19,-4.21
260.58,-5.61,-5.62,-1.42,-1.43,1.45,1.55,0.63,-4.16,-4.17,-4.20
263.19,-5.58,-5.58,-1.41,-1.41,1.44,1.56,0.59,-4.15,-4.15,-4.17
265.82,-5.56,-5.56,-1.41,-1.41,1.43,1.56,0.54,-4.13,-4.13,-4.16
268.48,-5.55,-5.56,-1.42,-1.42,1.44,1.56,0.49,-4.12,-4.12,-4.13
271.16,-5.55,-5.55,-1.44,-1.44,1.44,1.54,0.44,-4.11,-4.11,-4.11
273.87,-5.55,-5.55,-1.46,-1.46,1.45,1.52,0.39,-4.10,-4.10,-4.10
276.61,-5.54,-5.54,-1.47,-1.47,1.45,1.47,0.34,-4.09,-4.09,-4.07
279.38,-5.52,-5.52,-1.47,-1.46,1.44,1.42,0.29,-4.08,-4.08,-4.06
282.17,-5.47,-5.48,-1.43,-1.44,1.42,1.36,0.24,-4.05,-4.06,-4.04
284.99,-5.42,-5.41,-1.41,-1.39,1.38,1.28,0.18,-4.04,-4.03,-4.02
287.84,-5.32,-5.33,-1.32,-1.33,1.32,1.20,0.13,-4.00,-4.01,-4.00
290.72,-5.23,-5.23,-1.26,-1.26,1.25,1.10,0.07,-3.98,-3.98,-3.98
293.63,-5.12,-5.12,-1.16,-1.16,1.16,1.00,0.01,-3.96,-3.96,-3.96
296.57,-5.00,-5.00,-1.07,-1.06,1.07,0.90,-0.04,-3.94,-3.93,-3.94
299.53,-4.87,-4.88,-0.95,-0.96,0.97,0.79,-0.10,-3.91,-3.91,-3.92
302.53,-4.74,-4.75,-0.84,-0.85,0.86,0.67,-0.16,-3.89,-3.89,-3.90
305.55,-4.61,-4.62,-0.75,-0.74,0.75,0.56,-0.22,-3.87,-3.87,-3.87
308.61,-4.48,-4.48,-0.63,-0.63,0.63,0.44,-0.28,-3.85,-3.85,-3.85
311.69,-4.34,-4.34,-0.52,-0.52,0.52,0.32,-0.34,-3.83,-3.83,-3.82
314.81,-4.19,-4.20,-0.41,-0.40,0.40,0.21,-0.40,-3.80,-3.80,-3.79
317.96,-4.05,-4.05,-0.28,-0.28,0.28,0.10,-0.47,-3.77,-3.77,-3.77
321.14,-3.91,-3.91,-0.16,-0.16,0.16,-0.02,-0.53,-3.75,-3.75,-3.75
324.35,-3.77,-3.78,-0.04,-0.04,0.05,-0.13,-0.60,-3.73,-3.73,-3.74
327.59,-3.64,-3.64,0.07,0.07,-0.06,-0.23,-0.66,-3.71,-3.70,-3.71
330.87,-3.50,-3.51,0.19,0.19,-0.18,-0.34,-0.73,-3.68,-3.68,-3.69
334.18,-3.37,-3.38,0.30,0.30,-0.29,-0.44,-0.80,-3.66,-3.66,-3.68
337.52,-3.25,-3.25,0.40,0.40,-0.40,-0.54,-0.87,-3.65,-3.65,-3.66
340.90,-3.12,-3.12,0.51,0.51,-0.51,-0.64,-0.94,-3.64,-3.64,-3.63
344.30,-2.99,-2.99,0.62,0.62,-0.64,-0.73,-1.01,-3.63,-3.63,-3.61
347.75,-2.85,-2.85,0.74,0.74,-0.77,-0.82,-1.08,-3.62,-3.62,-3.60
351.23,-2.70,-2.70,0.87,0.88,-0.90,-0.91,-1.15,-3.61,-3.60,-3.58
354.74,-2.53,-2.53,1.03,1.03,-1.05,-1.00,-1.22,-3.58,-3.58,-3.56
358.28,-2.35,-2.35,1.19,1.19,-1.19,-1.09,-1.30,-3.55,-3.55,-3.54
361.87,-2.17,-2.17,1.35,1.35,-1.34,-1.17,-1.37,-3.51,-3.51,-3.52
365.49,-2.00,-2.01,1.50,1.50,-1.47,-1.26,-1.45,-3.48,-3.48,-3.51
369.14,-1.86,-1.87,1.63,1.63,-1.60,-1.34,-1.53,-3.47,-3.47,-3.50
372.83,-1.74,-1.75,1.74,1.74,-1.72,-1.42,-1.60,-3.46,-3.46,-3.48
376.56,-1.64,-1.64,1.83,1.82,-1.82,-1.50,-1.68,-3.46,-3.46,-3.47
380.33,-1.55,-1.55,1.89,1.90,-1.90,-1.57,-1.76,-3.46,-3.45,-3.44
384.13,-1.46,-1.47,1.97,1.97,-1.97,-1.65,-1.84,-3.44,-3.44,-3.43
387.97,-1.39,-1.39,2.03,2.03,-2.03,-1.72,-1.93,-3.43,-3.43,-3.43
391.85,-1.32,-1.32,2.09,2.09,-2.09,-1.80,-2.01,-3.41,-3.41,-3.42
395.77,-1.26,-1.26,2.14,2.14,-2.14,-1.87,-2.09,-3.40,-3.40,-3.40
399.73,-1.20,-1.21,2.19,2.18,-2.19,-1.94,-2.17,-3.39,-3.39,-3.39
403.72,-1.15,-1.15,2.23,2.23,-2.23,-2.01,-2.26,-3.39,-3.38,-3.38
407.76,-1.09,-1.09,2.28,2.28,-2.28,-2.08,-2.34,-3.38,-3.37,-3.37
411.84,-1.02,-1.03,2.33,2.33,-2.34,-2.15,-2.42,-3.36,-3.37,-3.35
415.96,-0.96,-0.96,2.38,2.38,-2.39,-2.22,-2.50,-3.36,-3.35,-3.35
420.12,-0.89,-0.89,2.44,2.45,-2.45,-2.29,-2.59,-3.35,-3.34,-3.34
