frequency,raw,smoothed,error,error_smoothed,equalization,parametric_eq,fixed_band_eq,equalized_raw,equalized_smoothed,target
20.00,12.31,12.32,4.56,4.56,-4.56,-4.22,-1.93,7.75,7.76,7.76
20.20,12.33,12.33,4.55,4.55,-4.54,-4.22,-1.99,7.79,7.79,7.79
20.40,12.34,12.34,4.53,4.53,-4.53,-4.22,-2.05,7.82,7.82,7.81
20.61,12.35,12.35,4.52,4.52,-4.51,-4.22,-2.11,7.84,7.84,7.83
20.81,12.36,12.36,4.50,4.50,-4.50,-4.22,-2.17,7.86,7.86,7.86
21.02,12.37,12.37,4.48,4.49,-4.49,-4.22,-2.23,7.88,7.88,7.89
21.23,12.38,12.38,4.48,4.48,-4.49,-4.22,-2.30,7.90,7.90,7.90
21.44,12.39,12.39,4.48,4.48,-4.48,-4.22,-2.36,7.91,7.91,7.91
21.66,12.40,12.40,4.48,4.48,-4.48,-4.22,-2.43,7.92,7.92,7.92
21.87,12.40,12.41,4.48,4.48,-4.48,-4.22,-2.50,7.92,7.93,7.92
22.09,12.41,12.41,4.48,4.49,-4.49,-4.22,-2.58,7.93,7.93,7.93
22.31,12.42,12.42,4.49,4.49,-4.49,-4.22,-2.65,7.93,7.93,7.93
22.54,12.42,12.42,4.49,4.49,-4.49,-4.22,-2.73,7.93,7.93,7.93
22.76,12.42,12.42,4.50,4.50,-4.50,-4.22,-2.81,7.93,7.93,7.93
22.99,12.42,12.42,4.51,4.50,-4.50,-4.22,-2.89,7.92,7.92,7.92
23.22,12.42,12.42,4.51,4.51,-4.50,-4.22,-2.97,7.92,7.92,7.92
23.45,12.42,12.42,4.51,4.51,-4.51,-4.22,-3.05,7.92,7.92,7.92
23.69,12.42,12.42,4.51,4.51,-4.51,-4.22,-3.14,7.92,7.92,7.92
23.92,12.42,12.42,4.51,4.51,-4.51,-4.22,-3.23,7.92,7.92,7.91
24.16,12.42,12.42,4.50,4.50,-4.51,-4.22,-3.31,7.92,7.92,7.92
24.40,12.42,12.42,4.50,4.50,-4.50,-4.22,-3.40,7.92,7.92,7.92
24.65,12.41,12.42,4.50,4.50,-4.50,-4.21,-3.50,7.91,7.92,7.91
24.89,12.41,12.41,4.50,4.50,-4.50,-4.21,-3.59,7.92,7.92,7.91
25.14,12.40,12.40,4.49,4.49,-4.49,-4.21,-3.68,7.91,7.91,7.91
25.39,12.39,12.39,4.48,4.49,-4.49,-4.21,-3.78,7.91,7.91,7.91
25.65,12.38,12.38,4.48,4.48,-4.48,-4.21,-3.87,7.90,7.90,7.91
25.91,12.37,12.37,4.48,4.47,-4.47,-4.21,-3.97,7.90,7.90,7.90
26.16,12.36,12.36,4.47,4.47,-4.47,-4.21,-4.06,7.90,7.90,7.90
26.43,12.35,12.35,4.46,4.46,-4.46,-4.21,-4.15,7.90,7.90,7.89
26.69,12.34,12.34,4.45,4.45,-4.45,-4.21,-4.25,7.89,7.90,7.89
26.96,12.33,12.33,4.44,4.44,-4.44,-4.21,-4.34,7.89,7.89,7.89
27.23,12.32,12.32,4.43,4.43,-4.43,-4.21,-4.43,7.89,7.89,7.89
27.50,12.30,12.31,4.41,4.42,-4.42,-4.21,-4.51,7.88,7.88,7.89
27.77,12.29,12.29,4.42,4.41,-4.42,-4.20,-4.60,7.88,7.88,7.88
28.05,12.28,12.28,4.41,4.41,-4.41,-4.20,-4.68,7.88,7.87,7.88
28.33,12.26,12.27,4.40,4.40,-4.40,-4.20,-4.75,7.87,7.87,7.87
28.62,12.25,12.25,4.39,4.39,-4.39,-4.20,-4.83,7.87,7.87,7.86
28.90,12.23,12.24,4.37,4.38,-4.37,-4.20,-4.89,7.86,7.86,7.86
29.19,12.22,12.22,4.37,4.36,-4.36,-4.20,-4.95,7.86,7.86,7.85
29.48,12.20,12.20,4.34,4.35,-4.35,-4.19,-5.01,7.85,7.85,7.86
29.78,12.18,12.19,4.34,4.34,-4.34,-4.19,-5.06,7.85,7.85,7.85
30.08,12.16,12.16,4.32,4.32,-4.32,-4.19,-5.10,7.84,7.84,7.85
30.38,12.14,12.14,4.31,4.31,-4.31,-4.19,-5.14,7.84,7.84,7.83
30.68,12.12,12.12,4.29,4.30,-4.29,-4.19,-5.16,7.83,7.83,7.83
30.99,12.10,12.10,4.28,4.28,-4.28,-4.18,-5.19,7.82,7.82,7.82
31.30,12.08,12.08,4.27,4.27,-4.27,-4.18,-5.20,7.82,7.82,7.82
31.61,12.06,12.06,4.25,4.25,-4.25,-4.18,-5.20,7.81,7.81,7.81
31.93,12.04,12.04,4.24,4.24,-4.24,-4.17,-5.20,7.80,7.80,7.80
32.24,12.02,12.02,4.23,4.23,-4.23,-4.17,-5.19,7.79,7.80,7.79
32.57,12.00,12.00,4.22,4.22,-4.22,-4.17,-5.17,7.79,7.79,7.79
32.89,11.98,11.98,4.20,4.20,-4.20,-4.16,-5.15,7.78,7.78,7.79
33.22,11.96,11.96,4.19,4.19,-4.19,-4.16,-5.12,7.77,7.78,7.77
33.55,11.94,11.94,4.17,4.18,-4.18,-4.16,-5.08,7.77,7.77,7.77
33.89,11.92,11.92,4.17,4.16,-4.16,-4.15,-5.04,7.76,7.76,7.76
34.23,11.89,11.90,4.14,4.15,-4.15,-4.15,-4.99,7.75,7.75,7.75
34.57,11.87,11.87,4.13,4.13,-4.13,-4.14,-4.94,7.74,7.74,7.74
34.92,11.85,11.85,4.13,4.12,-4.12,-4.14,-4.89,7.73,7.73,7.73
35.27,11.82,11.83,4.10,4.11,-4.11,-4.13,-4.83,7.72,7.72,7.72
35.62,11.80,11.80,4.09,4.09,-4.09,-4.12,-4.76,7.71,7.71,7.71
35.97,11.77,11.78,4.08,4.07,-4.08,-4.12,-4.70,7.70,7.70,7.70
36.33,11.75,11.75,4.06,4.06,-4.06,-4.11,-4.63,7.69,7.69,7.69
36.70,11.72,11.73,4.04,4.05,-4.05,-4.10,-4.56,7.68,7.68,7.68
37.06,11.70,11.70,4.04,4.03,-4.03,-4.10,-4.49,7.67,7.67,7.67
37.43,11.67,11.67,4.01,4.02,-4.02,-4.09,-4.42,7.66,7.66,7.66
37.81,11.64,11.65,4.00,4.00,-4.00,-4.08,-4.35,7.64,7.65,7.65
38.19,11.61,11.62,3.98,3.98,-3.98,-4.07,-4.28,7.63,7.63,7.63
38.57,11.59,11.59,3.97,3.97,-3.97,-4.06,-4.21,7.63,7.62,7.63
38.95,11.56,11.56,3.95,3.95,-3.95,-4.05,-4.14,7.61,7.61,7.61
39.34,11.53,11.53,3.94,3.94,-3.93,-4.04,-4.08,7.60,7.60,7.60
39.74,11.50,11.50,3.92,3.92,-3.92,-4.03,-4.01,7.59,7.59,7.58
40.14,11.47,11.47,3.90,3.90,-3.90,-4.02,-3.95,7.58,7.58,7.58
40.54,11.44,11.44,3.88,3.88,-3.88,-4.01,-3.88,7.57,7.56,7.56
40.94,11.40,11.41,3.85,3.86,-3.85,-4.00,-3.82,7.55,7.55,7.56
41.35,11.37,11.37,3.83,3.83,-3.83,-3.99,-3.76,7.54,7.54,7.54
41.76,11.34,11.34,3.81,3.81,-3.81,-3.97,-3.71,7.54,7.53,7.53
42.18,11.30,11.31,3.78,3.78,-3.79,-3.96,-3.65,7.52,7.52,7.53
42.60,11.27,11.27,3.76,3.76,-3.76,-3.94,-3.60,7.51,7.51,7.51
43.03,11.24,11.24,3.74,3.74,-3.74,-3.93,-3.55,7.50,7.50,7.50
43.46,11.20,11.20,3.72,3.72,-3.72,-3.91,-3.50,7.48,7.48,7.49
43.90,11.16,11.17,3.71,3.71,-3.71,-3.90,-3.46,7.46,7.46,7.46
44.33,11.13,11.13,3.69,3.69,-3.69,-3.88,-3.42,7.45,7.44,7.44
44.78,11.09,11.09,3.67,3.67,-3.67,-3.86,-3.38,7.42,7.42,7.42
45.23,11.05,11.06,3.65,3.65,-3.65,-3.84,-3.34,7.40,7.41,7.40
45.68,11.01,11.02,3.63,3.63,-3.63,-3.82,-3.31,7.39,7.39,7.39
46.13,10.98,10.98,3.62,3.61,-3.61,-3.80,-3.27,7.38,7.38,7.37
46.60,10.94,10.94,3.59,3.59,-3.58,-3.78,-3.24,7.36,7.36,7.36
47.06,10.90,10.90,3.57,3.56,-3.56,-3.75,-3.22,7.34,7.34,7.34
47.53,10.85,10.86,3.54,3.53,-3.54,-3.73,-3.19,7.31,7.31,7.32
48.01,10.81,10.81,3.51,3.51,-3.52,-3.70,-3.17,7.29,7.29,7.31
48.49,10.77,10.77,3.50,3.50,-3.51,-3.68,-3.15,7.27,7.27,7.28
48.97,10.73,10.73,3.49,3.49,-3.49,-3.65,-3.13,7.24,7.25,7.25
49.46,10.69,10.69,3.48,3.48,-3.47,-3.63,-3.12,7.22,7.22,7.21
49.96,10.65,10.65,3.47,3.46,-3.46,-3.60,-3.11,7.20,7.20,7.18
50.46,10.61,10.61,3.44,3.44,-3.44,-3.57,-3.09,7.17,7.17,7.17
50.96,10.56,10.57,3.42,3.43,-3.42,-3.54,-3.09,7.14,7.14,7.15
51.47,10.52,10.52,3.41,3.40,-3.41,-3.51,-3.08,7.12,7.12,7.11
51.99,10.48,10.48,3.39,3.38,-3.39,-3.48,-3.07,7.10,7.09,7.09
52.51,10.43,10.44,3.36,3.36,-3.37,-3.45,-3.07,7.07,7.07,7.08
53.03,10.39,10.40,3.34,3.34,-3.35,-3.42,-3.07,7.05,7.05,7.05
53.56,10.35,10.35,3.33,3.32,-3.33,-3.39,-3.07,7.03,7.03,7.03
54.10,10.31,10.31,3.31,3.31,-3.31,-3.36,-3.07,7.01,7.00,7.00
54.64,10.26,10.27,3.29,3.29,-3.29,-3.33,-3.07,6.97,6.98,6.98
55.18,10.22,10.23,3.27,3.28,-3.27,-3.30,-3.07,6.95,6.95,6.95
55.74,10.18,10.18,3.26,3.26,-3.26,-3.27,-3.07,6.93,6.93,6.92
56.29,10.14,10.14,3.24,3.24,-3.24,-3.24,-3.08,6.90,6.90,6.91
56.86,10.09,10.10,3.22,3.22,-3.22,-3.21,-3.08,6.87,6.88,6.88
57.42,10.05,10.06,3.21,3.20,-3.20,-3.19,-3.08,6.85,6.86,6.85
58.00,10.02,10.02,3.19,3.19,-3.18,-3.16,-3.09,6.84,6.84,6.83
58.58,9.97,9.98,3.16,3.17,-3.16,-3.14,-3.09,6.81,6.81,6.81
59.16,9.93,9.93,3.14,3.14,-3.15,-3.12,-3.10,6.79,6.78,6.79
59.76,9.88,9.89,3.12,3.12,-3.14,-3.11,-3.10,6.75,6.75,6.77
60.35,9.85,9.85,3.12,3.11,-3.13,-3.09,-3.11,6.73,6.73,6.74
60.96,9.82,9.82,3.11,3.12,-3.12,-3.08,-3.11,6.70,6.70,6.71
61.57,9.79,9.79,3.12,3.12,-3.11,-3.07,-3.12,6.68,6.68,6.67
62.18,9.76,9.76,3.13,3.12,-3.11,-3.07,-3.12,6.65,6.65,6.64
62.80,9.72,9.73,3.11,3.12,-3.11,-3.07,-3.13,6.61,6.62,6.61
63.43,9.69,9.69,3.12,3.11,-3.11,-3.07,-3.13,6.58,6.58,6.58
64.07,9.66,9.66,3.11,3.11,-3.11,-3.07,-3.13,6.55,6.55,6.55
64.71,9.63,9.64,3.11,3.11,-3.11,-3.08,-3.14,6.52,6.52,6.52
65.35,9.61,9.61,3.12,3.11,-3.12,-3.09,-3.14,6.50,6.49,6.50
66.01,9.58,9.59,3.12,3.12,-3.12,-3.11,-3.14,6.47,6.47,6.47
66.67,9.56,9.56,3.12,3.12,-3.12,-3.13,-3.14,6.44,6.44,6.44
67.33,9.54,9.54,3.13,3.13,-3.13,-3.15,-3.15,6.41,6.41,6.41
68.01,9.51,9.52,3.13,3.14,-3.14,-3.17,-3.15,6.37,6.38,6.38
68.69,9.50,9.50,3.16,3.15,-3.15,-3.20,-3.15,6.35,6.35,6.35
69.37,9.48,9.48,3.17,3.17,-3.16,-3.23,-3.15,6.32,6.32,6.32
70.07,9.46,9.47,3.18,3.18,-3.18,-3.26,-3.16,6.28,6.29,6.28
70.77,9.45,9.45,3.19,3.20,-3.20,-3.29,-3.16,6.26,6.26,6.26
71.48,9.44,9.44,3.22,3.21,-3.22,-3.33,-3.17,6.23,6.22,6.23
72.19,9.42,9.43,3.23,3.24,-3.24,-3.37,-3.18,6.18,6.19,6.19
72.91,9.41,9.42,3.26,3.26,-3.26,-3.40,-3.18,6.15,6.16,6.15
73.64,9.41,9.41,3.30,3.29,-3.29,-3.44,-3.19,6.13,6.12,6.12
74.38,9.40,9.40,3.31,3.32,-3.31,-3.48,-3.20,6.09,6.09,6.09
75.12,9.39,9.40,3.34,3.34,-3.34,-3.52,-3.22,6.05,6.05,6.05
75.87,9.39,9.39,3.37,3.37,-3.37,-3.56,-3.23,6.02,6.02,6.02
76.63,9.39,9.39,3.40,3.40,-3.40,-3.60,-3.25,5.99,5.99,5.99
77.40,9.39,9.39,3.43,3.44,-3.43,-3.63,-3.26,5.96,5.96,5.96
78.17,9.39,9.39,3.47,3.47,-3.47,-3.67,-3.28,5.93,5.93,5.92
78.95,9.39,9.39,3.50,3.50,-3.50,-3.71,-3.31,5.90,5.90,5.90
79.74,9.39,9.39,3.53,3.53,-3.53,-3.75,-3.33,5.86,5.86,5.86
80.54,9.39,9.39,3.57,3.57,-3.57,-3.79,-3.36,5.83,5.83,5.83
81.35,9.39,9.40,3.60,3.60,-3.60,-3.82,-3.38,5.79,5.79,5.79
82.16,9.40,9.40,3.65,3.64,-3.64,-3.86,-3.42,5.76,5.76,5.76
82.98,9.40,9.41,3.67,3.68,-3.68,-3.90,-3.45,5.72,5.73,5.73
83.81,9.41,9.41,3.73,3.72,-3.72,-3.93,-3.49,5.69,5.69,5.68
84.65,9.41,9.41,3.77,3.76,-3.76,-3.97,-3.53,5.65,5.65,5.65
85.50,9.41,9.42,3.80,3.80,-3.80,-4.00,-3.57,5.61,5.61,5.62
86.35,9.42,9.42,3.84,3.85,-3.85,-4.03,-3.61,5.58,5.58,5.58
87.22,9.43,9.43,3.89,3.89,-3.89,-4.06,-3.66,5.54,5.54,5.54
88.09,9.44,9.44,3.94,3.94,-3.94,-4.10,-3.71,5.51,5.50,5.50
88.97,9.44,9.45,3.98,3.98,-3.98,-4.13,-3.76,5.46,5.46,5.47
89.86,9.45,9.45,4.03,4.03,-4.03,-4.16,-3.82,5.42,5.42,5.43
90.76,9.45,9.46,4.08,4.08,-4.08,-4.19,-3.88,5.38,5.38,5.37
91.66,9.46,9.46,4.12,4.13,-4.13,-4.22,-3.94,5.34,5.34,5.34
92.58,9.47,9.47,4.19,4.18,-4.18,-4.25,-4.00,5.30,5.29,5.29
93.51,9.47,9.48,4.22,4.22,-4.23,-4.28,-4.07,5.25,5.25,5.26
94.44,9.48,9.48,4.27,4.27,-4.28,-4.30,-4.14,5.21,5.21,5.21
95.39,9.49,9.49,4.33,4.33,-4.33,-4.33,-4.21,5.16,5.16,5.17
96.34,9.49,9.50,4.38,4.38,-4.38,-4.36,-4.29,5.11,5.12,5.11
97.30,9.50,9.50,4.44,4.43,-4.43,-4.39,-4.36,5.07,5.07,5.07
98.28,9.50,9.50,4.48,4.48,-4.48,-4.42,-4.44,5.02,5.02,5.02
99.26,9.50,9.51,4.53,4.53,-4.53,-4.44,-4.52,4.98,4.98,4.98
100.25,9.50,9.50,4.57,4.57,-4.57,-4.47,-4.60,4.93,4.93,4.93
101.25,9.50,9.50,4.62,4.62,-4.62,-4.50,-4.68,4.89,4.88,4.88
102.27,9.49,9.50,4.66,4.66,-4.66,-4.53,-4.77,4.83,4.83,4.84
103.29,9.49,9.49,4.71,4.70,-4.70,-4.55,-4.85,4.79,4.79,4.78
104.32,9.48,9.49,4.74,4.74,-4.74,-4.58,-4.94,4.74,4.74,4.75
105.37,9.48,9.48,4.79,4.78,-4.78,-4.61,-5.02,4.70,4.70,4.70
106.42,9.47,9.47,4.82,4.82,-4.82,-4.64,-5.11,4.65,4.65,4.65
107.48,9.46,9.47,4.86,4.86,-4.86,-4.66,-5.19,4.60,4.61,4.61
108.56,9.45,9.45,4.90,4.90,-4.90,-4.69,-5.28,4.56,4.56,4.55
109.64,9.44,9.44,4.94,4.94,-4.93,-4.72,-5.36,4.51,4.51,4.50
110.74,9.42,9.43,4.97,4.97,-4.97,-4.75,-5.44,4.45,4.45,4.46
111.85,9.41,9.41,5.00,5.01,-5.01,-4.78,-5.51,4.40,4.40,4.41
112.97,9.39,9.40,5.05,5.04,-5.05,-4.81,-5.58,4.35,4.35,4.35
114.10,9.38,9.38,5.08,5.08,-5.08,-4.84,-5.65,4.30,4.30,4.30
115.24,9.36,9.36,5.12,5.12,-5.12,-4.87,-5.72,4.25,4.25,4.25
116.39,9.34,9.35,5.15,5.16,-5.15,-4.90,-5.78,4.19,4.20,4.19
117.55,9.33,9.33,5.20,5.19,-5.19,-4.93,-5.83,4.15,4.14,4.14
118.73,9.31,9.31,5.23,5.22,-5.22,-4.96,-5.88,4.09,4.09,4.08
119.92,9.28,9.29,5.24,5.25,-5.25,-4.99,-5.92,4.04,4.04,4.04
121.12,9.26,9.26,5.28,5.28,-5.28,-5.02,-5.95,3.99,3.99,3.99
122.33,9.24,9.24,5.31,5.30,-5.30,-5.05,-5.97,3.94,3.94,3.94
123.55,9.21,9.22,5.32,5.33,-5.33,-5.09,-6.00,3.89,3.89,3.89
124.79,9.19,9.19,5.35,5.35,-5.35,-5.12,-6.00,3.84,3.84,3.84
126.03,9.16,9.16,5.37,5.37,-5.37,-5.15,-6.01,3.79,3.79,3.79
127.29,9.13,9.13,5.39,5.40,-5.40,-5.18,-6.00,3.74,3.74,3.74
128.57,9.10,9.10,5.42,5.42,-5.42,-5.21,-5.99,3.69,3.69,3.68
129.85,9.07,9.07,5.44,5.44,-5.43,-5.25,-5.97,3.64,3.64,3.63
131.15,9.04,9.04,5.46,5.45,-5.45,-5.28,-5.95,3.59,3.59,3.59
132.46,9.00,9.01,5.46,5.47,-5.46,-5.31,-5.91,3.54,3.54,3.54
133.79,8.97,8.97,5.47,5.47,-5.48,-5.34,-5.88,3.50,3.50,3.50
135.12,8.93,8.93,5.49,5.48,-5.49,-5.37,-5.83,3.45,3.45,3.45
136.48,8.89,8.89,5.48,5.49,-5.49,-5.40,-5.78,3.40,3.40,3.41
137.84,8.85,8.85,5.49,5.49,-5.49,-5.43,-5.73,3.36,3.36,3.37
139.22,8.81,8.81,5.50,5.49,-5.49,-5.46,-5.67,3.32,3.32,3.31
140.61,8.77,8.77,5.50,5.49,-5.49,-5.48,-5.61,3.28,3.28,3.27
142.02,8.72,8.73,5.48,5.49,-5.48,-5.51,-5.54,3.24,3.25,3.25
143.44,8.68,8.68,5.48,5.47,-5.47,-5.53,-5.47,3.21,3.21,3.21
144.87,8.62,8.63,5.46,5.46,-5.46,-5.56,-5.41,3.17,3.17,3.17
146.32,8.57,8.57,5.45,5.44,-5.44,-5.58,-5.34,3.13,3.13,3.13
147.78,8.51,8.51,5.41,5.42,-5.42,-5.60,-5.27,3.09,3.09,3.10
149.26,8.45,8.45,5.39,5.40,-5.40,-5.62,-5.19,3.06,3.06,3.06
150.75,8.39,8.39,5.38,5.37,-5.38,-5.64,-5.12,3.02,3.02,3.01
152.26,8.33,8.33,5.36,5.36,-5.36,-5.65,-5.05,2.98,2.98,2.98
153.78,8.27,8.27,5.33,5.33,-5.34,-5.67,-4.98,2.94,2.94,2.94
155.32,8.21,8.22,5.32,5.32,-5.32,-5.68,-4.92,2.89,2.90,2.90
156.88,8.16,8.16,5.30,5.30,-5.31,-5.69,-4.85,2.86,2.86,2.86
158.44,8.11,8.11,5.29,5.29,-5.29,-5.70,-4.79,2.82,2.82,2.82
160.03,8.05,8.06,5.28,5.28,-5.28,-5.70,-4.72,2.77,2.78,2.78
161.63,8.00,8.01,5.27,5.27,-5.27,-5.70,-4.66,2.73,2.74,2.74
163.24,7.96,7.96,5.27,5.26,-5.26,-5.70,-4.61,2.71,2.70,2.70
164.88,7.91,7.91,5.25,5.25,-5.24,-5.70,-4.55,2.67,2.67,2.67
166.53,7.85,7.86,5.23,5.23,-5.23,-5.69,-4.50,2.63,2.63,2.63
168.19,7.80,7.80,5.22,5.21,-5.21,-5.68,-4.45,2.60,2.59,2.59
169.87,7.74,7.74,5.19,5.19,-5.19,-5.67,-4.41,2.56,2.56,2.55
171.57,7.68,7.68,5.17,5.17,-5.17,-5.66,-4.37,2.52,2.52,2.51
173.29,7.62,7.62,5.15,5.14,-5.15,-5.64,-4.33,2.48,2.47,2.48
175.02,7.55,7.56,5.11,5.12,-5.13,-5.62,-4.29,2.42,2.43,2.44
176.77,7.50,7.50,5.11,5.11,-5.11,-5.60,-4.26,2.39,2.39,2.40
178.54,7.45,7.45,5.10,5.10,-5.10,-5.57,-4.23,2.35,2.35,2.35
180.32,7.41,7.41,5.09,5.09,-5.09,-5.54,-4.20,2.32,2.32,2.32
182.13,7.36,7.37,5.08,5.08,-5.08,-5.51,-4.18,2.28,2.29,2.29
183.95,7.32,7.32,5.08,5.07,-5.07,-5.48,-4.16,2.25,2.25,2.25
185.79,7.27,7.28,5.06,5.07,-5.06,-5.44,-4.15,2.21,2.21,2.21
187.65,7.23,7.23,5.06,5.06,-5.06,-5.40,-4.13,2.18,2.18,2.17
189.52,7.19,7.19,5.05,5.05,-5.05,-5.36,-4.12,2.15,2.14,2.14
191.42,7.14,7.15,5.03,5.03,-5.03,-5.31,-4.12,2.11,2.11,2.11
193.33,7.10,7.10,5.02,5.02,-5.02,-5.26,-4.11,2.08,2.08,2.09
195.27,7.05,7.06,5.00,5.00,-5.00,-5.22,-4.11,2.05,2.06,2.06
197.22,7.01,7.01,4.98,4.99,-4.98,-5.16,-4.11,2.03,2.03,2.03
199.19,6.96,6.96,4.97,4.96,-4.96,-5.11,-4.11,2.01,2.01,1.99
201.18,6.91,6.91,4.94,4.94,-4.93,-5.05,-4.12,1.98,1.98,1.98
203.19,6.85,6.86,4.89,4.90,-4.90,-5.00,-4.12,1.95,1.95,1.96
205.23,6.80,6.80,4.87,4.86,-4.87,-4.94,-4.13,1.93,1.93,1.93
207.28,6.75,6.76,4.82,4.83,-4.84,-4.88,-4.14,1.91,1.91,1.93
209.35,6.71,6.71,4.81,4.81,-4.81,-4.82,-4.15,1.90,1.90,1.90
211.44,6.66,6.66,4.78,4.78,-4.77,-4.75,-4.16,1.89,1.89,1.88
213.56,6.61,6.62,4.74,4.74,-4.74,-4.69,-4.18,1.87,1.88,1.88
215.69,6.57,6.57,4.70,4.70,-4.70,-4.62,-4.19,1.87,1.87,1.87
217.85,6.52,6.52,4.66,4.66,-4.66,-4.56,-4.20,1.86,1.86,1.86
220.03,6.47,6.47,4.63,4.62,-4.62,-4.49,-4.21,1.85,1.85,1.85
222.23,6.41,6.42,4.58,4.58,-4.57,-4.42,-4.22,1.84,1.85,1.84
224.45,6.36,6.36,4.52,4.52,-4.52,-4.35,-4.23,1.84,1.84,1.84
226.70,6.31,6.31,4.47,4.47,-4.47,-4.28,-4.24,1.84,1.84,1.84
228.96,6.25,6.26,4.41,4.41,-4.41,-4.21,-4.24,1.84,1.84,1.84
231.25,6.20,6.20,4.35,4.35,-4.36,-4.14,-4.24,1.85,1.85,1.85
233.57,6.14,6.15,4.29,4.30,-4.30,-4.07,-4.24,1.85,1.85,1.85
235.90,6.09,6.09,4.24,4.23,-4.23,-4.00,-4.24,1.86,1.85,1.85
238.26,6.02,6.03,4.17,4.17,-4.17,-3.93,-4.23,1.85,1.86,1.85
240.64,5.96,5.97,4.10,4.10,-4.10,-3.86,-4.22,1.86,1.86,1.86
243.05,5.91,5.91,4.04,4.03,-4.04,-3.79,-4.21,1.88,1.87,1.88
245.48,5.85,5.85,3.97,3.97,-3.97,-3.72,-4.19,1.89,1.89,1.89
247.93,5.79,5.79,3.89,3.90,-3.89,-3.65,-4.17,1.90,1.90,1.90
250.41,5.72,5.73,3.82,3.82,-3.82,-3.58,-4.14,1.90,1.91,1.90
252.92,5.66,5.66,3.74,3.74,-3.74,-3.51,-4.11,1.92,1.92,1.92
255.45,5.60,5.60,3.66,3.66,-3.67,-3.44,-4.07,1.94,1.94,1.95
258.00,5.54,5.54,3.58,3.58,-3.59,-3.37,-4.03,1.96,1.96,1.96
260.58,5.48,5.48,3.51,3.51,-3.51,-3.30,-3.99,1.98,1.98,1.97
263.19,5.42,5.42,3.43,3.43,-3.42,-3.24,-3.94,2.00,2.00,2.00
265.82,5.35,5.35,3.34,3.34,-3.34,-3.17,-3.88,2.02,2.02,2.01
268.48,5.28,5.29,3.25,3.25,-3.25,-3.10,-3.83,2.03,2.03,2.03
271.16,5.21,5.22,3.16,3.16,-3.17,-3.04,-3.77,2.05,2.05,2.06
273.87,5.15,5.15,3.08,3.07,-3.08,-2.97,-3.70,2.07,2.07,2.07
276.61,5.08,5.08,2.99,2.99,-2.99,-2.91,-3.64,2.09,2.09,2.10
279.38,5.01,5.01,2.90,2.90,-2.90,-2.84,-3.57,2.11,2.11,2.11
282.17,4.94,4.94,2.82,2.81,-2.81,-2.78,-3.50,2.13,2.13,2.13
284.99,4.87,4.87,2.72,2.73,-2.72,-2.71,-3.43,2.15,2.15,2.15
287.84,4.80,4.80,2.64,2.63,-2.64,-2.65,-3.35,2.17,2.17,2.17
290.72,4.73,4.73,2.54,2.54,-2.55,-2.59,-3.28,2.19,2.18,2.19
293.63,4.66,4.67,2.46,2.46,-2.46,-2.53,-3.20,2.20,2.21,2.21
296.57,4.60,4.60,2.37,2.37,-2.37,-2.47,-3.12,2.23,2.23,2.23
299.53,4.54,4.54,2.29,2.29,-2.28,-2.41,-3.04,2.26,2.26,2.25
302.53,4.47,4.47,2.21,2.20,-2.20,-2.35,-2.97,2.28,2.28,2.27
305.55,4.40,4.41,2.10,2.11,-2.11,-2.29,-2.89,2.29,2.29,2.30
308.61,4.34,4.34,2.03,2.02,-2.03,-2.23,-2.81,2.32,2.31,2.32
311.69,4.28,4.29,1.94,1.94,-1.95,-2.18,-2.73,2.34,2.34,2.34
314.81,4.23,4.23,1.85,1.86,-1.86,-2.12,-2.66,2.37,2.37,2.38
317.96,4.18,4.18,1.79,1.78,-1.78,-2.07,-2.58,2.40,2.40,2.40
321.14,4.12,4.12,1.71,1.71,-1.70,-2.01,-2.51,2.42,2.42,2.41
324.35,4.06,4.06,1.63,1.63,-1.62,-1.96,-2.43,2.44,2.44,2.43
327.59,4.00,4.00,1.55,1.55,-1.54,-1.90,-2.36,2.46,2.46,2.46
330.87,3.94,3.94,1.47,1.47,-1.46,-1.85,-2.29,2.48,2.48,2.48
334.18,3.88,3.88,1.39,1.39,-1.38,-1.80,-2.22,2.50,2.50,2.49
337.52,3.82,3.82,1.31,1.30,-1.31,-1.75,-2.15,2.52,2.51,2.51
340.90,3.75,3.75,1.22,1.22,-1.23,-1.70,-2.08,2.52,2.52,2.54
344.30,3.68,3.69,1.13,1.14,-1.15,-1.65,-2.02,2.53,2.54,2.56
347.75,3.65,3.66,1.08,1.09,-1.08,-1.60,-1.95,2.57,2.58,2.57
351.23,3.63,3.63,1.04,1.04,-1.02,-1.55,-1.89,2.61,2.61,2.59
354.74,3.62,3.60,1.02,0.99,-0.97,-1.50,-1.83,2.65,2.63,2.61
358.28,3.55,3.55,0.93,0.93,-0.94,-1.45,-1.77,2.62,2.62,2.63
361.87,3.51,3.52,0.87,0.88,-0.91,-1.40,-1.71,2.60,2.61,2.64
365.49,3.49,3.52,0.83,0.86,-0.90,-1.35,-1.65,2.59,2.62,2.66
369.14,3.56,3.55,0.89,0.88,-0.89,-1.31,-1.59,2.67,2.66,2.67
372.83,3.61,3.60,0.93,0.91,-0.90,-1.26,-1.54,2.72,2.70,2.69
376.56,3.63,3.64,0.94,0.93,-0.90,-1.22,-1.48,2.73,2.73,2.70
380.33,3.65,3.66,0.93,0.94,-0.92,-1.17,-1.43,2.73,2.74,2.73
384.13,3.67,3.67,0.94,0.94,-0.94,-1.13,-1.38,2.74,2.74,2.73
387.97,3.69,3.69,0.95,0.95,-0.95,-1.08,-1.33,2.74,2.74,2.74
391.85,3.71,3.71,0.96,0.96,-0.96,-1.04,-1.28,2.75,2.75,2.75
395.77,3.73,3.73,0.96,0.97,-0.97,-0.99,-1.23,2.77,2.77,2.77
399.73,3.75,3.75,0.98,0.98,-0.98,-0.95,-1.19,2.78,2.78,2.78
403.72,3.77,3.77,0.99,0.99,-0.98,-0.91,-1.14,2.79,2.79,2.79
407.76,3.79,3.79,1.00,1.00,-1.00,-0.86,-1.10,2.80,2.80,2.80
411.84,3.81,3.82,1.00,1.01,-1.01,-0.82,-1.05,2.80,2.80,2.81
415.96,3.84,3.84,1.02,1.02,-1.03,-0.78,-1.01,2.82,2.81,2.82
420.12,3.87,3.87,1.04,1.04,-1.05,-0.74,-0.97,2.83,2.83,2.83
424.32,3.90,3.90,1.06,1.06,-1.06,-0.69,-0.92,2.84,2.84,2.84
428.56,3.93,3.93,1.08,1.09,-1.08,-0.65,-0.88,2.85,2.85,2.85
432.85,3.96,3.96,1.11,1.10,-1.10,-0.61,-0.84,2.87,2.86,2.86
437.18,3.98,3.98,1.12,1.11,-1.11,-0.57,-0.80,2.87,2.87,2.87
441.55,4.00,4.00,1.12,1.12,-1.12,-0.53,-0.76,2.88,2.88,2.89
445.96,4.02,4.02,1.13,1.13,-1.13,-0.49,-0.72,2.89,2.89,2.90
450.42,4.04,4.04,1.14,1.14,-1.14,-0.45,-0.68,2.91,2.91,2.90
454.93,4.06,4.06,1.14,1.14,-1.14,-0.41,-0.64,2.92,2.92,2.92
459.48,4.07,4.08,1.14,1.14,-1.14,-0.36,-0.60,2.93,2.94,2.93
464.07,4.08,4.09,1.13,1.13,-1.13,-0.32,-0.56,2.95,2.95,2.95
468.71,4.09,4.09,1.12,1.12,-1.13,-0.28,-0.52,2.97,2.96,2.97
473.40,4.09,4.09,1.11,1.11,-1.11,-0.24,-0.48,2.98,2.98,2.98
478.13,4.08,4.09,1.08,1.09,-1.09,-0.20,-0.44,2.99,3.00,3.00
482.91,4.08,4.08,1.07,1.07,-1.07,-0.16,-0.40,3.02,3.01,3.01
487.74,4.06,4.06,1.04,1.03,-1.03,-0.12,-0.36,3.03,3.03,3.03
492.62,4.03,4.04,0.99,0.99,-0.99,-0.08,-0.32,3.04,3.05,3.05
497.55,4.00,4.00,0.95,0.94,-0.94,-0.03,-0.27,3.06,3.06,3.06
502.52,3.95,3.95,0.88,0.88,-0.88,0.01,-0.23,3.08,3.08,3.08
507.55,3.89,3.90,0.81,0.81,-0.81,0.05,-0.19,3.09,3.09,3.09
512.62,3.83,3.83,0.73,0.72,-0.72,0.09,-0.14,3.11,3.11,3.11
517.75,3.75,3.76,0.63,0.63,-0.63,0.13,-0.10,3.13,3.13,3.12
522.93,3.67,3.67,0.53,0.53,-0.52,0.18,-0.05,3.15,3.15,3.14
528.16,3.57,3.57,0.42,0.42,-0.41,0.22,-0.01,3.16,3.16,3.15
