frequency,raw,smoothed,error,error_smoothed,equalization,parametric_eq,fixed_band_eq,equalized_raw,equalized_smoothed,target
20.00,-6.97,-6.97,-7.98,-7.98,6.00,5.69,2.81,-0.97,-0.97,1.01
20.20,-6.97,-6.97,-8.01,-8.01,6.00,5.69,2.89,-0.97,-0.97,1.04
20.40,-6.97,-6.97,-8.04,-8.04,6.00,5.69,2.97,-0.97,-0.97,1.07
20.61,-6.97,-6.97,-8.06,-8.07,6.00,5.69,3.05,-0.97,-0.97,1.09
20.81,-6.97,-6.97,-8.09,-8.09,6.00,5.69,3.14,-0.97,-0.97,1.12
21.02,-6.97,-6.97,-8.12,-8.11,6.00,5.69,3.23,-0.97,-0.97,1.15
21.23,-6.97,-6.97,-8.13,-8.13,6.00,5.69,3.32,-0.97,-0.97,1.16
21.44,-6.97,-6.97,-8.14,-8.14,6.00,5.69,3.42,-0.97,-0.97,1.17
21.66,-6.97,-6.97,-8.15,-8.15,6.00,5.69,3.51,-0.97,-0.97,1.18
21.87,-6.97,-6.97,-8.15,-8.15,6.00,5.69,3.61,-0.97,-0.97,1.18
22.09,-6.97,-6.97,-8.16,-8.15,6.00,5.69,3.71,-0.97,-0.97,1.19
22.31,-6.97,-6.97,-8.16,-8.16,6.00,5.69,3.82,-0.97,-0.97,1.19
22.54,-6.97,-6.97,-8.16,-8.16,6.00,5.69,3.93,-0.97,-0.97,1.19
22.76,-6.97,-6.97,-8.15,-8.15,6.00,5.68,4.04,-0.97,-0.97,1.19
22.99,-6.97,-6.97,-8.14,-8.15,6.00,5.68,4.15,-0.97,-0.97,1.18
23.22,-6.97,-6.97,-8.14,-8.14,6.00,5.68,4.27,-0.97,-0.97,1.18
23.45,-6.97,-6.97,-8.14,-8.14,6.00,5.68,4.39,-0.97,-0.97,1.18
23.69,-6.97,-6.97,-8.14,-8.14,6.00,5.68,4.51,-0.97,-0.97,1.17
23.92,-6.97,-6.97,-8.14,-8.15,6.00,5.68,4.63,-0.97,-0.97,1.17
24.16,-6.97,-6.97,-8.15,-8.15,6.00,5.68,4.76,-0.97,-0.97,1.18
24.40,-6.97,-6.97,-8.15,-8.15,6.00,5.68,4.89,-0.97,-0.97,1.18
24.65,-6.97,-6.97,-8.14,-8.14,6.00,5.68,5.02,-0.97,-0.97,1.17
24.89,-6.97,-6.97,-8.14,-8.14,6.00,5.67,5.15,-0.97,-0.97,1.17
25.14,-6.97,-6.97,-8.14,-8.14,6.00,5.67,5.29,-0.97,-0.97,1.17
25.39,-6.97,-6.96,-8.14,-8.13,6.00,5.67,5.42,-0.97,-0.96,1.17
25.65,-6.97,-6.96,-8.13,-8.13,6.00,5.67,5.56,-0.97,-0.96,1.17
25.91,-6.97,-6.98,-8.12,-8.13,6.00,5.67,5.69,-0.97,-0.98,1.16
26.16,-7.00,-7.00,-8.15,-8.16,6.00,5.67,5.83,-1.00,-1.00,1.16
26.43,-7.06,-7.05,-8.21,-8.21,6.00,5.67,5.97,-1.06,-1.05,1.15
26.69,-7.11,-7.11,-8.26,-8.26,6.00,5.66,6.10,-1.11,-1.11,1.15
26.96,-7.16,-7.15,-8.31,-8.30,6.00,5.66,6.23,-1.16,-1.15,1.15
27.23,-7.17,-7.17,-8.32,-8.32,6.00,5.66,6.36,-1.17,-1.17,1.15
27.50,-7.17,-7.17,-8.32,-8.32,6.00,5.66,6.49,-1.17,-1.17,1.15
27.77,-7.17,-7.17,-8.30,-8.31,6.00,5.66,6.62,-1.17,-1.17,1.14
28.05,-7.17,-7.17,-8.30,-8.30,6.00,5.66,6.74,-1.17,-1.17,1.14
28.33,-7.17,-7.17,-8.29,-8.29,6.00,5.65,6.85,-1.17,-1.17,1.12
28.62,-7.17,-7.17,-8.29,-8.29,6.00,5.65,6.96,-1.17,-1.17,1.12
28.90,-7.17,-7.17,-8.29,-8.29,6.00,5.65,7.06,-1.17,-1.17,1.12
29.19,-7.17,-7.17,-8.28,-8.28,6.00,5.65,7.15,-1.17,-1.17,1.11
29.48,-7.17,-7.16,-8.29,-8.28,6.00,5.64,7.23,-1.17,-1.16,1.12
29.78,-7.17,-7.17,-8.27,-8.28,6.00,5.64,7.31,-1.17,-1.17,1.11
30.08,-7.18,-7.18,-8.28,-8.29,6.00,5.64,7.37,-1.18,-1.18,1.10
30.38,-7.21,-7.21,-8.30,-8.30,6.00,5.64,7.43,-1.21,-1.21,1.09
30.68,-7.24,-7.24,-8.33,-8.32,6.00,5.63,7.47,-1.24,-1.24,1.09
30.99,-7.27,-7.26,-8.35,-8.34,6.00,5.63,7.50,-1.27,-1.26,1.08
31.30,-7.27,-7.27,-8.34,-8.35,6.00,5.63,7.52,-1.27,-1.27,1.08
31.61,-7.27,-7.27,-8.34,-8.34,6.00,5.63,7.53,-1.27,-1.27,1.07
31.93,-7.27,-7.27,-8.33,-8.33,6.00,5.62,7.52,-1.27,-1.27,1.06
32.24,-7.27,-7.27,-8.32,-8.32,6.00,5.62,7.51,-1.27,-1.27,1.05
32.57,-7.27,-7.26,-8.31,-8.31,6.00,5.62,7.48,-1.27,-1.26,1.05
32.89,-7.27,-7.27,-8.31,-8.31,6.00,5.61,7.45,-1.27,-1.27,1.04
33.22,-7.29,-7.29,-8.32,-8.33,6.00,5.61,7.40,-1.29,-1.29,1.03
33.55,-7.33,-7.32,-8.36,-8.35,6.00,5.61,7.35,-1.33,-1.32,1.03
33.89,-7.36,-7.35,-8.37,-8.37,6.00,5.60,7.29,-1.36,-1.35,1.02
34.23,-7.37,-7.37,-8.38,-8.38,6.00,5.60,7.22,-1.37,-1.37,1.01
34.57,-7.37,-7.37,-8.37,-8.37,6.00,5.59,7.14,-1.37,-1.37,1.00
34.92,-7.37,-7.36,-8.35,-8.35,6.00,5.59,7.06,-1.37,-1.36,0.99
35.27,-7.34,-7.35,-8.32,-8.32,6.00,5.58,6.97,-1.34,-1.35,0.98
35.62,-7.31,-7.31,-8.28,-8.28,6.00,5.58,6.88,-1.31,-1.31,0.97
35.97,-7.27,-7.25,-8.22,-8.21,6.00,5.57,6.78,-1.27,-1.25,0.96
36.33,-7.16,-7.16,-8.11,-8.11,6.00,5.57,6.69,-1.16,-1.16,0.95
36.70,-7.05,-7.05,-7.99,-7.99,6.00,5.56,6.59,-1.05,-1.05,0.94
37.06,-6.94,-6.94,-7.86,-7.87,6.00,5.56,6.49,-0.94,-0.94,0.92
37.43,-6.85,-6.84,-7.77,-7.76,6.00,5.55,6.39,-0.85,-0.84,0.92
37.81,-6.76,-6.76,-7.66,-7.66,6.00,5.55,6.29,-0.76,-0.76,0.91
38.19,-6.69,-6.68,-7.58,-7.58,6.00,5.54,6.19,-0.69,-0.68,0.89
38.57,-6.63,-6.62,-7.51,-7.51,6.00,5.53,6.10,-0.63,-0.62,0.89
38.95,-6.58,-6.59,-7.45,-7.46,6.00,5.53,6.00,-0.58,-0.59,0.87
39.34,-6.59,-6.58,-7.44,-7.44,6.00,5.52,5.91,-0.59,-0.58,0.86
39.74,-6.62,-6.62,-7.46,-7.46,6.00,5.51,5.82,-0.62,-0.62,0.84
40.14,-6.69,-6.71,-7.52,-7.54,6.00,5.50,5.73,-0.69,-0.71,0.84
40.54,-6.82,-6.82,-7.64,-7.64,6.00,5.50,5.64,-0.82,-0.82,0.82
40.94,-6.96,-6.92,-7.77,-7.73,6.00,5.49,5.56,-0.96,-0.92,0.81
41.35,-6.97,-6.97,-7.77,-7.77,6.00,5.48,5.48,-0.97,-0.97,0.80
41.76,-6.96,-6.96,-7.75,-7.76,6.00,5.47,5.41,-0.96,-0.96,0.79
42.18,-6.92,-6.91,-7.70,-7.70,6.00,5.46,5.34,-0.92,-0.91,0.79
42.60,-6.85,-6.85,-7.62,-7.62,6.00,5.45,5.27,-0.85,-0.85,0.77
43.03,-6.77,-6.77,-7.53,-7.53,6.00,5.44,5.20,-0.77,-0.77,0.76
43.46,-6.67,-6.67,-7.41,-7.41,6.01,5.43,5.14,-0.66,-0.66,0.74
43.90,-6.56,-6.55,-7.28,-7.27,6.02,5.42,5.09,-0.54,-0.53,0.72
44.33,-6.40,-6.40,-7.09,-7.10,6.03,5.40,5.03,-0.37,-0.37,0.70
44.78,-6.22,-6.21,-6.90,-6.89,6.02,5.39,4.98,-0.20,-0.19,0.68
45.23,-5.99,-5.97,-6.65,-6.63,5.99,5.38,4.94,0.00,0.03,0.66
45.68,-5.71,-5.72,-6.35,-6.36,5.95,5.36,4.90,0.24,0.23,0.64
46.13,-5.46,-5.48,-6.08,-6.11,5.88,5.35,4.86,0.42,0.40,0.63
46.60,-5.29,-5.28,-5.90,-5.89,5.80,5.33,4.82,0.51,0.52,0.62
47.06,-5.13,-5.12,-5.72,-5.71,5.72,5.31,4.79,0.59,0.60,0.60
47.53,-5.01,-5.00,-5.58,-5.58,5.64,5.30,4.77,0.63,0.64,0.58
48.01,-4.90,-4.93,-5.46,-5.49,5.57,5.28,4.74,0.67,0.64,0.57
48.49,-4.93,-4.92,-5.46,-5.45,5.53,5.26,4.72,0.60,0.61,0.54
48.97,-4.96,-4.96,-5.46,-5.46,5.52,5.24,4.70,0.56,0.56,0.50
49.46,-5.05,-5.04,-5.52,-5.52,5.54,5.22,4.69,0.50,0.50,0.47
49.96,-5.14,-5.14,-5.58,-5.59,5.61,5.19,4.68,0.47,0.47,0.44
50.46,-5.26,-5.26,-5.69,-5.68,5.69,5.17,4.67,0.44,0.44,0.43
50.96,-5.39,-5.40,-5.79,-5.80,5.78,5.14,4.66,0.40,0.39,0.41
51.47,-5.52,-5.53,-5.89,-5.90,5.86,5.11,4.66,0.35,0.34,0.37
51.99,-5.66,-5.62,-6.01,-5.98,5.93,5.08,4.65,0.27,0.31,0.35
52.51,-5.67,-5.67,-6.00,-6.00,5.97,5.05,4.65,0.30,0.30,0.34
53.03,-5.67,-5.68,-5.98,-5.99,5.98,5.02,4.65,0.31,0.30,0.31
53.56,-5.65,-5.65,-5.93,-5.94,5.95,4.98,4.65,0.30,0.30,0.29
54.10,-5.62,-5.61,-5.88,-5.88,5.88,4.94,4.65,0.26,0.27,0.26
54.64,-5.55,-5.55,-5.78,-5.78,5.77,4.90,4.66,0.22,0.22,0.24
55.18,-5.45,-5.44,-5.65,-5.65,5.62,4.85,4.66,0.17,0.18,0.21
55.74,-5.30,-5.30,-5.48,-5.48,5.44,4.81,4.66,0.14,0.14,0.18
56.29,-5.12,-5.12,-5.28,-5.28,5.23,4.75,4.66,0.12,0.12,0.16
56.86,-4.90,-4.88,-5.04,-5.02,5.01,4.69,4.66,0.11,0.13,0.14
57.42,-4.64,-4.64,-4.75,-4.75,4.77,4.63,4.66,0.13,0.13,0.11
58.00,-4.37,-4.40,-4.46,-4.49,4.53,4.56,4.65,0.16,0.13,0.09
58.58,-4.20,-4.19,-4.27,-4.26,4.29,4.49,4.65,0.09,0.10,0.07
59.16,-4.02,-4.00,-4.06,-4.05,4.06,4.41,4.64,0.05,0.06,0.05
59.76,-3.84,-3.84,-3.87,-3.87,3.86,4.32,4.63,0.02,0.01,0.03
60.35,-3.69,-3.69,-3.68,-3.69,3.68,4.23,4.62,-0.01,-0.01,-0.00
60.96,-3.56,-3.56,-3.53,-3.52,3.53,4.13,4.60,-0.03,-0.03,-0.03
61.57,-3.46,-3.46,-3.39,-3.39,3.41,4.03,4.58,-0.05,-0.04,-0.07
62.18,-3.39,-3.39,-3.28,-3.29,3.32,3.92,4.56,-0.06,-0.07,-0.10
62.80,-3.36,-3.36,-3.23,-3.23,3.26,3.81,4.53,-0.09,-0.10,-0.13
63.43,-3.38,-3.38,-3.21,-3.22,3.23,3.70,4.50,-0.15,-0.15,-0.16
64.07,-3.42,-3.42,-3.23,-3.23,3.22,3.59,4.47,-0.20,-0.20,-0.19
64.71,-3.49,-3.47,-3.27,-3.25,3.24,3.49,4.44,-0.25,-0.23,-0.22
65.35,-3.53,-3.52,-3.28,-3.27,3.27,3.40,4.40,-0.26,-0.25,-0.24
66.01,-3.55,-3.58,-3.27,-3.31,3.31,3.33,4.35,-0.24,-0.27,-0.27
66.67,-3.66,-3.64,-3.36,-3.34,3.35,3.27,4.31,-0.31,-0.29,-0.30
67.33,-3.74,-3.72,-3.41,-3.39,3.39,3.25,4.26,-0.34,-0.33,-0.33
68.01,-3.79,-3.82,-3.43,-3.46,3.43,3.23,4.21,-0.36,-0.39,-0.36
68.69,-3.91,-3.88,-3.51,-3.49,3.46,3.25,4.16,-0.44,-0.42,-0.39
69.37,-3.96,-3.93,-3.53,-3.50,3.49,3.28,4.11,-0.46,-0.43,-0.42
70.07,-3.94,-3.97,-3.48,-3.51,3.52,3.32,4.05,-0.42,-0.45,-0.46
70.77,-3.99,-4.01,-3.51,-3.53,3.53,3.37,3.99,-0.45,-0.48,-0.48
71.48,-4.08,-4.06,-3.56,-3.54,3.55,3.42,3.94,-0.52,-0.51,-0.52
72.19,-4.16,-4.12,-3.61,-3.57,3.57,3.48,3.88,-0.59,-0.55,-0.55
72.91,-4.13,-4.17,-3.54,-3.58,3.59,3.54,3.82,-0.54,-0.58,-0.59
73.64,-4.21,-4.21,-3.58,-3.59,3.61,3.59,3.76,-0.60,-0.60,-0.62
74.38,-4.28,-4.27,-3.63,-3.61,3.63,3.63,3.70,-0.65,-0.64,-0.65
75.12,-4.34,-4.34,-3.65,-3.66,3.64,3.67,3.64,-0.70,-0.70,-0.69
75.87,-4.40,-4.39,-3.68,-3.68,3.65,3.70,3.59,-0.75,-0.75,-0.72
76.63,-4.44,-4.43,-3.69,-3.68,3.64,3.73,3.53,-0.79,-0.79,-0.75
77.40,-4.45,-4.45,-3.67,-3.66,3.64,3.75,3.47,-0.81,-0.81,-0.78
78.17,-4.45,-4.45,-3.63,-3.63,3.63,3.76,3.42,-0.81,-0.81,-0.82
78.95,-4.45,-4.45,-3.60,-3.60,3.63,3.77,3.37,-0.82,-0.82,-0.84
79.74,-4.45,-4.46,-3.57,-3.58,3.62,3.78,3.31,-0.83,-0.84,-0.88
80.54,-4.49,-4.49,-3.58,-3.58,3.61,3.77,3.26,-0.88,-0.88,-0.91
81.35,-4.54,-4.54,-3.59,-3.60,3.60,3.77,3.22,-0.94,-0.94,-0.95
82.16,-4.60,-4.60,-3.61,-3.62,3.59,3.76,3.17,-1.00,-1.00,-0.98
82.98,-4.65,-4.63,-3.64,-3.62,3.58,3.75,3.12,-1.06,-1.05,-1.01
83.81,-4.65,-4.65,-3.59,-3.60,3.57,3.73,3.08,-1.07,-1.08,-1.06
84.65,-4.65,-4.65,-3.55,-3.56,3.56,3.71,3.04,-1.09,-1.10,-1.09
85.50,-4.65,-4.65,-3.52,-3.52,3.53,3.69,3.00,-1.12,-1.12,-1.12
86.35,-4.65,-4.65,-3.49,-3.48,3.49,3.66,2.97,-1.15,-1.15,-1.16
87.22,-4.65,-4.65,-3.45,-3.45,3.45,3.64,2.93,-1.20,-1.20,-1.20
88.09,-4.65,-4.65,-3.41,-3.41,3.41,3.61,2.90,-1.24,-1.24,-1.24
88.97,-4.65,-4.65,-3.37,-3.37,3.36,3.58,2.87,-1.28,-1.29,-1.27
89.86,-4.65,-4.65,-3.33,-3.33,3.33,3.55,2.84,-1.32,-1.32,-1.31
90.76,-4.65,-4.64,-3.28,-3.28,3.29,3.51,2.82,-1.35,-1.35,-1.37
91.66,-4.64,-4.64,-3.24,-3.24,3.26,3.48,2.80,-1.37,-1.38,-1.40
92.58,-4.65,-4.66,-3.19,-3.21,3.23,3.45,2.78,-1.41,-1.43,-1.45
93.51,-4.70,-4.69,-3.21,-3.21,3.20,3.41,2.76,-1.49,-1.49,-1.49
94.44,-4.74,-4.72,-3.21,-3.19,3.17,3.37,2.74,-1.56,-1.55,-1.53
95.39,-4.75,-4.75,-3.17,-3.17,3.15,3.33,2.72,-1.60,-1.60,-1.57
96.34,-4.75,-4.75,-3.12,-3.13,3.12,3.29,2.71,-1.63,-1.64,-1.63
97.30,-4.76,-4.76,-3.08,-3.08,3.08,3.26,2.70,-1.67,-1.67,-1.67
98.28,-4.77,-4.77,-3.05,-3.05,3.05,3.22,2.69,-1.72,-1.71,-1.72
99.26,-4.78,-4.78,-3.01,-3.02,3.02,3.18,2.68,-1.76,-1.76,-1.77
100.25,-4.80,-4.80,-2.99,-2.99,2.98,3.13,2.67,-1.81,-1.81,-1.81
101.25,-4.82,-4.81,-2.96,-2.95,2.96,3.09,2.67,-1.86,-1.85,-1.86
102.27,-4.83,-4.83,-2.92,-2.92,2.94,3.05,2.66,-1.89,-1.89,-1.90
103.29,-4.85,-4.86,-2.89,-2.91,2.93,3.01,2.66,-1.92,-1.93,-1.96
104.32,-4.90,-4.91,-2.90,-2.91,2.92,2.97,2.66,-1.98,-1.99,-2.00
105.37,-4.98,-4.96,-2.93,-2.92,2.91,2.93,2.65,-2.07,-2.05,-2.04
106.42,-5.01,-5.00,-2.92,-2.92,2.90,2.89,2.65,-2.11,-2.11,-2.09
107.48,-5.03,-5.04,-2.89,-2.90,2.88,2.85,2.65,-2.14,-2.15,-2.13
108.56,-5.06,-5.05,-2.87,-2.87,2.87,2.81,2.65,-2.19,-2.19,-2.19
109.64,-5.08,-5.08,-2.84,-2.84,2.85,2.77,2.65,-2.23,-2.23,-2.24
110.74,-5.10,-5.10,-2.81,-2.81,2.81,2.73,2.65,-2.28,-2.28,-2.28
111.85,-5.12,-5.11,-2.79,-2.78,2.78,2.69,2.65,-2.34,-2.34,-2.33
112.97,-5.13,-5.12,-2.73,-2.74,2.73,2.64,2.64,-2.39,-2.39,-2.39
114.10,-5.13,-5.13,-2.69,-2.69,2.68,2.60,2.64,-2.44,-2.44,-2.44
115.24,-5.13,-5.13,-2.63,-2.63,2.63,2.56,2.63,-2.49,-2.49,-2.49
116.39,-5.13,-5.13,-2.58,-2.58,2.58,2.52,2.63,-2.55,-2.54,-2.55
117.55,-5.13,-5.12,-2.52,-2.52,2.53,2.48,2.62,-2.60,-2.60,-2.60
118.73,-5.12,-5.12,-2.46,-2.47,2.47,2.44,2.61,-2.65,-2.65,-2.66
119.92,-5.12,-5.11,-2.42,-2.41,2.41,2.40,2.59,-2.71,-2.70,-2.70
121.12,-5.11,-5.11,-2.35,-2.35,2.35,2.36,2.58,-2.76,-2.76,-2.75
122.33,-5.10,-5.10,-2.29,-2.30,2.29,2.31,2.56,-2.81,-2.81,-2.80
123.55,-5.09,-5.09,-2.24,-2.24,2.24,2.27,2.55,-2.85,-2.85,-2.85
124.79,-5.09,-5.08,-2.19,-2.18,2.19,2.23,2.52,-2.90,-2.90,-2.90
126.03,-5.08,-5.07,-2.13,-2.12,2.14,2.18,2.50,-2.94,-2.93,-2.95
127.29,-5.07,-5.08,-2.07,-2.07,2.09,2.13,2.48,-2.97,-2.98,-3.00
128.57,-5.08,-5.10,-2.02,-2.04,2.05,2.09,2.45,-3.02,-3.04,-3.06
129.85,-5.14,-5.12,-2.03,-2.02,2.01,2.04,2.42,-3.12,-3.11,-3.11
131.15,-5.16,-5.15,-2.00,-1.99,1.97,1.99,2.38,-3.18,-3.17,-3.15
132.46,-5.15,-5.15,-1.95,-1.95,1.93,1.94,2.35,-3.21,-3.22,-3.20
133.79,-5.15,-5.15,-1.91,-1.90,1.89,1.89,2.31,-3.25,-3.25,-3.24
135.12,-5.14,-5.14,-1.84,-1.85,1.85,1.84,2.27,-3.28,-3.29,-3.29
136.48,-5.14,-5.14,-1.81,-1.81,1.81,1.79,2.23,-3.33,-3.33,-3.33
137.84,-5.14,-5.14,-1.76,-1.76,1.76,1.74,2.19,-3.37,-3.37,-3.37
139.22,-5.14,-5.13,-1.71,-1.71,1.72,1.69,2.15,-3.42,-3.42,-3.43
140.61,-5.13,-5.13,-1.66,-1.67,1.67,1.65,2.10,-3.45,-3.46,-3.47
142.02,-5.13,-5.13,-1.64,-1.63,1.63,1.60,2.05,-3.50,-3.50,-3.49
143.44,-5.13,-5.13,-1.59,-1.59,1.59,1.55,2.00,-3.54,-3.53,-3.53
144.87,-5.13,-5.13,-1.55,-1.56,1.55,1.50,1.96,-3.57,-3.57,-3.57
146.32,-5.13,-5.13,-1.51,-1.52,1.52,1.45,1.91,-3.61,-3.61,-3.61
147.78,-5.13,-5.13,-1.49,-1.48,1.48,1.40,1.86,-3.65,-3.65,-3.64
149.26,-5.13,-5.13,-1.45,-1.44,1.44,1.36,1.81,-3.69,-3.69,-3.68
150.75,-5.13,-5.13,-1.40,-1.41,1.41,1.31,1.76,-3.72,-3.72,-3.73
152.26,-5.13,-5.13,-1.36,-1.36,1.37,1.27,1.71,-3.76,-3.76,-3.76
153.78,-5.13,-5.13,-1.33,-1.32,1.33,1.23,1.66,-3.80,-3.80,-3.80
155.32,-5.13,-5.13,-1.28,-1.29,1.29,1.19,1.61,-3.84,-3.84,-3.84
156.88,-5.13,-5.13,-1.25,-1.25,1.25,1.14,1.56,-3.88,-3.88,-3.88
158.44,-5.13,-5.13,-1.21,-1.21,1.20,1.10,1.51,-3.93,-3.93,-3.92
160.03,-5.13,-5.13,-1.16,-1.17,1.15,1.07,1.46,-3.98,-3.98,-3.96
161.63,-5.13,-5.11,-1.12,-1.11,1.09,1.03,1.41,-4.03,-4.02,-4.00
163.24,-5.09,-5.08,-1.04,-1.04,1.04,0.99,1.36,-4.04,-4.04,-4.04
164.88,-5.04,-5.06,-0.96,-0.98,1.00,0.96,1.31,-4.04,-4.06,-4.07
166.53,-5.04,-5.04,-0.92,-0.93,0.95,0.92,1.26,-4.09,-4.09,-4.11
168.19,-5.05,-5.04,-0.89,-0.89,0.90,0.89,1.22,-4.14,-4.14,-4.15
169.87,-5.06,-5.05,-0.87,-0.86,0.86,0.85,1.17,-4.19,-4.19,-4.19
171.57,-5.06,-5.06,-0.83,-0.83,0.83,0.82,1.13,-4.23,-4.23,-4.23
173.29,-5.07,-5.07,-0.80,-0.80,0.79,0.79,1.08,-4.27,-4.27,-4.26
175.02,-5.07,-5.07,-0.77,-0.77,0.76,0.76,1.04,-4.31,-4.31,-4.30
176.77,-5.08,-5.07,-0.73,-0.73,0.73,0.73,1.00,-4.35,-4.35,-4.34
178.54,-5.08,-5.07,-0.69,-0.69,0.69,0.71,0.95,-4.39,-4.38,-4.39
180.32,-5.07,-5.07,-0.65,-0.65,0.65,0.68,0.91,-4.42,-4.42,-4.42
182.13,-5.07,-5.07,-0.61,-0.61,0.61,0.65,0.87,-4.46,-4.46,-4.45
183.95,-5.06,-5.06,-0.56,-0.56,0.56,0.63,0.83,-4.50,-4.49,-4.49
185.79,-5.05,-5.04,-0.52,-0.52,0.52,0.60,0.79,-4.53,-4.53,-4.53
187.65,-5.03,-5.03,-0.46,-0.47,0.47,0.58,0.75,-4.56,-4.56,-4.57
189.52,-5.02,-5.02,-0.42,-0.42,0.42,0.55,0.71,-4.60,-4.60,-4.60
191.42,-5.01,-5.00,-0.38,-0.37,0.37,0.53,0.68,-4.63,-4.63,-4.63
193.33,-4.99,-4.99,-0.33,-0.33,0.33,0.51,0.64,-4.66,-4.66,-4.66
195.27,-4.97,-4.97,-0.28,-0.29,0.29,0.49,0.60,-4.68,-4.69,-4.68
197.22,-4.96,-4.96,-0.25,-0.24,0.25,0.47,0.57,-4.71,-4.71,-4.71
199.19,-4.95,-4.95,-0.20,-0.20,0.21,0.45,0.53,-4.74,-4.73,-4.75
201.18,-4.94,-4.94,-0.17,-0.17,0.18,0.43,0.50,-4.76,-4.76,-4.77
203.19,-4.94,-4.94,-0.16,-0.15,0.15,0.41,0.47,-4.78,-4.78,-4.78
205.23,-4.94,-4.94,-0.13,-0.14,0.13,0.39,0.43,-4.81,-4.80,-4.81
207.28,-4.94,-4.94,-0.13,-0.12,0.11,0.37,0.40,-4.82,-4.82,-4.81
209.35,-4.94,-4.94,-0.10,-0.10,0.10,0.36,0.37,-4.84,-4.84,-4.84
211.44,-4.94,-4.94,-0.08,-0.09,0.09,0.34,0.34,-4.85,-4.85,-4.86
213.56,-4.94,-4.94,-0.07,-0.08,0.08,0.32,0.31,-4.86,-4.86,-4.86
215.69,-4.95,-4.94,-0.08,-0.07,0.08,0.31,0.28,-4.87,-4.87,-4.87
217.85,-4.95,-4.95,-0.07,-0.07,0.07,0.29,0.26,-4.88,-4.88,-4.88
220.03,-4.95,-4.95,-0.05,-0.06,0.07,0.28,0.23,-4.88,-4.89,-4.89
222.23,-4.96,-4.96,-0.05,-0.06,0.06,0.26,0.20,-4.90,-4.90,-4.90
224.45,-4.96,-4.96,-0.06,-0.06,0.04,0.25,0.18,-4.91,-4.92,-4.90
226.70,-4.96,-4.95,-0.06,-0.05,0.03,0.23,0.15,-4.93,-4.92,-4.90
228.96,-4.94,-4.92,-0.04,-0.03,0.01,0.22,0.13,-4.93,-4.91,-4.90
231.25,-4.87,-4.88,0.02,0.01,-0.01,0.21,0.11,-4.88,-4.89,-4.89
233.57,-4.84,-4.84,0.05,0.05,-0.03,0.20,0.09,-4.87,-4.87,-4.89
235.90,-4.82,-4.82,0.07,0.07,-0.05,0.18,0.07,-4.87,-4.86,-4.89
238.26,-4.81,-4.80,0.08,0.08,-0.07,0.17,0.05,-4.88,-4.87,-4.89
240.64,-4.79,-4.79,0.09,0.09,-0.09,0.16,0.03,-4.88,-4.88,-4.88
243.05,-4.78,-4.77,0.09,0.09,-0.10,0.15,0.02,-4.88,-4.88,-4.87
245.48,-4.76,-4.75,0.10,0.10,-0.11,0.14,0.00,-4.87,-4.87,-4.85
247.93,-4.73,-4.73,0.11,0.12,-0.12,0.13,-0.01,-4.85,-4.85,-4.84
250.41,-4.71,-4.71,0.13,0.13,-0.12,0.12,-0.02,-4.83,-4.83,-4.84
252.92,-4.69,-4.69,0.13,0.13,-0.12,0.11,-0.03,-4.81,-4.81,-4.82
255.45,-4.68,-4.68,0.12,0.12,-0.12,0.10,-0.04,-4.79,-4.79,-4.79
258.00,-4.67,-4.67,0.11,0.11,-0.11,0.09,-0.05,-4.78,-4.78,-4.78
260.58,-4.67,-4.67,0.10,0.10,-0.10,0.08,-0.06,-4.77,-4.76,-4.77
263.19,-4.67,-4.67,0.08,0.08,-0.08,0.07,-0.07,-4.75,-4.75,-4.74
265.82,-4.67,-4.67,0.06,0.06,-0.06,0.06,-0.07,-4.73,-4.73,-4.73
268.48,-4.67,-4.67,0.04,0.04,-0.04,0.05,-0.08,-4.71,-4.71,-4.71
271.16,-4.67,-4.67,0.02,0.02,-0.01,0.04,-0.08,-4.68,-4.68,-4.68
273.87,-4.68,-4.67,-0.01,-0.01,0.01,0.03,-0.08,-4.67,-4.66,-4.67
276.61,-4.68,-4.68,-0.03,-0.03,0.03,0.02,-0.08,-4.64,-4.65,-4.64
279.38,-4.68,-4.68,-0.05,-0.05,0.05,0.02,-0.09,-4.63,-4.63,-4.63
282.17,-4.68,-4.67,-0.06,-0.06,0.06,0.01,-0.09,-4.62,-4.62,-4.61
284.99,-4.67,-4.68,-0.08,-0.08,0.06,-0.00,-0.08,-4.61,-4.62,-4.59
287.84,-4.66,-4.65,-0.08,-0.08,0.06,-0.01,-0.08,-4.60,-4.60,-4.57
290.72,-4.65,-4.62,-0.10,-0.07,0.05,-0.02,-0.08,-4.59,-4.56,-4.55
293.63,-4.55,-4.57,-0.01,-0.04,0.05,-0.02,-0.08,-4.50,-4.53,-4.53
296.57,-4.53,-4.53,-0.02,-0.02,0.04,-0.03,-0.08,-4.49,-4.49,-4.51
299.53,-4.51,-4.50,-0.02,-0.01,0.04,-0.04,-0.07,-4.47,-4.46,-4.49
302.53,-4.50,-4.50,-0.02,-0.03,0.04,-0.05,-0.07,-4.46,-4.46,-4.48
305.55,-4.49,-4.49,-0.05,-0.04,0.04,-0.05,-0.07,-4.44,-4.44,-4.44
308.61,-4.48,-4.48,-0.05,-0.06,0.06,-0.06,-0.06,-4.42,-4.42,-4.42
311.69,-4.48,-4.47,-0.08,-0.08,0.08,-0.07,-0.06,-4.40,-4.40,-4.40
314.81,-4.47,-4.47,-0.11,-0.10,0.10,-0.08,-0.05,-4.37,-4.37,-4.36
317.96,-4.47,-4.47,-0.12,-0.12,0.12,-0.08,-0.05,-4.34,-4.34,-4.34
321.14,-4.47,-4.47,-0.14,-0.14,0.14,-0.09,-0.04,-4.32,-4.32,-4.33
324.35,-4.47,-4.47,-0.16,-0.16,0.16,-0.10,-0.04,-4.31,-4.31,-4.31
327.59,-4.47,-4.47,-0.18,-0.18,0.17,-0.10,-0.03,-4.30,-4.30,-4.28
330.87,-4.47,-4.46,-0.20,-0.19,0.17,-0.11,-0.03,-4.29,-4.28,-4.27
334.18,-4.44,-4.43,-0.19,-0.18,0.18,-0.12,-0.02,-4.26,-4.25,-4.25
337.52,-4.39,-4.40,-0.16,-0.17,0.19,-0.13,-0.01,-4.20,-4.22,-4.23
340.90,-4.38,-4.38,-0.17,-0.17,0.19,-0.13,-0.01,-4.18,-4.19,-4.20
344.30,-4.38,-4.37,-0.19,-0.19,0.20,-0.14,-0.00,-4.17,-4.17,-4.19
347.75,-4.38,-4.38,-0.21,-0.21,0.21,-0.15,0.00,-4.16,-4.16,-4.17
351.23,-4.38,-4.37,-0.23,-0.22,0.23,-0.15,0.01,-4.15,-4.15,-4.15
354.74,-4.37,-4.37,-0.23,-0.24,0.24,-0.16,0.02,-4.13,-4.13,-4.13
358.28,-4.37,-4.37,-0.25,-0.25,0.24,-0.17,0.02,-4.13,-4.12,-4.11
361.87,-4.36,-4.37,-0.26,-0.27,0.24,-0.18,0.03,-4.11,-4.12,-4.10
365.49,-4.36,-4.35,-0.27,-0.27,0.24,-0.18,0.03,-4.12,-4.11,-4.09
369.14,-4.35,-4.32,-0.27,-0.24,0.23,-0.19,0.04,-4.11,-4.09,-4.08
372.83,-4.27,-4.28,-0.20,-0.22,0.22,-0.20,0.04,-4.04,-4.06,-4.06
376.56,-4.23,-4.24,-0.17,-0.20,0.22,-0.21,0.05,-4.01,-4.03,-4.05
380.33,-4.23,-4.22,-0.20,-0.19,0.21,-0.21,0.06,-4.01,-4.00,-4.03
384.13,-4.22,-4.22,-0.20,-0.20,0.21,-0.22,0.06,-4.00,-4.00,-4.02
387.97,-4.22,-4.21,-0.21,-0.21,0.22,-0.23,0.07,-4.00,-4.00,-4.01
391.85,-4.21,-4.21,-0.21,-0.21,0.22,-0.24,0.07,-3.99,-3.99,-4.00
395.77,-4.21,-4.21,-0.23,-0.23,0.21,-0.24,0.08,-3.99,-4.00,-3.98
399.73,-4.21,-4.22,-0.23,-0.24,0.21,-0.25,0.08,-4.00,-4.01,-3.97
403.72,-4.21,-4.20,-0.24,-0.23,0.20,-0.26,0.09,-4.01,-4.00,-3.96
407.76,-4.18,-4.15,-0.22,-0.19,0.18,-0.27,0.09,-3.99,-3.96,-3.96
411.84,-4.06,-4.09,-0.12,-0.15,0.17,-0.28,0.09,-3.89,-3.92,-3.94
415.96,-4.02,-4.03,-0.09,-0.10,0.14,-0.28,0.10,-3.87,-3.89,-3.93
420.12,-4.02,-4.01,-0.10,-0.09,0.12,-0.29,0.10,-3.90,-3.89,-3.92
424.32,-4.01,-4.01,-0.10,-0.10,0.09,-0.30,0.10,-3.92,-3.92,-3.91
428.56,-4.00,-3.98,-0.10,-0.08,0.06,-0.31,0.10,-3.94,-3.92,-3.90
432.85,-3.94,-3.93,-0.04,-0.04,0.04,-0.32,0.10,-3.90,-3.90,-3.89
437.18,-3.86,-3.88,0.03,0.00,0.01,-0.33,0.11,-3.85,-3.87,-3.88
441.55,-3.83,-3.82,0.04,0.05,-0.03,-0.34,0.10,-3.85,-3.85,-3.86
445.96,-3.78,-3.78,0.08,0.08,-0.08,-0.35,0.10,-3.86,-3.85,-3.86
450.42,-3.73,-3.74,0.12,0.11,-0.14,-0.36,0.10,-3.87,-3.88,-3.85
