frequency,raw,error,smoothed,error_smoothed,equalization,parametric_eq,fixed_band_eq,equalized_raw,equalized_smoothed,target
20.00,-14.99,-13.99,-14.99,-13.99,6.00,5.35,2.69,-8.99,-8.99,-1.00
20.20,-14.88,-13.97,-14.88,-13.96,6.00,5.39,2.76,-8.88,-8.88,-0.92
20.40,-14.77,-13.94,-14.78,-13.94,6.00,5.42,2.84,-8.77,-8.78,-0.83
20.61,-14.67,-13.91,-14.67,-13.91,6.00,5.45,2.92,-8.67,-8.67,-0.77
20.81,-14.56,-13.89,-14.56,-13.88,6.00,5.48,3.00,-8.56,-8.56,-0.67
21.02,-14.45,-13.86,-14.45,-13.85,6.00,5.51,3.09,-8.45,-8.45,-0.60
21.23,-14.34,-13.81,-14.34,-13.81,6.00,5.54,3.18,-8.34,-8.34,-0.54
21.44,-14.23,-13.75,-14.23,-13.75,6.00,5.57,3.27,-8.23,-8.23,-0.48
21.66,-14.12,-13.70,-14.12,-13.70,6.00,5.60,3.36,-8.12,-8.12,-0.43
21.87,-14.01,-13.63,-14.01,-13.64,6.00,5.63,3.46,-8.01,-8.01,-0.38
22.09,-13.90,-13.57,-13.90,-13.57,6.00,5.66,3.55,-7.90,-7.90,-0.33
22.31,-13.79,-13.51,-13.79,-13.51,6.00,5.69,3.65,-7.79,-7.79,-0.28
22.54,-13.68,-13.45,-13.68,-13.45,6.00,5.72,3.76,-7.68,-7.68,-0.24
22.76,-13.57,-13.37,-13.57,-13.37,6.00,5.75,3.86,-7.57,-7.57,-0.20
22.99,-13.46,-13.29,-13.46,-13.29,6.00,5.78,3.97,-7.46,-7.46,-0.17
23.22,-13.34,-13.21,-13.35,-13.22,6.00,5.80,4.08,-7.34,-7.35,-0.13
23.45,-13.23,-13.14,-13.23,-13.14,6.00,5.83,4.20,-7.23,-7.23,-0.09
23.69,-13.12,-13.07,-13.12,-13.07,6.00,5.86,4.31,-7.12,-7.12,-0.05
23.92,-13.01,-13.00,-13.01,-13.00,6.00,5.88,4.43,-7.01,-7.01,-0.01
24.16,-12.89,-12.93,-12.90,-12.93,6.00,5.91,4.55,-6.89,-6.90,0.04
24.40,-12.78,-12.85,-12.78,-12.85,6.00,5.93,4.68,-6.78,-6.78,0.07
24.65,-12.67,-12.77,-12.67,-12.77,6.00,5.96,4.80,-6.67,-6.67,0.10
24.89,-12.56,-12.69,-12.56,-12.69,6.00,5.98,4.93,-6.56,-6.56,0.13
25.14,-12.44,-12.61,-12.45,-12.61,6.00,6.00,5.06,-6.44,-6.45,0.17
25.39,-12.33,-12.53,-12.33,-12.53,6.00,6.03,5.19,-6.33,-6.33,0.20
25.65,-12.22,-12.46,-12.22,-12.45,6.00,6.05,5.32,-6.22,-6.22,0.24
25.91,-12.10,-12.36,-12.11,-12.37,6.00,6.07,5.45,-6.10,-6.11,0.26
26.16,-11.99,-12.28,-11.99,-12.28,6.00,6.09,5.58,-5.99,-5.99,0.29
26.43,-11.88,-12.21,-11.88,-12.20,6.00,6.11,5.71,-5.88,-5.88,0.32
26.69,-11.77,-12.13,-11.77,-12.13,6.00,6.13,5.84,-5.77,-5.77,0.35
26.96,-11.66,-12.05,-11.66,-12.05,6.00,6.15,5.97,-5.66,-5.66,0.38
27.23,-11.54,-11.97,-11.55,-11.96,6.00,6.17,6.10,-5.54,-5.55,0.42
27.50,-11.43,-11.88,-11.43,-11.88,6.00,6.18,6.22,-5.43,-5.43,0.45
27.77,-11.31,-11.78,-11.31,-11.79,6.00,6.20,6.34,-5.31,-5.31,0.47
28.05,-11.20,-11.71,-11.20,-11.71,6.00,6.22,6.46,-5.20,-5.20,0.51
28.33,-11.09,-11.62,-11.09,-11.62,6.00,6.24,6.57,-5.09,-5.09,0.53
28.62,-10.98,-11.54,-10.98,-11.54,6.00,6.25,6.68,-4.98,-4.98,0.56
28.90,-10.87,-11.47,-10.87,-11.47,6.00,6.27,6.78,-4.87,-4.87,0.60
29.19,-10.76,-11.38,-10.76,-11.39,6.00,6.28,6.87,-4.76,-4.76,0.62
29.48,-10.65,-11.32,-10.65,-11.31,6.00,6.29,6.96,-4.65,-4.65,0.67
29.78,-10.53,-11.22,-10.54,-11.22,6.00,6.31,7.04,-4.53,-4.54,0.69
30.08,-10.43,-11.15,-10.43,-11.15,6.00,6.32,7.10,-4.43,-4.43,0.71
30.38,-10.33,-11.08,-10.33,-11.08,6.00,6.33,7.16,-4.33,-4.33,0.74
30.68,-10.24,-11.01,-10.24,-11.01,6.00,6.34,7.21,-4.24,-4.24,0.77
30.99,-10.14,-10.93,-10.14,-10.94,6.00,6.35,7.25,-4.14,-4.14,0.79
31.30,-10.04,-10.86,-10.04,-10.86,6.00,6.36,7.28,-4.04,-4.04,0.82
31.61,-9.93,-10.78,-9.94,-10.78,6.00,6.37,7.30,-3.93,-3.94,0.85
31.93,-9.83,-10.70,-9.83,-10.70,6.00,6.38,7.31,-3.83,-3.83,0.87
32.24,-9.72,-10.61,-9.72,-10.61,6.00,6.39,7.31,-3.72,-3.72,0.89
32.57,-9.62,-10.54,-9.62,-10.53,6.00,6.40,7.30,-3.62,-3.62,0.91
32.89,-9.51,-10.45,-9.51,-10.46,6.00,6.40,7.28,-3.51,-3.51,0.94
33.22,-9.41,-10.37,-9.41,-10.37,6.00,6.41,7.25,-3.41,-3.41,0.96
33.55,-9.31,-10.29,-9.31,-10.29,6.00,6.41,7.21,-3.31,-3.31,0.98
33.89,-9.20,-10.19,-9.21,-10.20,6.00,6.42,7.17,-3.20,-3.21,0.99
34.23,-9.10,-10.12,-9.10,-10.11,6.00,6.42,7.12,-3.10,-3.10,1.02
34.57,-9.00,-10.03,-9.00,-10.03,6.00,6.42,7.07,-3.00,-3.00,1.02
34.92,-8.90,-9.94,-8.90,-9.94,6.00,6.43,7.01,-2.90,-2.90,1.03
35.27,-8.80,-9.85,-8.80,-9.85,6.00,6.43,6.95,-2.80,-2.80,1.05
35.62,-8.70,-9.75,-8.70,-9.76,6.00,6.43,6.88,-2.70,-2.70,1.05
35.97,-8.60,-9.66,-8.60,-9.66,6.00,6.43,6.81,-2.60,-2.60,1.06
36.33,-8.49,-9.57,-8.49,-9.56,6.00,6.43,6.74,-2.49,-2.49,1.07
36.70,-8.39,-9.47,-8.39,-9.46,6.00,6.43,6.67,-2.39,-2.39,1.07
37.06,-8.28,-9.35,-8.28,-9.36,6.00,6.43,6.60,-2.28,-2.28,1.07
37.43,-8.18,-9.26,-8.18,-9.26,6.00,6.43,6.53,-2.18,-2.18,1.08
37.81,-8.08,-9.16,-8.08,-9.16,6.00,6.42,6.46,-2.08,-2.08,1.07
38.19,-7.98,-9.06,-7.98,-9.06,6.00,6.42,6.39,-1.98,-1.98,1.07
38.57,-7.88,-8.96,-7.88,-8.95,6.00,6.42,6.33,-1.88,-1.88,1.08
38.95,-7.77,-8.85,-7.78,-8.85,6.00,6.41,6.26,-1.77,-1.78,1.08
39.34,-7.67,-8.73,-7.67,-8.74,6.00,6.41,6.20,-1.67,-1.67,1.06
39.74,-7.57,-8.63,-7.57,-8.63,6.00,6.40,6.14,-1.57,-1.57,1.06
40.14,-7.46,-8.52,-7.46,-8.52,6.00,6.40,6.09,-1.46,-1.46,1.06
40.54,-7.35,-8.41,-7.36,-8.41,6.00,6.39,6.03,-1.35,-1.36,1.05
40.94,-7.25,-8.30,-7.25,-8.30,6.00,6.38,5.99,-1.25,-1.25,1.05
41.35,-7.15,-8.20,-7.15,-8.20,6.00,6.37,5.94,-1.15,-1.15,1.05
41.76,-7.05,-8.09,-7.05,-8.09,6.00,6.36,5.90,-1.05,-1.05,1.04
42.18,-6.94,-7.98,-6.94,-7.98,6.00,6.35,5.87,-0.94,-0.94,1.04
42.60,-6.84,-7.87,-6.84,-7.87,6.00,6.34,5.83,-0.84,-0.84,1.03
43.03,-6.73,-7.76,-6.73,-7.76,6.00,6.33,5.81,-0.73,-0.73,1.03
43.46,-6.63,-7.65,-6.63,-7.65,6.00,6.32,5.78,-0.63,-0.63,1.02
43.90,-6.52,-7.53,-6.52,-7.53,6.00,6.31,5.76,-0.52,-0.52,1.00
44.33,-6.42,-7.41,-6.42,-7.41,6.00,6.30,5.75,-0.42,-0.42,0.99
44.78,-6.31,-7.30,-6.32,-7.29,6.00,6.29,5.74,-0.31,-0.32,0.98
45.23,-6.21,-7.18,-6.21,-7.18,6.00,6.27,5.74,-0.21,-0.21,0.97
45.68,-6.11,-7.07,-6.11,-7.07,6.00,6.26,5.74,-0.11,-0.11,0.96
46.13,-6.01,-6.97,-6.01,-6.97,6.00,6.25,5.74,-0.01,-0.01,0.96
46.60,-5.91,-6.87,-5.91,-6.87,6.00,6.23,5.75,0.09,0.09,0.96
47.06,-5.82,-6.78,-5.82,-6.78,6.00,6.22,5.76,0.18,0.18,0.96
47.53,-5.73,-6.68,-5.73,-6.68,6.00,6.20,5.78,0.27,0.27,0.95
48.01,-5.64,-6.60,-5.64,-6.59,6.00,6.19,5.80,0.36,0.36,0.95
48.49,-5.55,-6.50,-5.55,-6.50,6.00,6.17,5.82,0.45,0.45,0.95
48.97,-5.46,-6.40,-5.47,-6.40,6.00,6.15,5.85,0.54,0.53,0.94
49.46,-5.39,-6.31,-5.39,-6.32,6.00,6.14,5.88,0.61,0.61,0.92
49.96,-5.33,-6.25,-5.33,-6.25,6.01,6.12,5.91,0.67,0.68,0.91
50.46,-5.26,-6.19,-5.27,-6.19,6.00,6.10,5.95,0.74,0.74,0.93
50.96,-5.20,-6.14,-5.21,-6.14,6.00,6.09,5.99,0.80,0.80,0.94
51.47,-5.15,-6.08,-5.15,-6.08,5.99,6.07,6.03,0.84,0.85,0.93
51.99,-5.09,-6.03,-5.09,-6.03,5.98,6.05,6.07,0.89,0.89,0.93
52.51,-5.04,-5.99,-5.04,-5.98,5.97,6.03,6.11,0.93,0.92,0.94
53.03,-5.00,-5.95,-5.01,-5.95,5.95,6.02,6.16,0.95,0.95,0.94
53.56,-4.98,-5.93,-4.98,-5.93,5.93,6.00,6.20,0.95,0.95,0.95
54.10,-4.96,-5.91,-4.96,-5.91,5.91,5.98,6.25,0.95,0.95,0.95
54.64,-4.95,-5.89,-4.95,-5.89,5.89,5.96,6.29,0.94,0.94,0.94
55.18,-4.94,-5.88,-4.94,-5.87,5.88,5.95,6.33,0.93,0.94,0.93
55.74,-4.93,-5.86,-4.93,-5.86,5.86,5.93,6.37,0.93,0.93,0.92
56.29,-4.93,-5.86,-4.93,-5.85,5.86,5.91,6.41,0.92,0.92,0.92
56.86,-4.94,-5.85,-4.94,-5.85,5.86,5.90,6.45,0.91,0.92,0.91
57.42,-4.95,-5.85,-4.95,-5.86,5.86,5.88,6.48,0.91,0.91,0.90
58.00,-4.97,-5.87,-4.97,-5.87,5.87,5.86,6.51,0.90,0.90,0.90
58.58,-4.99,-5.88,-4.99,-5.88,5.88,5.85,6.53,0.89,0.89,0.88
59.16,-5.02,-5.90,-5.02,-5.90,5.90,5.84,6.54,0.88,0.88,0.88
59.76,-5.05,-5.92,-5.05,-5.92,5.91,5.82,6.55,0.86,0.86,0.87
60.35,-5.08,-5.93,-5.09,-5.94,5.93,5.81,6.56,0.85,0.84,0.84
60.96,-5.12,-5.96,-5.12,-5.95,5.94,5.80,6.56,0.82,0.82,0.84
61.57,-5.15,-5.96,-5.15,-5.96,5.95,5.79,6.54,0.80,0.80,0.80
62.18,-5.17,-5.95,-5.17,-5.96,5.95,5.78,6.53,0.78,0.78,0.78
62.80,-5.19,-5.96,-5.19,-5.95,5.96,5.77,6.50,0.76,0.77,0.77
63.43,-5.20,-5.95,-5.20,-5.95,5.96,5.77,6.47,0.76,0.75,0.75
64.07,-5.21,-5.95,-5.21,-5.95,5.96,5.76,6.43,0.75,0.75,0.74
64.71,-5.22,-5.95,-5.22,-5.95,5.96,5.76,6.38,0.74,0.74,0.73
65.35,-5.22,-5.95,-5.23,-5.95,5.96,5.76,6.33,0.74,0.73,0.72
66.01,-5.23,-5.96,-5.23,-5.96,5.96,5.76,6.27,0.73,0.73,0.72
66.67,-5.23,-5.96,-5.23,-5.96,5.96,5.77,6.20,0.72,0.72,0.73
67.33,-5.23,-5.96,-5.23,-5.96,5.95,5.77,6.13,0.72,0.72,0.73
68.01,-5.22,-5.95,-5.22,-5.95,5.94,5.78,6.05,0.72,0.72,0.73
68.69,-5.20,-5.93,-5.20,-5.93,5.92,5.78,5.97,0.72,0.72,0.73
69.37,-5.17,-5.91,-5.17,-5.91,5.90,5.79,5.88,0.73,0.73,0.73
70.07,-5.14,-5.87,-5.14,-5.88,5.88,5.79,5.79,0.73,0.74,0.73
70.77,-5.10,-5.85,-5.10,-5.85,5.84,5.80,5.70,0.74,0.74,0.75
71.48,-5.06,-5.81,-5.06,-5.81,5.81,5.80,5.60,0.75,0.74,0.75
72.19,-5.02,-5.77,-5.02,-5.77,5.77,5.80,5.50,0.75,0.75,0.74
72.91,-4.98,-5.73,-4.98,-5.73,5.73,5.79,5.40,0.75,0.75,0.75
73.64,-4.93,-5.68,-4.94,-5.68,5.69,5.77,5.30,0.75,0.75,0.74
74.38,-4.89,-5.64,-4.89,-5.64,5.64,5.75,5.20,0.75,0.75,0.75
75.12,-4.85,-5.60,-4.85,-5.60,5.60,5.72,5.10,0.75,0.75,0.74
75.87,-4.81,-5.56,-4.81,-5.56,5.56,5.68,5.00,0.74,0.75,0.75
76.63,-4.76,-5.51,-4.77,-5.51,5.51,5.64,4.90,0.75,0.75,0.75
77.40,-4.72,-5.46,-4.72,-5.46,5.47,5.58,4.80,0.74,0.75,0.74
78.17,-4.67,-5.41,-4.67,-5.42,5.42,5.51,4.70,0.75,0.75,0.73
78.95,-4.62,-5.38,-4.62,-5.37,5.37,5.44,4.61,0.75,0.75,0.75
79.74,-4.57,-5.33,-4.57,-5.32,5.32,5.36,4.51,0.74,0.74,0.75
80.54,-4.51,-5.27,-4.51,-5.27,5.26,5.28,4.42,0.75,0.75,0.75
81.35,-4.44,-5.21,-4.44,-5.20,5.20,5.19,4.33,0.76,0.76,0.76
82.16,-4.36,-5.13,-4.36,-5.14,5.14,5.10,4.24,0.77,0.78,0.77
82.98,-4.27,-5.06,-4.28,-5.06,5.07,5.00,4.16,0.80,0.79,0.79
83.81,-4.20,-5.00,-4.20,-4.99,5.01,4.91,4.08,0.80,0.81,0.80
84.65,-4.11,-4.92,-4.12,-4.93,4.94,4.81,4.00,0.82,0.82,0.81
85.50,-4.03,-4.86,-4.04,-4.86,4.86,4.72,3.92,0.83,0.83,0.83
86.35,-3.95,-4.80,-3.95,-4.79,4.79,4.62,3.85,0.83,0.84,0.85
87.22,-3.86,-4.72,-3.86,-4.72,4.71,4.53,3.77,0.84,0.85,0.85
88.09,-3.76,-4.63,-3.76,-4.63,4.62,4.44,3.71,0.86,0.86,0.87
88.97,-3.65,-4.54,-3.66,-4.54,4.53,4.35,3.64,0.88,0.88,0.88
89.86,-3.55,-4.44,-3.55,-4.44,4.44,4.26,3.58,0.89,0.89,0.89
90.76,-3.45,-4.33,-3.45,-4.34,4.35,4.17,3.52,0.89,0.89,0.88
91.66,-3.36,-4.25,-3.36,-4.24,4.24,4.09,3.46,0.88,0.89,0.89
92.58,-3.26,-4.13,-3.26,-4.14,4.14,4.00,3.40,0.88,0.88,0.87
93.51,-3.16,-4.03,-3.17,-4.03,4.03,3.92,3.35,0.87,0.87,0.87
94.44,-3.07,-3.93,-3.07,-3.93,3.92,3.83,3.30,0.85,0.85,0.85
95.39,-2.98,-3.82,-2.98,-3.82,3.81,3.75,3.25,0.83,0.83,0.84
96.34,-2.89,-3.70,-2.89,-3.70,3.69,3.67,3.21,0.80,0.80,0.81
97.30,-2.80,-3.57,-2.80,-3.58,3.57,3.58,3.17,0.76,0.76,0.77
98.28,-2.71,-3.45,-2.71,-3.45,3.44,3.50,3.13,0.73,0.73,0.74
99.26,-2.62,-3.32,-2.62,-3.32,3.32,3.41,3.09,0.70,0.70,0.70
100.25,-2.53,-3.19,-2.53,-3.19,3.20,3.33,3.05,0.67,0.67,0.66
101.25,-2.44,-3.06,-2.45,-3.07,3.09,3.24,3.02,0.64,0.64,0.62
102.27,-2.37,-2.96,-2.38,-2.96,2.98,3.15,2.98,0.61,0.60,0.58
103.29,-2.33,-2.87,-2.33,-2.87,2.88,3.07,2.95,0.54,0.55,0.53
104.32,-2.29,-2.80,-2.28,-2.78,2.78,2.98,2.92,0.49,0.50,0.50
105.37,-2.23,-2.69,-2.24,-2.70,2.69,2.89,2.89,0.46,0.45,0.46
106.42,-2.19,-2.61,-2.20,-2.61,2.61,2.79,2.87,0.41,0.41,0.42
107.48,-2.16,-2.54,-2.15,-2.53,2.52,2.70,2.84,0.36,0.37,0.38
108.56,-2.11,-2.45,-2.11,-2.45,2.45,2.60,2.81,0.34,0.34,0.34
109.64,-2.06,-2.36,-2.07,-2.37,2.37,2.51,2.79,0.31,0.30,0.30
110.74,-2.03,-2.30,-2.03,-2.29,2.30,2.41,2.76,0.27,0.27,0.27
111.85,-1.99,-2.23,-1.99,-2.23,2.23,2.31,2.74,0.24,0.23,0.24
112.97,-1.96,-2.15,-1.96,-2.16,2.16,2.21,2.71,0.20,0.20,0.19
114.10,-1.93,-2.11,-1.93,-2.10,2.10,2.12,2.69,0.17,0.17,0.17
115.24,-1.90,-2.04,-1.91,-2.04,2.04,2.02,2.66,0.14,0.14,0.13
116.39,-1.88,-1.99,-1.88,-1.99,1.99,1.93,2.63,0.10,0.11,0.11
117.55,-1.85,-1.94,-1.85,-1.94,1.94,1.84,2.60,0.09,0.09,0.09
118.73,-1.82,-1.88,-1.82,-1.89,1.89,1.76,2.57,0.07,0.07,0.06
119.92,-1.79,-1.85,-1.80,-1.85,1.85,1.68,2.54,0.06,0.06,0.05
121.12,-1.77,-1.81,-1.78,-1.81,1.82,1.62,2.51,0.04,0.04,0.04
122.33,-1.76,-1.78,-1.76,-1.78,1.78,1.56,2.48,0.02,0.02,0.02
123.55,-1.74,-1.76,-1.74,-1.75,1.75,1.51,2.44,0.00,0.01,0.02
124.79,-1.71,-1.71,-1.71,-1.72,1.71,1.47,2.41,0.00,0.00,0.00
126.03,-1.68,-1.68,-1.69,-1.68,1.68,1.43,2.37,-0.00,-0.01,-0.00
127.29,-1.67,-1.65,-1.67,-1.65,1.65,1.41,2.33,-0.02,-0.02,-0.02
128.57,-1.65,-1.61,-1.65,-1.61,1.61,1.39,2.29,-0.04,-0.04,-0.04
129.85,-1.62,-1.58,-1.63,-1.58,1.57,1.39,2.24,-0.05,-0.05,-0.05
131.15,-1.60,-1.54,-1.60,-1.54,1.53,1.38,2.20,-0.07,-0.07,-0.06
132.46,-1.57,-1.49,-1.57,-1.49,1.49,1.38,2.15,-0.08,-0.08,-0.08
133.79,-1.54,-1.46,-1.54,-1.45,1.44,1.38,2.10,-0.10,-0.10,-0.08
135.12,-1.49,-1.39,-1.50,-1.40,1.40,1.39,2.05,-0.10,-0.10,-0.11
136.48,-1.47,-1.36,-1.47,-1.35,1.35,1.39,2.00,-0.12,-0.12,-0.12
137.84,-1.43,-1.30,-1.44,-1.30,1.30,1.40,1.94,-0.13,-0.14,-0.14
139.22,-1.42,-1.26,-1.42,-1.26,1.26,1.40,1.89,-0.16,-0.16,-0.17
140.61,-1.40,-1.22,-1.40,-1.21,1.22,1.40,1.83,-0.18,-0.18,-0.19
142.02,-1.37,-1.18,-1.38,-1.18,1.18,1.40,1.78,-0.19,-0.20,-0.19
143.44,-1.36,-1.15,-1.37,-1.15,1.15,1.40,1.72,-0.21,-0.21,-0.21
144.87,-1.36,-1.12,-1.36,-1.12,1.12,1.40,1.66,-0.24,-0.24,-0.24
146.32,-1.36,-1.10,-1.36,-1.10,1.10,1.39,1.60,-0.26,-0.26,-0.27
147.78,-1.36,-1.08,-1.37,-1.08,1.08,1.39,1.54,-0.29,-0.29,-0.28
149.26,-1.37,-1.06,-1.37,-1.06,1.06,1.38,1.49,-0.31,-0.31,-0.31
150.75,-1.38,-1.04,-1.38,-1.04,1.04,1.37,1.43,-0.34,-0.34,-0.34
152.26,-1.39,-1.02,-1.40,-1.03,1.03,1.35,1.37,-0.36,-0.37,-0.37
153.78,-1.42,-1.03,-1.41,-1.02,1.02,1.34,1.31,-0.40,-0.40,-0.39
155.32,-1.43,-1.01,-1.43,-1.01,1.01,1.32,1.25,-0.42,-0.42,-0.42
156.88,-1.45,-1.01,-1.46,-1.00,1.00,1.30,1.19,-0.45,-0.45,-0.45
158.44,-1.48,-0.99,-1.49,-1.00,1.00,1.28,1.13,-0.48,-0.48,-0.49
160.03,-1.53,-1.01,-1.53,-1.00,1.01,1.26,1.07,-0.52,-0.52,-0.52
161.63,-1.57,-1.01,-1.57,-1.01,1.02,1.23,1.01,-0.56,-0.56,-0.56
163.24,-1.61,-1.02,-1.62,-1.03,1.03,1.21,0.95,-0.58,-0.59,-0.59
164.88,-1.67,-1.05,-1.67,-1.04,1.05,1.18,0.89,-0.63,-0.62,-0.62
166.53,-1.72,-1.07,-1.72,-1.07,1.07,1.15,0.83,-0.65,-0.65,-0.65
168.19,-1.76,-1.08,-1.77,-1.09,1.09,1.12,0.77,-0.67,-0.68,-0.68
169.87,-1.83,-1.12,-1.83,-1.12,1.12,1.09,0.71,-0.71,-0.71,-0.71
171.57,-1.89,-1.16,-1.89,-1.15,1.15,1.06,0.65,-0.74,-0.74,-0.74
173.29,-1.94,-1.18,-1.95,-1.19,1.18,1.03,0.60,-0.76,-0.77,-0.76
175.02,-2.01,-1.22,-2.00,-1.21,1.21,1.00,0.54,-0.80,-0.79,-0.79
176.77,-2.05,-1.24,-2.05,-1.24,1.24,0.96,0.48,-0.81,-0.81,-0.82
178.54,-2.10,-1.26,-2.10,-1.26,1.27,0.93,0.43,-0.83,-0.83,-0.84
180.32,-2.14,-1.29,-2.15,-1.29,1.30,0.89,0.37,-0.84,-0.85,-0.86
182.13,-2.19,-1.32,-2.20,-1.33,1.33,0.85,0.31,-0.86,-0.87,-0.87
183.95,-2.26,-1.38,-2.25,-1.36,1.36,0.82,0.26,-0.91,-0.89,-0.88
185.79,-2.29,-1.39,-2.29,-1.39,1.38,0.78,0.20,-0.91,-0.91,-0.90
187.65,-2.31,-1.40,-2.32,-1.41,1.41,0.74,0.15,-0.91,-0.91,-0.91
189.52,-2.33,-1.42,-2.33,-1.42,1.43,0.70,0.09,-0.91,-0.91,-0.91
191.42,-2.35,-1.43,-2.36,-1.43,1.44,0.66,0.04,-0.91,-0.92,-0.93
193.33,-2.38,-1.45,-2.38,-1.45,1.45,0.61,-0.02,-0.93,-0.93,-0.93
195.27,-2.40,-1.47,-2.40,-1.46,1.45,0.57,-0.07,-0.95,-0.94,-0.93
197.22,-2.40,-1.46,-2.40,-1.46,1.45,0.53,-0.13,-0.95,-0.95,-0.94
199.19,-2.39,-1.43,-2.40,-1.44,1.44,0.48,-0.18,-0.95,-0.96,-0.96
201.18,-2.38,-1.42,-2.38,-1.42,1.43,0.43,-0.23,-0.96,-0.96,-0.96
203.19,-2.37,-1.41,-2.37,-1.40,1.40,0.39,-0.28,-0.97,-0.96,-0.96
205.23,-2.34,-1.37,-2.34,-1.38,1.37,0.34,-0.34,-0.97,-0.97,-0.97
207.28,-2.31,-1.34,-2.31,-1.34,1.33,0.29,-0.39,-0.98,-0.98,-0.97
209.35,-2.27,-1.29,-2.27,-1.28,1.29,0.24,-0.44,-0.99,-0.98,-0.98
211.44,-2.22,-1.22,-2.22,-1.23,1.23,0.19,-0.49,-0.99,-0.99,-1.00
213.56,-2.16,-1.16,-2.16,-1.16,1.17,0.13,-0.54,-0.99,-1.00,-1.00
215.69,-2.10,-1.10,-2.10,-1.09,1.09,0.08,-0.59,-1.01,-1.00,-1.00
217.85,-2.02,-1.01,-2.03,-1.02,1.01,0.02,-0.63,-1.01,-1.02,-1.02
220.03,-1.95,-0.93,-1.95,-0.92,0.91,-0.03,-0.68,-1.04,-1.03,-1.02
222.23,-1.86,-0.82,-1.86,-0.82,0.81,-0.09,-0.72,-1.05,-1.05,-1.04
224.45,-1.74,-0.70,-1.74,-0.70,0.70,-0.15,-0.77,-1.04,-1.04,-1.04
226.70,-1.62,-0.58,-1.62,-0.57,0.58,-0.21,-0.81,-1.05,-1.04,-1.05
228.96,-1.47,-0.42,-1.49,-0.44,0.45,-0.27,-0.85,-1.02,-1.04,-1.05
231.25,-1.37,-0.31,-1.37,-0.30,0.31,-0.34,-0.89,-1.06,-1.06,-1.06
233.57,-1.25,-0.18,-1.24,-0.17,0.17,-0.40,-0.92,-1.09,-1.08,-1.07
235.90,-1.10,-0.01,-1.11,-0.02,0.01,-0.47,-0.96,-1.09,-1.10,-1.09
238.26,-0.98,0.12,-0.97,0.14,-0.14,-0.54,-0.99,-1.13,-1.11,-1.11
240.64,-0.81,0.31,-0.83,0.29,-0.30,-0.61,-1.02,-1.12,-1.13,-1.12
243.05,-0.68,0.44,-0.67,0.46,-0.46,-0.68,-1.05,-1.15,-1.14,-1.13
245.48,-0.52,0.61,-0.51,0.63,-0.62,-0.75,-1.08,-1.15,-1.13,-1.13
247.93,-0.32,0.82,-0.35,0.80,-0.78,-0.83,-1.10,-1.10,-1.13,-1.14
250.41,-0.19,0.96,-0.18,0.96,-0.94,-0.91,-1.13,-1.13,-1.12,-1.15
252.92,-0.03,1.10,-0.04,1.10,-1.09,-0.99,-1.15,-1.12,-1.13,-1.14
255.45,0.10,1.23,0.10,1.23,-1.23,-1.07,-1.17,-1.13,-1.14,-1.13
258.00,0.22,1.34,0.23,1.36,-1.37,-1.15,-1.18,-1.15,-1.14,-1.13
260.58,0.39,1.51,0.37,1.49,-1.50,-1.23,-1.20,-1.11,-1.13,-1.12
263.19,0.51,1.61,0.52,1.63,-1.63,-1.32,-1.21,-1.12,-1.11,-1.10
265.82,0.67,1.76,0.66,1.75,-1.75,-1.41,-1.22,-1.08,-1.09,-1.10
268.48,0.80,1.87,0.79,1.87,-1.86,-1.50,-1.23,-1.06,-1.07,-1.07
271.16,0.91,1.96,0.93,1.98,-1.97,-1.59,-1.24,-1.06,-1.05,-1.05
273.87,1.06,2.10,1.05,2.08,-2.08,-1.68,-1.24,-1.02,-1.03,-1.04
276.61,1.17,2.18,1.16,2.18,-2.18,-1.77,-1.25,-1.01,-1.02,-1.01
279.38,1.27,2.27,1.27,2.27,-2.27,-1.86,-1.25,-1.01,-1.01,-1.00
282.17,1.36,2.35,1.36,2.35,-2.37,-1.95,-1.26,-1.01,-1.00,-0.99
284.99,1.46,2.43,1.47,2.44,-2.45,-2.05,-1.26,-0.99,-0.98,-0.97
287.84,1.59,2.54,1.58,2.53,-2.53,-2.14,-1.26,-0.94,-0.95,-0.95
290.72,1.69,2.61,1.69,2.62,-2.60,-2.23,-1.26,-0.92,-0.92,-0.93
293.63,1.78,2.70,1.78,2.69,-2.67,-2.32,-1.26,-0.89,-0.90,-0.92
296.57,1.85,2.74,1.85,2.74,-2.73,-2.41,-1.26,-0.88,-0.88,-0.89
299.53,1.91,2.78,1.91,2.79,-2.78,-2.49,-1.26,-0.88,-0.87,-0.87
302.53,1.97,2.83,1.97,2.82,-2.83,-2.57,-1.27,-0.86,-0.86,-0.87
305.55,2.03,2.86,2.03,2.86,-2.87,-2.65,-1.27,-0.84,-0.84,-0.83
308.61,2.09,2.90,2.09,2.89,-2.90,-2.73,-1.27,-0.81,-0.81,-0.81
311.69,2.15,2.93,2.15,2.92,-2.93,-2.80,-1.27,-0.79,-0.79,-0.78
314.81,2.20,2.94,2.20,2.95,-2.96,-2.86,-1.27,-0.77,-0.76,-0.74
317.96,2.26,2.98,2.26,2.98,-2.99,-2.92,-1.28,-0.73,-0.74,-0.73
321.14,2.31,3.02,2.31,3.01,-3.01,-2.97,-1.28,-0.70,-0.70,-0.71
324.35,2.35,3.04,2.35,3.04,-3.02,-3.01,-1.29,-0.68,-0.67,-0.69
327.59,2.39,3.05,2.38,3.05,-3.03,-3.05,-1.29,-0.64,-0.65,-0.66
330.87,2.40,3.04,2.40,3.04,-3.02,-3.07,-1.30,-0.62,-0.63,-0.64
334.18,2.40,3.01,2.40,3.02,-3.01,-3.09,-1.31,-0.61,-0.61,-0.61
337.52,2.39,2.98,2.39,2.98,-2.99,-3.10,-1.31,-0.60,-0.60,-0.60
340.90,2.38,2.94,2.38,2.95,-2.96,-3.11,-1.32,-0.58,-0.58,-0.57
344.30,2.37,2.91,2.37,2.91,-2.92,-3.10,-1.33,-0.55,-0.55,-0.54
347.75,2.36,2.88,2.36,2.88,-2.88,-3.09,-1.35,-0.52,-0.52,-0.52
351.23,2.35,2.84,2.35,2.84,-2.83,-3.07,-1.36,-0.48,-0.48,-0.49
354.74,2.33,2.79,2.32,2.79,-2.77,-3.04,-1.37,-0.44,-0.45,-0.46
358.28,2.29,2.73,2.29,2.72,-2.71,-3.00,-1.39,-0.43,-0.43,-0.44
361.87,2.24,2.65,2.24,2.65,-2.65,-2.96,-1.41,-0.41,-0.41,-0.41
365.49,2.19,2.57,2.19,2.58,-2.59,-2.91,-1.42,-0.40,-0.40,-0.39
369.14,2.15,2.52,2.15,2.52,-2.53,-2.86,-1.44,-0.38,-0.38,-0.38
372.83,2.11,2.46,2.11,2.45,-2.47,-2.80,-1.46,-0.36,-0.36,-0.35
376.56,2.07,2.40,2.07,2.40,-2.41,-2.74,-1.48,-0.34,-0.34,-0.33
380.33,2.05,2.34,2.05,2.35,-2.36,-2.68,-1.51,-0.31,-0.31,-0.29
384.13,2.03,2.31,2.03,2.31,-2.31,-2.61,-1.53,-0.28,-0.28,-0.28
387.97,2.02,2.28,2.01,2.27,-2.26,-2.54,-1.55,-0.24,-0.25,-0.26
391.85,1.98,2.23,1.98,2.22,-2.21,-2.47,-1.58,-0.23,-0.23,-0.25
395.77,1.94,2.16,1.94,2.17,-2.16,-2.40,-1.60,-0.22,-0.22,-0.22
399.73,1.89,2.10,1.89,2.11,-2.11,-2.33,-1.63,-0.22,-0.21,-0.21
403.72,1.85,2.06,1.84,2.05,-2.05,-2.26,-1.65,-0.21,-0.21,-0.21
407.76,1.80,2.00,1.80,2.00,-2.00,-2.19,-1.68,-0.21,-0.21,-0.20
411.84,1.75,1.94,1.75,1.95,-1.96,-2.12,-1.71,-0.21,-0.20,-0.20
415.96,1.71,1.90,1.71,1.90,-1.91,-2.05,-1.74,-0.20,-0.21,-0.20
420.12,1.67,1.86,1.67,1.86,-1.87,-1.98,-1.76,-0.21,-0.20,-0.20
424.32,1.64,1.83,1.64,1.84,-1.84,-1.91,-1.79,-0.20,-0.20,-0.20
428.56,1.62,1.82,1.62,1.82,-1.81,-1.84,-1.82,-0.20,-0.20,-0.20
432.85,1.60,1.81,1.59,1.80,-1.79,-1.78,-1.84,-0.19,-0.20,-0.21
437.18,1.57,1.78,1.57,1.78,-1.77,-1.72,-1.87,-0.20,-0.20,-0.21
441.55,1.55,1.76,1.55,1.76,-1.76,-1.65,-1.89,-0.21,-0.21,-0.21
445.96,1.53,1.75,1.53,1.74,-1.75,-1.59,-1.91,-0.22,-0.22,-0.22
450.42,1.51,1.73,1.51,1.73,-1.74,-1.54,-1.93,-0.23,-0.23,-0.22
454.93,1.51,1.73,1.51,1.73,-1.74,-1.48,-1.95,-0.23,-0.23,-0.22
