frequency,raw,error,smoothed,error_smoothed,equalization,parametric_eq,fixed_band_eq,equalized_raw,equalized_smoothed,target
20.00,-1.50,-1.53,-1.49,-1.54,1.54,1.22,0.89,0.04,0.05,0.03
20.20,-1.50,-1.56,-1.48,-1.56,1.56,1.24,0.91,0.06,0.08,0.06
20.40,-1.50,-1.59,-1.48,-1.58,1.58,1.26,0.94,0.08,0.10,0.09
20.61,-1.49,-1.60,-1.49,-1.60,1.60,1.28,0.97,0.11,0.11,0.11
20.81,-1.49,-1.63,-1.49,-1.62,1.62,1.30,0.99,0.13,0.13,0.14
21.02,-1.49,-1.66,-1.49,-1.64,1.64,1.31,1.02,0.15,0.15,0.17
21.23,-1.49,-1.67,-1.50,-1.66,1.66,1.33,1.05,0.17,0.16,0.18
21.44,-1.49,-1.68,-1.50,-1.68,1.68,1.35,1.08,0.19,0.17,0.19
21.66,-1.49,-1.69,-1.51,-1.70,1.70,1.37,1.11,0.21,0.19,0.20
21.87,-1.49,-1.69,-1.52,-1.72,1.72,1.39,1.14,0.23,0.19,0.20
22.09,-1.50,-1.71,-1.53,-1.73,1.73,1.41,1.18,0.24,0.20,0.21
22.31,-1.53,-1.74,-1.54,-1.75,1.75,1.43,1.21,0.22,0.21,0.21
22.54,-1.56,-1.77,-1.56,-1.77,1.77,1.45,1.25,0.21,0.21,0.21
22.76,-1.59,-1.80,-1.58,-1.79,1.79,1.47,1.28,0.20,0.21,0.21
22.99,-1.62,-1.82,-1.60,-1.81,1.81,1.49,1.32,0.19,0.21,0.20
23.22,-1.64,-1.84,-1.62,-1.83,1.83,1.51,1.35,0.19,0.21,0.20
23.45,-1.66,-1.86,-1.64,-1.84,1.84,1.53,1.39,0.19,0.21,0.20
23.69,-1.68,-1.87,-1.66,-1.86,1.86,1.55,1.43,0.19,0.20,0.20
23.92,-1.69,-1.89,-1.68,-1.88,1.88,1.58,1.47,0.19,0.20,0.20
24.16,-1.71,-1.91,-1.70,-1.90,1.90,1.60,1.51,0.19,0.20,0.21
24.40,-1.72,-1.92,-1.72,-1.91,1.91,1.62,1.55,0.20,0.20,0.21
24.65,-1.73,-1.92,-1.73,-1.93,1.93,1.64,1.59,0.20,0.20,0.20
24.89,-1.74,-1.93,-1.75,-1.94,1.94,1.66,1.63,0.21,0.19,0.20
25.14,-1.76,-1.95,-1.77,-1.96,1.96,1.68,1.67,0.20,0.19,0.19
25.39,-1.78,-1.97,-1.78,-1.98,1.98,1.70,1.71,0.20,0.19,0.19
25.65,-1.80,-1.99,-1.80,-2.00,2.00,1.73,1.76,0.20,0.19,0.19
25.91,-1.82,-2.00,-1.83,-2.02,2.02,1.75,1.80,0.20,0.19,0.18
26.16,-1.85,-2.03,-1.85,-2.04,2.04,1.77,1.84,0.19,0.19,0.18
26.43,-1.87,-2.05,-1.87,-2.06,2.06,1.79,1.88,0.19,0.18,0.18
26.69,-1.90,-2.08,-1.90,-2.08,2.08,1.81,1.92,0.18,0.18,0.18
26.96,-1.93,-2.11,-1.93,-2.11,2.11,1.84,1.96,0.18,0.18,0.18
27.23,-1.96,-2.14,-1.96,-2.14,2.14,1.86,2.01,0.18,0.18,0.18
27.50,-1.99,-2.17,-1.99,-2.16,2.16,1.88,2.04,0.18,0.17,0.18
27.77,-2.02,-2.19,-2.02,-2.19,2.19,1.90,2.08,0.18,0.17,0.17
28.05,-2.05,-2.22,-2.06,-2.22,2.22,1.93,2.12,0.17,0.17,0.17
28.33,-2.08,-2.23,-2.09,-2.25,2.25,1.95,2.16,0.17,0.16,0.16
28.62,-2.11,-2.26,-2.12,-2.28,2.28,1.97,2.19,0.17,0.16,0.16
28.90,-2.13,-2.28,-2.14,-2.30,2.30,1.99,2.23,0.17,0.16,0.16
29.19,-2.16,-2.30,-2.16,-2.32,2.32,2.02,2.26,0.16,0.15,0.14
29.48,-2.18,-2.33,-2.18,-2.33,2.33,2.04,2.29,0.15,0.15,0.15
29.78,-2.20,-2.34,-2.19,-2.33,2.33,2.06,2.31,0.13,0.14,0.14
30.08,-2.22,-2.36,-2.18,-2.32,2.32,2.08,2.34,0.10,0.14,0.14
30.38,-2.20,-2.33,-2.17,-2.30,2.30,2.11,2.36,0.11,0.13,0.13
30.68,-2.19,-2.32,-2.15,-2.28,2.28,2.13,2.38,0.09,0.13,0.13
30.99,-2.17,-2.29,-2.12,-2.24,2.24,2.15,2.40,0.07,0.12,0.12
31.30,-2.12,-2.24,-2.07,-2.19,2.19,2.17,2.42,0.07,0.12,0.12
31.61,-2.07,-2.18,-2.02,-2.14,2.14,2.20,2.43,0.07,0.11,0.12
31.93,-2.01,-2.11,-1.97,-2.08,2.08,2.22,2.44,0.07,0.11,0.10
32.24,-1.94,-2.03,-1.92,-2.01,2.01,2.24,2.45,0.08,0.10,0.09
32.57,-1.86,-1.95,-1.86,-1.95,1.95,2.26,2.45,0.10,0.09,0.09
32.89,-1.79,-1.88,-1.81,-1.90,1.90,2.28,2.46,0.11,0.09,0.09
33.22,-1.73,-1.81,-1.77,-1.85,1.85,2.31,2.46,0.12,0.08,0.08
33.55,-1.68,-1.75,-1.74,-1.81,1.81,2.33,2.46,0.13,0.07,0.08
33.89,-1.64,-1.70,-1.72,-1.78,1.78,2.35,2.46,0.15,0.07,0.07
34.23,-1.64,-1.70,-1.71,-1.77,1.77,2.37,2.46,0.13,0.06,0.06
34.57,-1.67,-1.72,-1.72,-1.77,1.77,2.39,2.46,0.11,0.05,0.05
34.92,-1.70,-1.74,-1.75,-1.79,1.79,2.41,2.45,0.09,0.04,0.04
35.27,-1.76,-1.79,-1.78,-1.82,1.82,2.44,2.45,0.06,0.03,0.04
35.62,-1.82,-1.84,-1.83,-1.85,1.85,2.46,2.44,0.04,0.03,0.03
35.97,-1.89,-1.90,-1.88,-1.89,1.89,2.48,2.43,0.01,0.02,0.01
36.33,-1.96,-1.97,-1.93,-1.94,1.94,2.50,2.43,-0.02,0.01,0.01
36.70,-2.03,-2.03,-1.98,-1.98,1.98,2.52,2.42,-0.05,-0.00,-0.00
37.06,-2.10,-2.09,-2.03,-2.02,2.02,2.54,2.41,-0.07,-0.01,-0.01
37.43,-2.15,-2.13,-2.08,-2.06,2.06,2.56,2.41,-0.08,-0.02,-0.02
37.81,-2.20,-2.17,-2.13,-2.10,2.10,2.58,2.40,-0.10,-0.03,-0.03
38.19,-2.22,-2.18,-2.17,-2.13,2.13,2.60,2.40,-0.08,-0.04,-0.04
38.57,-2.23,-2.18,-2.21,-2.16,2.16,2.62,2.39,-0.06,-0.05,-0.04
38.95,-2.24,-2.18,-2.25,-2.19,2.19,2.64,2.39,-0.04,-0.06,-0.06
39.34,-2.26,-2.19,-2.29,-2.22,2.22,2.66,2.39,-0.03,-0.07,-0.07
39.74,-2.28,-2.20,-2.33,-2.26,2.26,2.67,2.39,-0.02,-0.07,-0.08
40.14,-2.32,-2.23,-2.37,-2.29,2.29,2.69,2.39,-0.03,-0.08,-0.09
40.54,-2.38,-2.28,-2.42,-2.33,2.33,2.71,2.39,-0.05,-0.09,-0.10
40.94,-2.44,-2.34,-2.47,-2.37,2.37,2.73,2.39,-0.07,-0.10,-0.10
41.35,-2.51,-2.39,-2.53,-2.42,2.42,2.74,2.40,-0.09,-0.11,-0.12
41.76,-2.58,-2.46,-2.59,-2.47,2.47,2.76,2.41,-0.11,-0.12,-0.12
42.18,-2.65,-2.52,-2.65,-2.52,2.52,2.78,2.41,-0.13,-0.13,-0.12
42.60,-2.73,-2.59,-2.72,-2.57,2.57,2.79,2.42,-0.15,-0.14,-0.14
43.03,-2.80,-2.66,-2.78,-2.63,2.63,2.81,2.44,-0.17,-0.16,-0.14
43.46,-2.86,-2.70,-2.84,-2.67,2.67,2.82,2.45,-0.18,-0.17,-0.16
43.90,-2.93,-2.75,-2.89,-2.72,2.72,2.84,2.47,-0.21,-0.18,-0.18
44.33,-2.98,-2.78,-2.94,-2.75,2.75,2.85,2.48,-0.22,-0.19,-0.20
44.78,-3.03,-2.82,-2.99,-2.79,2.79,2.87,2.50,-0.24,-0.20,-0.21
45.23,-3.07,-2.84,-3.03,-2.81,2.81,2.88,2.53,-0.25,-0.22,-0.23
45.68,-3.08,-2.84,-3.06,-2.83,2.83,2.89,2.55,-0.25,-0.23,-0.24
46.13,-3.09,-2.83,-3.09,-2.84,2.84,2.91,2.58,-0.25,-0.25,-0.26
46.60,-3.09,-2.83,-3.11,-2.84,2.84,2.92,2.60,-0.24,-0.27,-0.26
47.06,-3.09,-2.81,-3.12,-2.84,2.84,2.93,2.63,-0.25,-0.28,-0.28
47.53,-3.12,-2.82,-3.14,-2.84,2.84,2.94,2.66,-0.28,-0.30,-0.29
48.01,-3.14,-2.84,-3.15,-2.83,2.83,2.95,2.69,-0.31,-0.32,-0.30
48.49,-3.18,-2.85,-3.16,-2.82,2.82,2.96,2.73,-0.36,-0.34,-0.33
48.97,-3.22,-2.86,-3.17,-2.81,2.81,2.97,2.76,-0.41,-0.36,-0.35
49.46,-3.20,-2.82,-3.18,-2.80,2.80,2.98,2.80,-0.39,-0.37,-0.38
49.96,-3.18,-2.77,-3.19,-2.80,2.80,2.99,2.84,-0.38,-0.39,-0.41
50.46,-3.19,-2.77,-3.21,-2.80,2.80,3.00,2.88,-0.39,-0.41,-0.42
50.96,-3.20,-2.76,-3.23,-2.80,2.80,3.00,2.92,-0.40,-0.43,-0.43
51.47,-3.24,-2.78,-3.26,-2.80,2.80,3.01,2.96,-0.43,-0.45,-0.46
51.99,-3.29,-2.81,-3.28,-2.81,2.81,3.02,3.00,-0.48,-0.47,-0.48
52.51,-3.32,-2.83,-3.32,-2.82,2.82,3.02,3.04,-0.50,-0.49,-0.49
53.03,-3.35,-2.84,-3.35,-2.84,2.84,3.03,3.08,-0.51,-0.51,-0.51
53.56,-3.40,-2.87,-3.39,-2.86,2.86,3.03,3.12,-0.54,-0.53,-0.53
54.10,-3.44,-2.89,-3.44,-2.89,2.89,3.03,3.16,-0.55,-0.55,-0.55
54.64,-3.49,-2.92,-3.50,-2.93,2.93,3.04,3.20,-0.56,-0.57,-0.57
55.18,-3.55,-2.96,-3.56,-2.98,2.98,3.04,3.23,-0.57,-0.58,-0.59
55.74,-3.60,-2.99,-3.63,-3.03,3.03,3.04,3.27,-0.57,-0.60,-0.61
56.29,-3.67,-3.05,-3.70,-3.08,3.08,3.04,3.30,-0.59,-0.62,-0.62
56.86,-3.75,-3.11,-3.77,-3.13,3.13,3.04,3.33,-0.62,-0.64,-0.64
57.42,-3.83,-3.16,-3.84,-3.18,3.18,3.04,3.36,-0.65,-0.65,-0.66
58.00,-3.92,-3.24,-3.91,-3.23,3.23,3.04,3.39,-0.68,-0.67,-0.68
58.58,-3.99,-3.30,-3.97,-3.28,3.28,3.04,3.41,-0.71,-0.69,-0.69
59.16,-4.06,-3.36,-4.04,-3.33,3.33,3.04,3.43,-0.73,-0.71,-0.70
59.76,-4.12,-3.40,-4.09,-3.36,3.36,3.04,3.45,-0.76,-0.73,-0.72
60.35,-4.17,-3.43,-4.14,-3.39,3.39,3.03,3.46,-0.78,-0.75,-0.74
60.96,-4.22,-3.46,-4.18,-3.41,3.41,3.03,3.47,-0.80,-0.77,-0.75
61.57,-4.24,-3.45,-4.22,-3.43,3.43,3.02,3.47,-0.81,-0.79,-0.79
62.18,-4.26,-3.44,-4.25,-3.44,3.44,3.02,3.47,-0.82,-0.81,-0.81
62.80,-4.29,-3.46,-4.27,-3.44,3.44,3.01,3.46,-0.85,-0.83,-0.83
63.43,-4.30,-3.44,-4.28,-3.43,3.43,3.00,3.45,-0.86,-0.85,-0.86
64.07,-4.30,-3.42,-4.29,-3.42,3.42,3.00,3.44,-0.88,-0.87,-0.87
64.71,-4.27,-3.38,-4.29,-3.41,3.41,2.99,3.42,-0.86,-0.89,-0.89
65.35,-4.26,-3.35,-4.30,-3.39,3.39,2.98,3.40,-0.87,-0.91,-0.91
66.01,-4.26,-3.33,-4.30,-3.37,3.37,2.97,3.38,-0.89,-0.93,-0.93
66.67,-4.29,-3.34,-4.30,-3.35,3.35,2.96,3.35,-0.93,-0.95,-0.95
67.33,-4.30,-3.33,-4.30,-3.33,3.33,2.95,3.31,-0.96,-0.97,-0.97
68.01,-4.30,-3.31,-4.30,-3.31,3.31,2.93,3.28,-0.99,-0.99,-0.99
68.69,-4.30,-3.29,-4.30,-3.29,3.29,2.92,3.24,-1.01,-1.01,-1.01
69.37,-4.30,-3.27,-4.30,-3.27,3.27,2.91,3.20,-1.03,-1.03,-1.03
70.07,-4.30,-3.25,-4.30,-3.25,3.25,2.89,3.15,-1.05,-1.05,-1.05
70.77,-4.30,-3.23,-4.29,-3.22,3.22,2.88,3.11,-1.08,-1.07,-1.06
71.48,-4.30,-3.21,-4.28,-3.19,3.19,2.87,3.06,-1.11,-1.09,-1.09
72.19,-4.29,-3.18,-4.27,-3.16,3.16,2.85,3.01,-1.13,-1.11,-1.11
72.91,-4.26,-3.12,-4.25,-3.12,3.12,2.83,2.96,-1.14,-1.13,-1.13
73.64,-4.23,-3.07,-4.23,-3.07,3.07,2.82,2.91,-1.15,-1.15,-1.16
74.38,-4.21,-3.03,-4.20,-3.02,3.02,2.80,2.86,-1.18,-1.17,-1.17
75.12,-4.19,-2.99,-4.16,-2.97,2.97,2.78,2.81,-1.22,-1.19,-1.20
75.87,-4.16,-2.94,-4.13,-2.92,2.92,2.76,2.76,-1.24,-1.21,-1.22
76.63,-4.11,-2.87,-4.09,-2.86,2.86,2.74,2.71,-1.25,-1.23,-1.23
77.40,-4.05,-2.80,-4.05,-2.79,2.79,2.72,2.66,-1.25,-1.25,-1.25
78.17,-4.00,-2.72,-4.01,-2.73,2.73,2.70,2.61,-1.26,-1.27,-1.28
78.95,-3.95,-2.66,-3.97,-2.67,2.67,2.68,2.56,-1.27,-1.29,-1.29
79.74,-3.92,-2.61,-3.93,-2.62,2.62,2.66,2.51,-1.30,-1.31,-1.31
80.54,-3.89,-2.56,-3.90,-2.57,2.57,2.63,2.47,-1.32,-1.33,-1.33
81.35,-3.86,-2.51,-3.88,-2.53,2.53,2.61,2.42,-1.33,-1.35,-1.35
82.16,-3.84,-2.47,-3.86,-2.49,2.49,2.59,2.38,-1.35,-1.37,-1.37
82.98,-3.80,-2.42,-3.84,-2.45,2.45,2.56,2.33,-1.35,-1.39,-1.38
83.81,-3.78,-2.36,-3.83,-2.42,2.42,2.54,2.29,-1.36,-1.41,-1.41
84.65,-3.78,-2.34,-3.81,-2.38,2.38,2.51,2.25,-1.40,-1.43,-1.44
85.50,-3.80,-2.35,-3.80,-2.35,2.35,2.49,2.21,-1.45,-1.45,-1.45
86.35,-3.83,-2.35,-3.79,-2.32,2.32,2.46,2.18,-1.51,-1.48,-1.47
87.22,-3.83,-2.33,-3.78,-2.28,2.28,2.43,2.14,-1.55,-1.50,-1.50
88.09,-3.83,-2.30,-3.76,-2.24,2.24,2.41,2.11,-1.59,-1.52,-1.52
88.97,-3.81,-2.27,-3.74,-2.19,2.19,2.38,2.08,-1.61,-1.55,-1.54
89.86,-3.77,-2.20,-3.72,-2.15,2.15,2.35,2.05,-1.62,-1.57,-1.57
90.76,-3.72,-2.12,-3.70,-2.10,2.10,2.32,2.02,-1.62,-1.60,-1.60
91.66,-3.68,-2.06,-3.68,-2.05,2.05,2.29,1.99,-1.62,-1.62,-1.62
92.58,-3.64,-1.98,-3.66,-2.01,2.01,2.26,1.97,-1.63,-1.65,-1.65
93.51,-3.61,-1.94,-3.64,-1.96,1.96,2.23,1.94,-1.64,-1.68,-1.67
94.44,-3.59,-1.89,-3.63,-1.92,1.92,2.20,1.92,-1.67,-1.70,-1.70
95.39,-3.57,-1.84,-3.62,-1.89,1.89,2.17,1.90,-1.68,-1.73,-1.73
96.34,-3.58,-1.81,-3.62,-1.86,1.86,2.14,1.88,-1.72,-1.76,-1.77
97.30,-3.61,-1.81,-3.63,-1.84,1.84,2.11,1.86,-1.76,-1.79,-1.79
98.28,-3.62,-1.79,-3.66,-1.84,1.84,2.08,1.84,-1.78,-1.82,-1.82
99.26,-3.66,-1.81,-3.69,-1.84,1.84,2.04,1.83,-1.81,-1.85,-1.85
100.25,-3.69,-1.81,-3.73,-1.85,1.85,2.01,1.81,-1.83,-1.88,-1.88
101.25,-3.76,-1.85,-3.78,-1.87,1.87,1.98,1.80,-1.89,-1.91,-1.91
102.27,-3.83,-1.89,-3.82,-1.88,1.88,1.95,1.79,-1.95,-1.94,-1.94
103.29,-3.89,-1.91,-3.86,-1.89,1.89,1.91,1.78,-1.99,-1.97,-1.98
104.32,-3.94,-1.94,-3.90,-1.90,1.90,1.88,1.77,-2.04,-2.00,-2.00
105.37,-3.97,-1.94,-3.93,-1.90,1.90,1.85,1.75,-2.07,-2.03,-2.03
106.42,-4.02,-1.96,-3.94,-1.89,1.89,1.81,1.74,-2.13,-2.06,-2.06
107.48,-4.03,-1.94,-3.95,-1.86,1.86,1.78,1.73,-2.16,-2.09,-2.09
108.56,-4.01,-1.88,-3.95,-1.83,1.83,1.74,1.73,-2.18,-2.12,-2.13
109.64,-3.98,-1.82,-3.95,-1.79,1.79,1.71,1.72,-2.19,-2.16,-2.15
110.74,-3.94,-1.75,-3.93,-1.74,1.74,1.68,1.71,-2.20,-2.19,-2.18
111.85,-3.90,-1.69,-3.91,-1.69,1.69,1.64,1.70,-2.21,-2.22,-2.21
112.97,-3.87,-1.61,-3.88,-1.62,1.62,1.61,1.68,-2.24,-2.26,-2.26
114.10,-3.83,-1.54,-3.85,-1.56,1.56,1.57,1.67,-2.27,-2.29,-2.29
115.24,-3.79,-1.46,-3.82,-1.50,1.50,1.54,1.66,-2.29,-2.33,-2.33
116.39,-3.77,-1.40,-3.80,-1.44,1.44,1.50,1.65,-2.33,-2.36,-2.37
117.55,-3.74,-1.33,-3.78,-1.38,1.38,1.46,1.63,-2.36,-2.40,-2.40
118.73,-3.74,-1.30,-3.76,-1.33,1.33,1.43,1.62,-2.41,-2.43,-2.44
119.92,-3.74,-1.27,-3.75,-1.28,1.28,1.39,1.60,-2.46,-2.47,-2.47
121.12,-3.74,-1.23,-3.75,-1.24,1.24,1.36,1.58,-2.50,-2.50,-2.51
122.33,-3.75,-1.21,-3.75,-1.21,1.21,1.32,1.56,-2.54,-2.54,-2.54
123.55,-3.77,-1.20,-3.76,-1.18,1.18,1.29,1.54,-2.58,-2.58,-2.57
124.79,-3.78,-1.18,-3.77,-1.16,1.16,1.25,1.52,-2.62,-2.61,-2.60
126.03,-3.78,-1.14,-3.79,-1.14,1.14,1.21,1.50,-2.63,-2.64,-2.64
127.29,-3.81,-1.14,-3.80,-1.13,1.13,1.18,1.47,-2.68,-2.68,-2.67
128.57,-3.84,-1.12,-3.82,-1.11,1.11,1.14,1.44,-2.73,-2.71,-2.72
129.85,-3.87,-1.12,-3.84,-1.10,1.10,1.11,1.41,-2.77,-2.75,-2.75
131.15,-3.88,-1.09,-3.87,-1.09,1.09,1.07,1.38,-2.79,-2.78,-2.78
132.46,-3.90,-1.08,-3.89,-1.08,1.08,1.04,1.35,-2.82,-2.81,-2.82
133.79,-3.93,-1.09,-3.93,-1.08,1.08,1.00,1.31,-2.85,-2.84,-2.84
135.12,-3.96,-1.08,-3.97,-1.09,1.09,0.97,1.28,-2.87,-2.87,-2.88
136.48,-3.99,-1.09,-4.01,-1.11,1.11,0.93,1.24,-2.88,-2.90,-2.90
137.84,-4.00,-1.07,-4.05,-1.12,1.12,0.89,1.20,-2.88,-2.93,-2.93
139.22,-4.04,-1.07,-4.10,-1.14,1.14,0.86,1.16,-2.90,-2.96,-2.97
140.61,-4.08,-1.08,-4.14,-1.15,1.15,0.82,1.12,-2.93,-2.99,-3.00
142.02,-4.13,-1.12,-4.17,-1.16,1.16,0.79,1.08,-2.97,-3.01,-3.01
143.44,-4.21,-1.17,-4.20,-1.17,1.17,0.75,1.04,-3.04,-3.04,-3.04
144.87,-4.27,-1.21,-4.22,-1.16,1.16,0.72,1.00,-3.11,-3.06,-3.06
146.32,-4.35,-1.26,-4.23,-1.15,1.15,0.68,0.95,-3.20,-3.09,-3.09
147.78,-4.38,-1.27,-4.24,-1.13,1.13,0.65,0.91,-3.25,-3.11,-3.11
149.26,-4.34,-1.21,-4.24,-1.10,1.10,0.62,0.86,-3.23,-3.14,-3.13
150.75,-4.28,-1.11,-4.24,-1.08,1.08,0.58,0.82,-3.20,-3.17,-3.17
152.26,-4.23,-1.04,-4.23,-1.04,1.04,0.55,0.77,-3.19,-3.19,-3.19
153.78,-4.18,-0.96,-4.22,-1.00,1.00,0.51,0.72,-3.18,-3.22,-3.21
155.32,-4.14,-0.89,-4.19,-0.95,0.95,0.48,0.68,-3.19,-3.25,-3.25
156.88,-4.09,-0.82,-4.17,-0.89,0.89,0.45,0.63,-3.20,-3.27,-3.27
158.44,-4.04,-0.74,-4.13,-0.83,0.83,0.41,0.58,-3.21,-3.30,-3.30
160.03,-4.02,-0.68,-4.09,-0.76,0.76,0.38,0.54,-3.25,-3.33,-3.33
161.63,-4.08,-0.71,-4.06,-0.70,0.70,0.35,0.49,-3.38,-3.36,-3.36
163.24,-4.07,-0.67,-4.02,-0.63,0.63,0.31,0.44,-3.43,-3.39,-3.39
164.88,-4.05,-0.63,-3.99,-0.57,0.57,0.28,0.40,-3.47,-3.42,-3.41
166.53,-4.00,-0.55,-3.96,-0.52,0.52,0.25,0.35,-3.48,-3.44,-3.44
168.19,-3.95,-0.48,-3.94,-0.46,0.46,0.22,0.30,-3.48,-3.47,-3.47
169.87,-3.92,-0.42,-3.91,-0.41,0.41,0.19,0.26,-3.51,-3.50,-3.50
171.57,-3.87,-0.34,-3.88,-0.35,0.35,0.15,0.21,-3.52,-3.53,-3.53
173.29,-3.83,-0.27,-3.85,-0.28,0.28,0.12,0.16,-3.54,-3.56,-3.56
175.02,-3.80,-0.22,-3.81,-0.22,0.22,0.09,0.11,-3.58,-3.59,-3.58
176.77,-3.76,-0.14,-3.77,-0.15,0.15,0.06,0.07,-3.61,-3.62,-3.62
178.54,-3.73,-0.07,-3.72,-0.07,0.07,0.03,0.02,-3.65,-3.65,-3.65
180.32,-3.69,-0.01,-3.67,0.00,-0.00,0.00,-0.03,-3.69,-3.68,-3.68
182.13,-3.64,0.07,-3.63,0.08,-0.08,-0.03,-0.07,-3.71,-3.71,-3.70
183.95,-3.60,0.14,-3.59,0.15,-0.15,-0.06,-0.12,-3.74,-3.73,-3.74
185.79,-3.55,0.21,-3.55,0.21,-0.21,-0.09,-0.17,-3.76,-3.76,-3.76
187.65,-3.51,0.29,-3.51,0.28,-0.28,-0.12,-0.21,-3.79,-3.79,-3.79
189.52,-3.46,0.36,-3.47,0.34,-0.34,-0.15,-0.26,-3.80,-3.82,-3.82
191.42,-3.42,0.42,-3.44,0.40,-0.40,-0.18,-0.31,-3.82,-3.84,-3.84
193.33,-3.38,0.48,-3.40,0.47,-0.47,-0.20,-0.35,-3.84,-3.86,-3.86
195.27,-3.36,0.53,-3.36,0.53,-0.53,-0.23,-0.40,-3.88,-3.89,-3.88
197.22,-3.33,0.58,-3.32,0.58,-0.58,-0.26,-0.45,-3.91,-3.91,-3.91
199.19,-3.30,0.64,-3.29,0.64,-0.64,-0.29,-0.49,-3.94,-3.92,-3.94
201.18,-3.27,0.68,-3.25,0.69,-0.69,-0.32,-0.54,-3.96,-3.94,-3.95
203.19,-3.24,0.72,-3.22,0.74,-0.74,-0.34,-0.58,-3.98,-3.96,-3.96
205.23,-3.20,0.78,-3.19,0.79,-0.79,-0.37,-0.63,-3.98,-3.97,-3.98
207.28,-3.15,0.83,-3.15,0.83,-0.83,-0.40,-0.67,-3.98,-3.99,-3.98
209.35,-3.12,0.88,-3.12,0.88,-0.88,-0.42,-0.72,-3.99,-4.00,-4.00
211.44,-3.09,0.93,-3.09,0.92,-0.92,-0.45,-0.76,-4.00,-4.01,-4.01
213.56,-3.06,0.96,-3.06,0.96,-0.96,-0.47,-0.80,-4.01,-4.01,-4.01
215.69,-3.01,1.00,-3.03,0.99,-0.99,-0.50,-0.84,-4.00,-4.02,-4.01
217.85,-3.00,1.02,-3.00,1.03,-1.03,-0.52,-0.88,-4.02,-4.02,-4.02
220.03,-2.97,1.06,-2.97,1.06,-1.06,-0.55,-0.92,-4.02,-4.02,-4.03
222.23,-2.94,1.10,-2.94,1.08,-1.08,-0.57,-0.96,-4.02,-4.02,-4.03
224.45,-2.92,1.10,-2.92,1.11,-1.11,-0.60,-1.00,-4.02,-4.02,-4.02
226.70,-2.89,1.13,-2.89,1.13,-1.13,-0.62,-1.03,-4.01,-4.02,-4.02
228.96,-2.87,1.15,-2.87,1.15,-1.15,-0.64,-1.07,-4.01,-4.02,-4.01
231.25,-2.84,1.16,-2.85,1.16,-1.16,-0.67,-1.10,-4.00,-4.01,-4.00
233.57,-2.83,1.17,-2.83,1.17,-1.17,-0.69,-1.13,-4.00,-4.00,-4.00
235.90,-2.83,1.17,-2.81,1.18,-1.18,-0.71,-1.16,-4.01,-3.99,-3.99
238.26,-2.80,1.19,-2.79,1.19,-1.19,-0.73,-1.19,-3.99,-3.98,-3.99
240.64,-2.79,1.19,-2.78,1.20,-1.20,-0.76,-1.21,-3.98,-3.97,-3.97
243.05,-2.76,1.20,-2.76,1.20,-1.20,-0.78,-1.23,-3.96,-3.96,-3.96
245.48,-2.74,1.21,-2.75,1.20,-1.20,-0.80,-1.25,-3.93,-3.95,-3.95
247.93,-2.74,1.19,-2.74,1.19,-1.19,-0.82,-1.27,-3.93,-3.93,-3.93
250.41,-2.71,1.22,-2.72,1.19,-1.19,-0.84,-1.29,-3.90,-3.92,-3.93
252.92,-2.70,1.20,-2.71,1.18,-1.18,-0.86,-1.30,-3.88,-3.90,-3.90
255.45,-2.70,1.18,-2.70,1.18,-1.18,-0.88,-1.31,-3.88,-3.88,-3.87
258.00,-2.69,1.17,-2.69,1.17,-1.17,-0.90,-1.32,-3.86,-3.86,-3.86
260.58,-2.67,1.17,-2.67,1.17,-1.17,-0.92,-1.33,-3.84,-3.84,-3.84
263.19,-2.66,1.16,-2.65,1.16,-1.16,-0.94,-1.33,-3.82,-3.82,-3.82
265.82,-2.66,1.14,-2.64,1.16,-1.16,-0.96,-1.34,-3.82,-3.80,-3.80
268.48,-2.65,1.13,-2.62,1.16,-1.16,-0.98,-1.34,-3.80,-3.78,-3.77
271.16,-2.62,1.13,-2.60,1.15,-1.15,-1.00,-1.34,-3.77,-3.75,-3.75
273.87,-2.57,1.16,-2.58,1.15,-1.15,-1.02,-1.34,-3.72,-3.73,-3.73
276.61,-2.56,1.15,-2.56,1.15,-1.15,-1.03,-1.33,-3.71,-3.71,-3.70
279.38,-2.54,1.15,-2.53,1.16,-1.16,-1.05,-1.33,-3.69,-3.69,-3.69
282.17,-2.49,1.18,-2.51,1.16,-1.16,-1.07,-1.32,-3.65,-3.67,-3.67
284.99,-2.48,1.17,-2.48,1.17,-1.17,-1.09,-1.32,-3.64,-3.65,-3.64
287.84,-2.44,1.19,-2.45,1.17,-1.17,-1.10,-1.31,-3.61,-3.62,-3.63
290.72,-2.43,1.17,-2.43,1.17,-1.17,-1.12,-1.30,-3.60,-3.60,-3.60
293.63,-2.40,1.18,-2.40,1.18,-1.18,-1.14,-1.29,-3.57,-3.58,-3.58
296.57,-2.37,1.19,-2.37,1.18,-1.18,-1.15,-1.29,-3.55,-3.55,-3.55
299.53,-2.35,1.19,-2.35,1.18,-1.18,-1.17,-1.28,-3.53,-3.53,-3.54
302.53,-2.32,1.20,-2.32,1.18,-1.18,-1.19,-1.27,-3.50,-3.51,-3.52
305.55,-2.30,1.18,-2.30,1.18,-1.18,-1.20,-1.26,-3.48,-3.48,-3.48
308.61,-2.27,1.19,-2.27,1.19,-1.19,-1.22,-1.25,-3.46,-3.46,-3.46
311.69,-2.25,1.19,-2.24,1.19,-1.19,-1.23,-1.24,-3.44,-3.43,-3.43
314.81,-2.23,1.17,-2.21,1.20,-1.20,-1.25,-1.23,-3.42,-3.41,-3.40
317.96,-2.19,1.19,-2.18,1.20,-1.20,-1.26,-1.23,-3.39,-3.39,-3.38
321.14,-2.16,1.20,-2.15,1.21,-1.21,-1.27,-1.22,-3.37,-3.36,-3.36
324.35,-2.13,1.21,-2.12,1.22,-1.22,-1.29,-1.21,-3.35,-3.34,-3.34
327.59,-2.09,1.23,-2.09,1.23,-1.23,-1.30,-1.21,-3.32,-3.32,-3.31
330.87,-2.06,1.24,-2.06,1.24,-1.24,-1.31,-1.20,-3.30,-3.29,-3.30
334.18,-2.02,1.26,-2.02,1.25,-1.25,-1.33,-1.20,-3.27,-3.27,-3.28
337.52,-1.98,1.28,-1.99,1.26,-1.26,-1.34,-1.20,-3.24,-3.25,-3.26
340.90,-1.95,1.28,-1.96,1.27,-1.27,-1.35,-1.20,-3.22,-3.23,-3.23
344.30,-1.92,1.29,-1.92,1.29,-1.29,-1.37,-1.19,-3.21,-3.21,-3.21
347.75,-1.89,1.30,-1.89,1.30,-1.30,-1.38,-1.19,-3.19,-3.19,-3.19
351.23,-1.86,1.32,-1.85,1.32,-1.32,-1.39,-1.19,-3.18,-3.17,-3.17
354.74,-1.82,1.34,-1.82,1.34,-1.34,-1.40,-1.20,-3.15,-3.16,-3.15
358.28,-1.79,1.35,-1.78,1.35,-1.35,-1.41,-1.20,-3.14,-3.14,-3.14
361.87,-1.76,1.36,-1.75,1.37,-1.37,-1.43,-1.20,-3.13,-3.12,-3.12
365.49,-1.73,1.37,-1.71,1.39,-1.39,-1.44,-1.21,-3.12,-3.10,-3.10
369.14,-1.69,1.40,-1.68,1.41,-1.41,-1.45,-1.21,-3.10,-3.09,-3.09
372.83,-1.64,1.43,-1.64,1.43,-1.43,-1.46,-1.22,-3.07,-3.07,-3.07
376.56,-1.60,1.46,-1.60,1.45,-1.45,-1.47,-1.22,-3.05,-3.06,-3.06
380.33,-1.57,1.46,-1.56,1.48,-1.48,-1.48,-1.23,-3.04,-3.04,-3.03
384.13,-1.52,1.51,-1.53,1.50,-1.50,-1.49,-1.24,-3.02,-3.03,-3.02
387.97,-1.48,1.54,-1.49,1.52,-1.52,-1.50,-1.25,-3.00,-3.01,-3.01
391.85,-1.45,1.56,-1.46,1.54,-1.54,-1.51,-1.26,-2.99,-3.00,-3.00
395.77,-1.42,1.57,-1.42,1.57,-1.57,-1.52,-1.27,-2.99,-2.99,-2.99
399.73,-1.39,1.59,-1.39,1.59,-1.59,-1.53,-1.29,-2.98,-2.98,-2.98
403.72,-1.36,1.61,-1.35,1.61,-1.61,-1.54,-1.30,-2.97,-2.97,-2.97
407.76,-1.32,1.64,-1.32,1.63,-1.63,-1.55,-1.31,-2.95,-2.95,-2.96
411.84,-1.30,1.64,-1.29,1.65,-1.65,-1.56,-1.33,-2.95,-2.94,-2.94
415.96,-1.27,1.66,-1.26,1.67,-1.67,-1.56,-1.34,-2.94,-2.93,-2.93
420.12,-1.24,1.68,-1.24,1.69,-1.69,-1.57,-1.35,-2.92,-2.92,-2.92
424.32,-1.21,1.70,-1.21,1.70,-1.70,-1.58,-1.37,-2.91,-2.91,-2.91
428.56,-1.19,1.71,-1.18,1.72,-1.72,-1.59,-1.38,-2.91,-2.90,-2.90
432.85,-1.15,1.74,-1.16,1.73,-1.73,-1.60,-1.40,-2.88,-2.89,-2.89
437.18,-1.14,1.74,-1.13,1.74,-1.74,-1.60,-1.41,-2.88,-2.88,-2.88
441.55,-1.11,1.75,-1.11,1.75,-1.75,-1.61,-1.43,-2.86,-2.86,-2.86
445.96,-1.10,1.76,-1.09,1.76,-1.76,-1.62,-1.44,-2.86,-2.85,-2.85
450.42,-1.06,1.79,-1.07,1.77,-1.77,-1.63,-1.46,-2.83,-2.84,-2.84
