frequency,raw,error,smoothed,error_smoothed,equalization,parametric_eq,equalized_raw,equalized_smoothed,target
20,-9.98,-12.06,-9.91,-11.97,6.00,2.85,-3.98,-3.91,2.09
21,-9.38,-11.46,-9.39,-11.45,6.00,3.27,-3.38,-3.39,2.08
22,-8.90,-10.98,-8.89,-10.95,6.00,3.73,-2.90,-2.89,2.08
23,-8.40,-10.48,-8.39,-10.47,6.00,4.23,-2.40,-2.39,2.08
24,-7.88,-9.95,-7.92,-9.99,6.00,4.75,-1.88,-1.92,2.08
25,-7.38,-9.45,-7.45,-9.52,6.00,5.29,-1.38,-1.45,2.07
26,-7.00,-9.07,-7.00,-9.07,6.00,5.83,-1.00,-1.00,2.07
27,-6.52,-8.58,-6.56,-8.63,6.00,6.34,-0.52,-0.56,2.07
28,-6.12,-8.18,-6.13,-8.20,6.00,6.79,-0.12,-0.13,2.06
29,-5.75,-7.81,-5.72,-7.78,6.00,7.13,0.25,0.28,2.06
30,-5.30,-7.35,-5.32,-7.38,6.00,7.34,0.70,0.68,2.05
31,-5.01,-7.06,-4.94,-6.99,6.00,7.39,0.99,1.06,2.05
32,-4.52,-6.56,-4.58,-6.62,5.94,7.29,1.43,1.36,2.04
33,-4.27,-6.30,-4.23,-6.25,5.83,7.04,1.56,1.60,2.04
34,-3.89,-5.92,-3.89,-5.90,5.65,6.69,1.77,1.77,2.03
35,-3.62,-5.64,-3.54,-5.55,5.43,6.27,1.82,1.89,2.02
36,-3.16,-5.17,-3.21,-5.21,5.17,5.81,2.02,1.97,2.01
37,-2.82,-4.82,-2.88,-4.87,4.87,5.33,2.06,2.00,2.01
38,-2.47,-4.46,-2.56,-4.55,4.55,4.85,2.08,1.99,2.00
39,-2.40,-4.38,-2.25,-4.23,4.23,4.38,1.83,1.98,1.99
40,-2.04,-4.01,-1.95,-3.92,3.92,3.92,1.88,1.97,1.98
41,-1.65,-3.61,-1.65,-3.61,3.61,3.48,1.96,1.96,1.96
42,-1.34,-3.29,-1.37,-3.31,3.31,3.06,1.97,1.94,1.95
43,-1.04,-2.98,-1.09,-3.02,3.02,2.66,1.98,1.93,1.94
44,-0.74,-2.66,-0.81,-2.73,2.73,2.28,2.00,1.92,1.93
45,-0.57,-2.48,-0.54,-2.45,2.45,1.91,1.89,1.91,1.91
46,-0.26,-2.15,-0.29,-2.18,2.18,1.56,1.92,1.88,1.90
47,-0.13,-2.01,-0.05,-1.91,1.91,1.22,1.79,1.87,1.88
48,0.18,-1.68,0.20,-1.65,1.65,0.90,1.84,1.86,1.86
49,0.42,-1.42,0.45,-1.40,1.40,0.59,1.82,1.85,1.84
50,0.65,-1.17,0.67,-1.15,1.15,0.30,1.80,1.82,1.83
51,0.90,-0.90,0.89,-0.91,0.91,0.02,1.81,1.80,1.81
52,1.17,-0.61,1.10,-0.67,0.67,-0.25,1.84,1.77,1.78
53,1.38,-0.38,1.31,-0.44,0.44,-0.51,1.82,1.75,1.76
54,1.42,-0.32,1.52,-0.21,0.21,-0.75,1.64,1.73,1.74
55,1.69,-0.02,1.72,0.01,-0.01,-0.98,1.68,1.71,1.72
56,1.90,0.21,1.92,0.23,-0.23,-1.20,1.67,1.69,1.69
57,2.17,0.51,2.11,0.44,-0.44,-1.40,1.73,1.67,1.67
58,2.26,0.62,2.29,0.64,-0.64,-1.58,1.62,1.64,1.64
59,2.46,0.85,2.46,0.84,-0.84,-1.75,1.62,1.61,1.61
60,2.61,1.03,2.62,1.04,-1.04,-1.90,1.57,1.58,1.59
61,2.77,1.22,2.77,1.23,-1.23,-2.04,1.54,1.54,1.56
62,2.99,1.47,2.93,1.42,-1.42,-2.16,1.57,1.51,1.53
63,3.07,1.58,3.09,1.60,-1.60,-2.26,1.47,1.49,1.50
64,3.19,1.73,3.24,1.78,-1.78,-2.35,1.41,1.46,1.47
65,3.40,1.97,3.38,1.96,-1.96,-2.43,1.45,1.43,1.43
66,3.48,2.08,3.52,2.13,-2.13,-2.49,1.35,1.39,1.40
67,3.63,2.27,3.65,2.29,-2.29,-2.55,1.34,1.35,1.37
68,3.71,2.38,3.78,2.45,-2.45,-2.60,1.26,1.33,1.33
69,3.89,2.60,3.90,2.61,-2.61,-2.64,1.29,1.29,1.30
70,4.05,2.79,4.01,2.75,-2.75,-2.67,1.30,1.26,1.26
71,4.19,2.97,4.11,2.89,-2.89,-2.70,1.30,1.22,1.22
72,4.18,3.00,4.20,3.02,-3.02,-2.72,1.16,1.18,1.19
73,4.35,3.20,4.29,3.15,-3.15,-2.75,1.21,1.14,1.15
74,4.39,3.28,4.37,3.27,-3.27,-2.77,1.13,1.11,1.11
75,4.41,3.34,4.44,3.38,-3.38,-2.79,1.04,1.07,1.07
76,4.49,3.46,4.51,3.48,-3.48,-2.81,1.01,1.02,1.03
77,4.59,3.60,4.57,3.59,-3.59,-2.84,1.01,0.98,0.99
78,4.59,3.64,4.62,3.68,-3.68,-2.86,0.91,0.94,0.95
79,4.64,3.73,4.67,3.78,-3.78,-2.88,0.86,0.90,0.91
80,4.69,3.82,4.73,3.87,-3.87,-2.91,0.82,0.85,0.87
81,4.70,3.87,4.78,3.96,-3.96,-2.94,0.74,0.82,0.83
82,4.89,4.10,4.83,4.06,-4.06,-2.98,0.84,0.78,0.79
83,4.89,4.15,4.88,4.14,-4.14,-3.01,0.75,0.74,0.75
84,4.89,4.19,4.93,4.23,-4.23,-3.05,0.66,0.70,0.71
85,4.94,4.28,4.97,4.31,-4.31,-3.09,0.63,0.66,0.66
86,5.06,4.44,5.01,4.39,-4.39,-3.13,0.67,0.62,0.62
87,5.09,4.51,5.04,4.46,-4.46,-3.18,0.63,0.58,0.58
88,5.09,4.55,5.07,4.53,-4.53,-3.23,0.56,0.54,0.54
89,5.09,4.59,5.09,4.59,-4.59,-3.28,0.50,0.50,0.50
90,5.09,4.64,5.10,4.65,-4.65,-3.34,0.44,0.45,0.46
91,5.10,4.69,5.11,4.70,-4.70,-3.40,0.40,0.41,0.42
92,5.10,4.73,5.11,4.75,-4.75,-3.46,0.35,0.36,0.37
93,5.10,4.77,5.12,4.80,-4.80,-3.52,0.31,0.33,0.33
94,5.10,4.81,5.12,4.84,-4.84,-3.59,0.27,0.29,0.29
95,5.10,4.85,5.12,4.87,-4.87,-3.66,0.23,0.25,0.25
96,5.09,4.88,5.11,4.90,-4.90,-3.73,0.19,0.21,0.21
97,5.09,4.92,5.10,4.93,-4.93,-3.80,0.16,0.16,0.17
98,5.08,4.95,5.08,4.95,-4.95,-3.87,0.13,0.12,0.13
99,5.07,4.98,5.06,4.97,-4.97,-3.94,0.10,0.09,0.09
100,5.05,5.00,5.03,4.99,-4.99,-4.02,0.07,0.04,0.06
101,5.04,5.03,5.00,5.00,-5.00,-4.09,0.05,0.00,0.02
102,5.02,5.04,4.96,5.00,-5.00,-4.17,0.03,-0.04,-0.02
104,4.89,4.99,4.91,4.99,-4.99,-4.32,-0.10,-0.08,-0.09
105,4.87,5.00,4.87,4.99,-4.99,-4.39,-0.11,-0.12,-0.13
106,4.76,4.93,4.82,4.98,-4.98,-4.47,-0.21,-0.16,-0.17
107,4.72,4.93,4.76,4.96,-4.96,-4.54,-0.24,-0.20,-0.20
108,4.70,4.94,4.70,4.94,-4.94,-4.61,-0.24,-0.24,-0.24
109,4.67,4.95,4.64,4.92,-4.92,-4.68,-0.25,-0.28,-0.27
110,4.56,4.87,4.58,4.90,-4.90,-4.74,-0.33,-0.32,-0.31
111,4.51,4.85,4.52,4.87,-4.87,-4.80,-0.36,-0.35,-0.34
112,4.43,4.81,4.47,4.85,-4.85,-4.86,-0.42,-0.38,-0.37
113,4.42,4.83,4.41,4.83,-4.83,-4.92,-0.40,-0.41,-0.40
114,4.38,4.82,4.36,4.80,-4.80,-4.97,-0.42,-0.44,-0.43
115,4.31,4.77,4.30,4.78,-4.78,-5.02,-0.46,-0.48,-0.46
117,4.21,4.73,4.24,4.75,-4.75,-5.11,-0.54,-0.51,-0.52
118,4.21,4.75,4.19,4.72,-4.72,-5.14,-0.51,-0.54,-0.54
119,4.17,4.73,4.13,4.70,-4.70,-5.17,-0.52,-0.57,-0.56
120,4.05,4.64,4.08,4.67,-4.67,-5.20,-0.62,-0.59,-0.58
121,4.03,4.63,4.03,4.65,-4.65,-5.22,-0.61,-0.61,-0.60
123,3.97,4.62,3.98,4.62,-4.62,-5.24,-0.65,-0.64,-0.65
124,3.86,4.53,3.93,4.59,-4.59,-5.24,-0.73,-0.66,-0.66
125,3.85,4.53,3.88,4.57,-4.57,-5.24,-0.71,-0.69,-0.68
126,3.86,4.56,3.83,4.54,-4.54,-5.24,-0.68,-0.71,-0.69
128,3.77,4.50,3.79,4.51,-4.51,-5.21,-0.74,-0.73,-0.73
129,3.76,4.51,3.73,4.48,-4.48,-5.19,-0.72,-0.75,-0.74
130,3.69,4.45,3.68,4.45,-4.45,-5.17,-0.76,-0.77,-0.76
131,3.67,4.45,3.63,4.42,-4.42,-5.14,-0.75,-0.79,-0.77
133,3.58,4.39,3.59,4.39,-4.39,-5.07,-0.81,-0.80,-0.81
134,3.51,4.34,3.53,4.36,-4.36,-5.03,-0.84,-0.83,-0.82
135,3.49,4.33,3.47,4.32,-4.32,-4.99,-0.83,-0.85,-0.84
137,3.40,4.28,3.41,4.28,-4.28,-4.89,-0.88,-0.87,-0.87
138,3.34,4.23,3.35,4.24,-4.24,-4.84,-0.90,-0.89,-0.89
140,3.25,4.17,3.28,4.20,-4.20,-4.74,-0.94,-0.91,-0.92
141,3.20,4.14,3.22,4.15,-4.15,-4.68,-0.95,-0.93,-0.94
142,3.20,4.15,3.14,4.10,-4.10,-4.63,-0.90,-0.96,-0.95
144,3.08,4.06,3.07,4.05,-4.05,-4.51,-0.97,-0.98,-0.98
145,2.98,3.98,3.00,4.01,-4.01,-4.45,-1.02,-1.00,-1.00
147,2.90,3.93,2.93,3.96,-3.96,-4.33,-1.05,-1.02,-1.02
148,2.87,3.91,2.86,3.90,-3.90,-4.27,-1.03,-1.04,-1.04
150,2.79,3.86,2.79,3.85,-3.85,-4.15,-1.06,-1.06,-1.06
151,2.73,3.81,2.73,3.80,-3.80,-4.10,-1.07,-1.08,-1.08
153,2.65,3.75,2.65,3.75,-3.75,-3.98,-1.10,-1.10,-1.10
154,2.54,3.65,2.58,3.70,-3.70,-3.92,-1.16,-1.12,-1.11
156,2.48,3.62,2.51,3.64,-3.64,-3.81,-1.16,-1.14,-1.13
157,2.44,3.59,2.44,3.59,-3.59,-3.75,-1.15,-1.16,-1.14
159,2.38,3.55,2.37,3.54,-3.54,-3.64,-1.15,-1.17,-1.16
160,2.32,3.50,2.30,3.48,-3.48,-3.59,-1.16,-1.18,-1.17
162,2.25,3.45,2.22,3.42,-3.42,-3.48,-1.17,-1.20,-1.20
164,2.12,3.34,2.15,3.36,-3.36,-3.38,-1.23,-1.21,-1.22
165,2.02,3.25,2.06,3.29,-3.29,-3.34,-1.27,-1.23,-1.23
167,1.95,3.20,1.97,3.22,-3.22,-3.24,-1.26,-1.25,-1.25
169,1.95,3.22,1.87,3.14,-3.14,-3.15,-1.19,-1.27,-1.27
170,1.86,3.15,1.77,3.06,-3.06,-3.11,-1.20,-1.29,-1.28
172,1.66,2.97,1.68,2.99,-2.99,-3.03,-1.32,-1.31,-1.30
174,1.63,2.95,1.59,2.91,-2.91,-2.95,-1.28,-1.32,-1.32
175,1.51,2.84,1.49,2.84,-2.84,-2.91,-1.32,-1.34,-1.33
177,1.33,2.68,1.40,2.77,-2.77,-2.83,-1.43,-1.37,-1.34
179,1.35,2.71,1.32,2.70,-2.70,-2.76,-1.35,-1.38,-1.35
181,1.13,2.49,1.27,2.65,-2.65,-2.70,-1.52,-1.38,-1.36
183,1.12,2.49,1.23,2.61,-2.61,-2.63,-1.49,-1.38,-1.37
184,1.17,2.53,1.20,2.58,-2.58,-2.60,-1.41,-1.39,-1.36
186,1.24,2.60,1.18,2.57,-2.57,-2.54,-1.33,-1.39,-1.36
188,1.19,2.55,1.19,2.56,-2.56,-2.49,-1.37,-1.38,-1.35
190,1.05,2.40,1.20,2.56,-2.56,-2.44,-1.51,-1.36,-1.35
192,1.12,2.46,1.21,2.57,-2.57,-2.39,-1.45,-1.36,-1.34
194,1.22,2.56,1.23,2.58,-2.58,-2.34,-1.36,-1.35,-1.33
196,1.37,2.70,1.25,2.59,-2.59,-2.29,-1.22,-1.34,-1.33
198,1.42,2.74,1.26,2.59,-2.59,-2.25,-1.17,-1.33,-1.32
200,1.28,2.60,1.27,2.59,-2.59,-2.21,-1.30,-1.32,-1.32
202,1.28,2.60,1.26,2.58,-2.58,-2.17,-1.29,-1.32,-1.32
204,1.29,2.61,1.23,2.56,-2.56,-2.14,-1.27,-1.33,-1.32
206,1.24,2.56,1.20,2.53,-2.53,-2.10,-1.29,-1.33,-1.32
208,1.10,2.43,1.17,2.50,-2.50,-2.07,-1.39,-1.33,-1.32
210,1.08,2.41,1.12,2.45,-2.45,-2.04,-1.37,-1.33,-1.33
212,1.06,2.40,1.06,2.40,-2.40,-2.01,-1.34,-1.34,-1.34
214,0.98,2.33,0.98,2.35,-2.35,-1.98,-1.36,-1.36,-1.35
216,0.93,2.29,0.91,2.29,-2.29,-1.95,-1.35,-1.38,-1.36
218,0.87,2.24,0.85,2.23,-2.23,-1.92,-1.35,-1.38,-1.36
221,0.73,2.11,0.79,2.17,-2.17,-1.88,-1.43,-1.37,-1.37
223,0.68,2.06,0.73,2.11,-2.11,-1.85,-1.43,-1.38,-1.38
225,0.66,2.05,0.67,2.06,-2.06,-1.83,-1.39,-1.39,-1.38
227,0.65,2.04,0.62,2.00,-2.00,-1.80,-1.35,-1.38,-1.38
229,0.57,1.95,0.57,1.94,-1.94,-1.78,-1.37,-1.37,-1.38
232,0.46,1.84,0.52,1.89,-1.89,-1.74,-1.42,-1.37,-1.38
234,0.46,1.83,0.46,1.83,-1.83,-1.72,-1.37,-1.38,-1.37
236,0.47,1.83,0.41,1.78,-1.78,-1.70,-1.31,-1.37,-1.36
239,0.37,1.72,0.37,1.73,-1.73,-1.66,-1.36,-1.36,-1.35
241,0.33,1.67,0.34,1.68,-1.68,-1.63,-1.34,-1.34,-1.33
244,0.29,1.61,0.30,1.63,-1.63,-1.60,-1.33,-1.32,-1.32
246,0.27,1.58,0.26,1.58,-1.58,-1.57,-1.31,-1.31,-1.30
248,0.22,1.51,0.23,1.53,-1.53,-1.55,-1.31,-1.30,-1.29
251,0.15,1.43,0.20,1.48,-1.48,-1.51,-1.33,-1.29,-1.27
253,0.06,1.32,0.17,1.44,-1.44,-1.48,-1.37,-1.27,-1.26
256,0.13,1.38,0.13,1.39,-1.39,-1.44,-1.26,-1.27,-1.25
259,0.20,1.45,0.08,1.35,-1.35,-1.40,-1.15,-1.27,-1.24
261,0.12,1.36,0.05,1.30,-1.30,-1.38,-1.18,-1.26,-1.24
264,0.02,1.26,0.02,1.26,-1.26,-1.34,-1.23,-1.24,-1.24
266,-0.10,1.14,-0.03,1.21,-1.21,-1.31,-1.31,-1.24,-1.23
269,-0.04,1.20,-0.08,1.17,-1.17,-1.27,-1.21,-1.25,-1.23
272,-0.08,1.16,-0.12,1.13,-1.13,-1.23,-1.20,-1.24,-1.24
274,-0.16,1.08,-0.15,1.08,-1.08,-1.20,-1.24,-1.24,-1.24
277,-0.29,0.95,-0.19,1.04,-1.04,-1.16,-1.32,-1.23,-1.24
280,-0.31,0.93,-0.23,0.99,-0.99,-1.11,-1.30,-1.23,-1.23
283,-0.21,1.02,-0.29,0.95,-0.95,-1.07,-1.16,-1.24,-1.23
286,-0.25,0.98,-0.34,0.91,-0.91,-1.03,-1.15,-1.24,-1.23
288,-0.43,0.79,-0.36,0.86,-0.86,-1.00,-1.29,-1.22,-1.22
291,-0.50,0.71,-0.39,0.82,-0.82,-0.96,-1.31,-1.20,-1.21
294,-0.39,0.81,-0.42,0.77,-0.77,-0.91,-1.16,-1.19,-1.20
297,-0.35,0.84,-0.46,0.73,-0.73,-0.87,-1.08,-1.20,-1.19
300,-0.49,0.69,-0.49,0.69,-0.69,-0.83,-1.18,-1.19,-1.18
303,-0.55,0.62,-0.52,0.65,-0.65,-0.79,-1.19,-1.16,-1.17
306,-0.64,0.52,-0.55,0.61,-0.61,-0.75,-1.24,-1.16,-1.16
309,-0.59,0.56,-0.59,0.57,-0.57,-0.71,-1.16,-1.16,-1.15
312,-0.55,0.59,-0.63,0.53,-0.53,-0.67,-1.08,-1.17,-1.14
316,-0.56,0.58,-0.65,0.49,-0.49,-0.61,-1.05,-1.14,-1.13
319,-0.78,0.35,-0.67,0.45,-0.45,-0.57,-1.23,-1.12,-1.13
322,-0.78,0.35,-0.71,0.42,-0.42,-0.53,-1.19,-1.13,-1.12
325,-0.76,0.37,-0.76,0.38,-0.38,-0.49,-1.14,-1.14,-1.12
328,-0.76,0.36,-0.79,0.35,-0.35,-0.46,-1.10,-1.14,-1.12
332,-0.78,0.34,-0.82,0.31,-0.31,-0.40,-1.08,-1.13,-1.12
335,-0.94,0.18,-0.85,0.27,-0.27,-0.37,-1.21,-1.12,-1.12
338,-0.88,0.24,-0.89,0.24,-0.24,-0.33,-1.11,-1.12,-1.12
342,-0.79,0.33,-0.93,0.20,-0.20,-0.28,-0.99,-1.13,-1.12
345,-0.89,0.23,-0.97,0.16,-0.16,-0.24,-1.05,-1.13,-1.12
349,-1.13,-0.01,-0.99,0.12,-0.12,-0.20,-1.25,-1.12,-1.12
352,-1.14,-0.02,-1.02,0.08,-0.08,-0.16,-1.22,-1.11,-1.11
356,-1.07,0.04,-1.07,0.05,-0.05,-0.11,-1.11,-1.11,-1.11
359,-1.06,0.05,-1.10,0.01,-0.01,-0.08,-1.06,-1.10,-1.10
363,-1.12,-0.02,-1.14,-0.04,0.04,-0.03,-1.08,-1.10,-1.10
366,-1.15,-0.06,-1.17,-0.08,0.08,0.00,-1.07,-1.09,-1.09
370,-1.24,-0.16,-1.20,-0.12,0.12,0.05,-1.11,-1.08,-1.08
374,-1.24,-0.17,-1.24,-0.16,0.16,0.09,-1.07,-1.08,-1.07
377,-1.23,-0.16,-1.29,-0.20,0.20,0.13,-1.02,-1.09,-1.06
381,-1.28,-0.22,-1.32,-0.24,0.24,0.17,-1.03,-1.08,-1.06
385,-1.42,-0.37,-1.34,-0.28,0.28,0.21,-1.14,-1.06,-1.05
389,-1.34,-0.29,-1.37,-0.32,0.32,0.25,-1.02,-1.05,-1.04
393,-1.36,-0.32,-1.41,-0.35,0.35,0.30,-1.01,-1.06,-1.04
397,-1.53,-0.49,-1.44,-0.38,0.38,0.34,-1.14,-1.06,-1.04
401,-1.46,-0.42,-1.47,-0.41,0.41,0.38,-1.04,-1.05,-1.04
405,-1.44,-0.40,-1.49,-0.44,0.44,0.42,-0.99,-1.05,-1.04
409,-1.65,-0.61,-1.51,-0.47,0.47,0.46,-1.18,-1.05,-1.04
413,-1.60,-0.56,-1.54,-0.49,0.49,0.50,-1.11,-1.05,-1.04
417,-1.39,-0.35,-1.55,-0.51,0.51,0.53,-0.88,-1.05,-1.03
421,-1.45,-0.42,-1.56,-0.52,0.52,0.57,-0.92,-1.03,-1.03
425,-1.61,-0.59,-1.56,-0.54,0.54,0.61,-1.07,-1.02,-1.02
430,-1.60,-0.60,-1.55,-0.55,0.55,0.65,-1.05,-1.00,-1.00
434,-1.58,-0.60,-1.54,-0.56,0.56,0.68,-1.02,-0.98,-0.97
438,-1.55,-0.60,-1.50,-0.57,0.57,0.72,-0.98,-0.93,-0.94
443,-1.52,-0.61,-1.47,-0.58,0.58,0.75,-0.94,-0.89,-0.90
447,-1.47,-0.61,-1.44,-0.58,0.58,0.78,-0.88,-0.85,-0.86
451,-1.42,-0.61,-1.40,-0.59,0.59,0.81,-0.82,-0.81,-0.81
456,-1.36,-0.60,-1.37,-0.60,0.60,0.85,-0.75,-0.77,-0.75
460,-1.30,-0.60,-1.34,-0.61,0.61,0.87,-0.68,-0.73,-0.70
465,-1.24,-0.60,-1.29,-0.62,0.62,0.90,-0.62,-0.67,-0.64
470,-1.18,-0.60,-1.21,-0.63,0.63,0.93,-0.55,-0.59,-0.58
474,-1.12,-0.60,-1.16,-0.64,0.64,0.95,-0.48,-0.52,-0.52
479,-1.11,-0.64,-1.12,-0.65,0.65,0.97,-0.45,-0.47,-0.46
484,-1.26,-0.84,-1.09,-0.67,0.67,0.99,-0.58,-0.42,-0.41
489,-1.14,-0.77,-1.07,-0.69,0.69,1.01,-0.45,-0.38,-0.37
494,-1.05,-0.72,-1.05,-0.71,0.71,1.02,-0.34,-0.34,-0.33
499,-1.02,-0.73,-1.05,-0.73,0.73,1.04,-0.28,-0.32,-0.29
504,-0.99,-0.72,-1.05,-0.75,0.75,1.05,-0.23,-0.29,-0.26
509,-0.84,-0.59,-1.06,-0.78,0.78,1.06,-0.06,-0.28,-0.24
514,-0.92,-0.68,-1.07,-0.80,0.80,1.06,-0.12,-0.27,-0.23
519,-1.26,-1.03,-1.09,-0.82,0.82,1.07,-0.44,-0.27,-0.23
524,-1.27,-1.03,-1.11,-0.84,0.84,1.07,-0.43,-0.27,-0.24
529,-1.17,-0.91,-1.14,-0.86,0.86,1.07,-0.31,-0.28,-0.25
535,-1.19,-0.91,-1.17,-0.88,0.88,1.07,-0.30,-0.28,-0.27
540,-1.23,-0.93,-1.22,-0.91,0.91,1.07,-0.32,-0.31,-0.30
545,-1.26,-0.92,-1.28,-0.93,0.93,1.07,-0.33,-0.35,-0.33
551,-1.31,-0.94,-1.33,-0.96,0.96,1.06,-0.35,-0.38,-0.37
556,-1.36,-0.96,-1.40,-0.98,0.98,1.05,-0.37,-0.42,-0.40
562,-1.41,-0.98,-1.47,-1.01,1.01,1.05,-0.40,-0.46,-0.43
568,-1.46,-1.00,-1.50,-1.04,1.04,1.04,-0.42,-0.46,-0.46
573,-1.51,-1.02,-1.53,-1.07,1.07,1.03,-0.44,-0.47,-0.48
579,-1.57,-1.07,-1.59,-1.10,1.10,1.02,-0.47,-0.49,-0.50
585,-1.67,-1.15,-1.64,-1.12,1.12,1.01,-0.54,-0.52,-0.51
591,-1.76,-1.24,-1.68,-1.15,1.15,1.00,-0.61,-0.53,-0.52
596,-1.79,-1.27,-1.70,-1.17,1.17,0.99,-0.62,-0.52,-0.51
602,-1.78,-1.27,-1.70,-1.19,1.19,0.98,-0.59,-0.51,-0.50
608,-1.77,-1.28,-1.70,-1.21,1.21,0.96,-0.56,-0.49,-0.49
615,-1.61,-1.14,-1.69,-1.22,1.22,0.95,-0.39,-0.47,-0.47
621,-1.59,-1.15,-1.67,-1.22,1.22,0.94,-0.36,-0.45,-0.44
627,-1.78,-1.38,-1.64,-1.22,1.22,0.93,-0.55,-0.42,-0.40
633,-1.57,-1.21,-1.60,-1.22,1.22,0.92,-0.34,-0.38,-0.36
639,-1.53,-1.21,-1.55,-1.21,1.21,0.91,-0.31,-0.33,-0.32
646,-1.40,-1.13,-1.48,-1.20,1.20,0.90,-0.19,-0.28,-0.27
652,-1.33,-1.11,-1.41,-1.19,1.19,0.89,-0.14,-0.22,-0.22
659,-1.42,-1.25,-1.34,-1.18,1.18,0.88,-0.24,-0.16,-0.17
665,-1.37,-1.25,-1.27,-1.16,1.16,0.88,-0.20,-0.11,-0.12
672,-1.32,-1.25,-1.23,-1.15,1.15,0.87,-0.17,-0.08,-0.06
679,-1.21,-1.19,-1.18,-1.14,1.14,0.86,-0.07,-0.04,-0.02
686,-1.12,-1.15,-1.13,-1.13,1.13,0.86,0.01,-0.00,0.03
692,-0.99,-1.05,-1.08,-1.12,1.12,0.85,0.14,0.04,0.07
699,-0.95,-1.04,-1.04,-1.12,1.12,0.85,0.17,0.07,0.10
706,-0.94,-1.06,-1.01,-1.12,1.12,0.85,0.18,0.11,0.12
713,-0.93,-1.06,-1.00,-1.12,1.12,0.84,0.19,0.12,0.14
721,-0.94,-1.08,-0.99,-1.12,1.12,0.84,0.19,0.13,0.14
728,-1.12,-1.26,-0.98,-1.13,1.13,0.84,0.02,0.15,0.15
735,-1.14,-1.28,-0.99,-1.14,1.14,0.84,0.01,0.16,0.15
742,-0.91,-1.05,-1.00,-1.15,1.15,0.84,0.24,0.15,0.15
750,-0.94,-1.08,-1.02,-1.16,1.16,0.84,0.22,0.14,0.15
757,-0.97,-1.11,-1.02,-1.16,1.16,0.84,0.20,0.14,0.15
765,-0.99,-1.14,-1.02,-1.17,1.17,0.85,0.18,0.15,0.15
773,-1.14,-1.29,-1.00,-1.17,1.17,0.85,0.03,0.16,0.16
780,-1.16,-1.32,-1.00,-1.16,1.16,0.85,0.00,0.16,0.17
788,-1.02,-1.19,-0.99,-1.15,1.15,0.86,0.13,0.16,0.18
796,-0.92,-1.11,-0.94,-1.13,1.13,0.86,0.22,0.19,0.19
804,-0.92,-1.13,-0.90,-1.12,1.12,0.87,0.20,0.21,0.21
812,-0.85,-1.07,-0.87,-1.09,1.09,0.87,0.24,0.22,0.23
820,-0.80,-1.04,-0.84,-1.06,1.06,0.87,0.27,0.22,0.24
828,-0.71,-0.97,-0.80,-1.03,1.03,0.88,0.33,0.24,0.26
837,-0.71,-0.98,-0.74,-1.01,1.01,0.88,0.30,0.26,0.27
845,-0.78,-1.06,-0.69,-0.97,0.97,0.88,0.20,0.28,0.29
853,-0.83,-1.13,-0.64,-0.94,0.94,0.89,0.11,0.30,0.30
862,-0.42,-0.73,-0.60,-0.91,0.91,0.89,0.49,0.31,0.31
871,-0.45,-0.76,-0.56,-0.87,0.87,0.89,0.43,0.32,0.31
879,-0.65,-0.97,-0.52,-0.84,0.84,0.89,0.20,0.33,0.32
888,-0.50,-0.82,-0.50,-0.82,0.82,0.89,0.32,0.32,0.32
897,-0.44,-0.77,-0.47,-0.79,0.79,0.89,0.35,0.32,0.33
906,-0.45,-0.78,-0.43,-0.76,0.76,0.88,0.31,0.32,0.34
915,-0.36,-0.70,-0.39,-0.73,0.73,0.88,0.37,0.34,0.34
924,-0.36,-0.71,-0.34,-0.70,0.70,0.87,0.34,0.36,0.35
933,-0.27,-0.62,-0.30,-0.67,0.67,0.86,0.40,0.37,0.36
943,-0.26,-0.62,-0.29,-0.64,0.64,0.85,0.39,0.36,0.36
952,-0.26,-0.63,-0.27,-0.62,0.62,0.83,0.36,0.35,0.37
962,-0.35,-0.73,-0.21,-0.59,0.59,0.81,0.24,0.37,0.38
971,-0.29,-0.68,-0.16,-0.56,0.56,0.80,0.27,0.40,0.40
981,0.02,-0.39,-0.12,-0.53,0.53,0.77,0.55,0.41,0.41
991,0.06,-0.36,-0.07,-0.49,0.49,0.75,0.55,0.43,0.42
1001,-0.01,-0.45,-0.01,-0.46,0.46,0.72,0.45,0.45,0.44
1011,-0.02,-0.48,0.03,-0.42,0.42,0.68,0.41,0.46,0.46
1021,-0.06,-0.54,0.09,-0.39,0.39,0.65,0.33,0.48,0.49
1031,0.08,-0.43,0.15,-0.35,0.35,0.61,0.43,0.50,0.51
1041,0.40,-0.14,0.22,-0.30,0.30,0.57,0.71,0.53,0.54
1052,0.34,-0.22,0.30,-0.26,0.26,0.53,0.61,0.56,0.57
1062,0.37,-0.22,0.38,-0.22,0.22,0.48,0.59,0.60,0.59
1073,0.41,-0.21,0.45,-0.18,0.18,0.43,0.59,0.63,0.62
1084,0.46,-0.19,0.50,-0.14,0.14,0.38,0.60,0.64,0.65
1094,0.52,-0.16,0.57,-0.10,0.10,0.33,0.62,0.67,0.68
1105,0.57,-0.14,0.66,-0.06,0.06,0.27,0.63,0.72,0.71
1116,0.86,0.12,0.75,-0.02,0.02,0.21,0.88,0.76,0.75
1128,0.93,0.15,0.83,0.02,-0.02,0.14,0.91,0.80,0.78
1139,0.88,0.07,0.88,0.06,-0.06,0.08,0.83,0.82,0.82
1150,0.96,0.11,0.94,0.09,-0.09,0.01,0.87,0.85,0.85
1162,1.05,0.16,1.02,0.12,-0.12,-0.06,0.93,0.90,0.89
1173,0.93,0.01,1.08,0.16,-0.16,-0.13,0.78,0.92,0.92
1185,1.04,0.08,1.15,0.19,-0.19,-0.20,0.85,0.96,0.96
1197,1.37,0.38,1.23,0.24,-0.24,-0.28,1.14,1.00,1.00
1209,1.45,0.42,1.31,0.28,-0.28,-0.35,1.17,1.04,1.04
1221,1.38,0.31,1.38,0.33,-0.33,-0.43,1.06,1.06,1.07
1233,1.35,0.25,1.45,0.38,-0.38,-0.51,0.97,1.07,1.11
1246,1.41,0.28,1.54,0.44,-0.44,-0.59,0.97,1.09,1.14
1258,1.67,0.51,1.64,0.52,-0.52,-0.67,1.16,1.12,1.16
1271,1.66,0.49,1.74,0.60,-0.60,-0.76,1.07,1.14,1.18
1283,1.78,0.59,1.84,0.69,-0.69,-0.84,1.10,1.15,1.19
1296,2.15,0.96,1.96,0.78,-0.78,-0.93,1.37,1.17,1.19
1309,2.09,0.90,2.05,0.88,-0.88,-1.02,1.21,1.17,1.19
1322,2.12,0.94,2.15,0.99,-0.99,-1.11,1.14,1.16,1.19
1335,2.10,0.93,2.26,1.09,-1.09,-1.19,1.01,1.17,1.18
1349,2.36,1.20,2.37,1.20,-1.20,-1.29,1.16,1.17,1.16
1362,2.54,1.40,2.46,1.31,-1.31,-1.38,1.23,1.15,1.14
1376,2.61,1.49,2.55,1.42,-1.42,-1.48,1.19,1.13,1.12
1390,2.69,1.59,2.64,1.53,-1.53,-1.58,1.16,1.11,1.10
1404,2.79,1.71,2.75,1.64,-1.64,-1.68,1.15,1.11,1.08
1418,2.93,1.87,2.83,1.76,-1.76,-1.78,1.18,1.07,1.06
1432,2.79,1.74,2.90,1.87,-1.87,-1.88,0.92,1.03,1.05
1446,2.96,1.92,3.01,1.99,-1.99,-1.98,0.97,1.02,1.04
1461,3.07,2.03,3.13,2.11,-2.11,-2.09,0.96,1.02,1.04
1475,3.13,2.09,3.26,2.23,-2.23,-2.19,0.90,1.03,1.04
1490,3.37,2.33,3.39,2.35,-2.35,-2.29,1.02,1.04,1.04
1505,3.60,2.55,3.53,2.47,-2.47,-2.40,1.13,1.06,1.05
1520,3.69,2.63,3.67,2.59,-2.59,-2.51,1.11,1.08,1.06
1535,3.66,2.59,3.80,2.70,-2.70,-2.62,0.97,1.10,1.07
1550,3.68,2.60,3.91,2.81,-2.81,-2.73,0.88,1.10,1.09
1566,4.15,3.05,4.01,2.91,-2.91,-2.84,1.24,1.10,1.10
1582,4.43,3.31,4.13,3.01,-3.01,-2.96,1.42,1.11,1.13
1597,4.50,3.35,4.25,3.11,-3.11,-3.07,1.40,1.14,1.15
1613,4.53,3.35,4.36,3.19,-3.19,-3.18,1.34,1.17,1.18
1629,4.45,3.24,4.45,3.27,-3.27,-3.29,1.18,1.18,1.22
1646,4.38,3.13,4.53,3.34,-3.34,-3.41,1.04,1.19,1.26
1662,4.43,3.13,4.64,3.41,-3.41,-3.52,1.02,1.22,1.30
1679,4.51,3.16,4.77,3.48,-3.48,-3.63,1.04,1.29,1.35
1696,4.72,3.32,4.91,3.54,-3.54,-3.74,1.18,1.37,1.41
1713,5.01,3.54,5.03,3.60,-3.60,-3.85,1.41,1.43,1.47
1730,5.36,3.82,5.13,3.67,-3.67,-3.95,1.69,1.46,1.55
1747,5.45,3.82,5.25,3.74,-3.74,-4.05,1.72,1.51,1.63
1764,5.24,3.52,5.38,3.81,-3.81,-4.14,1.44,1.58,1.72
1782,5.50,3.68,5.53,3.88,-3.88,-4.23,1.62,1.65,1.82
1800,5.93,4.01,5.71,3.96,-3.96,-4.32,1.97,1.74,1.92
1818,6.13,4.11,5.90,4.05,-4.05,-4.40,2.08,1.85,2.02
