frequency,raw,error,smoothed,error_smoothed,equalization,parametric_eq,equalized_raw,equalized_smoothed,target
20,-9.98,-12.00,-9.91,-11.90,6.00,2.80,-3.98,-3.91,2.02
21,-9.38,-11.40,-9.39,-11.39,6.00,3.22,-3.38,-3.39,2.02
22,-8.90,-10.91,-8.89,-10.88,6.00,3.69,-2.90,-2.89,2.01
23,-8.40,-10.41,-8.39,-10.39,6.00,4.19,-2.40,-2.39,2.01
24,-7.88,-9.88,-7.92,-9.91,6.00,4.71,-1.88,-1.92,2.00
25,-7.38,-9.37,-7.45,-9.45,6.00,5.26,-1.38,-1.45,2.00
26,-7.00,-8.99,-7.00,-8.99,6.00,5.80,-1.00,-1.00,1.99
27,-6.52,-8.50,-6.56,-8.55,6.00,6.32,-0.52,-0.56,1.98
28,-6.12,-8.09,-6.13,-8.11,6.00,6.77,-0.12,-0.13,1.98
29,-5.75,-7.72,-5.72,-7.69,6.00,7.11,0.25,0.28,1.97
30,-5.30,-7.26,-5.32,-7.29,6.00,7.32,0.70,0.68,1.96
31,-5.01,-6.96,-4.94,-6.89,6.00,7.37,0.99,1.06,1.95
32,-4.52,-6.46,-4.58,-6.52,5.93,7.27,1.42,1.35,1.94
33,-4.27,-6.20,-4.23,-6.15,5.80,7.03,1.53,1.57,1.94
34,-3.89,-5.81,-3.89,-5.79,5.59,6.68,1.71,1.71,1.92
35,-3.62,-5.53,-3.54,-5.44,5.35,6.25,1.73,1.80,1.91
36,-3.16,-5.06,-3.21,-5.10,5.07,5.79,1.91,1.86,1.90
37,-2.82,-4.71,-2.88,-4.76,4.76,5.31,1.94,1.88,1.89
38,-2.47,-4.35,-2.56,-4.43,4.43,4.82,1.96,1.87,1.88
39,-2.40,-4.26,-2.25,-4.11,4.11,4.34,1.71,1.86,1.87
40,-2.04,-3.89,-1.95,-3.79,3.79,3.88,1.76,1.85,1.85
41,-1.65,-3.48,-1.65,-3.48,3.48,3.44,1.84,1.83,1.84
42,-1.34,-3.16,-1.37,-3.18,3.18,3.01,1.84,1.81,1.82
43,-1.04,-2.84,-1.09,-2.89,2.89,2.60,1.85,1.80,1.81
44,-0.74,-2.53,-0.81,-2.60,2.60,2.21,1.86,1.79,1.79
45,-0.57,-2.34,-0.54,-2.31,2.31,1.84,1.75,1.77,1.77
46,-0.26,-2.01,-0.29,-2.04,2.04,1.48,1.78,1.74,1.76
47,-0.13,-1.86,-0.05,-1.77,1.77,1.14,1.64,1.72,1.74
48,0.18,-1.53,0.20,-1.51,1.51,0.81,1.69,1.71,1.72
49,0.42,-1.27,0.45,-1.25,1.25,0.49,1.68,1.70,1.70
50,0.65,-1.02,0.67,-1.00,1.00,0.19,1.65,1.67,1.68
51,0.90,-0.75,0.89,-0.76,0.76,-0.10,1.66,1.65,1.65
52,1.17,-0.46,1.10,-0.52,0.52,-0.38,1.69,1.62,1.63
53,1.38,-0.23,1.31,-0.29,0.29,-0.64,1.67,1.60,1.61
54,1.42,-0.16,1.52,-0.06,0.06,-0.89,1.48,1.58,1.59
55,1.69,0.13,1.72,0.17,-0.17,-1.13,1.53,1.56,1.56
56,1.90,0.37,1.92,0.38,-0.38,-1.35,1.52,1.53,1.54
57,2.17,0.66,2.11,0.60,-0.60,-1.56,1.58,1.51,1.51
58,2.26,0.78,2.29,0.80,-0.80,-1.74,1.46,1.48,1.48
59,2.46,1.01,2.46,1.00,-1.00,-1.92,1.46,1.45,1.46
60,2.61,1.18,2.62,1.20,-1.20,-2.07,1.42,1.42,1.43
61,2.77,1.37,2.77,1.39,-1.39,-2.21,1.39,1.38,1.40
62,2.99,1.62,2.93,1.57,-1.57,-2.33,1.42,1.36,1.37
63,3.07,1.73,3.09,1.76,-1.76,-2.43,1.32,1.33,1.34
64,3.19,1.88,3.24,1.94,-1.94,-2.52,1.26,1.31,1.31
65,3.40,2.12,3.38,2.11,-2.11,-2.60,1.29,1.27,1.28
66,3.48,2.23,3.52,2.28,-2.28,-2.66,1.20,1.24,1.25
67,3.63,2.42,3.65,2.44,-2.44,-2.71,1.19,1.20,1.22
68,3.71,2.53,3.78,2.60,-2.60,-2.76,1.11,1.18,1.18
69,3.89,2.74,3.90,2.75,-2.75,-2.79,1.14,1.15,1.15
70,4.05,2.93,4.01,2.89,-2.89,-2.82,1.16,1.11,1.12
71,4.19,3.11,4.11,3.03,-3.03,-2.85,1.16,1.08,1.08
72,4.18,3.13,4.20,3.16,-3.16,-2.87,1.02,1.04,1.05
73,4.35,3.34,4.29,3.28,-3.28,-2.88,1.07,1.01,1.02
74,4.39,3.41,4.37,3.39,-3.39,-2.90,1.00,0.98,0.98
75,4.41,3.47,4.44,3.50,-3.50,-2.92,0.91,0.94,0.95
76,4.49,3.58,4.51,3.60,-3.60,-2.93,0.89,0.90,0.91
77,4.59,3.72,4.57,3.70,-3.70,-2.95,0.89,0.86,0.88
78,4.59,3.75,4.62,3.80,-3.80,-2.97,0.80,0.83,0.84
79,4.64,3.84,4.67,3.89,-3.89,-2.99,0.76,0.79,0.80
80,4.69,3.93,4.73,3.98,-3.98,-3.01,0.72,0.75,0.77
81,4.70,3.97,4.78,4.06,-4.06,-3.03,0.64,0.72,0.73
82,4.89,4.20,4.83,4.15,-4.15,-3.06,0.74,0.69,0.70
83,4.89,4.23,4.88,4.23,-4.23,-3.09,0.66,0.65,0.66
84,4.89,4.27,4.93,4.31,-4.31,-3.12,0.58,0.62,0.62
85,4.94,4.36,4.97,4.39,-4.39,-3.16,0.55,0.58,0.59
86,5.06,4.51,5.01,4.46,-4.46,-3.20,0.60,0.54,0.55
87,5.09,4.58,5.04,4.53,-4.53,-3.24,0.56,0.51,0.51
88,5.09,4.62,5.07,4.59,-4.59,-3.29,0.50,0.48,0.48
89,5.09,4.65,5.09,4.65,-4.65,-3.33,0.44,0.44,0.44
90,5.09,4.69,5.10,4.70,-4.70,-3.38,0.39,0.40,0.41
91,5.10,4.73,5.11,4.75,-4.75,-3.44,0.35,0.36,0.37
92,5.10,4.77,5.11,4.79,-4.79,-3.49,0.31,0.32,0.33
93,5.10,4.80,5.12,4.83,-4.83,-3.55,0.27,0.29,0.30
94,5.10,4.84,5.12,4.87,-4.87,-3.62,0.24,0.26,0.26
95,5.10,4.87,5.12,4.90,-4.90,-3.68,0.21,0.23,0.23
96,5.09,4.90,5.11,4.92,-4.92,-3.74,0.17,0.19,0.19
97,5.09,4.93,5.10,4.94,-4.94,-3.81,0.15,0.15,0.16
98,5.08,4.96,5.08,4.96,-4.96,-3.88,0.12,0.12,0.13
99,5.07,4.98,5.06,4.98,-4.98,-3.95,0.10,0.08,0.09
100,5.05,4.99,5.03,4.98,-4.98,-4.02,0.07,0.05,0.06
101,5.04,5.02,5.00,4.99,-4.99,-4.09,0.06,0.01,0.02
102,5.02,5.03,4.96,4.98,-4.98,-4.16,0.04,-0.02,-0.01
104,4.89,4.97,4.91,4.98,-4.98,-4.31,-0.08,-0.06,-0.07
105,4.87,4.98,4.87,4.96,-4.96,-4.38,-0.09,-0.10,-0.10
106,4.76,4.90,4.82,4.95,-4.95,-4.45,-0.18,-0.13,-0.14
107,4.72,4.89,4.76,4.92,-4.92,-4.52,-0.20,-0.17,-0.17
108,4.70,4.90,4.70,4.90,-4.90,-4.59,-0.20,-0.20,-0.20
109,4.67,4.90,4.64,4.88,-4.88,-4.65,-0.20,-0.23,-0.23
110,4.56,4.82,4.58,4.85,-4.85,-4.71,-0.29,-0.27,-0.26
111,4.51,4.80,4.52,4.82,-4.82,-4.77,-0.31,-0.30,-0.29
112,4.43,4.75,4.47,4.79,-4.79,-4.83,-0.36,-0.32,-0.32
113,4.42,4.77,4.41,4.76,-4.76,-4.89,-0.34,-0.35,-0.34
114,4.38,4.75,4.36,4.74,-4.74,-4.94,-0.35,-0.38,-0.37
115,4.31,4.71,4.30,4.71,-4.71,-4.98,-0.39,-0.41,-0.39
117,4.21,4.66,4.24,4.68,-4.68,-5.06,-0.46,-0.43,-0.44
118,4.21,4.68,4.19,4.65,-4.65,-5.10,-0.43,-0.46,-0.46
119,4.17,4.65,4.13,4.62,-4.62,-5.12,-0.44,-0.49,-0.48
120,4.05,4.55,4.08,4.59,-4.59,-5.15,-0.54,-0.51,-0.50
121,4.03,4.55,4.03,4.56,-4.56,-5.17,-0.53,-0.53,-0.52
123,3.97,4.53,3.98,4.53,-4.53,-5.19,-0.56,-0.55,-0.56
124,3.86,4.43,3.93,4.50,-4.50,-5.19,-0.64,-0.57,-0.57
125,3.85,4.44,3.88,4.47,-4.47,-5.19,-0.62,-0.59,-0.58
126,3.86,4.46,3.83,4.44,-4.44,-5.18,-0.58,-0.61,-0.59
128,3.77,4.40,3.79,4.41,-4.41,-5.15,-0.64,-0.63,-0.63
129,3.76,4.40,3.73,4.38,-4.38,-5.13,-0.62,-0.65,-0.64
130,3.69,4.35,3.68,4.35,-4.35,-5.11,-0.66,-0.67,-0.65
131,3.67,4.34,3.63,4.32,-4.32,-5.08,-0.64,-0.68,-0.67
133,3.58,4.28,3.59,4.28,-4.28,-5.01,-0.70,-0.70,-0.70
134,3.51,4.23,3.53,4.25,-4.25,-4.97,-0.73,-0.72,-0.71
135,3.49,4.22,3.47,4.21,-4.21,-4.93,-0.71,-0.73,-0.73
137,3.40,4.16,3.41,4.17,-4.17,-4.84,-0.76,-0.75,-0.76
138,3.34,4.12,3.35,4.12,-4.12,-4.79,-0.78,-0.78,-0.77
140,3.25,4.06,3.28,4.08,-4.08,-4.68,-0.83,-0.80,-0.80
141,3.20,4.02,3.22,4.03,-4.03,-4.63,-0.83,-0.82,-0.82
142,3.20,4.04,3.14,3.98,-3.98,-4.57,-0.78,-0.84,-0.83
144,3.08,3.95,3.07,3.94,-3.94,-4.45,-0.85,-0.86,-0.86
145,2.98,3.86,3.00,3.89,-3.89,-4.40,-0.90,-0.89,-0.88
147,2.90,3.81,2.93,3.84,-3.84,-4.28,-0.93,-0.90,-0.90
148,2.87,3.79,2.86,3.78,-3.78,-4.22,-0.91,-0.92,-0.92
150,2.79,3.74,2.79,3.73,-3.73,-4.10,-0.94,-0.94,-0.94
151,2.73,3.69,2.73,3.68,-3.68,-4.04,-0.95,-0.96,-0.95
153,2.65,3.63,2.65,3.63,-3.63,-3.92,-0.98,-0.98,-0.98
154,2.54,3.53,2.58,3.58,-3.58,-3.87,-1.03,-1.00,-0.99
156,2.48,3.50,2.51,3.52,-3.52,-3.75,-1.04,-1.01,-1.01
157,2.44,3.46,2.44,3.47,-3.47,-3.70,-1.03,-1.03,-1.02
159,2.38,3.43,2.37,3.42,-3.42,-3.59,-1.03,-1.05,-1.04
160,2.32,3.38,2.30,3.36,-3.36,-3.53,-1.04,-1.06,-1.05
162,2.25,3.33,2.22,3.30,-3.30,-3.43,-1.05,-1.08,-1.08
164,2.12,3.22,2.15,3.24,-3.24,-3.33,-1.12,-1.09,-1.10
165,2.02,3.13,2.06,3.17,-3.17,-3.28,-1.15,-1.11,-1.11
167,1.95,3.09,1.97,3.10,-3.10,-3.19,-1.15,-1.13,-1.13
169,1.95,3.11,1.87,3.02,-3.02,-3.10,-1.07,-1.16,-1.15
170,1.86,3.03,1.77,2.95,-2.95,-3.06,-1.08,-1.18,-1.17
172,1.66,2.85,1.68,2.87,-2.87,-2.97,-1.21,-1.19,-1.19
174,1.63,2.84,1.59,2.79,-2.79,-2.89,-1.16,-1.21,-1.21
175,1.51,2.73,1.49,2.72,-2.72,-2.86,-1.21,-1.23,-1.22
177,1.33,2.56,1.40,2.66,-2.66,-2.78,-1.32,-1.26,-1.23
179,1.35,2.60,1.32,2.59,-2.59,-2.71,-1.24,-1.27,-1.24
181,1.13,2.39,1.27,2.54,-2.54,-2.64,-1.41,-1.27,-1.25
183,1.12,2.38,1.23,2.50,-2.50,-2.58,-1.38,-1.28,-1.26
184,1.17,2.43,1.20,2.48,-2.48,-2.55,-1.31,-1.28,-1.25
186,1.24,2.50,1.18,2.46,-2.46,-2.49,-1.22,-1.29,-1.25
188,1.19,2.44,1.19,2.46,-2.46,-2.43,-1.27,-1.27,-1.25
190,1.05,2.30,1.20,2.46,-2.46,-2.38,-1.41,-1.26,-1.24
192,1.12,2.36,1.21,2.47,-2.47,-2.33,-1.35,-1.26,-1.24
194,1.22,2.46,1.23,2.48,-2.48,-2.28,-1.26,-1.25,-1.23
196,1.37,2.60,1.25,2.49,-2.49,-2.24,-1.12,-1.24,-1.23
198,1.42,2.65,1.26,2.49,-2.49,-2.20,-1.07,-1.24,-1.23
200,1.28,2.51,1.27,2.49,-2.49,-2.16,-1.21,-1.22,-1.22
202,1.28,2.51,1.26,2.48,-2.48,-2.12,-1.20,-1.23,-1.22
204,1.29,2.52,1.23,2.47,-2.47,-2.08,-1.17,-1.23,-1.23
206,1.24,2.47,1.20,2.44,-2.44,-2.04,-1.20,-1.24,-1.23
208,1.10,2.34,1.17,2.41,-2.41,-2.01,-1.30,-1.24,-1.24
210,1.08,2.33,1.12,2.36,-2.36,-1.98,-1.28,-1.24,-1.24
212,1.06,2.32,1.06,2.32,-2.32,-1.95,-1.25,-1.26,-1.25
214,0.98,2.25,0.98,2.26,-2.26,-1.92,-1.28,-1.28,-1.26
216,0.93,2.21,0.91,2.21,-2.21,-1.89,-1.27,-1.29,-1.27
218,0.87,2.16,0.85,2.15,-2.15,-1.86,-1.27,-1.30,-1.28
221,0.73,2.03,0.79,2.09,-2.09,-1.82,-1.36,-1.30,-1.30
223,0.68,1.98,0.73,2.03,-2.03,-1.79,-1.35,-1.30,-1.30
225,0.66,1.97,0.67,1.98,-1.98,-1.77,-1.32,-1.31,-1.31
227,0.65,1.96,0.62,1.93,-1.93,-1.74,-1.27,-1.31,-1.31
229,0.57,1.88,0.57,1.87,-1.87,-1.72,-1.30,-1.30,-1.31
232,0.46,1.77,0.52,1.82,-1.82,-1.68,-1.35,-1.30,-1.31
234,0.46,1.76,0.46,1.76,-1.76,-1.66,-1.30,-1.31,-1.30
236,0.47,1.76,0.41,1.71,-1.71,-1.63,-1.24,-1.30,-1.29
239,0.37,1.66,0.37,1.66,-1.66,-1.60,-1.29,-1.29,-1.28
241,0.33,1.60,0.34,1.61,-1.61,-1.57,-1.28,-1.27,-1.27
244,0.29,1.55,0.30,1.56,-1.56,-1.54,-1.27,-1.26,-1.26
246,0.27,1.52,0.26,1.52,-1.52,-1.51,-1.24,-1.25,-1.24
248,0.22,1.45,0.23,1.47,-1.47,-1.49,-1.25,-1.24,-1.23
251,0.15,1.37,0.20,1.42,-1.42,-1.45,-1.27,-1.23,-1.22
253,0.06,1.27,0.17,1.38,-1.38,-1.42,-1.32,-1.21,-1.20
256,0.13,1.33,0.13,1.34,-1.34,-1.38,-1.20,-1.21,-1.20
259,0.20,1.39,0.08,1.29,-1.29,-1.34,-1.09,-1.21,-1.19
261,0.12,1.31,0.05,1.25,-1.25,-1.32,-1.13,-1.20,-1.18
264,0.02,1.21,0.02,1.21,-1.21,-1.28,-1.18,-1.19,-1.18
266,-0.10,1.09,-0.03,1.16,-1.16,-1.25,-1.26,-1.19,-1.18
269,-0.04,1.15,-0.08,1.12,-1.12,-1.21,-1.16,-1.20,-1.19
272,-0.08,1.11,-0.12,1.08,-1.08,-1.17,-1.16,-1.20,-1.19
274,-0.16,1.03,-0.15,1.04,-1.04,-1.14,-1.19,-1.19,-1.19
277,-0.29,0.90,-0.19,0.99,-0.99,-1.10,-1.28,-1.18,-1.19
280,-0.31,0.88,-0.23,0.95,-0.95,-1.06,-1.26,-1.18,-1.19
283,-0.21,0.98,-0.29,0.91,-0.91,-1.02,-1.12,-1.20,-1.19
286,-0.25,0.94,-0.34,0.86,-0.86,-0.98,-1.11,-1.20,-1.19
288,-0.43,0.75,-0.36,0.82,-0.82,-0.95,-1.25,-1.18,-1.18
291,-0.50,0.67,-0.39,0.78,-0.78,-0.91,-1.27,-1.16,-1.17
294,-0.39,0.78,-0.42,0.74,-0.74,-0.87,-1.12,-1.16,-1.16
297,-0.35,0.81,-0.46,0.70,-0.70,-0.83,-1.05,-1.16,-1.15
300,-0.49,0.66,-0.49,0.66,-0.66,-0.79,-1.14,-1.15,-1.14
303,-0.55,0.59,-0.52,0.61,-0.61,-0.75,-1.16,-1.13,-1.13
306,-0.64,0.49,-0.55,0.57,-0.57,-0.71,-1.21,-1.12,-1.12
309,-0.59,0.53,-0.59,0.54,-0.54,-0.67,-1.13,-1.13,-1.12
312,-0.55,0.56,-0.63,0.50,-0.50,-0.63,-1.05,-1.14,-1.11
316,-0.56,0.55,-0.65,0.46,-0.46,-0.58,-1.02,-1.11,-1.10
319,-0.78,0.32,-0.67,0.43,-0.43,-0.54,-1.20,-1.10,-1.10
322,-0.78,0.32,-0.71,0.39,-0.39,-0.50,-1.17,-1.10,-1.10
325,-0.76,0.34,-0.76,0.36,-0.36,-0.46,-1.11,-1.11,-1.10
328,-0.76,0.34,-0.79,0.32,-0.32,-0.43,-1.08,-1.11,-1.10
332,-0.78,0.32,-0.82,0.28,-0.28,-0.38,-1.06,-1.11,-1.10
335,-0.94,0.16,-0.85,0.25,-0.25,-0.34,-1.19,-1.10,-1.10
338,-0.88,0.22,-0.89,0.21,-0.21,-0.30,-1.09,-1.10,-1.10
342,-0.79,0.31,-0.93,0.18,-0.18,-0.26,-0.97,-1.11,-1.10
345,-0.89,0.21,-0.97,0.14,-0.14,-0.22,-1.03,-1.11,-1.10
349,-1.13,-0.03,-0.99,0.11,-0.11,-0.17,-1.23,-1.10,-1.10
352,-1.14,-0.04,-1.02,0.07,-0.07,-0.14,-1.20,-1.09,-1.10
356,-1.07,0.03,-1.07,0.03,-0.03,-0.09,-1.10,-1.09,-1.09
359,-1.06,0.03,-1.10,-0.01,0.01,-0.06,-1.05,-1.09,-1.09
363,-1.12,-0.03,-1.14,-0.05,0.05,-0.02,-1.07,-1.09,-1.08
366,-1.15,-0.07,-1.17,-0.09,0.09,0.02,-1.05,-1.08,-1.08
370,-1.24,-0.17,-1.20,-0.13,0.13,0.06,-1.10,-1.06,-1.07
374,-1.24,-0.18,-1.24,-0.17,0.17,0.10,-1.06,-1.07,-1.06
377,-1.23,-0.17,-1.29,-0.21,0.21,0.14,-1.01,-1.08,-1.05
381,-1.28,-0.23,-1.32,-0.25,0.25,0.18,-1.02,-1.07,-1.05
385,-1.42,-0.38,-1.34,-0.29,0.29,0.22,-1.13,-1.05,-1.04
389,-1.34,-0.30,-1.37,-0.33,0.33,0.26,-1.01,-1.04,-1.04
393,-1.36,-0.32,-1.41,-0.36,0.36,0.30,-1.00,-1.05,-1.03
397,-1.53,-0.49,-1.44,-0.39,0.39,0.34,-1.14,-1.05,-1.03
401,-1.46,-0.42,-1.47,-0.42,0.42,0.38,-1.04,-1.05,-1.03
405,-1.44,-0.40,-1.49,-0.45,0.45,0.42,-0.99,-1.04,-1.03
409,-1.65,-0.61,-1.51,-0.47,0.47,0.46,-1.18,-1.04,-1.04
413,-1.60,-0.56,-1.54,-0.49,0.49,0.50,-1.11,-1.05,-1.04
417,-1.39,-0.35,-1.55,-0.51,0.51,0.53,-0.88,-1.04,-1.03
421,-1.45,-0.42,-1.56,-0.53,0.53,0.57,-0.92,-1.03,-1.03
425,-1.61,-0.59,-1.56,-0.54,0.54,0.60,-1.07,-1.02,-1.01
430,-1.60,-0.60,-1.55,-0.55,0.55,0.65,-1.05,-1.00,-1.00
434,-1.58,-0.60,-1.54,-0.56,0.56,0.68,-1.02,-0.98,-0.97
438,-1.55,-0.60,-1.50,-0.57,0.57,0.71,-0.98,-0.93,-0.94
443,-1.52,-0.61,-1.47,-0.57,0.57,0.75,-0.94,-0.90,-0.91
447,-1.47,-0.61,-1.44,-0.58,0.58,0.78,-0.89,-0.86,-0.86
451,-1.42,-0.61,-1.40,-0.59,0.59,0.80,-0.83,-0.81,-0.81
456,-1.36,-0.60,-1.37,-0.60,0.60,0.84,-0.76,-0.77,-0.76
460,-1.30,-0.60,-1.34,-0.61,0.61,0.86,-0.69,-0.74,-0.70
465,-1.24,-0.60,-1.29,-0.61,0.61,0.89,-0.62,-0.68,-0.64
470,-1.18,-0.59,-1.21,-0.62,0.62,0.92,-0.55,-0.59,-0.58
474,-1.12,-0.59,-1.16,-0.63,0.63,0.93,-0.48,-0.52,-0.53
479,-1.11,-0.64,-1.12,-0.65,0.65,0.96,-0.46,-0.47,-0.47
484,-1.26,-0.84,-1.09,-0.67,0.67,0.98,-0.59,-0.43,-0.42
489,-1.14,-0.76,-1.07,-0.68,0.68,0.99,-0.45,-0.39,-0.37
494,-1.05,-0.71,-1.05,-0.70,0.70,1.01,-0.34,-0.35,-0.33
499,-1.02,-0.72,-1.05,-0.72,0.72,1.02,-0.29,-0.32,-0.30
504,-0.99,-0.71,-1.05,-0.75,0.75,1.03,-0.24,-0.30,-0.27
509,-0.84,-0.58,-1.06,-0.77,0.77,1.04,-0.07,-0.29,-0.25
514,-0.92,-0.67,-1.07,-0.79,0.79,1.05,-0.13,-0.28,-0.24
519,-1.26,-1.01,-1.09,-0.81,0.81,1.05,-0.45,-0.28,-0.24
524,-1.27,-1.02,-1.11,-0.83,0.83,1.05,-0.44,-0.28,-0.25
529,-1.17,-0.90,-1.14,-0.85,0.85,1.05,-0.32,-0.29,-0.26
535,-1.19,-0.90,-1.17,-0.87,0.87,1.05,-0.32,-0.30,-0.29
540,-1.23,-0.91,-1.22,-0.89,0.89,1.05,-0.33,-0.33,-0.31
545,-1.26,-0.91,-1.28,-0.92,0.92,1.05,-0.34,-0.36,-0.35
551,-1.31,-0.93,-1.33,-0.94,0.94,1.04,-0.36,-0.39,-0.38
556,-1.36,-0.94,-1.40,-0.97,0.97,1.04,-0.39,-0.43,-0.41
562,-1.41,-0.96,-1.47,-1.00,1.00,1.03,-0.41,-0.47,-0.45
568,-1.46,-0.98,-1.50,-1.02,1.02,1.02,-0.43,-0.47,-0.47
573,-1.51,-1.01,-1.53,-1.05,1.05,1.01,-0.46,-0.48,-0.50
579,-1.57,-1.05,-1.59,-1.08,1.08,1.00,-0.49,-0.51,-0.52
585,-1.67,-1.14,-1.64,-1.11,1.11,0.99,-0.56,-0.54,-0.53
591,-1.76,-1.22,-1.68,-1.13,1.13,0.98,-0.63,-0.55,-0.53
596,-1.79,-1.26,-1.70,-1.15,1.15,0.97,-0.63,-0.54,-0.53
602,-1.78,-1.26,-1.70,-1.17,1.17,0.96,-0.60,-0.53,-0.52
608,-1.77,-1.26,-1.70,-1.19,1.19,0.95,-0.58,-0.51,-0.51
615,-1.61,-1.12,-1.69,-1.20,1.20,0.93,-0.41,-0.49,-0.48
621,-1.59,-1.13,-1.67,-1.20,1.20,0.92,-0.38,-0.47,-0.45
627,-1.78,-1.36,-1.64,-1.21,1.21,0.91,-0.57,-0.44,-0.42
633,-1.57,-1.19,-1.60,-1.20,1.20,0.90,-0.36,-0.40,-0.38
639,-1.53,-1.19,-1.55,-1.20,1.20,0.89,-0.33,-0.35,-0.34
646,-1.40,-1.11,-1.48,-1.18,1.18,0.88,-0.21,-0.30,-0.29
652,-1.33,-1.09,-1.41,-1.17,1.17,0.87,-0.16,-0.24,-0.24
659,-1.42,-1.23,-1.34,-1.16,1.16,0.86,-0.26,-0.18,-0.19
665,-1.37,-1.23,-1.27,-1.14,1.14,0.86,-0.22,-0.13,-0.14
672,-1.32,-1.23,-1.23,-1.13,1.13,0.85,-0.19,-0.10,-0.08
679,-1.21,-1.17,-1.18,-1.12,1.12,0.84,-0.09,-0.06,-0.04
686,-1.12,-1.12,-1.13,-1.11,1.11,0.84,-0.01,-0.02,0.01
692,-0.99,-1.03,-1.08,-1.10,1.10,0.83,0.11,0.02,0.04
699,-0.95,-1.02,-1.04,-1.10,1.10,0.83,0.15,0.05,0.07
706,-0.94,-1.03,-1.01,-1.10,1.10,0.83,0.16,0.08,0.10
713,-0.93,-1.04,-1.00,-1.10,1.10,0.82,0.17,0.10,0.11
721,-0.94,-1.06,-0.99,-1.10,1.10,0.82,0.17,0.11,0.12
728,-1.12,-1.24,-0.98,-1.11,1.11,0.82,-0.01,0.13,0.12
735,-1.14,-1.26,-0.99,-1.12,1.12,0.82,-0.02,0.13,0.12
742,-0.91,-1.03,-1.00,-1.13,1.13,0.82,0.22,0.13,0.12
750,-0.94,-1.06,-1.02,-1.13,1.13,0.82,0.19,0.12,0.12
757,-0.97,-1.09,-1.02,-1.14,1.14,0.82,0.17,0.11,0.12
765,-0.99,-1.11,-1.02,-1.14,1.14,0.82,0.16,0.12,0.13
773,-1.14,-1.27,-1.00,-1.14,1.14,0.83,0.01,0.14,0.13
780,-1.16,-1.30,-1.00,-1.14,1.14,0.83,-0.02,0.13,0.14
788,-1.02,-1.17,-0.99,-1.12,1.12,0.83,0.11,0.14,0.15
796,-0.92,-1.08,-0.94,-1.11,1.11,0.84,0.19,0.17,0.17
804,-0.92,-1.10,-0.90,-1.09,1.09,0.84,0.17,0.19,0.18
812,-0.85,-1.05,-0.87,-1.07,1.07,0.84,0.22,0.19,0.20
820,-0.80,-1.01,-0.84,-1.04,1.04,0.85,0.24,0.20,0.22
828,-0.71,-0.94,-0.80,-1.01,1.01,0.85,0.30,0.21,0.23
837,-0.71,-0.96,-0.74,-0.98,0.98,0.86,0.27,0.23,0.25
845,-0.78,-1.04,-0.69,-0.95,0.95,0.86,0.17,0.25,0.26
853,-0.83,-1.10,-0.64,-0.91,0.91,0.86,0.09,0.27,0.27
862,-0.42,-0.70,-0.60,-0.88,0.88,0.86,0.46,0.28,0.28
871,-0.45,-0.73,-0.56,-0.85,0.85,0.86,0.40,0.29,0.29
879,-0.65,-0.94,-0.52,-0.82,0.82,0.86,0.17,0.30,0.29
888,-0.50,-0.79,-0.50,-0.79,0.79,0.86,0.29,0.29,0.30
897,-0.44,-0.74,-0.47,-0.76,0.76,0.86,0.32,0.29,0.30
906,-0.45,-0.75,-0.43,-0.73,0.73,0.85,0.28,0.29,0.31
915,-0.36,-0.67,-0.39,-0.70,0.70,0.85,0.34,0.31,0.31
924,-0.36,-0.68,-0.34,-0.67,0.67,0.84,0.31,0.33,0.32
933,-0.27,-0.59,-0.30,-0.64,0.64,0.83,0.38,0.34,0.33
943,-0.26,-0.59,-0.29,-0.62,0.62,0.82,0.36,0.33,0.34
952,-0.26,-0.60,-0.27,-0.59,0.59,0.80,0.33,0.32,0.34
962,-0.35,-0.70,-0.21,-0.56,0.56,0.78,0.21,0.35,0.35
971,-0.29,-0.65,-0.16,-0.53,0.53,0.76,0.24,0.37,0.37
981,0.02,-0.36,-0.12,-0.50,0.50,0.74,0.52,0.38,0.38
991,0.06,-0.33,-0.07,-0.46,0.46,0.71,0.53,0.40,0.40
1001,-0.01,-0.42,-0.01,-0.43,0.43,0.68,0.42,0.42,0.41
1011,-0.02,-0.45,0.03,-0.40,0.40,0.65,0.38,0.43,0.43
1021,-0.06,-0.51,0.09,-0.36,0.36,0.62,0.30,0.45,0.46
1031,0.08,-0.40,0.15,-0.32,0.32,0.58,0.40,0.47,0.48
1041,0.40,-0.11,0.22,-0.27,0.27,0.54,0.68,0.50,0.51
1052,0.34,-0.19,0.30,-0.23,0.23,0.49,0.58,0.53,0.54
1062,0.37,-0.19,0.38,-0.19,0.19,0.45,0.56,0.57,0.56
1073,0.41,-0.18,0.45,-0.15,0.15,0.40,0.56,0.60,0.59
1084,0.46,-0.16,0.50,-0.11,0.11,0.35,0.57,0.61,0.62
1094,0.52,-0.13,0.57,-0.07,0.07,0.29,0.59,0.64,0.65
1105,0.57,-0.11,0.66,-0.03,0.03,0.24,0.60,0.68,0.68
1116,0.86,0.15,0.75,0.01,-0.01,0.18,0.85,0.73,0.72
1128,0.93,0.18,0.83,0.05,-0.05,0.11,0.88,0.77,0.75
1139,0.88,0.10,0.88,0.09,-0.09,0.05,0.80,0.79,0.79
1150,0.96,0.14,0.94,0.12,-0.12,-0.02,0.84,0.82,0.82
1162,1.05,0.20,1.02,0.15,-0.15,-0.09,0.90,0.87,0.86
1173,0.93,0.04,1.08,0.19,-0.19,-0.16,0.75,0.89,0.89
1185,1.04,0.11,1.15,0.23,-0.23,-0.23,0.82,0.93,0.93
1197,1.37,0.41,1.23,0.27,-0.27,-0.31,1.11,0.96,0.97
1209,1.45,0.45,1.31,0.31,-0.31,-0.38,1.14,1.00,1.00
1221,1.38,0.34,1.38,0.36,-0.36,-0.46,1.03,1.03,1.04
1233,1.35,0.28,1.45,0.41,-0.41,-0.54,0.94,1.04,1.07
1246,1.41,0.31,1.54,0.48,-0.48,-0.62,0.94,1.06,1.10
1258,1.67,0.55,1.64,0.55,-0.55,-0.70,1.12,1.09,1.13
1271,1.66,0.52,1.74,0.63,-0.63,-0.79,1.03,1.11,1.15
1283,1.78,0.63,1.84,0.72,-0.72,-0.87,1.07,1.12,1.16
1296,2.15,0.99,1.96,0.81,-0.81,-0.96,1.34,1.14,1.16
1309,2.09,0.93,2.05,0.91,-0.91,-1.05,1.18,1.14,1.16
1322,2.12,0.97,2.15,1.02,-1.02,-1.13,1.11,1.13,1.15
1335,2.10,0.96,2.26,1.12,-1.12,-1.22,0.98,1.14,1.14
1349,2.36,1.23,2.37,1.23,-1.23,-1.32,1.13,1.13,1.13
1362,2.54,1.43,2.46,1.34,-1.34,-1.41,1.20,1.12,1.11
1376,2.61,1.52,2.55,1.45,-1.45,-1.51,1.16,1.10,1.09
1390,2.69,1.63,2.64,1.56,-1.56,-1.61,1.13,1.08,1.07
1404,2.79,1.74,2.75,1.68,-1.68,-1.71,1.12,1.08,1.05
1418,2.93,1.90,2.83,1.79,-1.79,-1.81,1.14,1.04,1.03
1432,2.79,1.78,2.90,1.91,-1.91,-1.91,0.89,1.00,1.02
1446,2.96,1.95,3.01,2.02,-2.02,-2.01,0.94,0.99,1.01
1461,3.07,2.07,3.13,2.14,-2.14,-2.11,0.93,0.99,1.01
1475,3.13,2.13,3.26,2.26,-2.26,-2.22,0.87,1.00,1.01
1490,3.37,2.36,3.39,2.39,-2.39,-2.32,0.99,1.01,1.01
1505,3.60,2.59,3.53,2.50,-2.50,-2.43,1.10,1.03,1.02
1520,3.69,2.67,3.67,2.62,-2.62,-2.54,1.07,1.05,1.03
1535,3.66,2.62,3.80,2.73,-2.73,-2.65,0.93,1.07,1.04
1550,3.68,2.63,3.91,2.84,-2.84,-2.76,0.84,1.07,1.05
1566,4.15,3.08,4.01,2.95,-2.95,-2.88,1.21,1.06,1.07
1582,4.43,3.34,4.13,3.05,-3.05,-2.99,1.38,1.08,1.09
1597,4.50,3.38,4.25,3.14,-3.14,-3.10,1.36,1.11,1.12
1613,4.53,3.38,4.36,3.23,-3.23,-3.21,1.31,1.13,1.15
1629,4.45,3.27,4.45,3.31,-3.31,-3.32,1.15,1.14,1.18
1646,4.38,3.16,4.53,3.38,-3.38,-3.44,1.00,1.16,1.22
1662,4.43,3.17,4.64,3.45,-3.45,-3.55,0.99,1.19,1.27
1679,4.51,3.20,4.77,3.51,-3.51,-3.66,1.00,1.26,1.32
1696,4.72,3.35,4.91,3.57,-3.57,-3.77,1.15,1.34,1.37
1713,5.01,3.57,5.03,3.64,-3.64,-3.88,1.38,1.40,1.44
1730,5.36,3.85,5.13,3.70,-3.70,-3.98,1.66,1.43,1.51
1747,5.45,3.86,5.25,3.77,-3.77,-4.08,1.68,1.48,1.60
1764,5.24,3.55,5.38,3.84,-3.84,-4.18,1.40,1.54,1.69
1782,5.50,3.72,5.53,3.92,-3.92,-4.27,1.59,1.62,1.78
1800,5.93,4.05,5.71,4.00,-4.00,-4.36,1.94,1.71,1.88
1818,6.13,4.14,5.90,4.09,-4.09,-4.43,2.05,1.82,1.99
