frequency,raw,smoothed,error,error_smoothed,equalization,parametric_eq,fixed_band_eq,equalized_raw,equalized_smoothed,target
20.00,-14.85,-14.86,-18.04,-18.04,6.00,6.30,2.45,-8.85,-8.86,3.18
20.20,-14.62,-14.62,-17.81,-17.80,6.00,6.27,2.53,-8.62,-8.62,3.18
20.40,-14.39,-14.39,-17.57,-17.57,6.00,6.24,2.60,-8.39,-8.39,3.18
20.61,-14.17,-14.17,-17.35,-17.35,6.00,6.22,2.68,-8.17,-8.17,3.18
20.81,-13.95,-13.96,-17.13,-17.14,6.00,6.19,2.76,-7.95,-7.96,3.18
21.02,-13.75,-13.75,-16.93,-16.93,6.00,6.16,2.84,-7.75,-7.75,3.18
21.23,-13.55,-13.55,-16.71,-16.72,6.00,6.13,2.92,-7.55,-7.55,3.16
21.44,-13.35,-13.35,-16.50,-16.50,6.00,6.11,3.01,-7.35,-7.35,3.15
21.66,-13.15,-13.15,-16.27,-16.27,6.00,6.08,3.10,-7.15,-7.15,3.13
21.87,-12.93,-12.93,-16.04,-16.04,6.00,6.05,3.19,-6.93,-6.93,3.11
22.09,-12.70,-12.70,-15.80,-15.79,6.00,6.02,3.28,-6.70,-6.70,3.10
22.31,-12.46,-12.46,-15.53,-15.53,6.00,5.99,3.38,-6.46,-6.46,3.07
22.54,-12.22,-12.22,-15.26,-15.26,6.00,5.96,3.48,-6.22,-6.22,3.05
22.76,-11.96,-11.96,-14.99,-14.98,6.00,5.94,3.58,-5.96,-5.96,3.02
22.99,-11.71,-11.71,-14.70,-14.70,6.00,5.91,3.68,-5.71,-5.71,2.99
23.22,-11.45,-11.45,-14.41,-14.41,6.00,5.88,3.79,-5.45,-5.45,2.96
23.45,-11.19,-11.19,-14.13,-14.14,6.00,5.85,3.90,-5.19,-5.19,2.94
23.69,-10.94,-10.94,-13.87,-13.87,6.00,5.83,4.01,-4.94,-4.94,2.93
23.92,-10.69,-10.69,-13.60,-13.60,6.00,5.80,4.12,-4.69,-4.69,2.91
24.16,-10.44,-10.45,-13.34,-13.34,6.00,5.78,4.24,-4.44,-4.45,2.90
24.40,-10.21,-10.21,-13.09,-13.09,6.00,5.75,4.35,-4.21,-4.21,2.88
24.65,-9.99,-9.98,-12.84,-12.84,6.00,5.73,4.47,-3.99,-3.98,2.86
24.89,-9.75,-9.75,-12.59,-12.59,6.00,5.71,4.59,-3.75,-3.75,2.84
25.14,-9.52,-9.52,-12.35,-12.35,6.00,5.70,4.71,-3.52,-3.52,2.83
25.39,-9.30,-9.30,-12.11,-12.11,6.00,5.68,4.83,-3.30,-3.30,2.80
25.65,-9.09,-9.08,-11.88,-11.87,6.00,5.67,4.96,-3.09,-3.08,2.79
25.91,-8.87,-8.86,-11.63,-11.63,6.00,5.66,5.08,-2.87,-2.86,2.76
26.16,-8.63,-8.64,-11.38,-11.39,6.00,5.66,5.20,-2.63,-2.64,2.75
26.43,-8.41,-8.40,-11.15,-11.14,6.00,5.65,5.32,-2.41,-2.40,2.74
26.69,-8.16,-8.17,-10.88,-10.89,6.00,5.66,5.44,-2.16,-2.17,2.72
26.96,-7.93,-7.93,-10.64,-10.64,6.00,5.67,5.55,-1.93,-1.93,2.71
27.23,-7.69,-7.69,-10.38,-10.38,6.00,5.69,5.66,-1.69,-1.69,2.70
27.50,-7.45,-7.44,-10.13,-10.13,6.00,5.71,5.77,-1.45,-1.44,2.69
27.77,-7.20,-7.20,-9.87,-9.87,6.00,5.74,5.87,-1.20,-1.20,2.66
28.05,-6.96,-6.97,-9.62,-9.62,6.00,5.78,5.97,-0.96,-0.97,2.65
28.33,-6.73,-6.73,-9.36,-9.36,6.00,5.83,6.06,-0.73,-0.73,2.63
28.62,-6.50,-6.50,-9.12,-9.12,6.00,5.89,6.15,-0.50,-0.50,2.62
28.90,-6.26,-6.27,-8.87,-8.87,6.00,5.96,6.22,-0.26,-0.27,2.61
29.19,-6.03,-6.03,-8.62,-8.63,6.00,6.03,6.28,-0.03,-0.03,2.59
29.48,-5.80,-5.80,-8.39,-8.38,6.00,6.11,6.33,0.20,0.20,2.58
29.78,-5.57,-5.57,-8.14,-8.14,6.00,6.19,6.37,0.43,0.43,2.57
30.08,-5.34,-5.33,-7.90,-7.89,6.00,6.26,6.40,0.66,0.67,2.56
30.38,-5.10,-5.10,-7.64,-7.64,6.01,6.33,6.41,0.91,0.91,2.54
30.68,-4.86,-4.86,-7.38,-7.38,6.02,6.36,6.41,1.17,1.17,2.53
30.99,-4.62,-4.62,-7.12,-7.13,6.04,6.39,6.40,1.42,1.42,2.51
31.30,-4.39,-4.39,-6.88,-6.88,6.04,6.36,6.36,1.66,1.65,2.49
31.61,-4.17,-4.16,-6.65,-6.64,6.03,6.31,6.32,1.86,1.86,2.48
31.93,-3.95,-3.94,-6.41,-6.40,5.98,6.20,6.26,2.03,2.04,2.46
32.24,-3.72,-3.72,-6.15,-6.16,5.90,6.06,6.19,2.18,2.18,2.43
32.57,-3.51,-3.50,-5.92,-5.92,5.79,5.87,6.09,2.28,2.29,2.41
32.89,-3.28,-3.29,-5.68,-5.68,5.64,5.67,5.99,2.36,2.36,2.40
33.22,-3.07,-3.07,-5.44,-5.45,5.47,5.42,5.87,2.39,2.39,2.37
33.55,-2.86,-2.86,-5.22,-5.22,5.26,5.18,5.75,2.40,2.40,2.36
33.89,-2.66,-2.65,-4.99,-4.99,5.03,4.92,5.61,2.37,2.37,2.33
34.23,-2.45,-2.44,-4.76,-4.75,4.78,4.66,5.46,2.34,2.34,2.31
34.57,-2.23,-2.24,-4.52,-4.52,4.53,4.40,5.30,2.30,2.30,2.29
34.92,-2.03,-2.03,-4.29,-4.29,4.29,4.15,5.13,2.26,2.26,2.26
35.27,-1.82,-1.82,-4.07,-4.06,4.06,3.91,4.96,2.24,2.24,2.25
35.62,-1.61,-1.61,-3.83,-3.83,3.83,3.67,4.78,2.22,2.22,2.23
35.97,-1.39,-1.39,-3.59,-3.60,3.60,3.44,4.59,2.21,2.21,2.20
36.33,-1.18,-1.18,-3.37,-3.37,3.37,3.22,4.40,2.19,2.19,2.19
36.70,-0.98,-0.97,-3.14,-3.14,3.14,3.01,4.20,2.17,2.17,2.17
37.06,-0.77,-0.77,-2.91,-2.92,2.92,2.81,4.00,2.15,2.15,2.14
37.43,-0.56,-0.57,-2.69,-2.69,2.69,2.61,3.80,2.13,2.13,2.13
37.81,-0.38,-0.37,-2.48,-2.47,2.47,2.41,3.59,2.10,2.10,2.10
38.19,-0.18,-0.18,-2.25,-2.26,2.25,2.22,3.39,2.08,2.08,2.08
38.57,0.01,0.02,-2.05,-2.04,2.04,2.04,3.18,2.06,2.06,2.06
38.95,0.21,0.21,-1.83,-1.83,1.83,1.86,2.97,2.04,2.04,2.04
39.34,0.40,0.40,-1.62,-1.62,1.62,1.67,2.76,2.02,2.02,2.01
39.74,0.58,0.58,-1.40,-1.41,1.42,1.50,2.55,2.00,2.00,1.99
40.14,0.76,0.76,-1.22,-1.21,1.21,1.32,2.34,1.98,1.98,1.98
40.54,0.94,0.94,-1.01,-1.01,1.01,1.14,2.13,1.96,1.96,1.96
40.94,1.12,1.12,-0.82,-0.82,0.82,0.97,1.92,1.94,1.94,1.94
41.35,1.30,1.29,-0.62,-0.63,0.63,0.80,1.70,1.92,1.92,1.92
41.76,1.47,1.47,-0.44,-0.44,0.44,0.62,1.49,1.91,1.91,1.91
42.18,1.64,1.64,-0.26,-0.25,0.25,0.45,1.28,1.89,1.89,1.89
42.60,1.81,1.80,-0.06,-0.07,0.07,0.28,1.07,1.87,1.87,1.87
43.03,1.97,1.97,0.11,0.11,-0.12,0.10,0.86,1.85,1.85,1.86
43.46,2.13,2.13,0.29,0.30,-0.30,-0.07,0.65,1.83,1.83,1.83
43.90,2.28,2.29,0.48,0.48,-0.48,-0.24,0.44,1.81,1.81,1.80
44.33,2.45,2.44,0.66,0.66,-0.65,-0.42,0.23,1.79,1.79,1.79
44.78,2.59,2.59,0.83,0.83,-0.83,-0.59,0.03,1.77,1.77,1.77
45.23,2.73,2.74,0.99,1.00,-0.99,-0.76,-0.18,1.74,1.75,1.74
45.68,2.88,2.88,1.16,1.16,-1.16,-0.93,-0.39,1.73,1.73,1.72
46.13,3.03,3.02,1.32,1.32,-1.31,-1.11,-0.60,1.71,1.71,1.70
46.60,3.15,3.16,1.46,1.47,-1.47,-1.28,-0.81,1.69,1.69,1.69
47.06,3.30,3.29,1.62,1.62,-1.62,-1.45,-1.02,1.67,1.67,1.67
47.53,3.43,3.42,1.77,1.76,-1.77,-1.62,-1.23,1.65,1.65,1.65
48.01,3.54,3.55,1.90,1.91,-1.92,-1.79,-1.43,1.63,1.63,1.64
48.49,3.66,3.67,2.05,2.06,-2.07,-1.96,-1.64,1.60,1.60,1.61
48.97,3.80,3.79,2.21,2.21,-2.21,-2.13,-1.85,1.59,1.58,1.58
49.46,3.91,3.91,2.36,2.36,-2.35,-2.29,-2.05,1.56,1.56,1.55
49.96,4.02,4.02,2.51,2.50,-2.49,-2.45,-2.26,1.54,1.54,1.52
50.46,4.13,4.14,2.62,2.63,-2.62,-2.62,-2.46,1.51,1.51,1.52
50.96,4.25,4.24,2.75,2.76,-2.75,-2.77,-2.67,1.49,1.49,1.49
51.47,4.35,4.35,2.89,2.88,-2.88,-2.93,-2.87,1.46,1.46,1.46
51.99,4.44,4.45,3.01,3.00,-3.01,-3.08,-3.07,1.44,1.44,1.44
52.51,4.54,4.54,3.12,3.12,-3.13,-3.23,-3.27,1.42,1.42,1.42
53.03,4.64,4.64,3.24,3.24,-3.24,-3.37,-3.46,1.39,1.39,1.40
53.56,4.74,4.73,3.36,3.36,-3.36,-3.51,-3.66,1.37,1.37,1.37
54.10,4.82,4.83,3.48,3.48,-3.48,-3.64,-3.84,1.35,1.35,1.35
54.64,4.91,4.91,3.59,3.59,-3.59,-3.77,-4.03,1.33,1.33,1.32
55.18,5.00,5.00,3.70,3.70,-3.70,-3.90,-4.21,1.30,1.30,1.30
55.74,5.07,5.08,3.81,3.80,-3.81,-4.01,-4.38,1.27,1.27,1.27
56.29,5.16,5.16,3.90,3.91,-3.91,-4.13,-4.55,1.24,1.24,1.25
56.86,5.23,5.24,4.01,4.01,-4.02,-4.23,-4.71,1.22,1.22,1.22
57.42,5.32,5.31,4.12,4.11,-4.11,-4.33,-4.86,1.20,1.20,1.19
58.00,5.39,5.39,4.21,4.22,-4.21,-4.42,-5.01,1.17,1.18,1.17
58.58,5.46,5.46,4.31,4.31,-4.31,-4.51,-5.14,1.15,1.15,1.15
59.16,5.53,5.52,4.40,4.40,-4.40,-4.59,-5.27,1.13,1.13,1.12
59.76,5.58,5.59,4.48,4.49,-4.49,-4.67,-5.38,1.10,1.10,1.10
60.35,5.65,5.65,4.57,4.57,-4.57,-4.74,-5.48,1.07,1.07,1.07
60.96,5.71,5.70,4.65,4.65,-4.66,-4.80,-5.58,1.05,1.04,1.06
61.57,5.76,5.76,4.74,4.74,-4.74,-4.86,-5.66,1.02,1.02,1.02
62.18,5.81,5.80,4.82,4.82,-4.82,-4.91,-5.73,0.99,0.99,0.98
62.80,5.85,5.85,4.89,4.90,-4.89,-4.95,-5.78,0.95,0.96,0.96
63.43,5.90,5.89,4.97,4.97,-4.96,-5.00,-5.83,0.93,0.93,0.92
64.07,5.93,5.93,5.03,5.03,-5.03,-5.03,-5.86,0.90,0.90,0.90
64.71,5.97,5.96,5.09,5.09,-5.08,-5.06,-5.88,0.88,0.88,0.88
65.35,6.00,5.99,5.14,5.14,-5.14,-5.09,-5.89,0.86,0.85,0.85
66.01,6.02,6.02,5.18,5.19,-5.19,-5.12,-5.89,0.83,0.83,0.83
66.67,6.04,6.04,5.23,5.23,-5.23,-5.14,-5.88,0.80,0.80,0.81
67.33,6.06,6.05,5.27,5.27,-5.27,-5.16,-5.86,0.78,0.78,0.79
68.01,6.07,6.07,5.31,5.31,-5.31,-5.18,-5.84,0.76,0.76,0.76
68.69,6.08,6.07,5.34,5.34,-5.34,-5.19,-5.80,0.74,0.74,0.73
69.37,6.08,6.08,5.37,5.37,-5.37,-5.21,-5.76,0.71,0.71,0.70
70.07,6.08,6.07,5.40,5.39,-5.39,-5.22,-5.71,0.68,0.68,0.68
70.77,6.07,6.07,5.41,5.41,-5.42,-5.23,-5.66,0.65,0.65,0.66
71.48,6.06,6.06,5.43,5.43,-5.44,-5.24,-5.61,0.62,0.62,0.62
72.19,6.05,6.04,5.45,5.45,-5.45,-5.24,-5.55,0.59,0.59,0.60
72.91,6.03,6.03,5.47,5.47,-5.47,-5.25,-5.48,0.56,0.56,0.56
73.64,6.01,6.01,5.48,5.48,-5.48,-5.26,-5.42,0.52,0.53,0.52
74.38,5.99,5.98,5.49,5.50,-5.49,-5.27,-5.36,0.49,0.49,0.50
75.12,5.96,5.96,5.51,5.50,-5.50,-5.27,-5.29,0.46,0.46,0.45
75.87,5.93,5.92,5.51,5.50,-5.50,-5.28,-5.22,0.42,0.42,0.42
76.63,5.89,5.89,5.50,5.51,-5.50,-5.29,-5.16,0.38,0.38,0.39
77.40,5.85,5.85,5.50,5.50,-5.50,-5.29,-5.09,0.34,0.34,0.35
78.17,5.81,5.80,5.51,5.50,-5.50,-5.30,-5.03,0.31,0.31,0.29
78.95,5.76,5.76,5.48,5.49,-5.49,-5.30,-4.97,0.27,0.27,0.27
79.74,5.71,5.70,5.48,5.48,-5.48,-5.31,-4.91,0.23,0.23,0.23
80.54,5.65,5.65,5.46,5.46,-5.47,-5.32,-4.85,0.18,0.18,0.18
81.35,5.60,5.59,5.46,5.45,-5.45,-5.32,-4.80,0.14,0.14,0.14
82.16,5.54,5.53,5.44,5.44,-5.44,-5.32,-4.74,0.10,0.10,0.09
82.98,5.47,5.47,5.41,5.42,-5.42,-5.33,-4.70,0.05,0.05,0.06
83.81,5.41,5.40,5.40,5.40,-5.40,-5.33,-4.65,0.01,0.00,0.00
84.65,5.34,5.34,5.38,5.38,-5.38,-5.33,-4.61,-0.04,-0.04,-0.05
85.50,5.27,5.27,5.35,5.36,-5.35,-5.33,-4.57,-0.09,-0.09,-0.09
86.35,5.20,5.19,5.33,5.33,-5.33,-5.33,-4.53,-0.13,-0.14,-0.13
87.22,5.12,5.12,5.30,5.30,-5.30,-5.33,-4.50,-0.19,-0.19,-0.18
88.09,5.04,5.04,5.27,5.27,-5.28,-5.33,-4.47,-0.24,-0.24,-0.24
88.97,4.97,4.96,5.24,5.24,-5.25,-5.32,-4.45,-0.28,-0.28,-0.28
89.86,4.89,4.88,5.21,5.22,-5.22,-5.32,-4.42,-0.33,-0.33,-0.33
90.76,4.81,4.81,5.20,5.19,-5.19,-5.31,-4.40,-0.38,-0.38,-0.39
91.66,4.72,4.72,5.16,5.16,-5.16,-5.30,-4.39,-0.43,-0.43,-0.43
92.58,4.65,4.64,5.14,5.13,-5.13,-5.28,-4.38,-0.48,-0.48,-0.50
93.51,4.56,4.56,5.08,5.09,-5.09,-5.27,-4.37,-0.54,-0.54,-0.53
94.44,4.48,4.47,5.06,5.06,-5.06,-5.25,-4.36,-0.59,-0.59,-0.58
95.39,4.39,4.39,5.02,5.02,-5.03,-5.23,-4.36,-0.65,-0.65,-0.64
96.34,4.30,4.30,5.00,5.00,-5.00,-5.20,-4.36,-0.70,-0.70,-0.70
97.30,4.22,4.21,4.97,4.97,-4.97,-5.18,-4.37,-0.75,-0.75,-0.76
98.28,4.13,4.12,4.94,4.94,-4.94,-5.15,-4.38,-0.81,-0.81,-0.81
99.26,4.04,4.03,4.91,4.91,-4.91,-5.12,-4.38,-0.87,-0.87,-0.88
100.25,3.94,3.94,4.87,4.87,-4.87,-5.08,-4.40,-0.94,-0.93,-0.93
101.25,3.84,3.85,4.84,4.84,-4.84,-5.05,-4.41,-1.00,-1.00,-0.99
102.27,3.76,3.75,4.81,4.81,-4.81,-5.01,-4.43,-1.05,-1.06,-1.06
103.29,3.66,3.66,4.78,4.78,-4.78,-4.97,-4.44,-1.12,-1.12,-1.12
104.32,3.57,3.56,4.74,4.74,-4.74,-4.93,-4.46,-1.18,-1.18,-1.18
105.37,3.47,3.47,4.70,4.71,-4.71,-4.88,-4.48,-1.24,-1.24,-1.24
106.42,3.38,3.37,4.68,4.67,-4.67,-4.84,-4.50,-1.30,-1.30,-1.30
107.48,3.28,3.27,4.64,4.64,-4.64,-4.79,-4.52,-1.37,-1.37,-1.37
108.56,3.18,3.18,4.61,4.61,-4.61,-4.74,-4.54,-1.43,-1.43,-1.43
109.64,3.07,3.08,4.58,4.57,-4.57,-4.69,-4.56,-1.50,-1.50,-1.50
110.74,2.98,2.98,4.53,4.54,-4.54,-4.63,-4.58,-1.56,-1.56,-1.56
111.85,2.88,2.88,4.50,4.50,-4.51,-4.58,-4.60,-1.63,-1.63,-1.62
112.97,2.78,2.78,4.48,4.47,-4.47,-4.52,-4.61,-1.70,-1.70,-1.71
114.10,2.68,2.68,4.44,4.44,-4.44,-4.47,-4.63,-1.76,-1.76,-1.76
115.24,2.58,2.58,4.40,4.41,-4.40,-4.41,-4.64,-1.83,-1.83,-1.83
116.39,2.48,2.47,4.38,4.37,-4.37,-4.35,-4.65,-1.89,-1.90,-1.90
117.55,2.37,2.37,4.33,4.33,-4.33,-4.29,-4.65,-1.97,-1.96,-1.97
118.73,2.27,2.27,4.30,4.29,-4.29,-4.24,-4.66,-2.03,-2.03,-2.03
119.92,2.17,2.16,4.25,4.25,-4.25,-4.18,-4.65,-2.09,-2.09,-2.08
121.12,2.07,2.07,4.21,4.21,-4.21,-4.12,-4.65,-2.14,-2.14,-2.15
122.33,1.97,1.97,4.17,4.17,-4.17,-4.06,-4.63,-2.20,-2.20,-2.21
123.55,1.87,1.86,4.13,4.12,-4.12,-4.00,-4.62,-2.26,-2.26,-2.26
124.79,1.76,1.76,4.08,4.08,-4.08,-3.94,-4.60,-2.32,-2.32,-2.32
126.03,1.66,1.66,4.03,4.03,-4.04,-3.88,-4.57,-2.38,-2.38,-2.37
127.29,1.56,1.55,3.99,3.99,-3.99,-3.82,-4.54,-2.44,-2.44,-2.43
128.57,1.46,1.46,3.96,3.95,-3.95,-3.76,-4.51,-2.49,-2.49,-2.50
129.85,1.36,1.36,3.90,3.91,-3.90,-3.70,-4.47,-2.55,-2.55,-2.55
131.15,1.27,1.26,3.86,3.86,-3.86,-3.65,-4.43,-2.59,-2.60,-2.60
132.46,1.17,1.17,3.82,3.81,-3.81,-3.59,-4.38,-2.65,-2.65,-2.65
133.79,1.07,1.07,3.76,3.77,-3.76,-3.53,-4.33,-2.70,-2.70,-2.69
135.12,0.98,0.97,3.72,3.71,-3.71,-3.48,-4.27,-2.74,-2.74,-2.75
136.48,0.88,0.87,3.66,3.66,-3.66,-3.42,-4.21,-2.79,-2.79,-2.78
137.84,0.78,0.78,3.59,3.61,-3.61,-3.37,-4.15,-2.83,-2.83,-2.82
139.22,0.69,0.68,3.56,3.55,-3.55,-3.31,-4.08,-2.86,-2.86,-2.87
140.61,0.60,0.59,3.51,3.49,-3.49,-3.26,-4.01,-2.89,-2.90,-2.91
142.02,0.50,0.50,3.42,3.43,-3.43,-3.20,-3.94,-2.93,-2.93,-2.93
143.44,0.41,0.41,3.36,3.37,-3.37,-3.15,-3.87,-2.96,-2.96,-2.96
144.87,0.32,0.31,3.31,3.31,-3.31,-3.10,-3.80,-2.99,-2.99,-3.00
146.32,0.23,0.22,3.25,3.25,-3.25,-3.05,-3.72,-3.02,-3.02,-3.03
147.78,0.14,0.14,3.18,3.19,-3.19,-3.00,-3.65,-3.05,-3.05,-3.05
149.26,0.05,0.05,3.12,3.13,-3.13,-2.95,-3.57,-3.08,-3.08,-3.07
150.75,-0.03,-0.04,3.08,3.07,-3.07,-2.90,-3.50,-3.10,-3.11,-3.11
152.26,-0.12,-0.13,3.01,3.01,-3.01,-2.85,-3.42,-3.13,-3.13,-3.14
153.78,-0.21,-0.21,2.95,2.95,-2.95,-2.81,-3.35,-3.17,-3.16,-3.16
155.32,-0.29,-0.30,2.89,2.89,-2.90,-2.76,-3.28,-3.19,-3.19,-3.19
156.88,-0.37,-0.38,2.84,2.84,-2.84,-2.71,-3.20,-3.22,-3.22,-3.21
158.44,-0.45,-0.45,2.79,2.79,-2.79,-2.67,-3.13,-3.24,-3.24,-3.24
160.03,-0.53,-0.54,2.74,2.74,-2.74,-2.62,-3.06,-3.27,-3.27,-3.28
161.63,-0.61,-0.62,2.69,2.69,-2.69,-2.58,-2.99,-3.30,-3.30,-3.31
163.24,-0.69,-0.69,2.63,2.64,-2.64,-2.54,-2.92,-3.33,-3.33,-3.33
164.88,-0.76,-0.77,2.58,2.59,-2.59,-2.49,-2.86,-3.36,-3.36,-3.35
166.53,-0.83,-0.84,2.54,2.54,-2.55,-2.45,-2.79,-3.38,-3.38,-3.38
168.19,-0.90,-0.90,2.51,2.51,-2.50,-2.41,-2.73,-3.41,-3.41,-3.42
169.87,-0.97,-0.98,2.47,2.47,-2.46,-2.37,-2.67,-3.44,-3.44,-3.44
171.57,-1.04,-1.05,2.43,2.42,-2.43,-2.33,-2.61,-3.47,-3.47,-3.47
173.29,-1.11,-1.11,2.38,2.39,-2.39,-2.29,-2.55,-3.51,-3.50,-3.50
175.02,-1.17,-1.18,2.36,2.36,-2.36,-2.25,-2.50,-3.54,-3.54,-3.53
176.77,-1.23,-1.24,2.34,2.33,-2.33,-2.21,-2.44,-3.57,-3.57,-3.58
178.54,-1.30,-1.30,2.31,2.31,-2.31,-2.18,-2.39,-3.61,-3.61,-3.61
180.32,-1.35,-1.36,2.29,2.29,-2.29,-2.14,-2.34,-3.64,-3.64,-3.64
182.13,-1.41,-1.42,2.26,2.26,-2.27,-2.10,-2.29,-3.68,-3.68,-3.68
183.95,-1.47,-1.47,2.24,2.24,-2.25,-2.06,-2.24,-3.72,-3.72,-3.72
185.79,-1.52,-1.53,2.23,2.23,-2.23,-2.03,-2.20,-3.75,-3.75,-3.75
187.65,-1.57,-1.58,2.22,2.21,-2.21,-1.99,-2.16,-3.78,-3.78,-3.79
189.52,-1.62,-1.62,2.20,2.19,-2.19,-1.96,-2.12,-3.81,-3.81,-3.82
191.42,-1.67,-1.68,2.18,2.17,-2.17,-1.92,-2.08,-3.84,-3.85,-3.85
193.33,-1.72,-1.72,2.14,2.15,-2.15,-1.89,-2.04,-3.88,-3.88,-3.87
195.27,-1.77,-1.77,2.12,2.13,-2.13,-1.86,-2.00,-3.91,-3.91,-3.90
197.22,-1.81,-1.82,2.11,2.11,-2.12,-1.82,-1.97,-3.93,-3.93,-3.92
199.19,-1.86,-1.86,2.11,2.10,-2.10,-1.79,-1.93,-3.96,-3.96,-3.97
201.18,-1.90,-1.90,2.08,2.09,-2.08,-1.76,-1.90,-3.98,-3.98,-3.99
203.19,-1.94,-1.95,2.06,2.06,-2.06,-1.72,-1.87,-4.00,-4.01,-4.00
205.23,-1.98,-1.98,2.05,2.04,-2.04,-1.69,-1.84,-4.03,-4.03,-4.03
207.28,-2.02,-2.02,2.01,2.02,-2.02,-1.66,-1.81,-4.05,-4.05,-4.04
209.35,-2.06,-2.07,2.01,2.00,-2.00,-1.63,-1.78,-4.07,-4.07,-4.07
211.44,-2.10,-2.10,1.99,1.98,-1.98,-1.60,-1.76,-4.09,-4.09,-4.09
213.56,-2.14,-2.14,1.96,1.96,-1.96,-1.57,-1.73,-4.11,-4.10,-4.11
215.69,-2.17,-2.18,1.94,1.94,-1.94,-1.54,-1.71,-4.12,-4.12,-4.11
217.85,-2.21,-2.21,1.91,1.92,-1.92,-1.51,-1.68,-4.13,-4.13,-4.12
220.03,-2.24,-2.25,1.90,1.89,-1.89,-1.48,-1.66,-4.14,-4.14,-4.15
222.23,-2.28,-2.28,1.87,1.87,-1.87,-1.45,-1.63,-4.15,-4.15,-4.16
224.45,-2.31,-2.32,1.83,1.84,-1.84,-1.42,-1.61,-4.15,-4.15,-4.15
226.70,-2.35,-2.35,1.81,1.81,-1.81,-1.39,-1.59,-4.16,-4.16,-4.16
228.96,-2.38,-2.38,1.78,1.77,-1.77,-1.37,-1.56,-4.16,-4.16,-4.16
231.25,-2.41,-2.42,1.74,1.74,-1.74,-1.34,-1.54,-4.15,-4.16,-4.15
233.57,-2.44,-2.44,1.70,1.70,-1.70,-1.31,-1.52,-4.15,-4.15,-4.14
235.90,-2.47,-2.47,1.67,1.67,-1.67,-1.28,-1.49,-4.14,-4.14,-4.14
238.26,-2.50,-2.50,1.64,1.63,-1.63,-1.26,-1.47,-4.13,-4.13,-4.14
240.64,-2.53,-2.54,1.59,1.59,-1.59,-1.23,-1.44,-4.12,-4.12,-4.12
243.05,-2.56,-2.56,1.54,1.54,-1.54,-1.20,-1.42,-4.11,-4.11,-4.11
245.48,-2.59,-2.59,1.49,1.50,-1.50,-1.17,-1.39,-4.10,-4.09,-4.09
247.93,-2.61,-2.62,1.46,1.46,-1.46,-1.15,-1.37,-4.07,-4.08,-4.08
250.41,-2.64,-2.64,1.42,1.41,-1.41,-1.12,-1.34,-4.06,-4.06,-4.06
252.92,-2.66,-2.66,1.37,1.37,-1.37,-1.09,-1.31,-4.04,-4.03,-4.03
255.45,-2.68,-2.69,1.32,1.32,-1.33,-1.07,-1.28,-4.01,-4.01,-4.01
258.00,-2.70,-2.70,1.28,1.28,-1.28,-1.04,-1.26,-3.99,-3.99,-3.98
260.58,-2.72,-2.72,1.25,1.24,-1.24,-1.02,-1.23,-3.97,-3.97,-3.97
263.19,-2.74,-2.74,1.20,1.20,-1.20,-0.99,-1.20,-3.94,-3.94,-3.95
265.82,-2.76,-2.77,1.16,1.16,-1.16,-0.96,-1.16,-3.92,-3.92,-3.92
268.48,-2.78,-2.78,1.12,1.11,-1.11,-0.94,-1.13,-3.90,-3.90,-3.90
271.16,-2.80,-2.80,1.06,1.07,-1.07,-0.91,-1.10,-3.88,-3.87,-3.87
273.87,-2.81,-2.82,1.04,1.03,-1.03,-0.89,-1.07,-3.85,-3.85,-3.85
276.61,-2.83,-2.83,0.98,0.99,-0.99,-0.86,-1.03,-3.82,-3.82,-3.82
279.38,-2.85,-2.85,0.95,0.95,-0.95,-0.83,-1.00,-3.80,-3.80,-3.80
282.17,-2.86,-2.87,0.91,0.91,-0.91,-0.81,-0.97,-3.77,-3.78,-3.78
284.99,-2.88,-2.88,0.87,0.87,-0.87,-0.78,-0.93,-3.76,-3.75,-3.75
287.84,-2.89,-2.89,0.83,0.83,-0.83,-0.75,-0.90,-3.73,-3.73,-3.73
290.72,-2.90,-2.91,0.79,0.79,-0.79,-0.72,-0.86,-3.70,-3.70,-3.69
293.63,-2.91,-2.91,0.76,0.76,-0.76,-0.70,-0.82,-3.67,-3.67,-3.68
296.57,-2.92,-2.92,0.72,0.72,-0.72,-0.67,-0.79,-3.64,-3.64,-3.64
299.53,-2.93,-2.93,0.68,0.68,-0.68,-0.64,-0.75,-3.61,-3.61,-3.62
302.53,-2.94,-2.95,0.64,0.64,-0.63,-0.61,-0.72,-3.58,-3.58,-3.59
305.55,-2.95,-2.95,0.59,0.60,-0.59,-0.58,-0.68,-3.55,-3.55,-3.54
308.61,-2.96,-2.96,0.55,0.55,-0.55,-0.55,-0.64,-3.52,-3.52,-3.52
311.69,-2.96,-2.97,0.52,0.51,-0.51,-0.52,-0.61,-3.48,-3.48,-3.48
314.81,-2.97,-2.97,0.47,0.47,-0.48,-0.49,-0.57,-3.45,-3.45,-3.44
317.96,-2.97,-2.98,0.44,0.44,-0.44,-0.46,-0.53,-3.41,-3.42,-3.42
321.14,-2.98,-2.98,0.41,0.41,-0.41,-0.42,-0.50,-3.39,-3.39,-3.39
324.35,-2.98,-2.98,0.38,0.37,-0.37,-0.39,-0.46,-3.36,-3.36,-3.36
327.59,-2.98,-2.99,0.34,0.34,-0.35,-0.36,-0.42,-3.33,-3.33,-3.33
330.87,-2.98,-2.98,0.31,0.32,-0.32,-0.32,-0.39,-3.31,-3.31,-3.30
334.18,-2.98,-2.98,0.30,0.29,-0.30,-0.28,-0.35,-3.28,-3.28,-3.28
337.52,-2.98,-2.98,0.27,0.27,-0.28,-0.24,-0.31,-3.26,-3.26,-3.25
340.90,-2.98,-2.98,0.24,0.25,-0.26,-0.20,-0.28,-3.24,-3.24,-3.23
344.30,-2.98,-2.98,0.22,0.22,-0.23,-0.16,-0.24,-3.22,-3.22,-3.21
347.75,-2.98,-2.98,0.20,0.21,-0.20,-0.11,-0.20,-3.18,-3.17,-3.18
351.23,-2.98,-2.98,0.18,0.18,-0.15,-0.07,-0.17,-3.13,-3.13,-3.16
354.74,-2.99,-3.02,0.15,0.13,-0.09,-0.02,-0.13,-3.09,-3.11,-3.15
358.28,-3.08,-3.08,0.04,0.05,-0.02,0.03,-0.09,-3.11,-3.10,-3.13
361.87,-3.16,-3.16,-0.05,-0.05,0.05,0.08,-0.06,-3.11,-3.11,-3.11
365.49,-3.24,-3.24,-0.16,-0.16,0.14,0.14,-0.02,-3.11,-3.11,-3.08
369.14,-3.31,-3.32,-0.24,-0.24,0.23,0.20,0.02,-3.09,-3.09,-3.07
372.83,-3.38,-3.38,-0.33,-0.33,0.32,0.25,0.05,-3.07,-3.07,-3.06
376.56,-3.44,-3.45,-0.41,-0.41,0.41,0.32,0.09,-3.04,-3.04,-3.04
380.33,-3.50,-3.50,-0.50,-0.49,0.49,0.38,0.12,-3.02,-3.01,-3.01
384.13,-3.55,-3.55,-0.56,-0.56,0.56,0.44,0.16,-2.99,-2.99,-2.99
387.97,-3.59,-3.60,-0.62,-0.63,0.63,0.51,0.20,-2.96,-2.97,-2.97
391.85,-3.64,-3.64,-0.69,-0.69,0.69,0.58,0.23,-2.95,-2.95,-2.95
395.77,-3.67,-3.68,-0.75,-0.75,0.75,0.65,0.27,-2.93,-2.93,-2.93
399.73,-3.70,-3.70,-0.80,-0.80,0.79,0.71,0.30,-2.91,-2.91,-2.91
403.72,-3.72,-3.72,-0.84,-0.84,0.84,0.78,0.34,-2.89,-2.89,-2.89
407.76,-3.73,-3.74,-0.87,-0.87,0.87,0.84,0.37,-2.86,-2.87,-2.87
411.84,-3.74,-3.74,-0.90,-0.90,0.90,0.90,0.40,-2.84,-2.84,-2.84
415.96,-3.74,-3.74,-0.92,-0.92,0.92,0.95,0.44,-2.82,-2.82,-2.82
420.12,-3.73,-3.74,-0.93,-0.94,0.94,1.00,0.47,-2.80,-2.80,-2.80
424.32,-3.72,-3.72,-0.95,-0.95,0.95,1.04,0.50,-2.78,-2.78,-2.77
428.56,-3.70,-3.71,-0.95,-0.95,0.95,1.07,0.53,-2.75,-2.75,-2.76
432.85,-3.68,-3.68,-0.95,-0.95,0.95,1.09,0.56,-2.74,-2.73,-2.74
437.18,-3.64,-3.65,-0.94,-0.94,0.94,1.10,0.59,-2.71,-2.71,-2.71
441.55,-3.60,-3.61,-0.93,-0.92,0.92,1.11,0.62,-2.69,-2.69,-2.68
445.96,-3.56,-3.56,-0.91,-0.90,0.89,1.10,0.64,-2.67,-2.67,-2.66
450.42,-3.49,-3.50,-0.85,-0.86,0.86,1.08,0.67,-2.64,-2.64,-2.64
454.93,-3.42,-3.43,-0.82,-0.82,0.82,1.05,0.69,-2.60,-2.60,-2.60
459.48,-3.35,-3.35,-0.77,-0.78,0.78,1.02,0.71,-2.57,-2.57,-2.58
464.07,-3.28,-3.28,-0.73,-0.74,0.74,0.98,0.73,-2.54,-2.54,-2.55
