frequency,raw,error,smoothed,error_smoothed,equalization,equalized_raw,equalized_smoothed,target
20,-4.7785514514196255,-8.89917220202754,-4.784113125235406,-8.904752120413654,5.999999999999998,1.2214485485803728,1.2158868747645926,4.120620750607913
21,-4.459936515740722,-8.612171660450054,-4.433631032030215,-8.58585555254382,6.0,1.540063484259278,1.566368967969785,4.152235144709332
22,-4.0625910762302295,-8.243039556253725,-4.092056084160596,-8.272482502521708,5.999999999999999,1.9374089237697696,1.907943915839403,4.180448480023496
23,-3.754304465498314,-7.959563815819852,-3.7593882816265483,-7.9646329703473215,6.0,2.245695534501686,2.2406117183734517,4.205259350321538
24,-3.4525803275672744,-7.67924642402151,-3.4356276244280677,-7.6623069560206485,5.999999999999997,2.547419672432723,2.5643723755719297,4.2266660964542355
25,-3.134255234415188,-7.378922009320986,-3.1202605525962186,-7.364999253330594,5.999999999999999,2.865744765584811,2.8797394474037805,4.244666774905798
26,-2.7568590267025495,-7.01611815075281,-2.813923335425216,-7.073341741666679,6.0,3.2431409732974505,3.186076664574784,4.259259124050261
27,-2.5920188457170887,-6.86252831942763,-2.5171856564737536,-6.787895754203236,6.0,3.4079811542829113,3.4828143435262464,4.270509473710542
28,-2.244144494453029,-6.522506135038977,-2.2307900261091915,-6.509384327298149,5.962729690204384,3.7185851957513547,3.7319396640951923,4.278361640585948
29,-1.9208326732604373,-6.203619364772149,-1.955504370958887,-6.238540391850256,5.8860315871500815,3.965198913889644,3.9305272161911944,4.282786691511712
30,-1.6422354999810507,-5.925973188641845,-1.6917551397134196,-5.975738594351185,5.7738737581882225,4.131638258207172,4.082118618474803,4.2837376886607945
31,-1.4163854752090785,-5.697532342083957,-1.4396173509524033,-5.720982377792321,5.626389228860328,4.210003753651249,4.186771877907924,4.281146866874879
32,-1.2332756477900269,-5.508199929316492,-1.1987219232939992,-5.473811456260609,5.445135147503518,4.2118594997134915,4.246413224209519,4.274924281526465
33,-1.0159409025142287,-5.280899522922423,-0.9683074102110549,-5.23335537859609,5.23335537859609,4.217414476081862,4.265047968385035,4.264958620408194
34,-0.7370630861879464,-4.988195142122985,-0.7473812093408232,-4.99849851370889,4.99849851370889,4.261435427520944,4.2511173043680675,4.251132055935038
35,-0.5000432054999672,-4.733357766758103,-0.5349010643492327,-4.768067844156839,4.768067844156838,4.268024638656871,4.233166779807606,4.233314561258136
36,-0.3295473209920711,-4.540922438495396,-0.3299821411308531,-4.541048481307092,4.541048481307092,4.211501160315021,4.211066340176239,4.211375117503325
37,-0.13361481032587746,-4.318807015262699,-0.132058388175294,-4.316755740538341,4.316755740538341,4.183140930212464,4.184697352363047,4.185192204936822
38,0.03984540982681966,-4.1148210413126245,0.05903782136907348,-4.094927651396689,4.094927651396687,4.134773061223506,4.15396547276576,4.154666451139444
39,0.1892164343697575,-3.9305186554760074,0.24309529928361495,-3.8757200974007406,3.8757200974007406,4.064936531770498,4.118815396684355,4.119735089845765
40,0.44023369036092763,-3.640154071558536,0.4196490614765067,-3.659598070122419,3.6595980701224193,4.099831760483347,4.079247131598926,4.0803877619194635
41,0.6891360952909195,-3.3475488167501437,0.5881829519341052,-3.4471502482949212,3.4471502482949212,4.136286343585841,4.035333200229027,4.036684912041063
42,0.6876307692355035,-3.3011446587180826,0.7483593972749847,-3.238876605379529,3.238876605379529,3.9265073746150323,3.9872360026545137,3.9887754279535863
43,0.8520173735836475,-3.0848965117957388,0.9002089882770243,-3.0350154122075903,3.0350154122075907,3.8870327857912383,3.935224400484615,3.9369138853793864
44,1.0810134903141901,-2.800462612503169,1.044213427795782,-2.8354750289821657,2.8354750289821666,3.9164885192963568,3.8796884567779486,3.881476102817359
45,1.2588367179830176,-2.5641351225160527,1.1812435962804255,-2.639907610347846,2.639907610347845,3.8987443283308627,3.8211512066282705,3.8229718404990702
46,1.2743077943261008,-2.487745640798267,1.3123619059033418,-2.4479144328159324,2.447914432815932,3.7222222271420327,3.7602763387192737,3.762053435124368
47,1.4419420388230768,-2.257577149903929,1.4385498692168412,-2.259320877928608,2.259320877928608,3.7012629167516846,3.697870747145449,3.699519188727006
48,1.4554656493405433,-2.180845083963102,1.5604564641340528,-2.0744246006781166,2.074424600678117,3.5298902500186604,3.63488106481217,3.6363107333036453
49,1.676730017189092,-1.8967735239775352,1.6782617324577784,-1.8941217775664547,1.894121777566454,3.570851794755546,3.5723835100242325,3.573503541166627
50,1.8911928554415027,-1.6210972989675776,1.79170910555802,-1.719857554828788,1.719857554828788,3.6110504102702907,3.511566660386808,3.5122901544090803
51,1.8778794432710586,-1.5760765953324043,1.9002935163982118,-1.5534135850090718,1.5534135850090716,3.4312930282801304,3.453707101407283,3.453956038603463
52,2.001939965722967,-1.3979083857554806,2.003528352499878,-1.3966099132617062,1.396609913261706,3.398549878984673,3.400138265761584,3.3998483514784477
53,2.061891406315979,-1.2894469093193273,2.101182556294427,-1.2510306076658577,1.2510306076658582,3.312922013981837,3.3522131639602852,3.351338315635306
54,2.2812145012100493,-1.0285637667740235,2.1933938396155677,-1.1178682466959364,1.1178682466959362,3.3990827479059855,3.311262086311504,3.309778267984073
55,2.280178288167017,-0.9962765586955684,2.2806190852216224,-0.9979276214314887,0.9979276214314887,3.278105909598506,3.278546706653111,3.2764548468625856
56,2.2600633387987794,-0.9924767478147483,2.3634541241662888,-0.8917581935182177,0.8917581935182177,3.151821532316997,3.2552123176845065,3.2525400866135277
57,2.501328003823628,-0.737714429999325,2.4424097736856103,-0.799830381428809,0.799830381428809,3.301158385252437,3.2422401551144193,3.239042433822953
58,2.461212759723622,-0.7755470908987063,2.5177458967853,-0.7226560089871059,0.7226560089871059,3.183868768710728,3.240401905772406,3.2367598506223283
59,2.636496210527653,-0.6097410052509704,2.589434919845849,-0.6607836105025837,0.6607836105025839,3.2972798210302368,3.250218530348433,3.2462372157786232
60,2.685007500935345,-0.5827226639166949,2.6572658267634464,-0.6146596303066809,0.6146596303066811,3.299667131242026,3.2719254570701275,3.26773016485204
61,2.682477265672156,-0.6187000571787094,2.7210377470803007,-0.5844082701030716,0.5844082701030717,3.2668855357752276,3.3054460171833724,3.301177322850865
62,2.783052058992885,-0.563130526703818,2.7807547228648124,-0.5696199790708043,0.5696199790708043,3.352672038063689,3.3503747019356167,3.346182585696703
63,2.8836268108829683,-0.5183818990001972,2.836734856838996,-0.569236578876986,0.5692365788769861,3.4528633897599543,3.405971435715982,3.4020087098831655
64,2.8836267269947116,-0.5839562651705821,2.8895844392515055,-0.5815831596718979,0.5815831596718981,3.4652098866666097,3.4711675989234037,3.4675829921652936
65,2.8836264206106264,-0.6578888661280629,2.9400429428956363,-0.6045410767293473,0.6045410767293472,3.4881674973399734,3.5445840196249834,3.541515286738689
66,2.984200528608805,-0.6379275155193103,2.988755445359698,-0.6358051670507456,0.6358051670507459,3.620005695659551,3.624560612410444,3.6221280441281154
67,3.081143178209517,-0.6263543160136913,3.0360552798244393,-0.6731415242617234,0.6731415242617231,3.75428470247124,3.7091968040861625,3.707497494223208
68,3.084773392127146,-0.7107311740074476,3.081833881629783,-0.7145674959951647,0.7145674959951646,3.7993408881223107,3.7964013776249477,3.7955045661345936
69,3.0646578685137036,-0.8192358009125806,3.125543052424939,-0.7584068648294597,0.7584068648294597,3.8230647333431635,3.883949917254399,3.8838936694262842
70,3.185348072034052,-0.78498900894362,3.1663312044745533,-0.8032164706164706,0.8032164706164705,3.9885645426505225,3.969547675091024,3.970337080977672
71,3.1853506844212522,-0.867151726166902,3.2032764997198897,-0.8476189227554847,0.8476189227554847,4.032969607176737,4.050895422475374,4.052502410588154
72,3.290401514130633,-0.8377189574376724,3.2356567938549157,-0.8900989139564226,0.8900989139564226,4.180500428087056,4.125755707811338,4.128120471568305
73,3.2964132144074214,-0.8986376534913609,3.2631917362282685,-0.9288251849679701,0.92882518496797,4.2252383993753915,4.192016921196238,4.195050867898782
74,3.2859508325835303,-0.9653918947755487,3.2862022620419236,-0.9615504106083264,0.9615504106083264,4.247501243191857,4.24775267265025,4.251342727359079
75,3.274957719914672,-1.0203305330106986,3.3056492616967885,-0.9856249564166437,0.9856249564166437,4.260582676331316,4.291274218113433,4.295288252925371
76,3.2658523288119117,-1.0596147893661065,3.323032482577714,-0.9981415294431455,0.9981415294431455,4.263993858255057,4.32117401202086,4.325467118178018
77,3.3865351537919177,-0.9542450219497334,3.3401535548158856,-0.996205369109149,0.996205369109149,4.3827405229010665,4.336358923925035,4.340780175741651
78,3.386507383199453,-0.9539640722015466,3.358775682475178,-0.9772965115100681,0.977296511510068,4.3638038947095215,4.336072193985246,4.3404714554009995
79,3.3864508066944548,-0.9376871651528398,3.3802460936061527,-0.9396576372126917,0.939657637212692,4.326108443907147,4.319903730818845,4.3241379718472945
80,3.3863613536375095,-0.9053660574206468,3.4051753942507954,-0.8826133799192724,0.8826133799192726,4.268974733556782,4.2877887741700675,4.291727411058156
81,3.3847153355235773,-0.8588089541917907,3.433274501783388,-0.8067207190161525,0.8067207190161525,4.19143605453973,4.239995220799541,4.243524289715368
82,3.386111043393899,-0.7940146134051949,3.4634209401102614,-0.7136792170780069,0.713679217078007,4.099790260471906,4.177100157188268,4.180125656799094
83,3.5308875833510776,-0.5715202241438417,3.493960722319436,-0.6059958103695425,0.6059958103695426,4.13688339372062,4.099956532688979,4.102407807494919
84,3.588397999563776,-0.42308778940684677,3.523168616994486,-0.48648306262996166,0.4864830626299617,4.074881062193738,4.009651679624447,4.011485788970623
85,3.587183527478723,-0.32148415621981385,3.549721671140345,-0.35773893776618887,0.357738937766189,3.944922465244912,3.907460608906534,3.908667683698537
86,3.5874670460141314,-0.2079387076460848,3.573022402770997,-0.22177587775434715,0.22177587775434715,3.8092429237684784,3.794798280525344,3.795405753660216
87,3.588016575413589,-0.08522994396853711,3.5932556662295863,-0.07991978632373706,0.07991978632373706,3.667936361737326,3.6731754525533233,3.673246519382126
88,3.5888754551801445,0.0450937163249403,3.6111626043545213,0.06700134029277245,-0.06700134029277244,3.521874114887372,3.544161264061749,3.543781738855204
89,3.5900439685550913,0.1814419127161857,3.6276263864576777,0.2182742940618335,-0.21827429406183352,3.3717696744932577,3.409352092395844,3.4086020558389056
90,3.5914579260906376,0.3222031042158151,3.6432389606883557,0.3728975403974265,-0.37289754039742656,3.2185603856932112,3.2703414202909293,3.2692548218748225
91,3.6935449015343957,0.5663376201283001,3.658021831394155,0.5293401552587755,-0.5293401552587753,3.1642047462756206,3.12868167613538,3.1272072814060956
92,3.6949138058393682,0.711097839869733,3.6714044299123785,0.6855751547835935,-0.6855751547835937,3.0093386510557747,2.985829275128785,2.9838159659696353
93,3.6958021106200696,0.8554993179378423,3.6824513741249714,0.8393809085965294,-0.8393809085965294,2.85642120202354,2.843070465528442,2.8403027926822273
94,3.6957889997418483,0.9980509758001044,3.690224645659674,0.9887872992563942,-0.9887872992563943,2.707001700485454,2.7014373464032797,2.697738023941744
95,3.6943959392951893,1.1373660026977657,3.6941141095771375,1.132477839419169,-1.1324778394191688,2.5619180998760207,2.561636270157969,2.5570299365974236
96,3.691125077735031,1.2722042942110923,3.6939901629280367,1.2699719341086486,-1.2699719341086484,2.4211531436263822,2.4240182288193886,2.4189207835239386
97,3.6855067440704885,1.4015183258453487,3.6901147227275057,1.4014978676537766,-1.4014978676537764,2.284008876416712,2.2886168550737294,2.2839884182251398
98,3.6771508484809434,1.5244980493307994,3.6828551130583618,1.5275927661930369,-1.5275927661930369,2.1495580822879066,2.155262346865325,2.152652799150144
99,3.6657959724727096,1.6406094765261932,3.672334330944839,1.648581451725034,-1.648581451725034,2.0172145207476757,2.023752879219805,2.0251864959465165
100,3.6513498673262164,1.7496215851743409,3.658184234678517,1.7641455099397834,-1.7641455099397836,1.8872043573864328,1.8940387247387334,1.9017282821518755
101,3.6339159861104866,1.8516170742871458,3.639531827819354,1.873171615531974,-1.8731716155319742,1.7607443705785124,1.7663602122873796,1.7822989118233408
102,3.6138023901245013,1.9469841572902116,3.615256779966626,1.9739695886428206,-1.9739695886428206,1.6398328014816808,1.6412871913238054,1.6668182328342898
104,3.5915115815191174,2.0983533297273724,3.5844453299067327,2.064810074534877,-2.064810074534876,1.5267015069842413,1.5196352553718566,1.493158251791745
105,3.5677121268555623,2.1827737566270393,3.5468755161064482,2.1446012728581825,-2.1446012728581825,1.4231108539973798,1.4022742432482658,1.3849383702285227
106,3.5431949840036023,2.2630752243971997,3.5033392064088322,2.2134561184160138,-2.2134561184160138,1.3297388655875886,1.2898830879928185,1.2801197596064027
107,3.4916294633216807,2.313239828669011,3.455653586324143,2.2729265971250143,-2.2729265971250143,1.2187028661966663,1.1827269891991286,1.1783896346526697
108,3.394875895510842,2.315459442197624,3.4063242020814224,2.3257952960034367,-2.3257952960034367,1.069080599507405,1.0805289060779857,1.0794164533132178
109,3.3188047251133366,2.33594156309816,3.357952204624012,2.375473859557009,-2.375473859557009,0.9433308655563275,0.9824783450670029,0.9828631620151764
110,3.2537361568678342,2.365337325367834,3.3125783128768553,2.425201525921858,-2.425201525921857,0.8285346309459771,0.8873767869549982,0.8883988315000004
111,3.2377991189088884,2.4420904823067513,3.2711836555116705,2.4773071323335105,-2.4773071323335105,0.7604919865753779,0.7938765231781599,0.7957086366021369
112,3.22531064806479,2.520808466860471,3.2335100829523853,2.532767327484147,-2.5327673274841476,0.6925433205806426,0.7007427554682377,0.7045021812043191
113,3.2164346409204003,2.6019144396667566,3.1982444121280897,2.591178268175443,-2.5911782681754425,0.6252563727449578,0.6070661439526472,0.6145202012536437
114,3.211131020165998,2.685591322847118,3.163483363853347,2.651109232852561,-2.6511092328525616,0.5600217873134365,0.5123741310007852,0.5255396973188802
115,3.209171629951461,2.7717940723670043,3.12731081916189,2.710685527615779,-2.7106855276157793,0.4984861023356819,0.4166252915461106,0.43737755758445696
117,3.027293087134638,2.7321130667319906,3.0883057682854576,2.768197821202463,-2.7681978212024627,0.25909526593217524,0.32010794708299484,0.2951800204026471
118,3.0124809031592332,2.8030819520498036,3.045852825039921,2.8225633265879537,-2.822563326587953,0.1899175765712804,0.223289498451968,0.20939895110942963
119,3.0178366411216166,2.893648639194468,3.0002143565326933,2.873545157380013,-2.873545157380012,0.1442914837416045,0.12666919915268116,0.12418800192714885
120,2.9500311390459664,2.9105060519640276,2.9524011181851266,2.921726376468679,-2.921726376468679,0.028304762577287423,0.030674741716447684,0.0395250870819388
121,2.927929229399354,2.9725030868333135,2.903916856281216,2.968297877086237,-2.968297877086237,-0.0403686476868832,-0.06438102080502128,-0.04457385743395981
123,2.838622423538714,3.0140794786095886,2.8564501781898235,3.014742009826721,-3.0147420098267212,-0.1761195862880074,-0.15829183163689775,-0.17545705507087472
124,2.846383886517783,3.1033255941270443,2.8115643448667464,3.0624871212498164,-3.0624871212498164,-0.2161032347320333,-0.2509227763830699,-0.2569417076092615
125,2.774177051325464,3.111796404953148,2.7704168939880454,3.112591479329504,-3.1125914793295046,-0.3384144280040404,-0.3421745853414593,-0.3376193536276837
126,2.6689846327957953,3.086357461087859,2.733538580555929,3.165502735236266,-3.1655027352362657,-0.49651810244047034,-0.4319641546803368,-0.4173728282920637
128,2.6663731711709664,3.203269213496763,2.70070952005855,3.220932572312833,-3.2209325723128335,-0.5545594011418671,-0.5202230522542837,-0.5368960423257965
129,2.672482761813678,3.285582968547432,2.6709732199720744,3.2778769541218384,-3.2778769541218393,-0.6053941923081614,-0.606903734149765,-0.6131002067337539
130,2.678137170263073,3.3661272090636265,2.642811000129048,3.334790600997046,-3.3347906009970463,-0.6566534307339733,-0.6919796008679984,-0.6879900388005535
131,2.619824558075726,3.38126164611244,2.61445936406247,3.389890147024312,-3.3898901470243117,-0.7700655889485857,-0.7754307829618416,-0.7614370880367138
133,2.5875761958212355,3.4553504597864233,2.584308566778755,3.4415269278539427,-3.441526927853944,-0.8539507320327084,-0.8572183610751889,-0.8677742639651878
134,2.5919134707807756,3.5286909902057193,2.5512943688259577,3.488553222787409,-3.4885532227874094,-0.8966397520066338,-0.9372588539614517,-0.9367775194249435
135,2.5445201539591773,3.548569133346003,2.5152000180097778,3.5306129984511063,-3.5306129984511063,-0.986092844491929,-1.0154129804413285,-1.0040489793868261
137,2.4565673422201493,3.5558354176691305,2.476817890202378,3.56831478026114,-3.5683147802611392,-1.11174743804099,-1.0914968900587612,-1.0992680754489812
138,2.4005108948374563,3.5622889267754774,2.437961879417605,3.6032755366162768,-3.603275536616277,-1.202764641778821,-1.1653136571986722,-1.161778031938021
140,2.40250098363118,3.6514508141119455,2.4013518953846207,3.638044917915832,-3.638044917915831,-1.2355439342846513,-1.2366930225312105,-1.2489498304807656
141,2.403840082990462,3.7105498048365027,2.37039770960225,3.675920922559819,-3.6759209225598193,-1.2720808395693575,-1.3055232129575693,-1.3067097218460408
142,2.4045793562196933,3.767198010564372,2.348893895638626,3.7206562278270128,-3.720656227827013,-1.31607687160732,-1.3717623321883874,-1.3626186543446788
144,2.3042423192128116,3.7435656942402096,2.340617508289689,3.776043726860104,-3.776043726860104,-1.4718014076472925,-1.4354262185704152,-1.4393233750273977
145,2.30411609900819,3.7947699035978326,2.3488144059703333,3.845374337048689,-3.8453743370486886,-1.5412582380404984,-1.4965599310783553,-1.4906538045896425
147,2.3195501515112116,3.879793305902061,2.3755802904075476,3.9307865241616406,-3.9307865241616398,-1.6112363726504282,-1.5552062337540922,-1.5602431543908493
148,2.384426093579787,3.991603458003264,2.4211872449455534,4.03257139947341,-4.032571399473409,-1.648145305893622,-1.6113841545278556,-1.6071773644234773
150,2.474916770532547,4.145000707827074,2.483463616523095,4.148548353399679,-4.14854835339968,-1.673631582867133,-1.6650847368765849,-1.6700839372945269
151,2.524436928114697,4.237188765657013,2.5573860635508288,4.273668508294623,-4.273668508294623,-1.7492315801799259,-1.7162824447437943,-1.7127518375423154
153,2.6443728438463143,4.413685049485142,2.635065095648868,4.4000187446537815,-4.4000187446537815,-1.7556459008074672,-1.7649536490049136,-1.769312205638828
154,2.6757256212194807,4.48346623407588,2.706279169358279,4.5173705375561255,-4.5173705375561255,-1.8416449163366448,-1.8110913681978467,-1.8077406128564002
156,2.7538642503873443,4.612020947663154,2.759625443428761,4.614333930066012,-4.614333930066013,-1.8604696796786686,-1.8547084866372519,-1.8581566972758106
157,2.830539950536196,4.72279304823577,2.784211617013588,4.680039643256288,-4.680039643256287,-1.8494996927200913,-1.895828026242699,-1.8922530976995748
159,2.83651776507145,4.773112609748426,2.7716390075307213,4.706104483470675,-4.706104483470675,-1.869586718399225,-1.9344654759399535,-1.9365948446769763
160,2.8428221129954383,4.808995416054535,2.7178703908861106,4.688482278791195,-4.688482278791194,-1.8456601657957559,-1.9706118879050836,-1.9661733030590969
162,2.732476884112039,4.7369019833285435,2.6244995403903735,4.628725657074382,-4.628725657074383,-1.8962487729623438,-2.004226116684009,-2.0044250992165047
