frequency,raw,error,smoothed,error_smoothed,equalization,parametric_eq,equalized_raw,equalized_smoothed,target
20.00,-19.93,-24.24,-19.93,-24.24,6.00,2.71,-13.93,-13.93,4.31
20.20,-19.79,-24.11,-19.79,-24.11,6.00,2.78,-13.79,-13.79,4.32
20.40,-19.65,-23.98,-19.65,-23.98,6.00,2.86,-13.65,-13.65,4.33
20.61,-19.51,-23.85,-19.51,-23.85,6.00,2.95,-13.51,-13.51,4.34
20.81,-19.37,-23.72,-19.37,-23.72,6.00,3.03,-13.37,-13.37,4.35
21.02,-19.23,-23.59,-19.23,-23.59,6.00,3.12,-13.23,-13.23,4.36
21.23,-19.09,-23.46,-19.09,-23.46,6.00,3.21,-13.09,-13.09,4.37
21.44,-18.94,-23.32,-18.94,-23.33,6.00,3.30,-12.94,-12.94,4.38
21.66,-18.80,-23.20,-18.80,-23.19,6.00,3.39,-12.80,-12.80,4.39
21.87,-18.66,-23.06,-18.66,-23.06,6.00,3.49,-12.66,-12.66,4.40
22.09,-18.52,-22.93,-18.51,-22.93,6.00,3.59,-12.52,-12.51,4.42
22.31,-18.37,-22.79,-18.37,-22.79,6.00,3.69,-12.37,-12.37,4.43
22.54,-18.22,-22.66,-18.22,-22.66,6.00,3.80,-12.22,-12.22,4.44
22.76,-18.07,-22.52,-18.08,-22.52,6.00,3.90,-12.07,-12.08,4.45
22.99,-17.93,-22.39,-17.93,-22.39,6.00,4.01,-11.93,-11.93,4.46
23.22,-17.78,-22.25,-17.78,-22.25,6.00,4.13,-11.78,-11.78,4.47
23.45,-17.63,-22.11,-17.63,-22.11,6.00,4.24,-11.63,-11.63,4.48
23.69,-17.48,-21.98,-17.48,-21.98,6.00,4.36,-11.48,-11.48,4.49
23.92,-17.34,-21.84,-17.34,-21.84,6.00,4.48,-11.34,-11.34,4.51
24.16,-17.19,-21.70,-17.19,-21.70,6.00,4.60,-11.19,-11.19,4.52
24.40,-17.04,-21.56,-17.03,-21.56,6.00,4.73,-11.04,-11.03,4.53
24.65,-16.89,-21.43,-16.88,-21.42,6.00,4.86,-10.89,-10.88,4.54
24.89,-16.73,-21.27,-16.73,-21.28,6.00,4.98,-10.73,-10.73,4.55
25.14,-16.58,-21.14,-16.58,-21.14,6.00,5.12,-10.58,-10.58,4.56
25.39,-16.43,-21.00,-16.43,-21.00,6.00,5.25,-10.43,-10.43,4.57
25.65,-16.28,-20.86,-16.28,-20.86,6.00,5.38,-10.28,-10.28,4.58
25.91,-16.13,-20.72,-16.13,-20.72,6.00,5.51,-10.13,-10.13,4.59
26.16,-15.97,-20.57,-15.97,-20.57,6.00,5.64,-9.97,-9.97,4.60
26.43,-15.82,-20.43,-15.82,-20.43,6.00,5.78,-9.82,-9.82,4.61
26.69,-15.67,-20.29,-15.67,-20.29,6.00,5.91,-9.67,-9.67,4.62
26.96,-15.51,-20.14,-15.51,-20.14,6.00,6.04,-9.51,-9.51,4.63
27.23,-15.36,-20.00,-15.36,-20.00,6.00,6.17,-9.36,-9.36,4.64
27.50,-15.20,-19.85,-15.20,-19.85,6.00,6.29,-9.20,-9.20,4.65
27.77,-15.05,-19.71,-15.05,-19.71,6.00,6.41,-9.05,-9.05,4.66
28.05,-14.89,-19.56,-14.89,-19.57,6.00,6.53,-8.89,-8.89,4.67
28.33,-14.74,-19.42,-14.74,-19.42,6.00,6.65,-8.74,-8.74,4.68
28.62,-14.59,-19.29,-14.58,-19.28,6.00,6.75,-8.59,-8.58,4.69
28.90,-14.43,-19.13,-14.43,-19.13,6.00,6.85,-8.43,-8.43,4.70
29.19,-14.28,-18.99,-14.28,-18.99,6.00,6.95,-8.28,-8.28,4.71
29.48,-14.12,-18.84,-14.12,-18.85,6.00,7.03,-8.12,-8.12,4.72
29.78,-13.96,-18.70,-13.97,-18.70,6.00,7.11,-7.96,-7.97,4.74
30.08,-13.80,-18.55,-13.81,-18.56,6.00,7.18,-7.80,-7.81,4.75
30.38,-13.65,-18.41,-13.66,-18.41,6.00,7.24,-7.65,-7.66,4.76
30.68,-13.51,-18.28,-13.51,-18.27,6.00,7.29,-7.51,-7.51,4.77
30.99,-13.36,-18.14,-13.35,-18.12,6.00,7.33,-7.36,-7.35,4.78
31.30,-13.20,-17.99,-13.20,-17.98,6.00,7.36,-7.20,-7.20,4.79
31.61,-13.04,-17.84,-13.04,-17.84,6.00,7.38,-7.04,-7.04,4.80
31.93,-12.89,-17.70,-12.89,-17.69,6.00,7.38,-6.89,-6.89,4.81
32.24,-12.73,-17.54,-12.73,-17.54,6.00,7.38,-6.73,-6.73,4.82
32.57,-12.58,-17.41,-12.58,-17.40,6.00,7.37,-6.58,-6.58,4.82
32.89,-12.42,-17.25,-12.42,-17.25,6.00,7.35,-6.42,-6.42,4.83
33.22,-12.26,-17.10,-12.27,-17.11,6.00,7.32,-6.26,-6.27,4.84
33.55,-12.11,-16.96,-12.11,-16.96,6.00,7.29,-6.11,-6.11,4.85
33.89,-11.95,-16.81,-11.96,-16.81,6.00,7.24,-5.95,-5.96,4.86
34.23,-11.80,-16.67,-11.80,-16.67,6.00,7.19,-5.80,-5.80,4.87
34.57,-11.65,-16.52,-11.65,-16.52,6.00,7.14,-5.65,-5.65,4.88
34.92,-11.50,-16.38,-11.49,-16.38,6.00,7.08,-5.50,-5.49,4.88
35.27,-11.34,-16.23,-11.34,-16.23,6.00,7.01,-5.34,-5.34,4.89
35.62,-11.19,-16.09,-11.19,-16.09,6.00,6.94,-5.19,-5.19,4.90
35.97,-11.03,-15.94,-11.04,-15.94,6.00,6.87,-5.03,-5.04,4.91
36.33,-10.88,-15.79,-10.89,-15.80,6.00,6.80,-4.88,-4.89,4.91
36.70,-10.73,-15.65,-10.74,-15.66,6.00,6.73,-4.73,-4.74,4.92
37.06,-10.58,-15.51,-10.59,-15.52,6.00,6.65,-4.58,-4.59,4.93
37.43,-10.44,-15.37,-10.44,-15.37,6.00,6.58,-4.44,-4.44,4.93
37.81,-10.29,-15.23,-10.29,-15.23,6.00,6.51,-4.29,-4.29,4.94
38.19,-10.15,-15.10,-10.15,-15.09,6.00,6.44,-4.15,-4.15,4.95
38.57,-10.00,-14.95,-10.00,-14.95,6.00,6.37,-4.00,-4.00,4.95
38.95,-9.86,-14.82,-9.85,-14.81,6.00,6.30,-3.86,-3.85,4.96
39.34,-9.71,-14.67,-9.71,-14.67,6.00,6.24,-3.71,-3.71,4.96
39.74,-9.57,-14.54,-9.56,-14.53,6.00,6.17,-3.57,-3.56,4.97
40.14,-9.42,-14.40,-9.42,-14.39,6.00,6.12,-3.42,-3.42,4.97
40.54,-9.27,-14.25,-9.27,-14.24,6.00,6.06,-3.27,-3.27,4.98
40.94,-9.12,-14.10,-9.12,-14.10,6.00,6.01,-3.12,-3.12,4.98
41.35,-8.97,-13.96,-8.97,-13.96,6.00,5.96,-2.97,-2.97,4.99
41.76,-8.82,-13.81,-8.82,-13.81,6.00,5.92,-2.82,-2.82,4.99
42.18,-8.67,-13.67,-8.67,-13.67,6.00,5.88,-2.67,-2.67,5.00
42.60,-8.52,-13.52,-8.52,-13.52,6.00,5.84,-2.52,-2.52,5.00
43.03,-8.37,-13.37,-8.37,-13.38,6.00,5.81,-2.37,-2.37,5.00
43.46,-8.22,-13.23,-8.22,-13.23,6.00,5.78,-2.22,-2.22,5.01
43.90,-8.07,-13.09,-8.07,-13.08,6.00,5.76,-2.07,-2.07,5.01
44.33,-7.92,-12.94,-7.91,-12.93,6.00,5.74,-1.92,-1.91,5.02
44.78,-7.76,-12.78,-7.76,-12.79,6.00,5.73,-1.76,-1.76,5.02
45.23,-7.61,-12.64,-7.61,-12.64,6.00,5.72,-1.61,-1.61,5.03
45.68,-7.45,-12.48,-7.46,-12.49,6.00,5.71,-1.45,-1.46,5.03
46.13,-7.30,-12.33,-7.30,-12.34,6.00,5.71,-1.30,-1.30,5.04
46.60,-7.15,-12.19,-7.15,-12.19,6.00,5.72,-1.15,-1.15,5.04
47.06,-7.00,-12.04,-7.00,-12.04,6.00,5.72,-1.00,-1.00,5.04
47.53,-6.84,-11.89,-6.84,-11.89,6.00,5.73,-0.84,-0.84,5.05
48.01,-6.69,-11.74,-6.68,-11.73,6.00,5.75,-0.69,-0.68,5.05
48.49,-6.53,-11.58,-6.53,-11.58,6.00,5.77,-0.53,-0.53,5.05
48.97,-6.37,-11.42,-6.37,-11.42,6.00,5.79,-0.37,-0.37,5.05
49.46,-6.22,-11.27,-6.21,-11.27,6.00,5.82,-0.22,-0.21,5.06
49.96,-6.06,-11.12,-6.06,-11.11,6.00,5.84,-0.06,-0.06,5.06
50.46,-5.90,-10.96,-5.90,-10.95,6.00,5.87,0.10,0.10,5.06
50.96,-5.74,-10.79,-5.74,-10.79,6.00,5.91,0.26,0.26,5.05
51.47,-5.58,-10.63,-5.58,-10.63,6.00,5.94,0.42,0.42,5.05
51.99,-5.42,-10.47,-5.42,-10.47,6.00,5.98,0.58,0.58,5.05
52.51,-5.27,-10.31,-5.26,-10.31,6.00,6.02,0.73,0.74,5.04
53.03,-5.11,-10.15,-5.11,-10.15,6.00,6.06,0.89,0.89,5.04
53.56,-4.95,-9.98,-4.95,-9.98,6.00,6.10,1.05,1.05,5.03
54.10,-4.78,-9.81,-4.80,-9.82,6.00,6.13,1.22,1.20,5.02
54.64,-4.64,-9.66,-4.65,-9.66,6.00,6.17,1.36,1.35,5.02
55.18,-4.49,-9.50,-4.50,-9.50,6.00,6.21,1.51,1.50,5.01
55.74,-4.34,-9.34,-4.35,-9.34,6.00,6.24,1.66,1.65,5.00
56.29,-4.20,-9.18,-4.20,-9.18,6.00,6.28,1.80,1.80,4.98
56.86,-4.06,-9.03,-4.05,-9.02,6.00,6.30,1.94,1.95,4.97
57.42,-3.91,-8.86,-3.91,-8.86,6.00,6.33,2.09,2.09,4.96
58.00,-3.77,-8.71,-3.77,-8.71,6.00,6.35,2.23,2.23,4.94
58.58,-3.63,-8.55,-3.63,-8.55,6.00,6.37,2.37,2.37,4.92
59.16,-3.49,-8.40,-3.49,-8.39,6.00,6.38,2.51,2.51,4.91
59.76,-3.36,-8.25,-3.35,-8.23,6.00,6.38,2.64,2.65,4.89
60.35,-3.21,-8.08,-3.21,-8.08,6.00,6.38,2.79,2.79,4.87
60.96,-3.07,-7.92,-3.08,-7.92,6.00,6.37,2.93,2.92,4.85
61.57,-2.94,-7.76,-2.94,-7.77,6.00,6.35,3.06,3.06,4.82
62.18,-2.81,-7.61,-2.81,-7.61,6.00,6.33,3.19,3.19,4.80
62.80,-2.67,-7.44,-2.68,-7.45,6.00,6.29,3.33,3.32,4.77
63.43,-2.55,-7.30,-2.55,-7.30,6.00,6.26,3.45,3.45,4.75
64.07,-2.43,-7.15,-2.42,-7.15,6.00,6.21,3.57,3.58,4.72
64.71,-2.30,-7.00,-2.30,-6.99,6.00,6.16,3.70,3.70,4.70
65.35,-2.17,-6.84,-2.17,-6.84,6.00,6.09,3.83,3.83,4.67
66.01,-2.05,-6.69,-2.05,-6.68,6.00,6.03,3.95,3.95,4.64
66.67,-1.93,-6.54,-1.92,-6.53,6.00,5.95,4.07,4.08,4.61
67.33,-1.81,-6.39,-1.80,-6.38,5.98,5.87,4.17,4.18,4.58
68.01,-1.68,-6.23,-1.68,-6.23,5.94,5.79,4.26,4.26,4.55
68.69,-1.56,-6.08,-1.56,-6.08,5.88,5.69,4.32,4.33,4.52
69.37,-1.44,-5.93,-1.44,-5.93,5.80,5.60,4.36,4.36,4.49
70.07,-1.32,-5.78,-1.32,-5.78,5.71,5.50,4.39,4.39,4.46
70.77,-1.21,-5.64,-1.21,-5.64,5.60,5.40,4.39,4.39,4.43
71.48,-1.09,-5.49,-1.09,-5.49,5.48,5.29,4.39,4.39,4.40
72.19,-0.98,-5.35,-0.98,-5.35,5.35,5.19,4.37,4.37,4.37
72.91,-0.86,-5.20,-0.87,-5.22,5.22,5.08,4.36,4.34,4.34
73.64,-0.75,-5.06,-0.77,-5.08,5.08,4.97,4.33,4.31,4.31
74.38,-0.65,-4.94,-0.66,-4.95,4.95,4.85,4.30,4.29,4.29
75.12,-0.56,-4.82,-0.56,-4.82,4.82,4.74,4.26,4.26,4.26
75.87,-0.47,-4.70,-0.46,-4.70,4.70,4.63,4.23,4.23,4.23
76.63,-0.37,-4.58,-0.37,-4.57,4.57,4.52,4.20,4.21,4.21
77.40,-0.28,-4.46,-0.27,-4.45,4.45,4.41,4.17,4.18,4.18
78.17,-0.19,-4.35,-0.18,-4.34,4.34,4.30,4.15,4.16,4.16
78.95,-0.09,-4.23,-0.08,-4.22,4.22,4.19,4.13,4.14,4.14
79.74,0.00,-4.12,0.01,-4.11,4.11,4.08,4.11,4.12,4.12
80.54,0.10,-4.00,0.10,-4.00,4.00,3.98,4.10,4.10,4.10
81.35,0.19,-3.89,0.18,-3.89,3.89,3.87,4.08,4.08,4.08
82.16,0.28,-3.78,0.27,-3.79,3.79,3.77,4.07,4.06,4.06
82.98,0.36,-3.68,0.36,-3.68,3.68,3.67,4.04,4.04,4.04
83.81,0.44,-3.59,0.45,-3.58,3.58,3.58,4.02,4.03,4.03
84.65,0.53,-3.48,0.53,-3.48,3.48,3.48,4.01,4.01,4.01
85.50,0.61,-3.39,0.61,-3.38,3.38,3.39,3.99,4.00,4.00
86.35,0.70,-3.29,0.70,-3.29,3.29,3.30,3.99,3.99,3.99
87.22,0.78,-3.19,0.78,-3.20,3.20,3.21,3.98,3.98,3.97
88.09,0.85,-3.11,0.86,-3.11,3.11,3.12,3.96,3.96,3.96
88.97,0.93,-3.02,0.93,-3.02,3.02,3.04,3.95,3.95,3.95
89.86,1.00,-2.94,1.01,-2.94,2.94,2.95,3.94,3.95,3.94
90.76,1.07,-2.87,1.08,-2.86,2.86,2.88,3.93,3.94,3.94
91.66,1.14,-2.79,1.15,-2.78,2.78,2.80,3.92,3.93,3.93
92.58,1.22,-2.70,1.21,-2.71,2.71,2.72,3.93,3.92,3.92
93.51,1.29,-2.63,1.27,-2.65,2.65,2.65,3.94,3.92,3.92
94.44,1.34,-2.57,1.32,-2.58,2.58,2.58,3.92,3.91,3.91
95.39,1.39,-2.51,1.37,-2.53,2.53,2.51,3.92,3.90,3.90
96.34,1.43,-2.46,1.42,-2.47,2.47,2.44,3.90,3.89,3.89
97.30,1.47,-2.41,1.46,-2.42,2.42,2.38,3.89,3.88,3.88
98.28,1.50,-2.37,1.50,-2.37,2.37,2.32,3.87,3.87,3.87
99.26,1.54,-2.32,1.53,-2.32,2.32,2.26,3.86,3.85,3.86
100.25,1.57,-2.27,1.56,-2.27,2.27,2.20,3.84,3.83,3.84
101.25,1.59,-2.23,1.59,-2.22,2.22,2.14,3.81,3.81,3.82
102.27,1.61,-2.20,1.62,-2.17,2.17,2.09,3.78,3.79,3.81
103.29,1.63,-2.15,1.65,-2.13,2.13,2.03,3.76,3.77,3.78
104.32,1.65,-2.11,1.67,-2.07,2.07,1.98,3.72,3.75,3.76
105.37,1.69,-2.05,1.70,-2.02,2.02,1.93,3.71,3.72,3.74
106.42,1.72,-1.99,1.73,-1.97,1.97,1.88,3.69,3.70,3.71
107.48,1.75,-1.93,1.76,-1.91,1.91,1.84,3.66,3.67,3.68
108.56,1.78,-1.87,1.79,-1.85,1.85,1.79,3.63,3.64,3.65
109.64,1.81,-1.81,1.82,-1.79,1.79,1.75,3.60,3.61,3.62
110.74,1.84,-1.74,1.85,-1.73,1.73,1.70,3.57,3.58,3.58
111.85,1.88,-1.67,1.87,-1.67,1.67,1.66,3.55,3.54,3.55
112.97,1.91,-1.60,1.89,-1.62,1.62,1.62,3.53,3.51,3.51
114.10,1.94,-1.54,1.91,-1.56,1.56,1.58,3.50,3.48,3.48
115.24,1.95,-1.49,1.93,-1.51,1.51,1.54,3.46,3.44,3.44
116.39,1.96,-1.45,1.94,-1.46,1.46,1.51,3.42,3.41,3.41
117.55,1.97,-1.40,1.95,-1.42,1.42,1.47,3.39,3.37,3.37
118.73,1.96,-1.37,1.96,-1.38,1.38,1.43,3.34,3.33,3.33
119.92,1.96,-1.34,1.96,-1.34,1.34,1.40,3.30,3.30,3.30
121.12,1.95,-1.31,1.96,-1.30,1.30,1.37,3.25,3.27,3.26
122.33,1.95,-1.28,1.96,-1.27,1.27,1.33,3.22,3.23,3.23
123.55,1.95,-1.25,1.96,-1.24,1.24,1.30,3.19,3.20,3.20
124.79,1.95,-1.22,1.96,-1.21,1.21,1.27,3.16,3.17,3.17
126.03,1.95,-1.19,1.95,-1.19,1.19,1.24,3.14,3.14,3.14
127.29,1.95,-1.17,1.95,-1.16,1.16,1.21,3.11,3.11,3.12
128.57,1.95,-1.14,1.95,-1.14,1.14,1.18,3.09,3.09,3.09
129.85,1.95,-1.12,1.95,-1.12,1.12,1.16,3.07,3.07,3.07
131.15,1.95,-1.09,1.95,-1.09,1.09,1.13,3.04,3.04,3.04
132.46,1.95,-1.07,1.95,-1.07,1.07,1.10,3.02,3.02,3.02
133.79,1.95,-1.05,1.95,-1.05,1.05,1.07,3.00,3.00,3.00
135.12,1.95,-1.03,1.95,-1.03,1.03,1.05,2.98,2.98,2.98
136.48,1.95,-1.01,1.95,-1.01,1.01,1.02,2.96,2.96,2.96
137.84,1.95,-0.99,1.95,-0.99,0.99,1.00,2.94,2.94,2.94
139.22,1.95,-0.97,1.95,-0.96,0.96,0.98,2.91,2.91,2.92
140.61,1.95,-0.95,1.95,-0.94,0.94,0.95,2.89,2.89,2.90
142.02,1.95,-0.92,1.95,-0.92,0.92,0.93,2.87,2.87,2.87
143.44,1.95,-0.90,1.95,-0.90,0.90,0.91,2.85,2.85,2.85
144.87,1.95,-0.88,1.95,-0.88,0.88,0.88,2.83,2.83,2.83
146.32,1.95,-0.86,1.95,-0.86,0.86,0.86,2.81,2.80,2.81
147.78,1.95,-0.84,1.95,-0.83,0.83,0.84,2.78,2.78,2.79
149.26,1.95,-0.81,1.95,-0.81,0.81,0.82,2.76,2.76,2.76
150.75,1.95,-0.79,1.95,-0.78,0.78,0.80,2.73,2.74,2.74
152.26,1.95,-0.77,1.95,-0.76,0.76,0.78,2.71,2.71,2.72
153.78,1.95,-0.74,1.96,-0.73,0.73,0.76,2.68,2.69,2.69
155.32,1.95,-0.72,1.96,-0.71,0.71,0.74,2.66,2.67,2.67
156.88,1.95,-0.70,1.96,-0.68,0.68,0.72,2.63,2.64,2.65
158.44,1.95,-0.67,1.96,-0.66,0.66,0.71,2.61,2.62,2.62
160.03,1.95,-0.65,1.96,-0.63,0.63,0.69,2.58,2.60,2.60
161.63,1.96,-0.61,1.96,-0.61,0.61,0.67,2.57,2.57,2.57
163.24,1.97,-0.58,1.96,-0.59,0.59,0.65,2.56,2.55,2.55
164.88,1.97,-0.55,1.95,-0.57,0.57,0.64,2.54,2.52,2.52
166.53,1.96,-0.54,1.94,-0.56,0.56,0.62,2.52,2.50,2.50
168.19,1.95,-0.52,1.92,-0.55,0.55,0.60,2.50,2.47,2.47
169.87,1.92,-0.52,1.91,-0.54,0.54,0.59,2.46,2.44,2.44
171.57,1.90,-0.51,1.88,-0.53,0.53,0.57,2.43,2.41,2.41
173.29,1.87,-0.51,1.86,-0.53,0.53,0.56,2.40,2.38,2.38
175.02,1.83,-0.52,1.83,-0.52,0.52,0.54,2.35,2.35,2.35
176.77,1.79,-0.53,1.80,-0.52,0.52,0.53,2.31,2.32,2.32
178.54,1.77,-0.52,1.77,-0.52,0.52,0.52,2.29,2.28,2.29
180.32,1.73,-0.53,1.73,-0.52,0.52,0.50,2.25,2.25,2.26
182.13,1.70,-0.53,1.71,-0.51,0.51,0.49,2.21,2.22,2.23
183.95,1.66,-0.53,1.68,-0.50,0.50,0.48,2.16,2.18,2.19
185.79,1.64,-0.52,1.66,-0.49,0.49,0.46,2.13,2.15,2.16
187.65,1.62,-0.51,1.64,-0.48,0.48,0.45,2.10,2.11,2.13
189.52,1.60,-0.49,1.63,-0.46,0.46,0.44,2.06,2.08,2.09
191.42,1.60,-0.46,1.62,-0.43,0.43,0.43,2.03,2.05,2.06
193.33,1.60,-0.42,1.61,-0.40,0.40,0.41,2.00,2.02,2.02
195.27,1.61,-0.38,1.61,-0.37,0.37,0.40,1.98,1.98,1.99
197.22,1.62,-0.34,1.61,-0.33,0.33,0.39,1.95,1.95,1.96
199.19,1.62,-0.30,1.62,-0.30,0.30,0.38,1.92,1.91,1.92
201.18,1.62,-0.27,1.62,-0.26,0.26,0.37,1.88,1.88,1.89
203.19,1.63,-0.22,1.63,-0.22,0.22,0.36,1.85,1.85,1.85
205.23,1.63,-0.19,1.63,-0.18,0.18,0.35,1.81,1.81,1.82
207.28,1.64,-0.14,1.63,-0.15,0.15,0.34,1.79,1.78,1.78
209.35,1.64,-0.10,1.63,-0.11,0.11,0.33,1.75,1.74,1.74
211.44,1.64,-0.06,1.62,-0.09,0.09,0.32,1.73,1.71,1.70
213.56,1.62,-0.05,1.61,-0.06,0.06,0.31,1.68,1.67,1.67
215.69,1.60,-0.03,1.59,-0.04,0.04,0.30,1.64,1.63,1.63
217.85,1.58,-0.01,1.57,-0.03,0.03,0.29,1.61,1.60,1.59
220.03,1.56,0.00,1.54,-0.02,0.02,0.29,1.58,1.56,1.56
222.23,1.53,0.00,1.52,-0.01,0.01,0.28,1.54,1.53,1.53
224.45,1.50,0.00,1.49,-0.01,0.01,0.27,1.51,1.50,1.50
226.70,1.46,-0.01,1.46,-0.01,0.01,0.27,1.47,1.46,1.47
228.96,1.42,-0.02,1.43,-0.01,0.01,0.26,1.43,1.44,1.44
231.25,1.39,-0.03,1.40,-0.01,0.01,0.25,1.40,1.41,1.42
233.57,1.36,-0.04,1.38,-0.02,0.02,0.25,1.38,1.39,1.40
235.90,1.33,-0.06,1.35,-0.02,0.02,0.24,1.35,1.38,1.39
238.26,1.31,-0.06,1.34,-0.02,0.02,0.24,1.33,1.36,1.37
240.64,1.29,-0.07,1.33,-0.03,0.03,0.24,1.32,1.35,1.36
243.05,1.28,-0.08,1.32,-0.03,0.03,0.23,1.31,1.34,1.36
245.48,1.28,-0.07,1.31,-0.03,0.03,0.23,1.31,1.34,1.35
247.93,1.30,-0.05,1.30,-0.03,0.03,0.23,1.33,1.34,1.35
250.41,1.31,-0.03,1.29,-0.04,0.04,0.23,1.35,1.33,1.34
252.92,1.32,-0.02,1.29,-0.05,0.05,0.23,1.37,1.34,1.34
255.45,1.31,-0.03,1.28,-0.06,0.06,0.23,1.37,1.34,1.34
258.00,1.30,-0.04,1.27,-0.07,0.07,0.23,1.37,1.34,1.34
260.58,1.28,-0.06,1.25,-0.09,0.09,0.23,1.37,1.34,1.34
263.19,1.26,-0.08,1.24,-0.11,0.11,0.23,1.37,1.35,1.34
265.82,1.22,-0.13,1.21,-0.14,0.14,0.23,1.36,1.35,1.35
268.48,1.20,-0.15,1.19,-0.16,0.16,0.24,1.36,1.35,1.35
271.16,1.16,-0.19,1.16,-0.19,0.19,0.24,1.35,1.35,1.35
273.87,1.12,-0.24,1.13,-0.23,0.23,0.24,1.35,1.36,1.36
276.61,1.09,-0.28,1.10,-0.26,0.26,0.25,1.35,1.36,1.37
279.38,1.06,-0.32,1.08,-0.29,0.29,0.25,1.35,1.37,1.38
282.17,1.03,-0.36,1.05,-0.33,0.33,0.26,1.36,1.38,1.39
284.99,1.01,-0.39,1.03,-0.36,0.36,0.26,1.37,1.39,1.40
287.84,0.98,-0.43,1.01,-0.39,0.39,0.27,1.37,1.40,1.41
290.72,0.97,-0.45,1.00,-0.41,0.41,0.28,1.38,1.41,1.42
293.63,0.97,-0.47,0.98,-0.44,0.44,0.28,1.41,1.42,1.44
296.57,0.97,-0.48,0.97,-0.46,0.46,0.29,1.43,1.43,1.45
299.53,0.97,-0.48,0.96,-0.49,0.49,0.30,1.46,1.44,1.45
302.53,0.97,-0.49,0.94,-0.51,0.51,0.31,1.48,1.46,1.46
305.55,0.96,-0.51,0.93,-0.54,0.54,0.31,1.50,1.47,1.47
308.61,0.94,-0.54,0.91,-0.56,0.56,0.32,1.50,1.47,1.48
311.69,0.91,-0.57,0.89,-0.59,0.59,0.33,1.50,1.48,1.48
314.81,0.89,-0.59,0.87,-0.62,0.62,0.34,1.51,1.49,1.48
317.96,0.86,-0.63,0.84,-0.64,0.64,0.35,1.50,1.49,1.49
321.14,0.82,-0.67,0.82,-0.67,0.67,0.36,1.49,1.49,1.49
324.35,0.79,-0.70,0.79,-0.70,0.70,0.37,1.49,1.49,1.49
327.59,0.75,-0.74,0.76,-0.73,0.73,0.38,1.48,1.49,1.49
330.87,0.72,-0.77,0.73,-0.75,0.75,0.39,1.47,1.48,1.49
334.18,0.70,-0.80,0.71,-0.77,0.77,0.41,1.47,1.48,1.50
337.52,0.66,-0.84,0.69,-0.79,0.79,0.42,1.45,1.49,1.50
340.90,0.65,-0.85,0.68,-0.81,0.81,0.43,1.46,1.49,1.50
344.30,0.63,-0.87,0.67,-0.82,0.82,0.44,1.45,1.49,1.50
347.75,0.63,-0.87,0.66,-0.83,0.83,0.45,1.46,1.49,1.50
351.23,0.64,-0.86,0.65,-0.83,0.83,0.47,1.47,1.49,1.50
354.74,0.65,-0.85,0.65,-0.84,0.84,0.48,1.49,1.49,1.50
358.28,0.67,-0.83,0.65,-0.84,0.84,0.50,1.51,1.49,1.50
361.87,0.67,-0.82,0.64,-0.85,0.85,0.51,1.52,1.48,1.49
365.49,0.66,-0.82,0.63,-0.85,0.85,0.52,1.51,1.48,1.48
369.14,0.65,-0.83,0.62,-0.86,0.86,0.54,1.51,1.48,1.48
372.83,0.64,-0.83,0.61,-0.87,0.87,0.55,1.51,1.47,1.47
376.56,0.60,-0.86,0.59,-0.88,0.88,0.57,1.48,1.47,1.46
380.33,0.58,-0.87,0.57,-0.89,0.89,0.58,1.47,1.46,1.45
384.13,0.55,-0.89,0.54,-0.90,0.90,0.60,1.45,1.44,1.44
387.97,0.51,-0.92,0.51,-0.92,0.92,0.62,1.43,1.43,1.43
391.85,0.48,-0.94,0.48,-0.93,0.93,0.63,1.41,1.41,1.42
395.77,0.44,-0.97,0.45,-0.95,0.95,0.65,1.39,1.40,1.41
399.73,0.41,-0.99,0.42,-0.97,0.97,0.67,1.38,1.39,1.40
403.72,0.38,-1.01,0.39,-0.98,0.98,0.68,1.36,1.38,1.39
407.76,0.36,-1.01,0.37,-0.99,0.99,0.70,1.35,1.36,1.37
411.84,0.34,-1.02,0.35,-1.00,1.00,0.72,1.34,1.35,1.36
415.96,0.32,-1.03,0.34,-1.01,1.01,0.74,1.33,1.34,1.35
420.12,0.30,-1.04,0.33,-1.01,1.01,0.75,1.31,1.33,1.34
424.32,0.30,-1.03,0.32,-1.01,1.01,0.77,1.31,1.33,1.33
428.56,0.31,-1.01,0.31,-1.01,1.01,0.79,1.32,1.32,1.32
432.85,0.32,-1.00,0.31,-1.01,1.01,0.81,1.33,1.32,1.32
437.18,0.32,-0.99,0.31,-1.00,1.00,0.82,1.32,1.31,1.31
441.55,0.32,-0.99,0.31,-1.00,1.00,0.84,1.32,1.31,1.31
445.96,0.32,-0.98,0.31,-1.00,1.00,0.86,1.32,1.31,1.30
450.42,0.32,-0.98,0.31,-0.99,0.99,0.87,1.31,1.31,1.30
454.93,0.32,-0.98,0.32,-0.99,0.99,0.89,1.31,1.31,1.30
459.48,0.32,-0.99,0.32,-0.99,0.99,0.91,1.31,1.31,1.31
464.07,0.32,-0.99,0.32,-0.99,0.99,0.92,1.31,1.31,1.31
468.71,0.32,-0.99,0.32,-0.99,0.99,0.94,1.31,1.31,1.31
473.40,0.32,-1.00,0.32,-0.99,0.99,0.95,1.31,1.31,1.32
478.13,0.32,-1.00,0.32,-1.00,1.00,0.97,1.32,1.32,1.32
482.91,0.32,-1.01,0.32,-1.00,1.00,0.98,1.32,1.32,1.33
487.74,0.32,-1.01,0.32,-1.00,1.00,0.99,1.32,1.32,1.33
492.62,0.32,-1.01,0.32,-1.01,1.01,1.01,1.33,1.33,1.33
497.55,0.32,-1.01,0.32,-1.01,1.01,1.02,1.33,1.33,1.33
502.52,0.32,-1.01,0.32,-1.01,1.01,1.03,1.33,1.33,1.33
507.55,0.32,-1.01,0.32,-1.02,1.02,1.04,1.34,1.34,1.33
512.62,0.32,-1.02,0.32,-1.02,1.02,1.05,1.34,1.34,1.34
517.75,0.32,-1.02,0.32,-1.02,1.02,1.06,1.34,1.34,1.34
522.93,0.32,-1.02,0.32,-1.03,1.03,1.07,1.35,1.35,1.34
528.16,0.32,-1.03,0.32,-1.03,1.03,1.08,1.35,1.35,1.35
533.44,0.32,-1.03,0.32,-1.03,1.03,1.08,1.35,1.35,1.35
538.77,0.32,-1.04,0.32,-1.04,1.04,1.09,1.36,1.36,1.36
544.16,0.32,-1.04,0.32,-1.04,1.04,1.10,1.36,1.36,1.36
549.60,0.32,-1.04,0.32,-1.04,1.04,1.11,1.36,1.36,1.36
555.10,0.32,-1.05,0.32,-1.05,1.05,1.11,1.37,1.37,1.37
560.65,0.32,-1.05,0.32,-1.05,1.05,1.12,1.37,1.37,1.37
566.25,0.32,-1.06,0.32,-1.05,1.05,1.13,1.37,1.37,1.38
571.92,0.32,-1.06,0.32,-1.05,1.05,1.14,1.37,1.37,1.38
577.64,0.32,-1.06,0.32,-1.05,1.05,1.14,1.37,1.37,1.38
583.41,0.32,-1.06,0.32,-1.05,1.05,1.15,1.37,1.38,1.38
589.25,0.32,-1.07,0.33,-1.05,1.05,1.16,1.37,1.38,1.39
595.14,0.32,-1.07,0.33,-1.05,1.05,1.17,1.37,1.38,1.39
601.09,0.32,-1.07,0.33,-1.05,1.05,1.18,1.37,1.38,1.39
607.10,0.32,-1.07,0.34,-1.05,1.05,1.19,1.37,1.39,1.39
613.17,0.33,-1.06,0.34,-1.05,1.05,1.20,1.38,1.39,1.39
619.30,0.34,-1.05,0.34,-1.06,1.06,1.21,1.40,1.40,1.39
625.50,0.34,-1.06,0.34,-1.07,1.07,1.23,1.41,1.40,1.40
631.75,0.35,-1.05,0.33,-1.08,1.08,1.24,1.43,1.41,1.40
638.07,0.34,-1.07,0.32,-1.10,1.10,1.25,1.44,1.42,1.41
644.45,0.33,-1.09,0.31,-1.12,1.12,1.27,1.45,1.43,1.42
650.89,0.31,-1.12,0.29,-1.14,1.14,1.29,1.45,1.44,1.43
657.40,0.29,-1.15,0.27,-1.17,1.17,1.30,1.46,1.44,1.44
663.98,0.26,-1.19,0.25,-1.20,1.20,1.32,1.46,1.45,1.45
670.62,0.23,-1.23,0.22,-1.23,1.23,1.34,1.46,1.46,1.46
677.32,0.20,-1.27,0.19,-1.26,1.26,1.36,1.46,1.46,1.47
