frequency,raw
20,-8.43
21,-7.65
22,-6.87
23,-6.25
24,-5.73
25,-5.26
26,-4.78
27,-4.25
28,-3.98
29,-3.59
30,-3.17
31,-2.75
32,-2.48
33,-2.13
34,-1.95
35,-1.62
36,-1.31
37,-1.16
38,-0.86
39,-0.65
40,-0.44
41,-0.32
42,-0.05
43,0.10
44,0.32
45,0.40
46,0.65
47,0.73
48,0.97
49,1.10
50,1.30
51,1.49
52,1.62
53,1.76
54,1.95
55,2.09
56,2.27
57,2.27
58,2.45
59,2.59
60,2.68
61,2.86
62,2.92
63,2.92
64,3.08
65,3.24
66,3.24
67,3.24
68,3.28
69,3.44
70,3.57
71,3.57
72,3.57
73,3.57
74,3.57
75,3.57
76,3.57
77,3.57
78,3.69
79,3.73
80,3.82
81,3.89
82,3.89
83,3.89
84,3.89
85,3.89
86,3.89
87,3.89
88,3.95
89,4.20
90,4.22
91,4.22
92,4.22
93,4.22
94,4.22
95,4.22
96,4.25
97,4.37
98,4.49
99,4.54
100,4.54
101,4.54
102,4.54
104,4.54
105,4.62
106,4.72
107,4.83
108,4.86
109,4.86
110,4.86
111,4.86
112,4.86
113,4.86
114,4.86
115,4.86
117,5.03
118,5.12
119,5.19
120,5.19
121,5.19
123,5.19
124,5.19
125,5.19
126,5.19
128,5.19
129,5.19
130,5.19
131,5.19
133,5.19
134,5.19
135,5.19
137,5.19
138,5.19
140,5.19
141,5.19
142,5.19
144,5.11
145,5.04
147,4.88
148,4.86
150,4.86
151,4.86
153,4.86
154,4.86
156,4.85
157,4.71
159,4.54
160,4.54
162,4.54
164,4.46
165,4.39
167,4.25
169,4.22
170,4.21
172,4.08
174,3.95
175,3.89
177,3.89
179,3.79
181,3.67
183,3.57
184,3.57
186,3.48
188,3.24
190,3.24
192,3.08
194,2.92
196,2.92
198,2.71
200,2.59
202,2.59
204,2.36
206,2.27
208,2.25
210,2.03
212,1.95
214,1.93
216,1.72
218,1.57
221,1.41
223,1.31
225,1.12
227,0.97
229,0.97
232,0.76
234,0.65
236,0.65
239,0.53
241,0.43
244,0.32
246,0.32
248,0.32
251,0.32
253,0.32
256,0.32
259,0.32
261,0.32
264,0.32
266,0.36
269,0.48
272,0.61
274,0.65
277,0.65
280,0.65
283,0.73
286,0.85
288,0.93
291,0.97
294,0.97
297,0.97
300,0.97
303,0.97
306,0.97
309,1.07
312,1.18
316,1.30
319,1.30
322,1.30
325,1.27
328,1.17
332,1.03
335,0.97
338,0.97
342,0.97
345,0.97
349,0.97
352,0.97
356,0.97
359,0.96
363,0.84
366,0.74
370,0.65
374,0.65
377,0.65
381,0.65
385,0.65
389,0.65
393,0.65
397,0.64
401,0.52
405,0.41
409,0.32
413,0.32
417,0.32
421,0.32
425,0.32
430,0.32
434,0.32
438,0.32
443,0.32
447,0.32
451,0.32
456,0.32
460,0.32
465,0.32
470,0.32
474,0.32
479,0.30
484,0.18
489,0.07
494,0.00
499,-0.00
504,0.00
509,-0.00
514,-0.00
519,-0.00
524,-0.00
529,0.00
535,-0.00
540,-0.00
545,0.00
551,-0.00
556,-0.00
562,-0.00
568,-0.00
573,-0.00
579,-0.00
585,-0.00
591,-0.00
596,-0.00
602,-0.00
608,-0.00
615,-0.00
621,-0.00
627,-0.00
633,0.00
639,-0.00
646,-0.00
652,0.00
659,-0.00
665,-0.00
672,0.00
679,-0.00
686,-0.00
692,-0.00
699,-0.00
706,-0.00
713,-0.00
721,0.00
728,0.00
735,-0.00
742,-0.00
750,-0.00
757,-0.00
765,-0.00
773,-0.00
780,-0.00
788,-0.00
796,-0.00
804,-0.00
812,-0.00
820,-0.00
828,-0.00
837,-0.00
845,0.00
853,0.00
862,-0.00
871,-0.00
879,-0.00
888,-0.00
897,0.00
906,-0.00
915,-0.00
924,-0.00
933,-0.00
943,-0.00
952,-0.00
962,-0.00
971,-0.00
981,-0.00
991,-0.00
1001,-0.00
1011,0.03
1021,0.14
1031,0.25
1041,0.32
1052,0.32
1062,0.32
1073,0.32
1084,0.32
1094,0.32
1105,0.32
1116,0.32
1128,0.32
1139,0.32
1150,0.32
1162,0.32
1173,0.32
1185,0.32
1197,0.32
1209,0.32
1221,0.32
1233,0.32
1246,0.32
1258,0.32
1271,0.32
1283,0.32
1296,0.40
1309,0.49
1322,0.49
1335,0.49
1349,0.53
1362,0.63
1376,0.65
1390,0.65
1404,0.65
1418,0.65
1432,0.65
1446,0.65
1461,0.65
1475,0.65
1490,0.65
1505,0.65
1520,0.74
1535,0.85
1550,0.96
1566,0.97
1582,0.97
1597,0.97
1613,0.97
1629,1.03
1646,1.15
1662,1.26
1679,1.30
1696,1.30
1713,1.30
1730,1.39
1747,1.50
1764,1.61
1782,1.62
1800,1.62
1818,1.62
1836,1.62
1854,1.75
1873,1.95
1892,1.95
1911,1.95
1930,2.01
1949,2.23
1969,2.27
1988,2.31
2008,2.42
2028,2.54
2048,2.59
2069,2.60
2090,2.83
2111,2.92
2132,2.96
2153,3.18
2175,3.24
2196,3.27
2218,3.38
2240,3.50
2263,3.57
2285,3.57
2308,3.57
2331,3.67
2355,3.89
2378,3.89
2402,3.89
2426,3.89
2450,3.89
2475,3.89
2500,3.89
2525,3.89
2550,3.89
2575,3.89
2601,3.89
2627,3.89
2653,3.78
2680,3.57
2707,3.57
2734,3.57
2761,3.57
2789,3.57
2817,3.57
2845,3.57
2873,3.57
2902,3.57
2931,3.57
2960,3.57
2990,3.57
3020,3.57
3050,3.57
3080,3.57
3111,3.64
3142,3.75
3174,3.86
3206,3.89
3238,3.89
3270,3.89
3303,3.89
3336,3.89
3369,3.89
3403,3.89
3437,3.83
3471,3.73
3506,3.73
3541,3.66
3576,3.57
3612,3.57
3648,3.57
3685,3.53
3721,3.42
3759,3.31
3796,3.24
3834,3.24
3873,3.13
3911,3.02
3950,2.92
3990,2.92
4030,2.77
4070,2.59
4111,2.59
4152,2.42
4193,2.20
4235,1.98
4278,1.75
4321,1.52
4364,1.30
4407,0.97
4451,0.69
4496,0.46
4541,0.24
4586,0.02
4632,-0.21
4679,-0.44
4725,-0.74
4773,-1.09
4820,-1.42
4868,-1.66
4917,-1.88
4966,-2.11
5016,-2.22
5066,-2.39
5117,-2.59
5168,-2.59
5220,-2.59
5272,-2.59
5325,-2.59
5378,-2.59
5432,-2.59
5486,-2.59
5541,-2.59
5596,-2.59
5652,-2.59
5709,-2.59
5766,-2.59
5823,-2.58
5882,-2.47
5940,-2.36
6000,-2.27
6060,-2.27
6120,-2.09
6182,-1.91
6244,-1.79
6306,-1.68
6369,-1.47
6433,-1.13
6497,-0.91
6562,-0.68
6628,-0.46
6694,-0.23
6761,-0.01
6828,0.22
6897,0.44
6966,0.67
7035,0.85
7106,0.96
7177,0.97
7249,1.08
7321,1.30
7394,1.53
7468,1.69
7543,1.80
7618,1.91
7694,2.10
7771,2.27
7849,2.27
7928,2.27
8007,2.27
8087,2.27
8168,2.27
8250,2.27
8332,2.27
8415,2.27
8499,2.27
8584,2.24
8670,2.01
8757,1.95
8845,1.88
8933,1.66
9022,1.53
9113,1.37
9204,1.15
9296,1.03
9389,0.86
9483,0.65
9577,0.65
9673,0.58
9770,0.49
9868,0.49
9966,0.57
10066,0.65
10167,0.65
10268,0.84
10371,1.02
10475,1.13
10579,1.24
10685,1.35
10792,1.47
10900,1.58
11009,1.76
11119,1.95
11230,1.95
11343,2.03
11456,2.14
11571,2.25
11686,2.27
11803,2.27
11921,2.27
12040,2.06
12161,1.95
12282,1.93
12405,1.71
12529,1.41
12655,1.09
12781,0.87
12909,0.48
13038,-0.01
13168,-0.57
13300,-1.03
13433,-1.53
13567,-2.09
13703,-2.76
13840,-3.43
13978,-4.12
14118,-4.90
14259,-5.90
14402,-7.03
14546,-8.15
14692,-9.45
14838,-10.83
14987,-12.29
15137,-13.66
15288,-14.86
15441,-15.87
15595,-16.55
15751,-17.16
15909,-17.70
16068,-17.92
16229,-18.07
16391,-18.21
16555,-18.43
16720,-18.49
16888,-18.49
17056,-18.49
17227,-18.49
17399,-18.49
17573,-18.49
17749,-18.49
17926,-18.49
18106,-18.49
18287,-18.49
18470,-18.49
18654,-18.49
18841,-18.49
19029,-18.31
19220,-18.09
19412,-17.86
19606,-17.74
19802,-17.63
20000,-17.51
