frequency,raw,error,smoothed,error_smoothed,equalization,parametric_eq,equalized_raw,equalized_smoothed,target
20,-15.73,-17.41,-15.61,-17.29,6.00,2.78,-9.73,-9.61,1.68
21,-14.69,-16.37,-14.73,-16.41,6.00,3.19,-8.69,-8.73,1.68
22,-13.90,-15.58,-13.90,-15.57,6.00,3.64,-7.90,-7.90,1.68
23,-13.02,-14.70,-13.09,-14.77,6.00,4.13,-7.02,-7.09,1.68
24,-12.26,-13.94,-12.33,-14.01,6.00,4.64,-6.26,-6.33,1.68
25,-11.59,-13.27,-11.61,-13.29,6.00,5.17,-5.59,-5.61,1.68
26,-10.82,-12.50,-10.92,-12.60,6.00,5.70,-4.82,-4.92,1.68
27,-10.23,-11.91,-10.28,-11.96,6.00,6.21,-4.23,-4.28,1.68
28,-9.66,-11.34,-9.67,-11.35,6.00,6.67,-3.66,-3.67,1.68
29,-9.10,-10.78,-9.10,-10.78,6.00,7.03,-3.10,-3.10,1.68
30,-8.56,-10.24,-8.57,-10.25,6.00,7.29,-2.56,-2.57,1.68
31,-8.11,-9.79,-8.07,-9.75,6.00,7.41,-2.11,-2.07,1.68
32,-7.55,-9.23,-7.61,-9.29,6.00,7.41,-1.55,-1.61,1.68
33,-7.16,-8.84,-7.17,-8.85,6.00,7.30,-1.16,-1.17,1.68
34,-6.82,-8.50,-6.76,-8.44,6.00,7.10,-0.82,-0.76,1.68
35,-6.49,-8.17,-6.37,-8.05,6.00,6.85,-0.49,-0.37,1.68
36,-6.01,-7.69,-6.00,-7.68,6.00,6.56,-0.01,0.00,1.68
37,-5.57,-7.25,-5.65,-7.33,6.00,6.27,0.43,0.35,1.68
38,-5.29,-6.97,-5.32,-7.00,6.00,5.98,0.71,0.68,1.68
39,-5.03,-6.71,-5.00,-6.68,6.00,5.70,0.97,1.00,1.68
40,-4.78,-6.46,-4.71,-6.39,5.95,5.44,1.17,1.24,1.68
41,-4.38,-6.06,-4.42,-6.10,5.85,5.21,1.47,1.42,1.68
42,-4.22,-5.90,-4.15,-5.83,5.69,5.00,1.47,1.54,1.68
43,-3.89,-5.57,-3.90,-5.58,5.51,4.81,1.62,1.61,1.68
44,-3.60,-5.28,-3.66,-5.34,5.31,4.64,1.71,1.66,1.68
45,-3.49,-5.17,-3.43,-5.11,5.11,4.50,1.62,1.68,1.68
46,-3.24,-4.92,-3.22,-4.90,4.90,4.38,1.66,1.68,1.68
47,-3.00,-4.68,-3.02,-4.70,4.70,4.28,1.70,1.68,1.68
48,-2.92,-4.60,-2.84,-4.52,4.52,4.19,1.60,1.68,1.68
49,-2.69,-4.37,-2.68,-4.36,4.36,4.12,1.67,1.68,1.68
50,-2.46,-4.14,-2.54,-4.22,4.22,4.06,1.76,1.68,1.68
51,-2.27,-3.95,-2.41,-4.09,4.09,4.01,1.82,1.68,1.68
52,-2.27,-3.95,-2.30,-3.98,3.98,3.97,1.71,1.68,1.68
53,-2.27,-3.95,-2.20,-3.88,3.88,3.94,1.61,1.68,1.68
54,-2.08,-3.76,-2.11,-3.79,3.79,3.91,1.71,1.68,1.68
55,-1.95,-3.63,-2.04,-3.72,3.72,3.89,1.77,1.68,1.68
56,-1.95,-3.63,-1.98,-3.66,3.66,3.86,1.71,1.68,1.68
57,-1.95,-3.63,-1.93,-3.61,3.61,3.84,1.66,1.68,1.68
58,-1.95,-3.63,-1.88,-3.56,3.56,3.82,1.61,1.68,1.68
59,-1.95,-3.63,-1.84,-3.52,3.52,3.80,1.57,1.68,1.68
60,-1.95,-3.63,-1.80,-3.48,3.48,3.77,1.53,1.68,1.68
61,-1.84,-3.52,-1.77,-3.45,3.45,3.74,1.61,1.68,1.68
62,-1.66,-3.34,-1.74,-3.42,3.42,3.71,1.76,1.68,1.68
63,-1.62,-3.30,-1.71,-3.39,3.39,3.67,1.77,1.68,1.68
64,-1.62,-3.30,-1.69,-3.37,3.37,3.63,1.75,1.68,1.68
65,-1.62,-3.30,-1.67,-3.35,3.35,3.59,1.73,1.68,1.68
66,-1.62,-3.30,-1.65,-3.33,3.33,3.54,1.71,1.68,1.68
67,-1.62,-3.30,-1.64,-3.32,3.32,3.49,1.70,1.68,1.68
68,-1.62,-3.30,-1.62,-3.30,3.30,3.44,1.68,1.68,1.68
69,-1.62,-3.30,-1.61,-3.29,3.29,3.39,1.67,1.68,1.68
70,-1.62,-3.30,-1.59,-3.27,3.27,3.34,1.65,1.68,1.68
71,-1.62,-3.30,-1.58,-3.26,3.26,3.28,1.64,1.68,1.68
72,-1.62,-3.30,-1.55,-3.23,3.23,3.23,1.61,1.68,1.68
73,-1.62,-3.30,-1.53,-3.21,3.21,3.18,1.59,1.68,1.68
74,-1.61,-3.29,-1.50,-3.18,3.18,3.13,1.57,1.68,1.68
75,-1.46,-3.14,-1.47,-3.15,3.15,3.08,1.69,1.68,1.68
76,-1.46,-3.14,-1.44,-3.12,3.12,3.04,1.66,1.68,1.68
77,-1.32,-3.00,-1.41,-3.09,3.09,2.99,1.77,1.68,1.68
78,-1.30,-2.98,-1.39,-3.07,3.07,2.95,1.77,1.68,1.68
79,-1.30,-2.98,-1.36,-3.04,3.04,2.92,1.74,1.68,1.68
80,-1.30,-2.98,-1.34,-3.02,3.02,2.88,1.72,1.68,1.68
81,-1.30,-2.98,-1.33,-3.01,3.01,2.85,1.71,1.68,1.68
82,-1.30,-2.98,-1.32,-3.00,3.00,2.82,1.70,1.68,1.68
83,-1.30,-2.98,-1.31,-2.99,2.99,2.79,1.69,1.68,1.68
84,-1.30,-2.98,-1.30,-2.98,2.98,2.77,1.68,1.68,1.68
85,-1.30,-2.98,-1.29,-2.97,2.97,2.75,1.67,1.68,1.68
86,-1.30,-2.98,-1.28,-2.96,2.96,2.73,1.66,1.68,1.68
87,-1.30,-2.98,-1.26,-2.94,2.94,2.72,1.64,1.68,1.68
88,-1.30,-2.98,-1.24,-2.92,2.92,2.71,1.62,1.68,1.68
89,-1.30,-2.98,-1.21,-2.89,2.89,2.70,1.59,1.68,1.68
90,-1.30,-2.98,-1.18,-2.86,2.86,2.69,1.56,1.68,1.68
91,-1.22,-2.90,-1.15,-2.83,2.83,2.69,1.61,1.68,1.68
92,-1.09,-2.77,-1.11,-2.79,2.79,2.69,1.70,1.68,1.68
93,-0.97,-2.65,-1.08,-2.76,2.76,2.69,1.79,1.68,1.68
94,-0.97,-2.65,-1.05,-2.73,2.73,2.69,1.76,1.68,1.68
95,-0.97,-2.65,-1.03,-2.71,2.71,2.70,1.74,1.68,1.68
96,-0.97,-2.65,-1.02,-2.70,2.70,2.70,1.73,1.68,1.68
97,-0.97,-2.65,-1.01,-2.69,2.69,2.71,1.72,1.68,1.68
98,-0.97,-2.65,-1.02,-2.70,2.70,2.72,1.73,1.68,1.68
99,-1.03,-2.71,-1.03,-2.71,2.71,2.74,1.68,1.68,1.68
100,-1.12,-2.80,-1.05,-2.73,2.73,2.75,1.61,1.68,1.68
101,-1.01,-2.69,-1.08,-2.76,2.76,2.76,1.75,1.68,1.68
102,-1.05,-2.73,-1.11,-2.79,2.79,2.78,1.74,1.68,1.68
104,-1.14,-2.82,-1.14,-2.82,2.82,2.81,1.68,1.68,1.68
105,-1.21,-2.89,-1.18,-2.86,2.86,2.83,1.65,1.68,1.68
106,-1.30,-2.98,-1.21,-2.89,2.89,2.85,1.59,1.68,1.68
107,-1.30,-2.98,-1.24,-2.92,2.92,2.86,1.62,1.68,1.68
108,-1.30,-2.98,-1.26,-2.94,2.94,2.88,1.64,1.68,1.68
109,-1.30,-2.98,-1.28,-2.96,2.96,2.90,1.66,1.68,1.68
110,-1.30,-2.98,-1.30,-2.98,2.98,2.92,1.68,1.68,1.68
111,-1.30,-2.98,-1.31,-2.99,2.99,2.94,1.69,1.68,1.68
112,-1.30,-2.98,-1.31,-2.99,2.99,2.95,1.69,1.68,1.68
113,-1.30,-2.98,-1.31,-2.99,2.99,2.97,1.69,1.68,1.68
114,-1.30,-2.98,-1.31,-2.99,2.99,2.98,1.69,1.68,1.68
115,-1.30,-2.98,-1.31,-2.99,2.99,3.00,1.69,1.68,1.68
117,-1.30,-2.98,-1.31,-2.99,2.99,3.03,1.69,1.68,1.68
118,-1.30,-2.98,-1.31,-2.99,2.99,3.04,1.69,1.68,1.68
119,-1.30,-2.98,-1.30,-2.98,2.98,3.05,1.68,1.68,1.68
120,-1.30,-2.98,-1.30,-2.98,2.98,3.06,1.68,1.68,1.68
121,-1.30,-2.98,-1.30,-2.98,2.98,3.07,1.68,1.68,1.68
123,-1.30,-2.98,-1.30,-2.98,2.98,3.08,1.68,1.68,1.68
124,-1.30,-2.98,-1.30,-2.98,2.98,3.08,1.68,1.68,1.68
125,-1.30,-2.98,-1.30,-2.98,2.98,3.08,1.68,1.68,1.68
126,-1.30,-2.98,-1.30,-2.98,2.98,3.09,1.68,1.68,1.68
128,-1.30,-2.98,-1.30,-2.98,2.98,3.09,1.68,1.68,1.68
129,-1.30,-2.98,-1.30,-2.98,2.98,3.08,1.68,1.68,1.68
130,-1.30,-2.98,-1.30,-2.98,2.98,3.08,1.68,1.68,1.68
131,-1.30,-2.98,-1.30,-2.98,2.98,3.08,1.68,1.68,1.68
133,-1.30,-2.98,-1.30,-2.98,2.98,3.07,1.68,1.68,1.68
134,-1.30,-2.98,-1.30,-2.98,2.98,3.06,1.68,1.68,1.68
135,-1.30,-2.98,-1.30,-2.98,2.98,3.05,1.68,1.68,1.68
137,-1.30,-2.98,-1.30,-2.98,2.98,3.04,1.68,1.68,1.68
138,-1.30,-2.98,-1.30,-2.98,2.98,3.03,1.68,1.68,1.68
140,-1.30,-2.98,-1.30,-2.98,2.98,3.01,1.68,1.68,1.68
141,-1.30,-2.98,-1.30,-2.98,2.98,3.00,1.68,1.68,1.68
142,-1.30,-2.98,-1.30,-2.98,2.98,2.99,1.68,1.68,1.68
144,-1.30,-2.98,-1.30,-2.98,2.98,2.97,1.68,1.68,1.68
145,-1.30,-2.98,-1.30,-2.98,2.98,2.97,1.68,1.68,1.68
147,-1.30,-2.98,-1.30,-2.98,2.98,2.95,1.68,1.68,1.68
148,-1.30,-2.98,-1.30,-2.98,2.98,2.94,1.68,1.68,1.68
150,-1.30,-2.98,-1.30,-2.98,2.98,2.92,1.68,1.68,1.68
151,-1.30,-2.98,-1.30,-2.98,2.98,2.92,1.68,1.68,1.68
153,-1.30,-2.98,-1.30,-2.98,2.98,2.90,1.68,1.68,1.68
154,-1.30,-2.98,-1.30,-2.98,2.98,2.90,1.68,1.68,1.68
156,-1.30,-2.98,-1.30,-2.98,2.98,2.89,1.68,1.68,1.68
157,-1.30,-2.98,-1.30,-2.98,2.98,2.89,1.68,1.68,1.68
159,-1.30,-2.98,-1.30,-2.98,2.98,2.88,1.68,1.68,1.68
160,-1.30,-2.98,-1.30,-2.98,2.98,2.88,1.68,1.68,1.68
162,-1.30,-2.98,-1.30,-2.98,2.98,2.88,1.68,1.68,1.68
164,-1.30,-2.98,-1.30,-2.98,2.98,2.88,1.68,1.68,1.68
165,-1.30,-2.98,-1.30,-2.98,2.98,2.88,1.68,1.68,1.68
167,-1.30,-2.98,-1.29,-2.97,2.97,2.89,1.67,1.68,1.68
169,-1.30,-2.98,-1.29,-2.97,2.97,2.89,1.67,1.68,1.68
170,-1.30,-2.98,-1.29,-2.97,2.97,2.90,1.67,1.68,1.68
172,-1.30,-2.98,-1.29,-2.97,2.97,2.91,1.67,1.68,1.68
174,-1.30,-2.98,-1.29,-2.97,2.97,2.93,1.67,1.68,1.68
175,-1.30,-2.98,-1.29,-2.97,2.97,2.94,1.67,1.68,1.68
177,-1.30,-2.98,-1.30,-2.98,2.98,2.96,1.68,1.68,1.68
179,-1.30,-2.98,-1.31,-2.99,2.99,2.98,1.69,1.68,1.68
181,-1.30,-2.98,-1.32,-3.00,3.00,3.01,1.70,1.68,1.68
183,-1.30,-2.98,-1.34,-3.02,3.02,3.03,1.72,1.68,1.68
184,-1.30,-2.98,-1.36,-3.04,3.04,3.05,1.74,1.68,1.68
186,-1.34,-3.02,-1.38,-3.06,3.06,3.08,1.72,1.68,1.68
188,-1.46,-3.14,-1.41,-3.09,3.09,3.11,1.63,1.68,1.68
190,-1.46,-3.14,-1.44,-3.12,3.12,3.15,1.66,1.68,1.68
192,-1.46,-3.14,-1.47,-3.15,3.15,3.18,1.69,1.68,1.68
194,-1.49,-3.17,-1.50,-3.18,3.18,3.22,1.69,1.68,1.68
196,-1.61,-3.29,-1.53,-3.21,3.21,3.26,1.60,1.68,1.68
198,-1.62,-3.30,-1.56,-3.24,3.24,3.30,1.62,1.68,1.68
200,-1.62,-3.30,-1.60,-3.28,3.28,3.34,1.66,1.68,1.68
202,-1.62,-3.30,-1.63,-3.31,3.31,3.39,1.69,1.68,1.68
204,-1.62,-3.30,-1.67,-3.35,3.35,3.43,1.73,1.68,1.68
206,-1.62,-3.30,-1.70,-3.38,3.38,3.47,1.76,1.68,1.68
208,-1.63,-3.31,-1.73,-3.41,3.41,3.52,1.78,1.68,1.68
210,-1.74,-3.42,-1.77,-3.45,3.45,3.56,1.71,1.68,1.68
212,-1.85,-3.53,-1.80,-3.48,3.48,3.60,1.63,1.68,1.68
214,-1.95,-3.63,-1.84,-3.52,3.52,3.65,1.57,1.68,1.68
216,-1.95,-3.63,-1.87,-3.55,3.55,3.69,1.60,1.68,1.68
218,-1.95,-3.63,-1.90,-3.58,3.58,3.73,1.63,1.68,1.68
221,-1.95,-3.63,-1.94,-3.61,3.61,3.79,1.66,1.68,1.68
223,-1.95,-3.63,-1.97,-3.65,3.65,3.83,1.70,1.68,1.68
225,-1.95,-3.63,-2.00,-3.68,3.68,3.87,1.73,1.68,1.68
227,-1.95,-3.63,-2.04,-3.72,3.72,3.90,1.77,1.68,1.68
229,-1.95,-3.63,-2.07,-3.75,3.75,3.94,1.80,1.68,1.68
232,-2.05,-3.73,-2.10,-3.78,3.78,3.98,1.73,1.68,1.68
234,-2.15,-3.83,-2.14,-3.82,3.82,4.01,1.67,1.68,1.68
236,-2.25,-3.93,-2.17,-3.85,3.85,4.04,1.60,1.68,1.68
239,-2.27,-3.95,-2.19,-3.87,3.87,4.07,1.60,1.68,1.68
241,-2.27,-3.95,-2.22,-3.90,3.90,4.09,1.63,1.68,1.68
244,-2.27,-3.95,-2.24,-3.92,3.92,4.11,1.65,1.68,1.68
246,-2.27,-3.95,-2.26,-3.94,3.94,4.12,1.67,1.68,1.68
248,-2.27,-3.95,-2.27,-3.95,3.95,4.13,1.68,1.68,1.68
251,-2.27,-3.95,-2.28,-3.96,3.96,4.14,1.69,1.68,1.68
253,-2.27,-3.95,-2.28,-3.96,3.96,4.14,1.69,1.68,1.68
256,-2.27,-3.95,-2.28,-3.96,3.96,4.14,1.69,1.68,1.68
259,-2.27,-3.95,-2.28,-3.96,3.96,4.14,1.69,1.68,1.68
261,-2.27,-3.95,-2.28,-3.96,3.96,4.13,1.69,1.68,1.68
264,-2.27,-3.95,-2.28,-3.96,3.96,4.12,1.69,1.68,1.68
266,-2.27,-3.95,-2.28,-3.96,3.96,4.11,1.69,1.68,1.68
269,-2.27,-3.95,-2.27,-3.95,3.95,4.09,1.68,1.68,1.68
272,-2.27,-3.95,-2.27,-3.95,3.95,4.06,1.68,1.68,1.68
274,-2.27,-3.95,-2.27,-3.95,3.95,4.05,1.68,1.68,1.68
277,-2.27,-3.95,-2.27,-3.95,3.95,4.02,1.68,1.68,1.68
280,-2.27,-3.95,-2.27,-3.95,3.95,3.99,1.68,1.68,1.68
283,-2.27,-3.95,-2.27,-3.95,3.95,3.96,1.68,1.68,1.68
286,-2.27,-3.95,-2.27,-3.95,3.95,3.93,1.68,1.68,1.68
288,-2.27,-3.95,-2.27,-3.95,3.95,3.91,1.68,1.68,1.68
291,-2.27,-3.95,-2.27,-3.95,3.95,3.88,1.68,1.68,1.68
294,-2.27,-3.95,-2.27,-3.95,3.95,3.84,1.68,1.68,1.68
297,-2.27,-3.95,-2.27,-3.95,3.95,3.81,1.68,1.68,1.68
300,-2.27,-3.95,-2.27,-3.95,3.95,3.78,1.68,1.68,1.68
303,-2.27,-3.95,-2.27,-3.95,3.95,3.75,1.68,1.68,1.68
306,-2.27,-3.95,-2.27,-3.95,3.95,3.73,1.68,1.68,1.68
309,-2.27,-3.95,-2.27,-3.95,3.95,3.70,1.68,1.68,1.68
312,-2.27,-3.95,-2.27,-3.95,3.95,3.67,1.68,1.68,1.68
316,-2.27,-3.95,-2.27,-3.95,3.95,3.64,1.68,1.68,1.68
319,-2.27,-3.95,-2.27,-3.95,3.95,3.62,1.68,1.68,1.68
322,-2.27,-3.95,-2.27,-3.95,3.95,3.60,1.68,1.68,1.68
325,-2.27,-3.95,-2.27,-3.95,3.95,3.59,1.68,1.68,1.68
328,-2.27,-3.95,-2.27,-3.95,3.95,3.57,1.68,1.68,1.68
332,-2.27,-3.95,-2.28,-3.96,3.96,3.56,1.69,1.68,1.68
335,-2.27,-3.95,-2.28,-3.96,3.96,3.55,1.69,1.68,1.68
338,-2.27,-3.95,-2.29,-3.97,3.97,3.54,1.70,1.68,1.68
342,-2.27,-3.95,-2.30,-3.98,3.98,3.53,1.71,1.68,1.68
345,-2.27,-3.95,-2.30,-3.98,3.98,3.53,1.71,1.68,1.68
349,-2.29,-3.97,-2.31,-3.99,3.99,3.53,1.70,1.68,1.68
352,-2.38,-4.06,-2.31,-3.99,3.99,3.53,1.61,1.68,1.68
356,-2.35,-4.03,-2.32,-4.00,4.00,3.54,1.65,1.68,1.68
359,-2.28,-3.96,-2.32,-4.00,4.00,3.54,1.72,1.68,1.68
363,-2.41,-4.09,-2.32,-4.00,4.00,3.56,1.59,1.68,1.68
366,-2.37,-4.05,-2.31,-3.99,3.99,3.57,1.62,1.68,1.68
370,-2.27,-3.95,-2.31,-3.99,3.99,3.58,1.72,1.68,1.68
374,-2.27,-3.95,-2.30,-3.98,3.98,3.60,1.71,1.68,1.68
377,-2.27,-3.95,-2.30,-3.98,3.98,3.62,1.71,1.68,1.68
381,-2.27,-3.95,-2.29,-3.97,3.97,3.65,1.70,1.68,1.68
385,-2.27,-3.95,-2.28,-3.96,3.96,3.67,1.69,1.68,1.68
389,-2.27,-3.95,-2.28,-3.96,3.96,3.70,1.69,1.68,1.68
393,-2.27,-3.95,-2.27,-3.95,3.95,3.73,1.68,1.68,1.68
397,-2.27,-3.95,-2.27,-3.95,3.95,3.77,1.68,1.68,1.68
401,-2.27,-3.95,-2.27,-3.95,3.95,3.80,1.68,1.68,1.68
405,-2.27,-3.95,-2.27,-3.95,3.95,3.83,1.68,1.68,1.68
409,-2.27,-3.95,-2.27,-3.95,3.95,3.87,1.68,1.68,1.68
413,-2.27,-3.95,-2.27,-3.95,3.95,3.91,1.68,1.68,1.68
417,-2.27,-3.95,-2.27,-3.95,3.95,3.94,1.68,1.68,1.68
421,-2.27,-3.95,-2.27,-3.95,3.95,3.98,1.68,1.68,1.68
425,-2.27,-3.95,-2.27,-3.95,3.95,4.02,1.68,1.68,1.68
430,-2.27,-3.95,-2.27,-3.95,3.95,4.06,1.68,1.68,1.68
434,-2.27,-3.95,-2.27,-3.95,3.95,4.10,1.68,1.68,1.68
438,-2.27,-3.95,-2.27,-3.95,3.95,4.13,1.68,1.68,1.68
443,-2.27,-3.95,-2.27,-3.95,3.95,4.17,1.68,1.68,1.68
447,-2.27,-3.95,-2.27,-3.95,3.95,4.20,1.68,1.68,1.68
451,-2.27,-3.95,-2.28,-3.96,3.96,4.23,1.69,1.68,1.68
456,-2.27,-3.95,-2.28,-3.96,3.96,4.27,1.69,1.68,1.68
460,-2.27,-3.95,-2.28,-3.96,3.96,4.29,1.69,1.68,1.68
465,-2.27,-3.95,-2.28,-3.96,3.96,4.32,1.69,1.68,1.68
470,-2.27,-3.95,-2.28,-3.96,3.96,4.34,1.69,1.68,1.68
474,-2.27,-3.95,-2.28,-3.96,3.96,4.35,1.69,1.68,1.68
479,-2.27,-3.95,-2.27,-3.95,3.95,4.36,1.68,1.68,1.68
484,-2.27,-3.95,-2.26,-3.94,3.94,4.37,1.67,1.68,1.68
489,-2.27,-3.95,-2.25,-3.93,3.93,4.37,1.66,1.68,1.68
494,-2.27,-3.95,-2.23,-3.91,3.91,4.37,1.64,1.68,1.68
499,-2.27,-3.95,-2.20,-3.88,3.88,4.36,1.61,1.68,1.68
504,-2.27,-3.95,-2.17,-3.85,3.85,4.35,1.58,1.68,1.68
509,-2.21,-3.89,-2.14,-3.82,3.82,4.33,1.61,1.68,1.68
514,-2.10,-3.78,-2.11,-3.79,3.79,4.31,1.69,1.68,1.68
519,-1.99,-3.67,-2.08,-3.76,3.76,4.28,1.77,1.68,1.68
524,-1.95,-3.63,-2.05,-3.73,3.73,4.25,1.78,1.68,1.68
529,-1.95,-3.63,-2.03,-3.71,3.71,4.22,1.76,1.68,1.68
535,-1.95,-3.63,-2.00,-3.68,3.68,4.17,1.73,1.68,1.68
540,-1.95,-3.63,-1.98,-3.66,3.66,4.13,1.71,1.68,1.68
545,-1.95,-3.63,-1.96,-3.64,3.64,4.09,1.69,1.68,1.68
551,-1.95,-3.63,-1.94,-3.62,3.62,4.03,1.67,1.68,1.68
556,-1.95,-3.63,-1.92,-3.60,3.60,3.98,1.65,1.68,1.68
562,-1.95,-3.63,-1.90,-3.58,3.58,3.92,1.63,1.68,1.68
568,-1.95,-3.63,-1.87,-3.55,3.55,3.86,1.60,1.68,1.68
573,-1.95,-3.63,-1.84,-3.52,3.52,3.81,1.57,1.68,1.68
579,-1.89,-3.57,-1.81,-3.49,3.49,3.74,1.60,1.68,1.68
585,-1.78,-3.46,-1.78,-3.46,3.46,3.68,1.68,1.68,1.68
591,-1.78,-3.46,-1.76,-3.44,3.44,3.61,1.66,1.68,1.68
596,-1.72,-3.40,-1.73,-3.41,3.41,3.56,1.69,1.68,1.68
602,-1.62,-3.30,-1.71,-3.39,3.39,3.49,1.77,1.68,1.68
608,-1.62,-3.30,-1.70,-3.38,3.38,3.43,1.76,1.68,1.68
615,-1.62,-3.30,-1.70,-3.38,3.38,3.36,1.76,1.68,1.68
621,-1.62,-3.30,-1.71,-3.39,3.39,3.30,1.77,1.68,1.68
627,-1.62,-3.30,-1.72,-3.40,3.40,3.24,1.78,1.68,1.68
633,-1.71,-3.39,-1.74,-3.42,3.42,3.18,1.71,1.68,1.68
639,-1.78,-3.46,-1.77,-3.45,3.45,3.12,1.67,1.68,1.68
646,-1.78,-3.46,-1.80,-3.48,3.48,3.06,1.70,1.68,1.68
652,-1.88,-3.56,-1.83,-3.51,3.51,3.01,1.63,1.68,1.68
659,-1.95,-3.63,-1.85,-3.53,3.53,2.95,1.58,1.68,1.68
665,-1.95,-3.63,-1.87,-3.54,3.54,2.90,1.59,1.68,1.68
672,-1.95,-3.63,-1.87,-3.55,3.55,2.85,1.60,1.68,1.68
679,-1.95,-3.63,-1.87,-3.55,3.55,2.80,1.60,1.68,1.68
686,-1.92,-3.60,-1.86,-3.54,3.54,2.75,1.62,1.68,1.68
692,-1.82,-3.50,-1.84,-3.52,3.52,2.71,1.70,1.68,1.68
699,-1.78,-3.46,-1.82,-3.50,3.50,2.66,1.72,1.68,1.68
706,-1.76,-3.44,-1.78,-3.46,3.46,2.62,1.70,1.68,1.68
713,-1.65,-3.33,-1.75,-3.43,3.43,2.59,1.78,1.68,1.68
721,-1.62,-3.30,-1.70,-3.38,3.38,2.54,1.76,1.68,1.68
728,-1.62,-3.30,-1.65,-3.33,3.33,2.51,1.71,1.68,1.68
735,-1.62,-3.30,-1.60,-3.28,3.28,2.48,1.66,1.68,1.68
742,-1.62,-3.30,-1.55,-3.23,3.23,2.45,1.61,1.68,1.68
750,-1.56,-3.24,-1.49,-3.17,3.17,2.42,1.61,1.68,1.68
757,-1.46,-3.14,-1.43,-3.11,3.11,2.39,1.65,1.68,1.68
765,-1.34,-3.02,-1.37,-3.05,3.05,2.37,1.71,1.68,1.68
773,-1.30,-2.98,-1.30,-2.98,2.98,2.34,1.68,1.68,1.68
780,-1.28,-2.96,-1.23,-2.91,2.91,2.32,1.63,1.68,1.68
788,-1.17,-2.85,-1.16,-2.84,2.84,2.30,1.67,1.68,1.68
796,-1.05,-2.73,-1.09,-2.77,2.77,2.28,1.72,1.68,1.68
804,-0.97,-2.65,-1.01,-2.69,2.69,2.27,1.72,1.68,1.68
812,-0.97,-2.65,-0.94,-2.62,2.62,2.25,1.65,1.68,1.68
820,-0.88,-2.56,-0.87,-2.55,2.55,2.23,1.67,1.68,1.68
828,-0.77,-2.45,-0.80,-2.48,2.48,2.22,1.71,1.68,1.68
837,-0.65,-2.33,-0.73,-2.41,2.41,2.21,1.76,1.68,1.68
845,-0.65,-2.33,-0.67,-2.35,2.35,2.19,1.70,1.68,1.68
853,-0.65,-2.33,-0.61,-2.29,2.29,2.18,1.64,1.68,1.68
862,-0.64,-2.32,-0.56,-2.24,2.24,2.17,1.60,1.68,1.68
871,-0.52,-2.20,-0.51,-2.19,2.19,2.16,1.67,1.68,1.68
879,-0.42,-2.10,-0.46,-2.14,2.14,2.14,1.72,1.68,1.68
888,-0.32,-2.00,-0.42,-2.10,2.10,2.13,1.78,1.68,1.68
897,-0.32,-2.00,-0.38,-2.06,2.06,2.12,1.74,1.68,1.68
906,-0.32,-2.00,-0.34,-2.02,2.02,2.10,1.70,1.68,1.68
915,-0.32,-2.00,-0.30,-1.98,1.98,2.09,1.66,1.68,1.68
924,-0.32,-2.00,-0.27,-1.95,1.95,2.07,1.63,1.68,1.68
933,-0.32,-2.00,-0.23,-1.91,1.91,2.06,1.59,1.68,1.68
943,-0.27,-1.95,-0.19,-1.87,1.87,2.04,1.60,1.68,1.68
952,-0.17,-1.85,-0.15,-1.83,1.83,2.02,1.66,1.68,1.68
962,-0.05,-1.73,-0.11,-1.79,1.79,1.99,1.74,1.68,1.68
971,0.00,-1.68,-0.07,-1.75,1.75,1.97,1.75,1.68,1.68
981,0.00,-1.68,-0.03,-1.71,1.71,1.95,1.71,1.68,1.68
991,0.00,-1.68,0.01,-1.67,1.67,1.92,1.67,1.68,1.68
1001,0.00,-1.68,0.06,-1.62,1.62,1.89,1.62,1.68,1.68
1011,0.03,-1.65,0.10,-1.58,1.58,1.85,1.61,1.68,1.68
1021,0.14,-1.54,0.15,-1.53,1.53,1.82,1.67,1.68,1.68
1031,0.25,-1.43,0.19,-1.49,1.49,1.78,1.74,1.68,1.68
1041,0.32,-1.36,0.24,-1.44,1.44,1.75,1.76,1.68,1.68
1052,0.32,-1.36,0.28,-1.40,1.40,1.70,1.72,1.68,1.68
1062,0.32,-1.36,0.33,-1.35,1.35,1.66,1.67,1.68,1.68
1073,0.32,-1.36,0.37,-1.31,1.31,1.62,1.63,1.68,1.68
1084,0.33,-1.35,0.42,-1.26,1.26,1.57,1.59,1.68,1.68
1094,0.43,-1.25,0.46,-1.22,1.22,1.52,1.65,1.68,1.68
1105,0.54,-1.14,0.51,-1.17,1.17,1.47,1.71,1.68,1.68
1116,0.65,-1.03,0.55,-1.13,1.13,1.42,1.78,1.68,1.68
1128,0.65,-1.03,0.59,-1.09,1.09,1.36,1.74,1.68,1.68
1139,0.65,-1.03,0.64,-1.04,1.04,1.31,1.69,1.68,1.68
1150,0.65,-1.03,0.69,-0.99,0.99,1.26,1.64,1.68,1.68
1162,0.65,-1.03,0.73,-0.95,0.95,1.20,1.60,1.68,1.68
1173,0.73,-0.95,0.78,-0.90,0.90,1.14,1.63,1.68,1.68
1185,0.85,-0.83,0.83,-0.85,0.85,1.09,1.70,1.68,1.68
1197,0.96,-0.72,0.88,-0.80,0.80,1.03,1.76,1.68,1.68
1209,0.97,-0.71,0.94,-0.74,0.74,0.97,1.71,1.68,1.68
1221,0.97,-0.71,0.99,-0.69,0.69,0.91,1.66,1.68,1.68
1233,0.97,-0.71,1.05,-0.63,0.63,0.85,1.60,1.68,1.68
1246,1.09,-0.59,1.11,-0.57,0.57,0.78,1.66,1.68,1.68
1258,1.20,-0.48,1.17,-0.51,0.51,0.72,1.71,1.68,1.68
1271,1.30,-0.38,1.23,-0.45,0.45,0.66,1.75,1.68,1.68
1283,1.30,-0.38,1.29,-0.39,0.39,0.60,1.69,1.68,1.68
1296,1.30,-0.38,1.36,-0.32,0.32,0.54,1.62,1.68,1.68
1309,1.35,-0.33,1.42,-0.26,0.26,0.48,1.61,1.68,1.68
1322,1.57,-0.11,1.49,-0.19,0.19,0.42,1.76,1.68,1.68
1335,1.62,-0.06,1.56,-0.12,0.12,0.36,1.74,1.68,1.68
1349,1.62,-0.06,1.63,-0.05,0.05,0.29,1.67,1.68,1.68
1362,1.62,-0.06,1.69,0.01,-0.01,0.24,1.61,1.68,1.68
1376,1.72,0.04,1.76,0.08,-0.08,0.17,1.64,1.68,1.68
1390,1.84,0.16,1.83,0.15,-0.15,0.11,1.69,1.68,1.68
1404,1.95,0.27,1.90,0.22,-0.22,0.05,1.73,1.68,1.68
1418,1.95,0.27,1.96,0.28,-0.28,-0.01,1.67,1.68,1.68
1432,1.95,0.27,2.02,0.34,-0.34,-0.07,1.61,1.68,1.68
1446,1.97,0.29,2.08,0.40,-0.40,-0.13,1.57,1.68,1.68
1461,2.21,0.53,2.13,0.45,-0.45,-0.20,1.76,1.68,1.68
1475,2.27,0.59,2.17,0.49,-0.49,-0.26,1.78,1.68,1.68
1490,2.27,0.59,2.21,0.53,-0.53,-0.32,1.74,1.68,1.68
1505,2.27,0.59,2.23,0.55,-0.55,-0.38,1.72,1.68,1.68
1520,2.27,0.59,2.26,0.58,-0.58,-0.44,1.69,1.68,1.68
1535,2.27,0.59,2.27,0.59,-0.59,-0.50,1.68,1.68,1.68
1550,2.27,0.59,2.28,0.60,-0.60,-0.56,1.67,1.68,1.68
1566,2.27,0.59,2.28,0.60,-0.60,-0.62,1.67,1.68,1.68
1582,2.27,0.59,2.28,0.60,-0.60,-0.69,1.67,1.68,1.68
1597,2.27,0.59,2.28,0.60,-0.60,-0.74,1.67,1.68,1.68
1613,2.27,0.59,2.27,0.59,-0.59,-0.80,1.68,1.68,1.68
1629,2.27,0.59,2.27,0.59,-0.59,-0.86,1.68,1.68,1.68
1646,2.27,0.59,2.27,0.59,-0.59,-0.93,1.68,1.68,1.68
1662,2.27,0.59,2.27,0.59,-0.59,-0.98,1.68,1.68,1.68
1679,2.27,0.59,2.28,0.60,-0.60,-1.04,1.67,1.68,1.68
1696,2.27,0.59,2.29,0.61,-0.61,-1.10,1.66,1.68,1.68
1713,2.27,0.59,2.30,0.63,-0.63,-1.16,1.64,1.68,1.68
1730,2.27,0.59,2.33,0.65,-0.65,-1.21,1.62,1.68,1.68
1747,2.31,0.63,2.35,0.67,-0.67,-1.26,1.64,1.68,1.68
1764,2.42,0.74,2.38,0.70,-0.70,-1.31,1.72,1.68,1.68
1782,2.43,0.75,2.42,0.74,-0.74,-1.37,1.69,1.68,1.68
1800,2.49,0.81,2.45,0.77,-0.77,-1.42,1.72,1.68,1.68
1818,2.59,0.91,2.50,0.82,-0.82,-1.46,1.77,1.68,1.68
1836,2.59,0.91,2.55,0.87,-0.87,-1.51,1.72,1.68,1.68
1854,2.59,0.91,2.60,0.92,-0.92,-1.55,1.67,1.68,1.68
1873,2.59,0.91,2.66,0.98,-0.98,-1.59,1.61,1.68,1.68
1892,2.59,0.91,2.72,1.04,-1.04,-1.63,1.55,1.68,1.68
