frequency,raw,smoothed,error,error_smoothed,equalization,parametric_eq,fixed_band_eq,equalized_raw,equalized_smoothed,target
20.00,6.80,6.80,-2.15,-2.15,2.14,1.57,0.62,8.94,8.94,8.94
20.20,6.83,6.83,-2.12,-2.12,2.12,1.57,0.64,8.94,8.94,8.94
20.40,6.86,6.86,-2.09,-2.09,2.09,1.57,0.66,8.95,8.95,8.94
20.61,6.89,6.88,-2.06,-2.06,2.06,1.56,0.68,8.95,8.95,8.94
20.81,6.91,6.91,-2.04,-2.03,2.04,1.56,0.70,8.94,8.94,8.94
21.02,6.93,6.93,-2.02,-2.01,2.01,1.56,0.72,8.94,8.94,8.94
21.23,6.96,6.95,-1.98,-1.99,1.99,1.55,0.74,8.94,8.94,8.94
21.44,6.98,6.97,-1.96,-1.96,1.96,1.55,0.77,8.94,8.94,8.94
21.66,7.00,7.00,-1.94,-1.94,1.94,1.55,0.79,8.94,8.94,8.94
21.87,7.02,7.02,-1.92,-1.92,1.92,1.54,0.81,8.93,8.94,8.94
22.09,7.05,7.04,-1.89,-1.89,1.90,1.54,0.84,8.94,8.94,8.94
22.31,7.07,7.07,-1.87,-1.87,1.87,1.54,0.86,8.94,8.94,8.94
22.54,7.09,7.09,-1.85,-1.85,1.85,1.53,0.89,8.93,8.93,8.94
22.76,7.11,7.11,-1.83,-1.83,1.83,1.53,0.92,8.93,8.93,8.93
22.99,7.13,7.13,-1.81,-1.80,1.80,1.53,0.94,8.93,8.93,8.93
23.22,7.16,7.15,-1.78,-1.78,1.78,1.52,0.97,8.94,8.93,8.93
23.45,7.18,7.18,-1.76,-1.76,1.76,1.52,1.00,8.93,8.93,8.93
23.69,7.20,7.20,-1.73,-1.73,1.74,1.51,1.03,8.93,8.93,8.93
23.92,7.22,7.22,-1.71,-1.71,1.71,1.51,1.06,8.93,8.93,8.93
24.16,7.24,7.24,-1.69,-1.69,1.69,1.51,1.09,8.93,8.93,8.93
24.40,7.26,7.26,-1.67,-1.67,1.67,1.50,1.12,8.93,8.93,8.93
24.65,7.28,7.28,-1.65,-1.65,1.65,1.50,1.15,8.92,8.92,8.93
24.89,7.30,7.30,-1.63,-1.63,1.63,1.49,1.18,8.92,8.92,8.92
25.14,7.32,7.32,-1.61,-1.61,1.61,1.49,1.21,8.92,8.92,8.92
25.39,7.34,7.34,-1.59,-1.59,1.59,1.48,1.24,8.92,8.92,8.92
25.65,7.36,7.36,-1.56,-1.56,1.56,1.48,1.28,8.92,8.92,8.92
25.91,7.38,7.38,-1.54,-1.54,1.54,1.47,1.31,8.92,8.92,8.92
26.16,7.40,7.39,-1.52,-1.52,1.52,1.47,1.34,8.92,8.92,8.92
26.43,7.41,7.41,-1.51,-1.51,1.50,1.46,1.37,8.91,8.91,8.92
26.69,7.43,7.43,-1.49,-1.49,1.49,1.46,1.40,8.91,8.91,8.91
26.96,7.45,7.44,-1.47,-1.47,1.47,1.45,1.43,8.91,8.91,8.91
27.23,7.47,7.46,-1.44,-1.45,1.45,1.45,1.46,8.91,8.91,8.91
27.50,7.48,7.48,-1.43,-1.43,1.43,1.44,1.49,8.91,8.91,8.91
27.77,7.50,7.49,-1.41,-1.41,1.41,1.44,1.51,8.91,8.91,8.91
28.05,7.51,7.51,-1.40,-1.40,1.40,1.43,1.54,8.90,8.90,8.90
28.33,7.53,7.52,-1.38,-1.38,1.38,1.43,1.56,8.90,8.90,8.90
28.62,7.54,7.54,-1.36,-1.36,1.36,1.42,1.58,8.90,8.90,8.90
28.90,7.56,7.55,-1.34,-1.34,1.34,1.41,1.60,8.90,8.90,8.90
29.19,7.57,7.57,-1.33,-1.33,1.33,1.41,1.62,8.89,8.89,8.90
29.48,7.59,7.58,-1.31,-1.31,1.31,1.40,1.64,8.90,8.89,8.89
29.78,7.60,7.60,-1.29,-1.29,1.29,1.39,1.65,8.89,8.89,8.89
30.08,7.62,7.61,-1.27,-1.27,1.27,1.39,1.66,8.89,8.89,8.89
30.38,7.63,7.63,-1.26,-1.26,1.26,1.38,1.67,8.88,8.89,8.89
30.68,7.65,7.64,-1.24,-1.24,1.24,1.37,1.68,8.89,8.88,8.88
30.99,7.66,7.66,-1.22,-1.22,1.22,1.37,1.68,8.88,8.88,8.88
31.30,7.67,7.67,-1.21,-1.21,1.21,1.36,1.68,8.87,8.88,8.88
31.61,7.69,7.68,-1.19,-1.19,1.19,1.35,1.68,8.88,8.87,8.87
31.93,7.70,7.69,-1.17,-1.18,1.17,1.35,1.68,8.87,8.87,8.87
32.24,7.71,7.71,-1.16,-1.16,1.16,1.34,1.67,8.86,8.86,8.87
32.57,7.72,7.72,-1.15,-1.14,1.14,1.33,1.66,8.86,8.86,8.86
32.89,7.74,7.73,-1.12,-1.13,1.13,1.32,1.65,8.86,8.86,8.86
33.22,7.75,7.75,-1.11,-1.11,1.11,1.31,1.64,8.86,8.86,8.86
33.55,7.76,7.76,-1.10,-1.10,1.10,1.31,1.62,8.86,8.86,8.85
33.89,7.77,7.76,-1.08,-1.08,1.09,1.30,1.60,8.85,8.85,8.85
34.23,7.77,7.77,-1.08,-1.07,1.07,1.29,1.58,8.84,8.84,8.84
34.57,7.78,7.77,-1.06,-1.07,1.06,1.28,1.56,8.84,8.84,8.84
34.92,7.78,7.78,-1.06,-1.06,1.05,1.27,1.54,8.83,8.83,8.83
35.27,7.79,7.79,-1.04,-1.04,1.04,1.26,1.51,8.83,8.83,8.83
35.62,7.80,7.79,-1.03,-1.03,1.03,1.25,1.49,8.83,8.82,8.82
35.97,7.80,7.80,-1.02,-1.02,1.02,1.24,1.46,8.82,8.82,8.82
36.33,7.81,7.80,-1.01,-1.01,1.01,1.24,1.43,8.82,8.82,8.81
36.70,7.81,7.81,-1.00,-1.00,1.00,1.23,1.40,8.81,8.81,8.81
37.06,7.82,7.81,-0.99,-0.99,0.99,1.22,1.37,8.81,8.80,8.80
37.43,7.82,7.82,-0.98,-0.98,0.98,1.21,1.34,8.80,8.80,8.80
37.81,7.82,7.82,-0.98,-0.97,0.97,1.20,1.31,8.79,8.79,8.79
38.19,7.83,7.82,-0.96,-0.96,0.96,1.18,1.28,8.79,8.78,8.79
38.57,7.83,7.83,-0.95,-0.95,0.95,1.17,1.25,8.77,8.78,8.78
38.95,7.84,7.83,-0.94,-0.94,0.94,1.16,1.22,8.77,8.77,8.77
39.34,7.84,7.84,-0.93,-0.93,0.93,1.15,1.19,8.76,8.77,8.76
39.74,7.85,7.84,-0.91,-0.91,0.92,1.14,1.16,8.76,8.76,8.76
40.14,7.85,7.85,-0.90,-0.90,0.91,1.13,1.13,8.75,8.75,8.75
40.54,7.85,7.85,-0.90,-0.90,0.90,1.12,1.11,8.74,8.74,8.74
40.94,7.85,7.85,-0.89,-0.89,0.89,1.10,1.08,8.73,8.73,8.73
41.35,7.85,7.85,-0.88,-0.88,0.88,1.09,1.05,8.72,8.72,8.73
41.76,7.85,7.85,-0.87,-0.87,0.87,1.08,1.02,8.72,8.72,8.72
42.18,7.85,7.85,-0.86,-0.86,0.86,1.07,1.00,8.71,8.71,8.71
42.60,7.85,7.85,-0.85,-0.85,0.85,1.05,0.97,8.70,8.70,8.70
43.03,7.85,7.85,-0.84,-0.84,0.84,1.04,0.94,8.69,8.69,8.69
43.46,7.85,7.85,-0.83,-0.83,0.83,1.03,0.92,8.68,8.68,8.68
43.90,7.85,7.85,-0.82,-0.82,0.82,1.01,0.90,8.67,8.67,8.67
44.33,7.85,7.85,-0.81,-0.81,0.81,1.00,0.87,8.66,8.66,8.66
44.78,7.85,7.85,-0.80,-0.80,0.80,0.98,0.85,8.65,8.65,8.65
45.23,7.85,7.84,-0.79,-0.79,0.79,0.97,0.83,8.64,8.63,8.63
45.68,7.84,7.84,-0.79,-0.78,0.78,0.95,0.81,8.62,8.62,8.62
46.13,7.84,7.84,-0.77,-0.77,0.77,0.94,0.79,8.61,8.61,8.61
46.60,7.84,7.83,-0.76,-0.77,0.76,0.92,0.77,8.60,8.60,8.60
47.06,7.83,7.83,-0.76,-0.75,0.75,0.91,0.75,8.58,8.58,8.58
47.53,7.83,7.83,-0.74,-0.74,0.74,0.89,0.73,8.57,8.57,8.57
48.01,7.83,7.82,-0.73,-0.73,0.73,0.87,0.72,8.56,8.55,8.56
48.49,7.82,7.82,-0.72,-0.72,0.72,0.86,0.70,8.54,8.54,8.54
48.97,7.82,7.82,-0.71,-0.71,0.71,0.84,0.68,8.52,8.53,8.53
49.46,7.82,7.81,-0.69,-0.69,0.70,0.82,0.67,8.51,8.51,8.51
49.96,7.82,7.81,-0.68,-0.68,0.68,0.80,0.65,8.50,8.50,8.49
50.46,7.81,7.81,-0.67,-0.67,0.67,0.79,0.64,8.47,8.48,8.48
50.96,7.81,7.80,-0.65,-0.66,0.65,0.77,0.62,8.46,8.46,8.46
51.47,7.80,7.80,-0.64,-0.64,0.64,0.75,0.61,8.44,8.44,8.44
51.99,7.80,7.80,-0.63,-0.63,0.63,0.73,0.59,8.42,8.42,8.42
52.51,7.80,7.79,-0.61,-0.61,0.61,0.71,0.58,8.41,8.40,8.40
53.03,7.79,7.79,-0.60,-0.59,0.60,0.69,0.57,8.38,8.39,8.38
53.56,7.79,7.78,-0.58,-0.58,0.58,0.67,0.55,8.37,8.36,8.36
54.10,7.78,7.78,-0.56,-0.56,0.56,0.65,0.54,8.34,8.34,8.34
54.64,7.77,7.77,-0.55,-0.55,0.55,0.63,0.53,8.31,8.32,8.32
55.18,7.77,7.76,-0.53,-0.53,0.53,0.60,0.51,8.30,8.29,8.30
55.74,7.76,7.76,-0.52,-0.51,0.51,0.58,0.50,8.27,8.27,8.27
56.29,7.76,7.75,-0.49,-0.50,0.50,0.56,0.48,8.25,8.25,8.25
56.86,7.75,7.74,-0.48,-0.48,0.48,0.54,0.47,8.23,8.22,8.22
57.42,7.74,7.74,-0.46,-0.46,0.46,0.51,0.45,8.20,8.20,8.20
58.00,7.73,7.73,-0.45,-0.44,0.44,0.49,0.44,8.17,8.17,8.17
58.58,7.73,7.72,-0.42,-0.42,0.42,0.47,0.42,8.15,8.14,8.14
59.16,7.72,7.72,-0.40,-0.40,0.40,0.44,0.41,8.12,8.12,8.12
59.76,7.71,7.71,-0.38,-0.38,0.38,0.42,0.39,8.09,8.09,8.09
60.35,7.70,7.70,-0.36,-0.36,0.36,0.39,0.37,8.06,8.06,8.06
60.96,7.69,7.69,-0.34,-0.34,0.34,0.36,0.35,8.03,8.03,8.03
61.57,7.68,7.67,-0.32,-0.32,0.32,0.34,0.33,8.00,8.00,8.00
62.18,7.66,7.66,-0.31,-0.30,0.30,0.31,0.31,7.96,7.96,7.96
62.80,7.65,7.65,-0.28,-0.28,0.28,0.28,0.29,7.93,7.93,7.93
63.43,7.64,7.63,-0.26,-0.26,0.26,0.26,0.27,7.90,7.90,7.90
64.07,7.62,7.62,-0.24,-0.24,0.24,0.23,0.25,7.86,7.86,7.86
64.71,7.61,7.60,-0.22,-0.22,0.22,0.20,0.22,7.83,7.83,7.82
65.35,7.59,7.59,-0.20,-0.20,0.20,0.17,0.20,7.78,7.79,7.79
66.01,7.58,7.57,-0.17,-0.18,0.18,0.14,0.17,7.75,7.75,7.75
66.67,7.56,7.56,-0.15,-0.15,0.15,0.11,0.15,7.71,7.71,7.71
67.33,7.55,7.54,-0.12,-0.13,0.13,0.08,0.12,7.67,7.67,7.67
68.01,7.53,7.53,-0.10,-0.10,0.10,0.05,0.09,7.63,7.63,7.63
68.69,7.52,7.51,-0.07,-0.07,0.07,0.02,0.06,7.59,7.59,7.59
69.37,7.50,7.50,-0.05,-0.05,0.05,-0.02,0.03,7.54,7.55,7.54
70.07,7.49,7.48,-0.01,-0.02,0.02,-0.05,-0.00,7.51,7.50,7.50
70.77,7.47,7.47,0.01,0.01,-0.01,-0.08,-0.03,7.46,7.46,7.46
71.48,7.45,7.45,0.04,0.04,-0.04,-0.11,-0.07,7.41,7.41,7.41
72.19,7.43,7.43,0.06,0.06,-0.07,-0.15,-0.10,7.36,7.36,7.36
72.91,7.41,7.41,0.09,0.09,-0.10,-0.18,-0.13,7.31,7.31,7.31
73.64,7.39,7.39,0.12,0.12,-0.13,-0.22,-0.17,7.26,7.26,7.26
74.38,7.38,7.37,0.16,0.16,-0.16,-0.25,-0.20,7.22,7.21,7.21
75.12,7.36,7.36,0.19,0.19,-0.19,-0.29,-0.24,7.17,7.16,7.16
75.87,7.34,7.34,0.23,0.23,-0.22,-0.33,-0.28,7.11,7.11,7.11
76.63,7.32,7.32,0.26,0.26,-0.26,-0.36,-0.31,7.06,7.06,7.06
77.40,7.30,7.30,0.29,0.29,-0.29,-0.40,-0.35,7.00,7.00,7.00
78.17,7.28,7.28,0.33,0.33,-0.33,-0.44,-0.39,6.95,6.95,6.95
78.95,7.26,7.26,0.36,0.36,-0.37,-0.48,-0.43,6.89,6.89,6.89
79.74,7.24,7.24,0.40,0.40,-0.40,-0.51,-0.47,6.83,6.83,6.83
80.54,7.22,7.22,0.44,0.44,-0.44,-0.55,-0.51,6.78,6.78,6.78
81.35,7.20,7.20,0.48,0.48,-0.48,-0.59,-0.55,6.72,6.72,6.72
82.16,7.18,7.18,0.52,0.52,-0.52,-0.63,-0.60,6.66,6.66,6.66
82.98,7.16,7.16,0.56,0.56,-0.56,-0.67,-0.64,6.60,6.60,6.60
83.81,7.14,7.14,0.60,0.60,-0.60,-0.71,-0.68,6.53,6.54,6.53
84.65,7.12,7.12,0.65,0.64,-0.64,-0.75,-0.73,6.47,6.47,6.47
85.50,7.10,7.09,0.69,0.69,-0.69,-0.79,-0.77,6.41,6.41,6.41
86.35,7.07,7.07,0.72,0.73,-0.73,-0.83,-0.82,6.34,6.34,6.34
87.22,7.05,7.05,0.77,0.77,-0.77,-0.88,-0.87,6.28,6.28,6.28
88.09,7.03,7.02,0.81,0.81,-0.81,-0.92,-0.91,6.21,6.21,6.21
88.97,7.01,7.00,0.86,0.86,-0.86,-0.96,-0.96,6.15,6.14,6.14
89.86,6.98,6.98,0.90,0.90,-0.90,-1.00,-1.01,6.07,6.08,6.08
90.76,6.96,6.96,0.95,0.95,-0.95,-1.04,-1.06,6.01,6.01,6.01
91.66,6.94,6.93,0.99,0.99,-0.99,-1.09,-1.11,5.95,5.94,5.94
92.58,6.91,6.91,1.03,1.04,-1.03,-1.13,-1.16,5.87,5.87,5.87
93.51,6.88,6.88,1.07,1.08,-1.08,-1.17,-1.21,5.80,5.80,5.80
94.44,6.86,6.85,1.12,1.12,-1.12,-1.21,-1.27,5.73,5.73,5.73
95.39,6.83,6.83,1.17,1.17,-1.17,-1.26,-1.32,5.66,5.66,5.66
96.34,6.81,6.80,1.22,1.21,-1.21,-1.30,-1.37,5.60,5.59,5.59
97.30,6.78,6.78,1.26,1.26,-1.26,-1.34,-1.43,5.52,5.52,5.52
98.28,6.75,6.75,1.30,1.30,-1.30,-1.39,-1.48,5.45,5.45,5.45
99.26,6.72,6.72,1.34,1.34,-1.35,-1.43,-1.53,5.37,5.37,5.37
100.25,6.69,6.69,1.38,1.39,-1.39,-1.47,-1.59,5.30,5.30,5.30
101.25,6.67,6.66,1.44,1.43,-1.44,-1.51,-1.64,5.23,5.23,5.23
102.27,6.64,6.64,1.48,1.48,-1.48,-1.55,-1.70,5.15,5.16,5.16
103.29,6.62,6.61,1.53,1.53,-1.53,-1.60,-1.75,5.09,5.09,5.08
104.32,6.59,6.58,1.58,1.57,-1.57,-1.64,-1.81,5.01,5.01,5.01
105.37,6.56,6.56,1.62,1.62,-1.62,-1.68,-1.86,4.94,4.94,4.94
106.42,6.53,6.53,1.66,1.67,-1.67,-1.72,-1.92,4.86,4.86,4.86
107.48,6.51,6.50,1.71,1.71,-1.71,-1.76,-1.97,4.79,4.79,4.79
108.56,6.48,6.48,1.76,1.76,-1.76,-1.80,-2.02,4.72,4.72,4.72
109.64,6.45,6.45,1.80,1.80,-1.80,-1.84,-2.07,4.65,4.65,4.65
110.74,6.42,6.42,1.84,1.84,-1.84,-1.88,-2.12,4.57,4.57,4.57
111.85,6.39,6.39,1.89,1.89,-1.89,-1.92,-2.17,4.50,4.50,4.50
112.97,6.36,6.36,1.93,1.93,-1.93,-1.96,-2.21,4.43,4.43,4.43
114.10,6.33,6.33,1.97,1.97,-1.97,-1.99,-2.25,4.36,4.36,4.36
115.24,6.30,6.29,2.01,2.01,-2.01,-2.03,-2.29,4.29,4.29,4.29
116.39,6.26,6.26,2.04,2.04,-2.05,-2.07,-2.33,4.21,4.21,4.21
117.55,6.23,6.23,2.08,2.08,-2.08,-2.10,-2.36,4.14,4.14,4.14
118.73,6.20,6.20,2.12,2.12,-2.12,-2.14,-2.40,4.07,4.07,4.07
119.92,6.17,6.17,2.16,2.16,-2.16,-2.17,-2.42,4.01,4.01,4.00
121.12,6.14,6.13,2.20,2.20,-2.20,-2.20,-2.45,3.94,3.94,3.94
122.33,6.10,6.10,2.23,2.23,-2.23,-2.23,-2.47,3.86,3.87,3.87
123.55,6.07,6.07,2.27,2.27,-2.27,-2.27,-2.49,3.80,3.80,3.80
124.79,6.04,6.03,2.30,2.30,-2.30,-2.29,-2.50,3.73,3.73,3.73
126.03,6.01,6.00,2.34,2.34,-2.34,-2.32,-2.52,3.67,3.67,3.67
127.29,5.97,5.97,2.36,2.37,-2.37,-2.35,-2.52,3.60,3.60,3.60
128.57,5.94,5.94,2.40,2.40,-2.40,-2.38,-2.53,3.54,3.54,3.54
129.85,5.91,5.90,2.43,2.43,-2.43,-2.40,-2.53,3.48,3.47,3.47
131.15,5.87,5.87,2.46,2.46,-2.46,-2.43,-2.52,3.41,3.41,3.41
132.46,5.84,5.83,2.49,2.49,-2.49,-2.45,-2.52,3.35,3.35,3.35
133.79,5.80,5.80,2.51,2.51,-2.51,-2.48,-2.51,3.28,3.29,3.29
135.12,5.77,5.76,2.54,2.54,-2.54,-2.50,-2.50,3.23,3.23,3.23
136.48,5.73,5.73,2.56,2.56,-2.56,-2.52,-2.48,3.17,3.17,3.17
137.84,5.70,5.69,2.59,2.58,-2.58,-2.54,-2.46,3.11,3.11,3.11
139.22,5.66,5.66,2.61,2.61,-2.61,-2.55,-2.45,3.05,3.05,3.05
140.61,5.62,5.62,2.62,2.63,-2.63,-2.57,-2.43,2.99,2.99,2.99
142.02,5.59,5.58,2.65,2.64,-2.65,-2.59,-2.40,2.94,2.94,2.94
143.44,5.55,5.55,2.66,2.66,-2.66,-2.60,-2.38,2.88,2.88,2.88
144.87,5.51,5.51,2.68,2.68,-2.68,-2.61,-2.36,2.83,2.83,2.83
146.32,5.48,5.47,2.70,2.69,-2.70,-2.62,-2.33,2.78,2.78,2.78
147.78,5.44,5.44,2.71,2.71,-2.71,-2.63,-2.31,2.73,2.73,2.73
149.26,5.40,5.40,2.72,2.72,-2.72,-2.64,-2.28,2.68,2.68,2.68
150.75,5.36,5.35,2.73,2.73,-2.73,-2.65,-2.26,2.63,2.63,2.63
152.26,5.31,5.31,2.73,2.73,-2.73,-2.66,-2.23,2.58,2.58,2.58
153.78,5.27,5.26,2.74,2.73,-2.73,-2.66,-2.20,2.53,2.53,2.53
155.32,5.22,5.22,2.73,2.73,-2.73,-2.66,-2.18,2.48,2.48,2.48
156.88,5.17,5.17,2.73,2.73,-2.73,-2.67,-2.16,2.44,2.44,2.44
158.44,5.12,5.12,2.72,2.72,-2.72,-2.67,-2.13,2.39,2.39,2.39
160.03,5.07,5.07,2.72,2.72,-2.72,-2.67,-2.11,2.35,2.35,2.35
161.63,5.02,5.01,2.72,2.71,-2.71,-2.67,-2.09,2.31,2.30,2.30
163.24,4.96,4.96,2.70,2.70,-2.70,-2.66,-2.07,2.25,2.26,2.26
164.88,4.91,4.91,2.69,2.69,-2.69,-2.66,-2.05,2.21,2.22,2.22
166.53,4.86,4.86,2.68,2.68,-2.68,-2.65,-2.03,2.18,2.18,2.18
168.19,4.81,4.81,2.67,2.67,-2.67,-2.65,-2.02,2.14,2.14,2.14
169.87,4.76,4.76,2.65,2.65,-2.65,-2.64,-2.00,2.10,2.10,2.10
171.57,4.71,4.71,2.64,2.64,-2.64,-2.63,-1.99,2.07,2.07,2.06
173.29,4.66,4.66,2.63,2.63,-2.63,-2.62,-1.98,2.03,2.03,2.03
175.02,4.61,4.61,2.61,2.61,-2.61,-2.61,-1.97,2.00,2.00,2.00
176.77,4.56,4.56,2.59,2.59,-2.59,-2.60,-1.96,1.96,1.96,1.96
178.54,4.51,4.51,2.58,2.58,-2.58,-2.58,-1.96,1.93,1.93,1.93
180.32,4.46,4.46,2.56,2.56,-2.56,-2.57,-1.95,1.90,1.90,1.90
182.13,4.41,4.41,2.54,2.54,-2.54,-2.55,-1.95,1.87,1.87,1.87
183.95,4.36,4.36,2.52,2.52,-2.52,-2.54,-1.95,1.84,1.84,1.84
185.79,4.31,4.31,2.50,2.50,-2.50,-2.52,-1.95,1.80,1.81,1.81
187.65,4.27,4.26,2.49,2.48,-2.49,-2.50,-1.95,1.78,1.78,1.78
189.52,4.22,4.22,2.46,2.47,-2.47,-2.48,-1.95,1.75,1.75,1.75
191.42,4.18,4.18,2.45,2.45,-2.46,-2.46,-1.95,1.72,1.72,1.72
193.33,4.14,4.14,2.44,2.44,-2.44,-2.44,-1.96,1.69,1.70,1.70
195.27,4.11,4.10,2.43,2.43,-2.43,-2.42,-1.97,1.68,1.68,1.67
197.22,4.07,4.07,2.42,2.42,-2.41,-2.39,-1.97,1.65,1.65,1.65
199.19,4.03,4.03,2.40,2.40,-2.40,-2.37,-1.98,1.63,1.63,1.63
201.18,3.99,3.99,2.38,2.38,-2.38,-2.34,-1.99,1.60,1.60,1.60
203.19,3.95,3.95,2.37,2.37,-2.37,-2.32,-2.00,1.58,1.58,1.58
205.23,3.91,3.91,2.35,2.35,-2.35,-2.29,-2.01,1.56,1.56,1.56
207.28,3.87,3.87,2.33,2.33,-2.33,-2.27,-2.02,1.54,1.54,1.54
209.35,3.83,3.83,2.31,2.31,-2.31,-2.24,-2.04,1.52,1.52,1.52
211.44,3.79,3.79,2.29,2.29,-2.29,-2.21,-2.05,1.50,1.50,1.50
213.56,3.75,3.75,2.27,2.27,-2.27,-2.18,-2.06,1.48,1.48,1.48
215.69,3.71,3.71,2.24,2.24,-2.24,-2.15,-2.07,1.46,1.46,1.46
217.85,3.67,3.66,2.22,2.22,-2.22,-2.12,-2.08,1.45,1.45,1.44
220.03,3.62,3.62,2.19,2.19,-2.19,-2.09,-2.09,1.43,1.43,1.43
222.23,3.57,3.57,2.16,2.16,-2.16,-2.06,-2.09,1.41,1.41,1.41
224.45,3.53,3.52,2.13,2.13,-2.13,-2.03,-2.10,1.40,1.39,1.39
226.70,3.48,3.48,2.10,2.10,-2.10,-2.00,-2.11,1.38,1.38,1.38
228.96,3.43,3.43,2.06,2.06,-2.06,-1.96,-2.11,1.36,1.36,1.36
231.25,3.38,3.38,2.03,2.03,-2.03,-1.93,-2.11,1.35,1.35,1.35
233.57,3.33,3.33,1.99,1.99,-2.00,-1.90,-2.11,1.33,1.33,1.34
235.90,3.28,3.28,1.96,1.96,-1.96,-1.86,-2.10,1.31,1.31,1.31
238.26,3.23,3.23,1.93,1.93,-1.93,-1.83,-2.10,1.30,1.30,1.30
240.64,3.18,3.18,1.89,1.89,-1.89,-1.79,-2.09,1.28,1.29,1.29
243.05,3.14,3.13,1.86,1.86,-1.86,-1.76,-2.08,1.28,1.28,1.27
245.48,3.09,3.09,1.82,1.82,-1.82,-1.72,-2.06,1.27,1.26,1.26
247.93,3.04,3.04,1.78,1.79,-1.78,-1.69,-2.04,1.25,1.25,1.25
250.41,2.99,2.99,1.75,1.74,-1.75,-1.65,-2.02,1.24,1.24,1.24
252.92,2.94,2.94,1.71,1.71,-1.71,-1.62,-2.00,1.23,1.23,1.23
255.45,2.89,2.89,1.67,1.67,-1.67,-1.58,-1.97,1.22,1.22,1.22
258.00,2.85,2.84,1.64,1.63,-1.63,-1.54,-1.93,1.21,1.21,1.21
260.58,2.80,2.80,1.60,1.60,-1.59,-1.51,-1.90,1.20,1.20,1.20
263.19,2.75,2.75,1.56,1.56,-1.55,-1.47,-1.86,1.19,1.19,1.19
265.82,2.70,2.70,1.51,1.51,-1.52,-1.43,-1.82,1.18,1.18,1.18
268.48,2.65,2.65,1.47,1.47,-1.48,-1.39,-1.77,1.17,1.17,1.17
271.16,2.60,2.60,1.43,1.43,-1.44,-1.36,-1.73,1.16,1.16,1.17
273.87,2.56,2.55,1.40,1.40,-1.40,-1.32,-1.68,1.16,1.16,1.16
276.61,2.51,2.50,1.36,1.36,-1.35,-1.28,-1.62,1.15,1.15,1.15
279.38,2.46,2.46,1.31,1.32,-1.31,-1.24,-1.57,1.14,1.15,1.14
282.17,2.41,2.41,1.27,1.27,-1.27,-1.20,-1.51,1.14,1.14,1.14
284.99,2.37,2.36,1.23,1.22,-1.23,-1.17,-1.45,1.14,1.14,1.14
287.84,2.32,2.32,1.17,1.18,-1.18,-1.13,-1.39,1.14,1.14,1.14
290.72,2.27,2.27,1.13,1.13,-1.13,-1.09,-1.33,1.13,1.14,1.14
293.63,2.23,2.22,1.10,1.09,-1.09,-1.05,-1.27,1.14,1.13,1.13
296.57,2.18,2.18,1.04,1.04,-1.04,-1.01,-1.20,1.13,1.13,1.13
299.53,2.13,2.13,0.99,1.00,-1.00,-0.97,-1.14,1.13,1.13,1.14
302.53,2.09,2.08,0.95,0.95,-0.95,-0.93,-1.07,1.14,1.13,1.13
305.55,2.04,2.04,0.90,0.90,-0.90,-0.89,-1.00,1.13,1.13,1.14
308.61,1.99,1.99,0.85,0.86,-0.86,-0.85,-0.94,1.13,1.13,1.13
311.69,1.95,1.94,0.81,0.81,-0.81,-0.81,-0.87,1.14,1.13,1.14
314.81,1.90,1.90,0.76,0.76,-0.76,-0.77,-0.80,1.14,1.14,1.13
317.96,1.85,1.85,0.71,0.72,-0.71,-0.73,-0.73,1.13,1.14,1.14
321.14,1.81,1.80,0.67,0.67,-0.67,-0.69,-0.66,1.14,1.14,1.13
324.35,1.76,1.75,0.62,0.62,-0.62,-0.65,-0.59,1.14,1.14,1.14
327.59,1.71,1.71,0.56,0.57,-0.57,-0.60,-0.52,1.14,1.14,1.14
330.87,1.66,1.66,0.52,0.52,-0.52,-0.56,-0.45,1.14,1.14,1.14
334.18,1.62,1.61,0.47,0.47,-0.47,-0.52,-0.38,1.15,1.15,1.15
337.52,1.57,1.57,0.42,0.42,-0.42,-0.48,-0.31,1.15,1.15,1.14
340.90,1.52,1.52,0.37,0.37,-0.36,-0.44,-0.24,1.15,1.15,1.15
344.30,1.47,1.47,0.31,0.31,-0.31,-0.40,-0.17,1.15,1.15,1.16
347.75,1.42,1.42,0.25,0.26,-0.26,-0.35,-0.10,1.16,1.16,1.16
351.23,1.38,1.37,0.22,0.21,-0.21,-0.31,-0.03,1.17,1.16,1.16
354.74,1.33,1.33,0.15,0.16,-0.16,-0.27,0.04,1.17,1.17,1.18
358.28,1.28,1.28,0.10,0.10,-0.10,-0.22,0.11,1.17,1.18,1.17
361.87,1.24,1.23,0.06,0.05,-0.05,-0.18,0.18,1.18,1.18,1.18
365.49,1.19,1.19,-0.00,0.00,-0.00,-0.14,0.25,1.18,1.19,1.19
369.14,1.15,1.14,-0.04,-0.05,0.05,-0.09,0.32,1.19,1.19,1.19
372.83,1.10,1.10,-0.11,-0.10,0.10,-0.05,0.39,1.19,1.20,1.20
376.56,1.06,1.05,-0.14,-0.15,0.15,-0.00,0.46,1.20,1.20,1.20
380.33,1.01,1.01,-0.20,-0.20,0.20,0.04,0.53,1.20,1.21,1.21
384.13,0.97,0.96,-0.24,-0.25,0.25,0.09,0.60,1.21,1.21,1.21
387.97,0.92,0.92,-0.30,-0.30,0.30,0.13,0.67,1.22,1.22,1.21
391.85,0.88,0.87,-0.36,-0.35,0.35,0.18,0.74,1.23,1.23,1.23
395.77,0.83,0.83,-0.40,-0.40,0.40,0.23,0.81,1.23,1.23,1.23
399.73,0.79,0.78,-0.45,-0.45,0.45,0.27,0.88,1.24,1.24,1.24
403.72,0.74,0.73,-0.51,-0.51,0.51,0.32,0.95,1.24,1.24,1.25
407.76,0.69,0.69,-0.56,-0.56,0.56,0.37,1.02,1.25,1.25,1.24
411.84,0.64,0.64,-0.62,-0.61,0.61,0.42,1.08,1.25,1.25,1.25
415.96,0.60,0.59,-0.66,-0.66,0.66,0.47,1.15,1.26,1.26,1.26
420.12,0.55,0.55,-0.71,-0.71,0.71,0.52,1.22,1.26,1.26,1.26
424.32,0.51,0.50,-0.76,-0.76,0.76,0.57,1.28,1.27,1.27,1.27
428.56,0.46,0.46,-0.82,-0.82,0.82,0.62,1.35,1.27,1.27,1.28
432.85,0.42,0.41,-0.87,-0.87,0.87,0.67,1.41,1.28,1.28,1.28
437.18,0.37,0.37,-0.92,-0.92,0.92,0.72,1.47,1.28,1.29,1.28
441.55,0.33,0.33,-0.97,-0.97,0.97,0.77,1.53,1.29,1.29,1.29
445.96,0.29,0.29,-1.01,-1.02,1.02,0.82,1.59,1.30,1.30,1.30
450.42,0.25,0.25,-1.07,-1.07,1.07,0.87,1.65,1.31,1.31,1.32
454.93,0.21,0.21,-1.12,-1.12,1.12,0.93,1.70,1.32,1.32,1.33
459.48,0.17,0.17,-1.17,-1.17,1.17,0.98,1.75,1.33,1.33,1.34
464.07,0.13,0.13,-1.21,-1.21,1.21,1.03,1.80,1.34,1.34,1.34
468.71,0.09,0.09,-1.26,-1.26,1.26,1.09,1.85,1.35,1.35,1.34
473.40,0.05,0.05,-1.31,-1.31,1.31,1.14,1.89,1.35,1.35,1.35
478.13,0.01,0.01,-1.36,-1.35,1.35,1.20,1.93,1.36,1.36,1.36
482.91,-0.02,-0.03,-1.39,-1.40,1.40,1.25,1.97,1.37,1.37,1.37
487.74,-0.06,-0.06,-1.44,-1.44,1.44,1.31,2.01,1.38,1.38,1.38
492.62,-0.09,-0.10,-1.48,-1.48,1.49,1.36,2.04,1.39,1.39,1.39
497.55,-0.13,-0.13,-1.53,-1.53,1.53,1.42,2.07,1.40,1.40,1.40
502.52,-0.16,-0.17,-1.57,-1.58,1.58,1.48,2.09,1.41,1.41,1.41
507.55,-0.20,-0.20,-1.63,-1.63,1.62,1.54,2.11,1.42,1.42,1.43
512.62,-0.23,-0.24,-1.67,-1.67,1.67,1.59,2.13,1.44,1.43,1.44
517.75,-0.27,-0.27,-1.72,-1.72,1.71,1.65,2.15,1.44,1.44,1.44
522.93,-0.30,-0.31,-1.76,-1.76,1.76,1.71,2.16,1.46,1.45,1.45
528.16,-0.34,-0.34,-1.81,-1.81,1.81,1.77,2.17,1.46,1.46,1.46
533.44,-0.38,-0.38,-1.86,-1.85,1.85,1.83,2.18,1.47,1.47,1.47
538.77,-0.41,-0.42,-1.89,-1.89,1.90,1.89,2.18,1.48,1.48,1.47
544.16,-0.45,-0.45,-1.95,-1.94,1.94,1.95,2.19,1.49,1.49,1.49
549.60,-0.48,-0.49,-1.98,-1.99,1.99,2.01,2.19,1.51,1.51,1.50
555.10,-0.52,-0.52,-2.04,-2.04,2.04,2.07,2.19,1.51,1.52,1.52
560.65,-0.55,-0.56,-2.08,-2.09,2.08,2.13,2.18,1.53,1.53,1.53
