frequency,raw,error,smoothed,error_smoothed,equalization,parametric_eq,fixed_band_eq,equalized_raw,equalized_smoothed,target
20.00,15.02,12.23,15.02,12.23,-12.24,-12.55,-6.11,2.78,2.78,2.79
20.20,15.05,12.26,15.05,12.26,-12.26,-12.56,-6.26,2.79,2.79,2.79
20.40,15.08,12.29,15.08,12.29,-12.29,-12.57,-6.41,2.79,2.79,2.79
20.61,15.10,12.31,15.10,12.32,-12.31,-12.57,-6.57,2.79,2.79,2.79
20.81,15.13,12.35,15.13,12.34,-12.33,-12.58,-6.73,2.80,2.79,2.78
21.02,15.15,12.37,15.15,12.36,-12.36,-12.59,-6.89,2.79,2.79,2.78
21.23,15.16,12.38,15.16,12.38,-12.38,-12.59,-7.06,2.78,2.78,2.78
21.44,15.18,12.39,15.18,12.40,-12.41,-12.60,-7.24,2.77,2.78,2.79
21.66,15.20,12.42,15.20,12.42,-12.43,-12.60,-7.41,2.77,2.77,2.78
21.87,15.22,12.44,15.22,12.44,-12.45,-12.61,-7.60,2.77,2.77,2.78
22.09,15.24,12.47,15.24,12.47,-12.47,-12.61,-7.78,2.77,2.77,2.77
22.31,15.26,12.49,15.26,12.50,-12.49,-12.62,-7.98,2.77,2.77,2.77
22.54,15.28,12.52,15.28,12.52,-12.51,-12.62,-8.17,2.77,2.76,2.76
22.76,15.29,12.53,15.29,12.54,-12.54,-12.63,-8.38,2.75,2.76,2.76
22.99,15.31,12.55,15.31,12.56,-12.56,-12.63,-8.59,2.75,2.75,2.76
23.22,15.32,12.57,15.32,12.57,-12.58,-12.63,-8.80,2.74,2.74,2.74
23.45,15.34,12.60,15.34,12.60,-12.60,-12.64,-9.02,2.74,2.74,2.74
23.69,15.35,12.62,15.35,12.62,-12.61,-12.64,-9.25,2.74,2.74,2.73
23.92,15.36,12.64,15.36,12.63,-12.63,-12.64,-9.48,2.73,2.73,2.72
24.16,15.37,12.65,15.37,12.64,-12.64,-12.64,-9.72,2.73,2.73,2.72
24.40,15.37,12.65,15.37,12.65,-12.65,-12.64,-9.96,2.72,2.72,2.72
24.65,15.38,12.66,15.38,12.66,-12.66,-12.64,-10.21,2.72,2.72,2.72
24.89,15.39,12.67,15.39,12.67,-12.67,-12.64,-10.46,2.72,2.71,2.72
25.14,15.39,12.67,15.39,12.68,-12.68,-12.64,-10.72,2.71,2.71,2.72
25.39,15.40,12.69,15.40,12.69,-12.68,-12.64,-10.98,2.72,2.71,2.71
25.65,15.40,12.69,15.40,12.69,-12.69,-12.64,-11.25,2.71,2.71,2.71
25.91,15.41,12.70,15.41,12.70,-12.69,-12.64,-11.53,2.72,2.71,2.71
26.16,15.41,12.69,15.41,12.70,-12.70,-12.64,-11.80,2.71,2.71,2.72
26.43,15.41,12.69,15.41,12.70,-12.70,-12.64,-12.09,2.71,2.71,2.72
26.69,15.41,12.70,15.41,12.70,-12.70,-12.63,-12.37,2.71,2.71,2.71
26.96,15.41,12.70,15.41,12.70,-12.70,-12.63,-12.66,2.71,2.71,2.71
27.23,15.41,12.70,15.41,12.69,-12.69,-12.63,-12.94,2.72,2.71,2.71
27.50,15.40,12.69,15.40,12.69,-12.69,-12.63,-13.23,2.71,2.71,2.71
27.77,15.40,12.68,15.40,12.69,-12.69,-12.62,-13.51,2.71,2.71,2.72
28.05,15.40,12.69,15.40,12.69,-12.69,-12.62,-13.79,2.71,2.71,2.71
28.33,15.39,12.68,15.39,12.69,-12.69,-12.61,-14.06,2.70,2.71,2.71
28.62,15.39,12.69,15.39,12.69,-12.68,-12.61,-14.32,2.71,2.70,2.70
28.90,15.38,12.68,15.38,12.68,-12.68,-12.60,-14.57,2.70,2.70,2.70
29.19,15.37,12.68,15.37,12.68,-12.68,-12.59,-14.81,2.69,2.69,2.69
29.48,15.36,12.68,15.36,12.67,-12.67,-12.59,-15.02,2.69,2.69,2.68
29.78,15.35,12.67,15.35,12.67,-12.67,-12.58,-15.22,2.68,2.68,2.68
30.08,15.34,12.66,15.34,12.66,-12.66,-12.57,-15.39,2.68,2.68,2.68
30.38,15.32,12.65,15.32,12.65,-12.65,-12.56,-15.54,2.67,2.67,2.67
30.68,15.30,12.63,15.30,12.64,-12.64,-12.55,-15.65,2.66,2.67,2.67
30.99,15.29,12.63,15.29,12.62,-12.62,-12.55,-15.74,2.67,2.66,2.66
31.30,15.27,12.61,15.27,12.61,-12.61,-12.54,-15.79,2.66,2.66,2.66
31.61,15.25,12.59,15.25,12.59,-12.59,-12.53,-15.82,2.66,2.66,2.66
31.93,15.23,12.57,15.23,12.57,-12.57,-12.51,-15.80,2.66,2.66,2.66
32.24,15.21,12.54,15.21,12.55,-12.55,-12.50,-15.77,2.66,2.66,2.67
32.57,15.19,12.54,15.19,12.53,-12.53,-12.49,-15.69,2.66,2.66,2.65
32.89,15.17,12.51,15.17,12.51,-12.51,-12.48,-15.60,2.66,2.66,2.66
33.22,15.15,12.49,15.15,12.49,-12.49,-12.47,-15.48,2.66,2.66,2.66
33.55,15.12,12.46,15.12,12.47,-12.47,-12.45,-15.35,2.65,2.65,2.66
33.89,15.10,12.46,15.10,12.45,-12.45,-12.44,-15.19,2.64,2.64,2.64
34.23,15.07,12.44,15.07,12.44,-12.44,-12.42,-15.02,2.63,2.63,2.63
34.57,15.05,12.42,15.05,12.42,-12.42,-12.41,-14.84,2.63,2.63,2.63
34.92,15.02,12.41,15.02,12.41,-12.41,-12.39,-14.66,2.61,2.61,2.61
35.27,14.99,12.39,14.99,12.40,-12.39,-12.38,-14.47,2.60,2.60,2.60
35.62,14.96,12.39,14.96,12.38,-12.38,-12.36,-14.27,2.58,2.57,2.57
35.97,14.92,12.36,14.92,12.37,-12.37,-12.34,-14.08,2.55,2.55,2.56
36.33,14.89,12.36,14.89,12.36,-12.36,-12.33,-13.89,2.53,2.53,2.53
36.70,14.85,12.35,14.85,12.35,-12.35,-12.31,-13.69,2.50,2.50,2.50
37.06,14.82,12.34,14.82,12.34,-12.34,-12.29,-13.51,2.48,2.47,2.47
37.43,14.78,12.34,14.78,12.34,-12.33,-12.27,-13.32,2.44,2.44,2.44
37.81,14.74,12.32,14.74,12.33,-12.33,-12.25,-13.14,2.41,2.42,2.42
38.19,14.70,12.32,14.70,12.31,-12.31,-12.23,-12.97,2.39,2.39,2.38
38.57,14.66,12.30,14.66,12.30,-12.30,-12.20,-12.80,2.36,2.36,2.36
38.95,14.62,12.29,14.62,12.29,-12.29,-12.18,-12.64,2.33,2.33,2.33
39.34,14.57,12.27,14.57,12.27,-12.27,-12.16,-12.49,2.30,2.31,2.30
39.74,14.53,12.26,14.53,12.25,-12.25,-12.14,-12.34,2.28,2.28,2.27
40.14,14.48,12.23,14.48,12.22,-12.23,-12.11,-12.20,2.26,2.25,2.25
40.54,14.42,12.19,14.43,12.20,-12.20,-12.09,-12.07,2.22,2.23,2.23
40.94,14.38,12.17,14.38,12.17,-12.17,-12.06,-11.95,2.21,2.21,2.21
41.35,14.33,12.15,14.33,12.14,-12.14,-12.03,-11.84,2.19,2.19,2.18
41.76,14.28,12.12,14.28,12.11,-12.11,-12.01,-11.73,2.17,2.17,2.16
42.18,14.22,12.07,14.22,12.08,-12.08,-11.98,-11.63,2.14,2.14,2.15
42.60,14.16,12.03,14.16,12.04,-12.04,-11.95,-11.54,2.12,2.12,2.13
43.03,14.11,12.01,14.11,12.00,-12.00,-11.92,-11.46,2.11,2.10,2.10
43.46,14.05,11.97,14.05,11.97,-11.96,-11.89,-11.38,2.09,2.09,2.08
43.90,13.99,11.93,13.99,11.93,-11.92,-11.86,-11.32,2.07,2.07,2.07
44.33,13.92,11.88,13.92,11.88,-11.88,-11.82,-11.26,2.04,2.04,2.04
44.78,13.86,11.84,13.86,11.83,-11.84,-11.79,-11.20,2.02,2.02,2.02
45.23,13.79,11.78,13.79,11.79,-11.80,-11.76,-11.16,1.99,2.00,2.01
45.68,13.73,11.76,13.73,11.76,-11.76,-11.72,-11.12,1.97,1.97,1.97
46.13,13.67,11.73,13.66,11.72,-11.72,-11.69,-11.09,1.95,1.95,1.94
46.60,13.59,11.67,13.60,11.68,-11.68,-11.65,-11.07,1.91,1.92,1.92
47.06,13.53,11.64,13.53,11.64,-11.64,-11.61,-11.06,1.89,1.89,1.89
47.53,13.45,11.59,13.45,11.60,-11.60,-11.57,-11.05,1.85,1.85,1.86
48.01,13.38,11.57,13.38,11.56,-11.57,-11.53,-11.05,1.81,1.81,1.81
48.49,13.30,11.52,13.30,11.52,-11.53,-11.49,-11.05,1.77,1.77,1.78
48.97,13.23,11.49,13.23,11.49,-11.49,-11.45,-11.06,1.74,1.74,1.74
49.46,13.15,11.44,13.15,11.45,-11.45,-11.41,-11.08,1.70,1.70,1.71
49.96,13.07,11.43,13.07,11.42,-11.42,-11.36,-11.10,1.65,1.66,1.65
50.46,12.99,11.38,12.99,11.38,-11.38,-11.32,-11.13,1.62,1.62,1.61
50.96,12.91,11.34,12.91,11.34,-11.33,-11.27,-11.16,1.58,1.58,1.57
51.47,12.83,11.29,12.83,11.29,-11.29,-11.23,-11.19,1.54,1.54,1.54
51.99,12.74,11.25,12.74,11.24,-11.24,-11.18,-11.23,1.50,1.50,1.50
52.51,12.66,11.20,12.66,11.19,-11.20,-11.13,-11.27,1.46,1.46,1.46
53.03,12.57,11.13,12.57,11.14,-11.15,-11.08,-11.32,1.42,1.42,1.44
53.56,12.48,11.09,12.48,11.09,-11.10,-11.02,-11.36,1.38,1.39,1.39
54.10,12.40,11.05,12.39,11.04,-11.05,-10.97,-11.41,1.35,1.35,1.35
54.64,12.30,10.99,12.31,11.00,-10.99,-10.92,-11.45,1.31,1.31,1.31
55.18,12.22,10.95,12.22,10.95,-10.94,-10.86,-11.50,1.28,1.27,1.27
55.74,12.12,10.89,12.12,10.89,-10.88,-10.80,-11.54,1.24,1.24,1.23
56.29,12.03,10.83,12.03,10.83,-10.82,-10.75,-11.57,1.20,1.20,1.20
56.86,11.93,10.76,11.93,10.76,-10.76,-10.69,-11.61,1.17,1.17,1.17
57.42,11.83,10.70,11.83,10.70,-10.69,-10.63,-11.63,1.14,1.14,1.13
58.00,11.73,10.63,11.73,10.63,-10.62,-10.56,-11.65,1.11,1.11,1.10
58.58,11.63,10.55,11.63,10.55,-10.55,-10.50,-11.65,1.08,1.07,1.08
59.16,11.52,10.47,11.52,10.48,-10.49,-10.43,-11.65,1.03,1.04,1.05
59.76,11.42,10.40,11.42,10.40,-10.42,-10.37,-11.64,1.00,1.00,1.02
60.35,11.31,10.34,11.31,10.34,-10.35,-10.30,-11.61,0.96,0.96,0.96
60.96,11.20,10.28,11.20,10.28,-10.29,-10.23,-11.57,0.91,0.91,0.92
61.57,11.09,10.23,11.09,10.22,-10.22,-10.16,-11.52,0.87,0.87,0.86
62.18,10.97,10.16,10.97,10.16,-10.15,-10.08,-11.45,0.81,0.82,0.81
62.80,10.85,10.09,10.85,10.09,-10.09,-10.01,-11.37,0.76,0.76,0.76
63.43,10.73,10.02,10.73,10.02,-10.01,-9.93,-11.27,0.72,0.72,0.71
64.07,10.61,9.94,10.61,9.94,-9.93,-9.86,-11.16,0.68,0.68,0.67
64.71,10.49,9.86,10.49,9.86,-9.85,-9.78,-11.03,0.64,0.64,0.63
65.35,10.36,9.76,10.36,9.76,-9.76,-9.70,-10.89,0.60,0.60,0.60
66.01,10.23,9.67,10.23,9.67,-9.67,-9.61,-10.73,0.56,0.56,0.56
66.67,10.10,9.57,10.10,9.57,-9.58,-9.53,-10.56,0.52,0.52,0.53
67.33,9.96,9.48,9.96,9.48,-9.48,-9.44,-10.39,0.47,0.48,0.48
68.01,9.83,9.39,9.83,9.39,-9.39,-9.35,-10.20,0.44,0.44,0.44
68.69,9.70,9.30,9.70,9.29,-9.29,-9.26,-10.00,0.41,0.40,0.40
69.37,9.56,9.19,9.56,9.20,-9.20,-9.17,-9.80,0.36,0.37,0.37
70.07,9.43,9.10,9.43,9.10,-9.10,-9.08,-9.59,0.33,0.33,0.33
70.77,9.29,9.00,9.29,9.00,-9.00,-8.98,-9.37,0.29,0.29,0.29
71.48,9.15,8.91,9.15,8.90,-8.90,-8.88,-9.15,0.25,0.25,0.24
72.19,9.00,8.80,9.00,8.80,-8.80,-8.78,-8.92,0.20,0.20,0.20
72.91,8.86,8.70,8.86,8.70,-8.70,-8.68,-8.70,0.16,0.16,0.16
73.64,8.71,8.59,8.71,8.59,-8.59,-8.58,-8.47,0.12,0.12,0.12
74.38,8.56,8.48,8.56,8.48,-8.48,-8.47,-8.24,0.08,0.08,0.08
75.12,8.41,8.37,8.41,8.37,-8.37,-8.37,-8.01,0.04,0.04,0.04
75.87,8.26,8.24,8.26,8.25,-8.25,-8.26,-7.78,0.01,0.01,0.02
76.63,8.11,8.13,8.11,8.13,-8.13,-8.14,-7.55,-0.02,-0.02,-0.02
77.40,7.95,8.00,7.95,8.00,-8.00,-8.03,-7.32,-0.05,-0.05,-0.05
78.17,7.79,7.89,7.79,7.88,-7.88,-7.92,-7.10,-0.09,-0.08,-0.10
78.95,7.63,7.74,7.63,7.74,-7.75,-7.80,-6.87,-0.12,-0.12,-0.11
79.74,7.47,7.61,7.47,7.61,-7.61,-7.68,-6.65,-0.14,-0.15,-0.14
80.54,7.30,7.48,7.30,7.48,-7.48,-7.55,-6.43,-0.18,-0.18,-0.18
81.35,7.14,7.34,7.14,7.34,-7.34,-7.43,-6.22,-0.20,-0.21,-0.20
82.16,6.97,7.20,6.97,7.20,-7.21,-7.30,-6.00,-0.24,-0.24,-0.23
82.98,6.80,7.07,6.80,7.07,-7.07,-7.18,-5.79,-0.27,-0.26,-0.27
83.81,6.63,6.93,6.63,6.93,-6.92,-7.04,-5.58,-0.29,-0.30,-0.30
84.65,6.46,6.79,6.45,6.79,-6.78,-6.91,-5.38,-0.32,-0.33,-0.33
85.50,6.27,6.63,6.28,6.64,-6.63,-6.78,-5.18,-0.36,-0.36,-0.36
86.35,6.10,6.48,6.10,6.48,-6.49,-6.64,-4.98,-0.39,-0.39,-0.38
87.22,5.91,6.33,5.92,6.33,-6.34,-6.50,-4.78,-0.43,-0.42,-0.42
88.09,5.74,6.19,5.74,6.18,-6.18,-6.36,-4.59,-0.44,-0.45,-0.45
88.97,5.55,6.03,5.55,6.03,-6.03,-6.21,-4.40,-0.48,-0.48,-0.48
89.86,5.37,5.88,5.37,5.88,-5.87,-6.06,-4.21,-0.50,-0.51,-0.51
90.76,5.17,5.72,5.17,5.72,-5.72,-5.91,-4.03,-0.54,-0.54,-0.55
91.66,4.98,5.56,4.98,5.56,-5.56,-5.76,-3.84,-0.58,-0.58,-0.58
92.58,4.78,5.39,4.78,5.40,-5.40,-5.61,-3.66,-0.62,-0.61,-0.61
93.51,4.59,5.24,4.59,5.23,-5.24,-5.45,-3.49,-0.65,-0.65,-0.65
94.44,4.39,5.07,4.39,5.07,-5.08,-5.29,-3.31,-0.69,-0.69,-0.68
95.39,4.18,4.91,4.18,4.91,-4.92,-5.13,-3.14,-0.74,-0.73,-0.73
96.34,3.98,4.76,3.98,4.75,-4.76,-4.97,-2.97,-0.78,-0.78,-0.78
97.30,3.77,4.58,3.77,4.59,-4.59,-4.80,-2.81,-0.82,-0.82,-0.81
98.28,3.57,4.44,3.57,4.43,-4.43,-4.63,-2.65,-0.86,-0.86,-0.87
99.26,3.35,4.27,3.36,4.27,-4.26,-4.46,-2.48,-0.91,-0.91,-0.92
100.25,3.15,4.10,3.15,4.10,-4.09,-4.28,-2.33,-0.94,-0.95,-0.95
101.25,2.93,3.92,2.93,3.92,-3.92,-4.11,-2.17,-0.99,-0.99,-0.99
102.27,2.72,3.75,2.72,3.75,-3.74,-3.93,-2.02,-1.02,-1.03,-1.03
103.29,2.50,3.57,2.50,3.56,-3.56,-3.75,-1.87,-1.06,-1.06,-1.07
104.32,2.28,3.37,2.28,3.38,-3.38,-3.56,-1.72,-1.10,-1.10,-1.09
105.37,2.06,3.19,2.06,3.19,-3.19,-3.38,-1.58,-1.13,-1.13,-1.13
106.42,1.83,2.99,1.83,3.00,-3.00,-3.19,-1.44,-1.17,-1.16,-1.16
107.48,1.61,2.82,1.61,2.81,-2.81,-3.00,-1.30,-1.20,-1.20,-1.21
108.56,1.38,2.62,1.38,2.61,-2.61,-2.80,-1.17,-1.23,-1.24,-1.24
109.64,1.15,2.41,1.15,2.42,-2.42,-2.61,-1.04,-1.27,-1.27,-1.26
110.74,0.92,2.22,0.92,2.22,-2.23,-2.41,-0.92,-1.31,-1.30,-1.30
111.85,0.70,2.04,0.70,2.03,-2.03,-2.21,-0.79,-1.33,-1.34,-1.34
112.97,0.47,1.85,0.47,1.84,-1.84,-2.00,-0.68,-1.37,-1.37,-1.37
114.10,0.24,1.65,0.24,1.65,-1.65,-1.80,-0.56,-1.41,-1.42,-1.41
115.24,0.00,1.46,0.00,1.46,-1.47,-1.60,-0.46,-1.47,-1.46,-1.46
116.39,-0.23,1.28,-0.23,1.28,-1.28,-1.39,-0.35,-1.51,-1.51,-1.51
117.55,-0.45,1.10,-0.46,1.10,-1.10,-1.18,-0.25,-1.55,-1.55,-1.55
118.73,-0.68,0.92,-0.68,0.92,-0.92,-0.98,-0.16,-1.60,-1.60,-1.60
119.92,-0.91,0.74,-0.91,0.74,-0.73,-0.77,-0.07,-1.64,-1.64,-1.65
121.12,-1.13,0.55,-1.13,0.56,-0.55,-0.56,0.01,-1.68,-1.69,-1.68
122.33,-1.36,0.38,-1.36,0.38,-0.38,-0.35,0.08,-1.74,-1.73,-1.74
123.55,-1.58,0.20,-1.58,0.20,-0.20,-0.15,0.16,-1.78,-1.78,-1.78
124.79,-1.79,0.03,-1.80,0.03,-0.03,0.05,0.22,-1.82,-1.83,-1.82
126.03,-2.02,-0.15,-2.01,-0.14,0.14,0.25,0.28,-1.88,-1.88,-1.87
127.29,-2.23,-0.30,-2.23,-0.30,0.30,0.45,0.34,-1.93,-1.93,-1.93
128.57,-2.44,-0.45,-2.45,-0.46,0.46,0.64,0.39,-1.98,-1.98,-1.98
129.85,-2.66,-0.63,-2.65,-0.62,0.62,0.83,0.43,-2.04,-2.03,-2.03
131.15,-2.86,-0.78,-2.86,-0.78,0.78,1.01,0.47,-2.08,-2.08,-2.08
132.46,-3.06,-0.93,-3.06,-0.93,0.93,1.18,0.50,-2.13,-2.13,-2.13
133.79,-3.25,-1.08,-3.25,-1.08,1.08,1.35,0.53,-2.17,-2.17,-2.17
135.12,-3.44,-1.22,-3.44,-1.23,1.23,1.50,0.56,-2.21,-2.21,-2.22
136.48,-3.62,-1.38,-3.62,-1.37,1.37,1.66,0.58,-2.25,-2.25,-2.24
137.84,-3.79,-1.51,-3.79,-1.51,1.51,1.79,0.60,-2.28,-2.28,-2.28
139.22,-3.96,-1.64,-3.96,-1.65,1.64,1.92,0.61,-2.32,-2.32,-2.32
140.61,-4.12,-1.78,-4.11,-1.77,1.77,2.03,0.62,-2.35,-2.35,-2.35
142.02,-4.26,-1.88,-4.26,-1.89,1.89,2.14,0.63,-2.37,-2.38,-2.38
143.44,-4.40,-1.99,-4.40,-2.00,2.00,2.23,0.63,-2.40,-2.41,-2.41
144.87,-4.54,-2.11,-4.53,-2.10,2.10,2.31,0.64,-2.44,-2.43,-2.43
146.32,-4.66,-2.20,-4.66,-2.20,2.20,2.37,0.64,-2.46,-2.46,-2.46
147.78,-4.77,-2.28,-4.78,-2.29,2.28,2.43,0.64,-2.49,-2.49,-2.49
149.26,-4.88,-2.36,-4.88,-2.36,2.36,2.46,0.63,-2.52,-2.52,-2.52
150.75,-4.98,-2.42,-4.97,-2.42,2.42,2.50,0.63,-2.56,-2.55,-2.56
152.26,-5.05,-2.48,-5.06,-2.48,2.48,2.51,0.62,-2.57,-2.58,-2.57
153.78,-5.14,-2.53,-5.13,-2.53,2.53,2.52,0.62,-2.61,-2.61,-2.61
155.32,-5.20,-2.57,-5.20,-2.57,2.56,2.52,0.61,-2.64,-2.64,-2.63
156.88,-5.26,-2.59,-5.26,-2.59,2.59,2.51,0.61,-2.67,-2.67,-2.67
158.44,-5.31,-2.61,-5.31,-2.61,2.61,2.48,0.60,-2.70,-2.70,-2.70
160.03,-5.35,-2.62,-5.35,-2.62,2.62,2.46,0.59,-2.73,-2.74,-2.73
161.63,-5.39,-2.63,-5.39,-2.62,2.62,2.42,0.59,-2.77,-2.77,-2.76
163.24,-5.42,-2.60,-5.42,-2.61,2.61,2.38,0.58,-2.81,-2.81,-2.82
164.88,-5.43,-2.58,-5.44,-2.59,2.59,2.34,0.57,-2.84,-2.84,-2.85
166.53,-5.45,-2.57,-5.45,-2.57,2.57,2.29,0.57,-2.88,-2.88,-2.88
168.19,-5.46,-2.55,-5.46,-2.54,2.54,2.24,0.56,-2.92,-2.92,-2.91
169.87,-5.46,-2.51,-5.46,-2.50,2.50,2.18,0.56,-2.96,-2.96,-2.95
171.57,-5.45,-2.45,-5.45,-2.46,2.46,2.12,0.55,-2.99,-2.99,-3.00
173.29,-5.44,-2.41,-5.44,-2.41,2.41,2.06,0.55,-3.03,-3.03,-3.03
175.02,-5.43,-2.36,-5.43,-2.36,2.36,2.00,0.54,-3.07,-3.07,-3.07
176.77,-5.40,-2.30,-5.40,-2.30,2.30,1.94,0.54,-3.10,-3.10,-3.10
178.54,-5.38,-2.24,-5.38,-2.24,2.23,1.88,0.54,-3.15,-3.14,-3.14
180.32,-5.34,-2.16,-5.34,-2.17,2.16,1.82,0.54,-3.18,-3.18,-3.18
182.13,-5.31,-2.10,-5.30,-2.09,2.09,1.76,0.54,-3.22,-3.21,-3.21
183.95,-5.26,-2.02,-5.26,-2.01,2.01,1.70,0.54,-3.25,-3.25,-3.24
185.79,-5.21,-1.92,-5.22,-1.93,1.93,1.64,0.54,-3.28,-3.28,-3.29
187.65,-5.17,-1.85,-5.17,-1.85,1.85,1.58,0.54,-3.32,-3.32,-3.32
189.52,-5.12,-1.76,-5.12,-1.76,1.76,1.53,0.54,-3.36,-3.36,-3.36
191.42,-5.07,-1.68,-5.07,-1.68,1.68,1.47,0.55,-3.39,-3.39,-3.39
193.33,-5.02,-1.59,-5.02,-1.59,1.59,1.42,0.55,-3.43,-3.43,-3.43
195.27,-4.98,-1.51,-4.98,-1.51,1.51,1.36,0.56,-3.47,-3.46,-3.47
197.22,-4.94,-1.43,-4.94,-1.43,1.44,1.31,0.56,-3.50,-3.50,-3.51
199.19,-4.90,-1.36,-4.90,-1.36,1.37,1.26,0.57,-3.53,-3.54,-3.54
201.18,-4.87,-1.30,-4.87,-1.30,1.30,1.22,0.57,-3.57,-3.57,-3.57
203.19,-4.83,-1.23,-4.83,-1.24,1.24,1.17,0.58,-3.59,-3.60,-3.60
205.23,-4.80,-1.18,-4.80,-1.18,1.18,1.12,0.59,-3.62,-3.62,-3.62
207.28,-4.77,-1.12,-4.77,-1.12,1.12,1.08,0.59,-3.65,-3.65,-3.65
209.35,-4.75,-1.07,-4.75,-1.07,1.06,1.04,0.60,-3.69,-3.68,-3.68
211.44,-4.72,-1.01,-4.72,-1.01,1.01,1.00,0.61,-3.71,-3.71,-3.71
213.56,-4.69,-0.95,-4.69,-0.96,0.96,0.96,0.62,-3.73,-3.74,-3.74
215.69,-4.67,-0.91,-4.67,-0.91,0.91,0.92,0.62,-3.76,-3.76,-3.76
217.85,-4.64,-0.86,-4.64,-0.85,0.86,0.88,0.63,-3.78,-3.78,-3.78
220.03,-4.62,-0.80,-4.62,-0.81,0.81,0.84,0.64,-3.81,-3.81,-3.82
222.23,-4.60,-0.76,-4.60,-0.76,0.77,0.81,0.64,-3.83,-3.83,-3.84
224.45,-4.58,-0.72,-4.58,-0.72,0.72,0.78,0.65,-3.86,-3.86,-3.86
226.70,-4.57,-0.69,-4.56,-0.69,0.68,0.74,0.65,-3.89,-3.88,-3.88
228.96,-4.54,-0.65,-4.54,-0.65,0.65,0.71,0.66,-3.89,-3.90,-3.89
231.25,-4.52,-0.61,-4.52,-0.61,0.61,0.68,0.66,-3.91,-3.91,-3.91
233.57,-4.51,-0.58,-4.51,-0.57,0.58,0.65,0.67,-3.93,-3.93,-3.93
235.90,-4.49,-0.53,-4.49,-0.54,0.54,0.63,0.67,-3.95,-3.95,-3.96
238.26,-4.48,-0.50,-4.48,-0.51,0.51,0.60,0.67,-3.97,-3.97,-3.98
240.64,-4.47,-0.49,-4.47,-0.48,0.49,0.57,0.67,-3.99,-3.98,-3.98
243.05,-4.45,-0.46,-4.46,-0.46,0.46,0.55,0.67,-3.99,-4.00,-3.99
245.48,-4.45,-0.44,-4.45,-0.44,0.44,0.52,0.66,-4.01,-4.01,-4.01
247.93,-4.44,-0.41,-4.44,-0.41,0.42,0.50,0.66,-4.02,-4.02,-4.03
250.41,-4.42,-0.39,-4.43,-0.40,0.40,0.47,0.65,-4.02,-4.03,-4.03
252.92,-4.42,-0.39,-4.42,-0.38,0.38,0.45,0.64,-4.04,-4.04,-4.03
255.45,-4.41,-0.36,-4.41,-0.36,0.36,0.43,0.64,-4.05,-4.05,-4.05
258.00,-4.40,-0.34,-4.40,-0.34,0.34,0.41,0.63,-4.06,-4.06,-4.06
260.58,-4.39,-0.33,-4.39,-0.32,0.32,0.39,0.61,-4.07,-4.07,-4.06
263.19,-4.38,-0.30,-4.38,-0.30,0.31,0.36,0.60,-4.07,-4.07,-4.08
265.82,-4.37,-0.28,-4.37,-0.29,0.29,0.34,0.59,-4.08,-4.09,-4.09
268.48,-4.37,-0.28,-4.37,-0.27,0.27,0.32,0.57,-4.10,-4.10,-4.09
271.16,-4.36,-0.25,-4.36,-0.26,0.25,0.30,0.56,-4.11,-4.11,-4.11
273.87,-4.35,-0.24,-4.35,-0.24,0.24,0.29,0.54,-4.12,-4.12,-4.11
276.61,-4.34,-0.21,-4.34,-0.21,0.22,0.27,0.52,-4.12,-4.13,-4.13
279.38,-4.34,-0.20,-4.33,-0.20,0.20,0.25,0.50,-4.14,-4.13,-4.14
282.17,-4.32,-0.17,-4.32,-0.18,0.18,0.23,0.48,-4.14,-4.14,-4.15
284.99,-4.31,-0.17,-4.31,-0.16,0.16,0.21,0.46,-4.15,-4.15,-4.14
287.84,-4.30,-0.15,-4.30,-0.14,0.14,0.19,0.44,-4.16,-4.15,-4.15
290.72,-4.28,-0.11,-4.28,-0.12,0.12,0.18,0.41,-4.16,-4.16,-4.17
293.63,-4.26,-0.10,-4.26,-0.10,0.10,0.16,0.39,-4.16,-4.16,-4.16
296.57,-4.25,-0.08,-4.25,-0.08,0.08,0.14,0.37,-4.17,-4.17,-4.17
299.53,-4.23,-0.06,-4.23,-0.06,0.06,0.13,0.34,-4.17,-4.17,-4.17
302.53,-4.21,-0.03,-4.21,-0.04,0.03,0.11,0.32,-4.18,-4.18,-4.18
305.55,-4.19,-0.01,-4.19,-0.02,0.01,0.09,0.29,-4.18,-4.18,-4.18
308.61,-4.18,0.00,-4.18,0.01,-0.01,0.07,0.27,-4.19,-4.18,-4.18
311.69,-4.16,0.03,-4.16,0.03,-0.03,0.06,0.24,-4.19,-4.19,-4.19
314.81,-4.13,0.06,-4.14,0.05,-0.05,0.04,0.22,-4.18,-4.18,-4.19
317.96,-4.12,0.07,-4.12,0.07,-0.07,0.02,0.19,-4.19,-4.18,-4.19
321.14,-4.10,0.08,-4.10,0.09,-0.08,0.01,0.17,-4.18,-4.19,-4.18
324.35,-4.09,0.11,-4.09,0.10,-0.10,-0.01,0.14,-4.19,-4.19,-4.20
327.59,-4.07,0.11,-4.07,0.11,-0.12,-0.03,0.12,-4.19,-4.19,-4.18
330.87,-4.06,0.12,-4.06,0.13,-0.13,-0.04,0.09,-4.19,-4.19,-4.18
334.18,-4.04,0.15,-4.04,0.14,-0.14,-0.06,0.06,-4.18,-4.19,-4.19
337.52,-4.03,0.16,-4.03,0.16,-0.16,-0.08,0.04,-4.19,-4.18,-4.19
340.90,-4.01,0.18,-4.01,0.17,-0.17,-0.09,0.01,-4.18,-4.18,-4.19
344.30,-4.00,0.18,-4.00,0.18,-0.18,-0.11,-0.01,-4.18,-4.18,-4.18
347.75,-3.99,0.18,-3.99,0.19,-0.19,-0.13,-0.04,-4.18,-4.18,-4.17
351.23,-3.97,0.21,-3.97,0.20,-0.21,-0.15,-0.06,-4.18,-4.18,-4.19
354.74,-3.96,0.21,-3.96,0.21,-0.22,-0.16,-0.09,-4.18,-4.18,-4.17
358.28,-3.95,0.23,-3.94,0.23,-0.22,-0.18,-0.12,-4.17,-4.17,-4.18
361.87,-3.93,0.24,-3.93,0.24,-0.23,-0.20,-0.14,-4.16,-4.17,-4.17
365.49,-3.92,0.25,-3.92,0.25,-0.25,-0.22,-0.17,-4.17,-4.17,-4.17
369.14,-3.92,0.24,-3.91,0.25,-0.26,-0.24,-0.19,-4.18,-4.17,-4.16
372.83,-3.90,0.27,-3.90,0.26,-0.27,-0.26,-0.22,-4.17,-4.17,-4.17
376.56,-3.89,0.28,-3.89,0.28,-0.28,-0.27,-0.24,-4.17,-4.17,-4.17
380.33,-3.88,0.29,-3.88,0.29,-0.29,-0.29,-0.27,-4.17,-4.16,-4.17
384.13,-3.86,0.31,-3.86,0.30,-0.30,-0.31,-0.30,-4.16,-4.16,-4.17
387.97,-3.85,0.31,-3.85,0.31,-0.31,-0.33,-0.32,-4.16,-4.16,-4.16
391.85,-3.84,0.32,-3.84,0.32,-0.32,-0.35,-0.35,-4.16,-4.16,-4.16
395.77,-3.83,0.33,-3.83,0.33,-0.34,-0.37,-0.37,-4.17,-4.16,-4.16
399.73,-3.81,0.35,-3.81,0.35,-0.35,-0.39,-0.40,-4.16,-4.16,-4.16
403.72,-3.80,0.36,-3.80,0.36,-0.36,-0.41,-0.42,-4.16,-4.16,-4.16
407.76,-3.78,0.38,-3.78,0.37,-0.37,-0.42,-0.45,-4.15,-4.16,-4.16
411.84,-3.77,0.39,-3.77,0.39,-0.39,-0.44,-0.47,-4.16,-4.16,-4.16
415.96,-3.75,0.40,-3.75,0.40,-0.40,-0.46,-0.50,-4.15,-4.16,-4.15
420.12,-3.74,0.42,-3.74,0.42,-0.42,-0.48,-0.52,-4.16,-4.16,-4.16
424.32,-3.72,0.44,-3.72,0.44,-0.44,-0.49,-0.55,-4.16,-4.16,-4.16
428.56,-3.70,0.45,-3.70,0.45,-0.46,-0.51,-0.57,-4.16,-4.16,-4.15
