frequency,raw,error,smoothed,error_smoothed,equalization,equalized_raw,equalized_smoothed,target
20,-7.8992378329321244,-12.019858583540039,-7.865797845327605,-11.986436840505903,5.999999999999999,-1.8992378329321253,-1.8657978453276058,4.120620750607913
21,-7.523279172487934,-11.675514317197266,-7.485222284153594,-11.637446804667235,6.0,-1.5232791724879338,-1.4852222841535943,4.152235144709332
22,-7.024018135553223,-11.204466615576719,-7.1144771426070434,-11.294903560968182,5.999999999999999,-1.0240181355532236,-1.1144771426070443,4.180448480023496
23,-6.696861548288813,-10.90212089861035,-6.753562420687953,-10.958807109408744,5.999999999999999,-0.6968615482888136,-0.7535624206879543,4.205259350321538
24,-6.389815507105801,-10.616481603560036,-6.402478118396318,-10.629157449988906,5.999999999999997,-0.38981550710580404,-0.40247811839632064,4.2266660964542355
25,-6.09616678439687,-10.340833559302668,-6.06121332020121,-10.305952020935589,6.0,-0.09616678439687032,-0.06121332020120995,4.244666774905798
26,-5.718286086025543,-9.977545210075803,-5.7296209659036546,-9.989039372145117,6.0,0.2817139139744569,0.27037903409634545,4.259259124050261
27,-5.460005325215285,-9.730514798925826,-5.407760531805334,-9.678470629534814,5.999999999999998,0.5399946747847135,0.5922394681946646,4.270509473710542
28,-5.162767509363599,-9.441129149949546,-5.0959590890508775,-9.374553390239834,6.0,0.837232490636401,0.9040409109491225,4.278361640585948
29,-4.745882685465413,-9.028669376977124,-4.794875348099987,-9.077911368991355,6.000000000000002,1.2541173145345885,1.2051246519000145,4.282786691511712
30,-4.450700058771396,-8.73443774743219,-4.505489505523947,-8.789472960161712,6.000000000000001,1.5492999412286048,1.4945104944760539,4.2837376886607945
31,-4.207049654693159,-8.488196521568039,-4.228840536636803,-8.510205563476722,6.0,1.7929503453068412,1.7711594633631966,4.281146866874879
32,-3.9717401044729015,-8.246664385999367,-3.9657762768884117,-8.240865809855023,6.0,2.0282598955270985,2.0342237231115883,4.274924281526465
33,-3.757564548603837,-8.02252316901203,-3.7167146099722577,-7.981762578357293,6.0,2.242435451396163,2.2832853900277423,4.264958620408194
34,-3.462294492960489,-7.7134265488955265,-3.481507820187719,-7.732625124555785,5.999999999999998,2.5377055070395094,2.518492179812279,4.251132055935038
35,-3.2622086910692167,-7.495523252327352,-3.259473597876231,-7.492640377683836,6.000000000000002,2.737791308930785,2.7405264021237707,4.233314561258136
36,-3.03953759870587,-7.250912716209195,-3.049522762591101,-7.260589102767339,5.999999999999999,2.960462401294129,2.950477237408898,4.211375117503325
37,-2.8286668334117286,-7.013859038348551,-2.850338648040294,-7.03503600040334,5.999999999999999,3.1713331665882705,3.149661351959705,4.185192204936822
38,-2.6493980090443427,-6.8040644601837865,-2.6605405435471097,-6.814506016312872,6.000000000000002,3.350601990955659,3.339459456452892,4.154666451139444
39,-2.5546715963721347,-6.6744066862179,-2.478791638468784,-6.597607035153139,6.000000000000001,3.445328403627866,3.521208361531217,4.119735089845765
40,-2.3141362902337126,-6.3945240521531765,-2.303863482569218,-6.383110614168144,5.967833229023613,3.6536969387899005,3.663969746454395,4.0803877619194635
41,-2.0208541824228794,-6.057539094463943,-2.1346823247427706,-6.170015524971798,5.900557993340656,3.8797038109177766,3.7658756685978854,4.036684912041063
42,-2.0223595084782957,-6.011134936431882,-1.9703875398025563,-5.957623542457071,5.8007164114982315,3.7783569030199358,3.8303288716956754,3.9887754279535863
43,-1.8549644671959924,-5.791878352575379,-1.8104133761140129,-5.7456377765986275,5.670136990321167,3.8151725231251743,3.859723614207154,3.9369138853793864
44,-1.6390017203137628,-5.520477823131122,-1.6545770017242576,-5.534265458502206,5.5106587676284455,3.8716570473146827,3.8560817659041877,3.881476102817359
45,-1.5372415599989433,-5.360213400498013,-1.5031384373288903,-5.3242896439571625,5.324289643957163,3.7870480839582203,3.821151206628273,3.8229718404990702
46,-1.334984398394687,-5.097037833519055,-1.356794482441129,-5.117070821160404,5.117070821160403,3.782086422765716,3.7602763387192737,3.762053435124368
47,-1.1779609770221082,-4.877480165749114,-1.2165831383979437,-4.914453885543392,4.914453885543392,3.736492908521284,3.6978707471454486,3.699519188727006
48,-1.133834973200842,-4.770145706504487,-1.083699668276604,-4.718580733088774,4.718580733088772,3.58474575988793,3.634881064812168,3.6363107333036453
49,-0.9326855478810279,-4.5061890890476555,-0.9592512385198306,-4.5316347485440645,4.5316347485440645,3.5989492006630366,3.572383510024234,3.573503541166627
50,-0.8359086435115499,-4.34819879792063,-0.8439986501496819,-4.355565310536491,4.355565310536489,3.5196566670249396,3.5115666603868076,3.5122901544090803
51,-0.7315361217990631,-4.185492160402526,-0.7381460506585107,-4.191853152065795,4.191853152065795,3.4603170302667317,3.453707101407284,3.453956038603463
52,-0.630961408543454,-4.030809760021902,-0.6412380694777139,-4.041376335239299,4.041376335239299,3.4104149266958452,3.4001382657615853,3.3998483514784477
53,-0.5637985696101558,-3.9151368852454618,-0.5522056625953382,-3.9044188265556237,3.9044188265556237,3.340620256945468,3.3522131639602852,3.351338315635306
54,-0.4298119850548676,-3.7395902530389407,-0.469568429454399,-3.7808305157659037,3.7808305157659032,3.351018530711036,3.3112620863115043,3.309778267984073
55,-0.42981198954678207,-3.706266836409368,-0.3917571416105914,-3.6703038482637025,3.670303848263702,3.24049185871692,3.2785467066531107,3.2764548468625856
56,-0.3292372837426077,-3.5817773703561353,-0.31747644177101186,-3.5726887594555183,3.5726887594555183,3.2434514757129107,3.2552123176845065,3.2525400866135277
57,-0.2286625771341764,-3.4677050109571295,-0.2460002245156529,-3.4882403796300716,3.4882403796300707,3.2595778024958943,3.242240155114418,3.239042433822953
58,-0.2286625754614421,-3.4654224260837703,-0.17729610397206197,-3.417698009744468,3.417698009744468,3.189035434283026,3.240401905772406,3.2367598506223283
59,-0.1280878435355861,-3.3743250593142093,-0.11191765720262231,-3.3621361875510547,3.3621361875510547,3.2340483440154686,3.2502185303484326,3.2462372157786232
60,-0.02751308496625805,-3.2952432498182977,-0.050674799929723874,-3.322600256999851,3.322600256999851,3.2950871720335932,3.2719254570701275,3.26773016485204
61,0.07306170060203364,-3.2281156222488314,0.005828559862857794,-3.299617457320515,3.2996174573205153,3.372679157922549,3.305446017183373,3.301177322850865
62,0.07306178127908668,-3.273120804417616,0.0576428125711947,-3.292731889364422,3.292731889364422,3.3657936706435088,3.3503747019356167,3.346182585696703
63,0.07306182052549236,-3.328946889357673,0.10574884675551315,-3.3002225889604695,3.300222588960471,3.3732844094859633,3.405971435715984,3.4020087098831655
64,0.17363644928091204,-3.2939465428843815,0.15204877842634523,-3.319118820497058,3.3191188204970588,3.492755269777971,3.471167598923404,3.4675829921652936
65,0.1736361428968275,-3.367879143841862,0.1990466468290816,-3.345537372795903,3.345537372795902,3.5191735156927293,3.5445840196249834,3.541515286738689
66,0.2742102508950061,-3.3479177932331092,0.24929757017050902,-3.3752630422399346,3.375263042239936,3.649473293134942,3.624560612410445,3.6221280441281154
67,0.27420936604372703,-3.4332881281794814,0.3047835080871233,-3.404413295999039,3.4044132959990385,3.6786226620427653,3.7091968040861616,3.707497494223208
68,0.31437433480329136,-3.4811302313313024,0.3664019515738294,-3.4299994260511184,3.4299994260511184,3.7443737608544096,3.7964013776249477,3.7955045661345936
69,0.374782533328636,-3.509111136097648,0.4337206141938401,-3.450229303060559,3.450229303060559,3.825011836389195,3.883949917254399,3.8838936694262842
70,0.5759325069639301,-3.394404574013742,0.5050685617587041,-3.4644791133323203,3.4644791133323207,4.040411620296251,3.969547675091025,3.970337080977672
71,0.5759351193511304,-3.476567291237024,0.5779316359573314,-3.4729637865180427,3.472963786518043,4.048898905869174,4.050895422475374,4.052502410588154
72,0.6632324189519282,-3.4648880526163772,0.6495324199805745,-3.4762232878307646,3.4762232878307633,4.139455706782692,4.125755707811338,4.128120471568305
73,0.7456782728855817,-3.449372595013201,0.7174300117413964,-3.4745869094548425,3.4745869094548425,4.220265182340424,4.192016921196239,4.195050867898782
74,0.7771099801570858,-3.4742327472019934,0.7799829415807266,-3.467769731069524,3.467769731069524,4.24487971122661,4.24775267265025,4.251342727359079
75,0.8321406038294077,-3.463147649095963,0.8365709598776814,-3.4547032582357504,3.4547032582357495,4.286843862065157,4.291274218113431,4.295288252925371
76,0.8777011315578834,-3.447765986620135,0.8875477700365406,-3.433626241984319,3.43362624198432,4.311327373542204,4.321174012020861,4.325467118178018
77,0.978269014009154,-3.362511161732497,0.9339713456173475,-3.402387578307687,3.402387578307688,4.380656592316842,4.336358923925036,4.340780175741651
78,0.978241243416689,-3.3622302119843104,0.9772094446188238,-3.3588627493664216,3.3588627493664207,4.33710399278311,4.3360721939852445,4.3404714554009995
79,0.9781846669116911,-3.3459533049356036,1.0185337843382074,-3.3013699464806363,3.301369946480637,4.279554613392328,4.319903730818845,4.3241379718472945
80,1.0231703480448728,-3.2685570630132834,1.0587987585207985,-3.228990015649269,3.2289900156492695,4.252160363694142,4.2877887741700675,4.291727411058156
81,1.092298516285117,-3.1512257734302507,1.0982616725830197,-3.1417335482165205,3.1417335482165214,4.234032064501639,4.239995220799541,4.243524289715368
82,1.1789943288984892,-3.0011313279006044,1.1365570087863386,-3.0405431484019294,3.0405431484019294,4.219537477300419,4.177100157188268,4.180125656799094
83,1.178880902644276,-2.923526904850643,1.1728009128055774,-2.9271556198834014,2.9271556198834014,4.106036522527678,4.099956532688979,4.102407807494919
84,1.1788342402681031,-2.8326515487025192,1.2057825165814697,-2.803869163042978,2.803869163042979,3.982703403311082,4.009651679624449,4.011485788970623
85,1.228876170530662,-2.679791513167875,1.2341955037844456,-2.673265105122088,2.673265105122088,3.90214127565275,3.9074606089065336,3.908667683698537
86,1.279775618875045,-2.5156301347851713,1.2568693890023614,-2.537928891522983,2.537928891522983,3.817704510398028,3.7947982805253444,3.795405753660216
87,1.2803251482745028,-2.392921371107623,1.2729664975200672,-2.400208955033256,2.400208955033256,3.680534103307759,3.6731754525533233,3.673246519382126
88,1.2811840280410578,-2.2625977108141466,1.282114087317147,-2.262047176744602,2.262047176744602,3.54323120478566,3.5441612640617493,3.543781738855204
89,1.2823525414160053,-2.1262495144229003,1.2844447975076432,-2.124907294888201,2.124907294888201,3.407259836304206,3.409352092395844,3.4086020558389056
90,1.2837664989515518,-1.9854883229232707,1.2805297402704232,-1.9898116800205052,1.9898116800205055,3.2735781789720573,3.2703414202909284,3.2692548218748225
91,1.2852787617516317,-1.841928519654464,1.2712124191651033,-1.8574692569702758,1.8574692569702753,3.142748018721907,3.1286816761353786,3.1272072814060956
92,1.2866476660566053,-1.69716829991303,1.2573862030641592,-1.7284430720646253,1.7284430720646249,3.01509073812123,2.985829275128784,2.9838159659696353
93,1.2016390801097454,-1.638663712572482,1.2397903120132008,-1.6032801535152408,1.603280153515241,2.8049192336249864,2.8430704655284416,2.8403027926822273
94,1.1869481473154042,-1.5107898766263397,1.2189099680271518,-1.482527378376128,1.4825273783761275,2.6694755256915315,2.7014373464032793,2.697738023941744
95,1.185555086868745,-1.3714748497286786,1.1950403795023357,-1.3665958906556328,1.3665958906556328,2.552150977524378,2.5616362701579685,2.5570299365974236
96,1.1822842253085866,-1.236636558215352,1.1685128218908885,-1.2555054069284997,1.2555054069284992,2.437789632237086,2.4240182288193877,2.4189207835239386
97,1.1766658916440442,-1.1073225265810955,1.1400048692808438,-1.1486119857928854,1.1486119857928856,2.32527787743693,2.2886168550737294,2.2839884182251398
98,1.1683099960544996,-0.9843428030956445,1.110799236948254,-1.0444631099170714,1.0444631099170714,2.212773105971571,2.1552623468653254,2.152652799150144
99,1.0563804074025875,-0.9688060885439289,1.082848068876735,-0.9409048103430704,0.9409048103430703,1.9972852177456577,2.0237528792198054,2.0251864959465165
100,1.041934302256094,-0.8597939798957814,1.0585545829929959,-0.8354841417457377,0.8354841417457378,1.8774184440018318,1.8940387247387336,1.9017282821518755
101,1.024500421040364,-0.7577984907829767,1.040286499827567,-0.7260737124598127,0.7260737124598128,1.750574133500177,1.7663602122873798,1.7822989118233408
102,1.0043868250543784,-0.6624314077799114,1.0297461303317175,-0.6115410609920872,0.611541060992087,1.6159278860464654,1.6412871913238045,1.6668182328342898
104,0.9820960164489952,-0.5110622353427497,1.0273930302016865,-0.4922422251701687,0.4922422251701687,1.474338241619164,1.5196352553718553,1.493158251791745
105,1.0050759521071664,-0.37986241812135635,1.0321144897974746,-0.3701597534507904,0.3701597534507904,1.3752357055579567,1.4022742432482649,1.3849383702285227
106,1.0343541315771585,-0.24576562802924418,1.0412641615902718,-0.2486189264025459,0.24861892640254585,1.2829730579797043,1.2898830879928176,1.2801197596064027
107,1.0874549662293056,-0.09093466842336406,1.0510687583872822,-0.1316582308118464,0.13165823081184638,1.219113197041152,1.1827269891991286,1.1783896346526697
108,1.0871844683717558,0.007768015058537969,1.0572844983023992,-0.023244407775586402,0.023244407775586392,1.1104288761473422,1.0805289060779857,1.0794164533132178
109,1.0656378553873316,0.08277469337215515,1.0559137353389234,0.07343539027192053,-0.07343539027192054,0.992202465115411,0.9824783450670028,0.9828631620151764
110,1.046619442372429,0.15822061087242867,1.0437921177993656,0.15641533084436876,-0.15641533084436873,0.8902041115280603,0.8873767869549969,0.8883988315000004
111,1.0306824044134828,0.23497376781134593,1.0189212287517035,0.2250447055735439,-0.22504470557354392,0.8056376988399389,0.7938765231781596,0.7957086366021369
112,1.004136655521536,0.299634474317217,0.9805190685946106,0.2797763131263728,-0.2797763131263728,0.7243603423951632,0.7007427554682377,0.7045021812043191
113,0.9097279087577712,0.2952077075041275,0.9288504449196955,0.3217843009670496,-0.3217843009670496,0.5879436077907216,0.6070661439526459,0.6145202012536437
114,0.8699325069186303,0.34439280959975016,0.8649493604324396,0.35257522943165476,-0.35257522943165476,0.5173572774869756,0.5123741310007849,0.5255396973188802
115,0.8009054901686969,0.36352793258424,0.7903444609935031,0.37371916944739203,-0.3737191694473921,0.42718632072130486,0.416625291546111,0.43737755758445696
117,0.7013303453594115,0.4061503249567644,0.7068568468131016,0.38674889973010707,-0.38674889973010695,0.31458144562930457,0.3201079470829946,0.2951800204026471
118,0.6278334543004618,0.41843450319103215,0.6164815234251046,0.39319202497313677,-0.39319202497313666,0.23464142932732512,0.223289498451968,0.20939895110942963
119,0.5150342534200922,0.3908462514929434,0.5213172436053257,0.39464804445264523,-0.3946480444526452,0.12038620896744706,0.12666919915268054,0.12418800192714885
120,0.41509950257159206,0.37557441548965326,0.423491889249496,0.39281714753304775,-0.39281714753304775,0.02228235503854431,0.03067474171644824,0.0395250870819388
121,0.3653250110317479,0.4098988684657077,0.32504389172889087,0.38942491253391137,-0.3894249125339113,-0.0240999015021634,-0.06438102080502045,-0.04457385743395981
123,0.16855826059296966,0.34401531566384436,0.2277540015135815,0.38604583315047797,-0.38604583315047797,-0.2174875725575083,-0.15829183163689647,-0.17545705507087472
124,0.1363936088039801,0.3933353164132416,0.1329593427114234,0.38388211909449277,-0.38388211909449277,-0.24748851029051266,-0.25092277638306937,-0.2569417076092615
125,0.028601468247409827,0.3662208218750935,0.041407754261771776,0.38358233960323007,-0.38358233960322996,-0.3549808713558201,-0.34217458534145817,-0.3376193536276837
126,-0.04100564491800297,0.3763671833740607,-0.04678482715998494,0.3851793275203516,-0.3851793275203516,-0.42618497243835457,-0.43196415468033655,-0.4173728282920637
128,-0.14419181918651014,0.3927042231392863,-0.13202944345057513,0.3881936088037081,-0.38819360880370835,-0.5323854279902185,-0.5202230522542834,-0.5368960423257965
129,-0.2044393220961812,0.40866088463757266,-0.21500253189337387,0.39190120225639036,-0.39190120225639047,-0.5963405243525717,-0.6069037341497643,-0.6131002067337539
130,-0.2730892971554417,0.4149007416451118,-0.2962632856199038,0.39571631524809475,-0.3957163152480948,-0.6688056124035365,-0.6919796008679986,-0.6879900388005535
131,-0.3548495486866365,0.40658753935007735,-0.3758300271171104,0.39960075584473176,-0.39960075584473176,-0.7544503045313682,-0.7754307829618421,-0.7614370880367138
133,-0.4744255761454375,0.39334868781975024,-0.45282784849411073,0.4043905125810769,-0.404390512581077,-0.8788160887265145,-0.8572183610751878,-0.8677742639651878
134,-0.5000602089273789,0.43671731049756457,-0.5253259454686432,0.41193290849280845,-0.4119329084928085,-0.9119931174201874,-0.9372588539614517,-0.9367775194249435
135,-0.5677689743293345,0.43628000505749165,-0.5904518008016543,0.4249611796396743,-0.42496117963967434,-0.9927301539690088,-1.0154129804413285,-1.0040489793868261
137,-0.6557217860683627,0.44354628938061846,-0.6447991183948458,0.446697771663916,-0.446697771663916,-1.1024195577322788,-1.0914968900587618,-1.0992680754489812
138,-0.7117782334510553,0.4499997984869658,-0.6850505189469345,0.48026313825173705,-0.4802631382517371,-1.1920413717027925,-1.1653136571986715,-1.161778031938021
140,-0.7086588810889204,0.5402909493918452,-0.7086443795301904,0.5280486430010207,-0.5280486430010206,-1.236707524089941,-1.236693022531211,-1.2489498304807656
141,-0.7289333901443831,0.5777763317016578,-0.7142691879662584,0.5912540249913103,-0.5912540249913103,-1.3201874151356934,-1.3055232129575687,-1.3067097218460408
142,-0.8053703059019193,0.5572483484427595,-0.7020021434454425,0.6697601887429435,-0.6697601887429437,-1.475130494644863,-1.3717623321883863,-1.3626186543446788
144,-0.6601127229370365,0.7792106520903612,-0.6730279660117844,0.7623982525586299,-0.7623982525586298,-1.4225109754956664,-1.4354262185704143,-1.4393233750273977
145,-0.6056164130749133,0.8850373915147292,-0.6290462025385108,0.8675137285398455,-0.8675137285398454,-1.4731301416147589,-1.4965599310783562,-1.4906538045896425
147,-0.5280924170678446,1.0321507373230046,-0.5716344180389854,0.9835718157151078,-0.9835718157151075,-1.5116642327829521,-1.555206233754093,-1.5602431543908493
148,-0.4406767044288216,1.1665006599946557,-0.5019060491974991,1.109478105330357,-1.1094781053303568,-1.5501548097591784,-1.611384154527856,-1.6071773644234773
150,-0.4180625366541741,1.2520214006403527,-0.420734770389811,1.2443499664867734,-1.2443499664867739,-1.662412503140948,-1.6650847368765849,-1.6700839372945269
151,-0.4190186753365973,1.2937331622057182,-0.3296140384998356,1.3866684062439596,-1.3866684062439598,-1.8056870815805572,-1.7162824447437954,-1.7127518375423154
153,-0.2890755158378477,1.4802366898009802,-0.2319449175315575,1.5330087314733576,-1.5330087314733571,-1.8220842473112049,-1.7649536490049147,-1.769312205638828
154,-0.24850254569867405,1.5592380671577262,-0.1343009693391421,1.6767903988587056,-1.6767903988587054,-1.9252929445573794,-1.8110913681978476,-1.8077406128564002
156,-0.08620034896640162,1.771956348309409,-0.047109890597498295,1.8075985960397545,-1.8075985960397545,-1.893798945006156,-1.8547084866372527,-1.8581566972758106
157,-0.008000399135094104,1.8842526985644807,0.015721875620380042,1.9115499018630808,-1.9115499018630802,-1.9195503009981743,-1.8958280262427,-1.8922530976995748
159,0.10591872828966631,2.0425135729666426,0.038443052776177336,1.9729085287161323,-1.9729085287161325,-1.8669898004264662,-1.934465475939955,-1.9365948446769763
