frequency,raw,error,smoothed,error_smoothed,equalization,parametric_eq,equalized_raw,equalized_smoothed,target
20,-7.24,-11.24,-7.24,-11.24,6.00,2.45,-1.24,-1.24,4.00
21,-6.65,-10.65,-6.63,-10.63,6.00,2.83,-0.65,-0.63,4.00
22,-6.06,-10.06,-6.05,-10.05,6.00,3.23,-0.06,-0.05,4.00
23,-5.48,-9.47,-5.51,-9.50,6.00,3.67,0.52,0.49,3.99
24,-4.96,-8.95,-4.99,-8.98,6.00,4.14,1.04,1.01,3.99
25,-4.53,-8.52,-4.50,-8.49,6.00,4.62,1.47,1.50,3.99
26,-3.99,-7.97,-4.04,-8.03,6.00,5.11,2.01,1.96,3.99
27,-3.68,-7.66,-3.62,-7.60,6.00,5.57,2.32,2.38,3.98
28,-3.18,-7.16,-3.22,-7.20,6.00,5.99,2.82,2.78,3.98
29,-2.91,-6.88,-2.85,-6.82,6.00,6.32,3.09,3.15,3.97
30,-2.47,-6.44,-2.51,-6.48,5.95,6.55,3.48,3.44,3.97
31,-2.20,-6.16,-2.19,-6.15,5.84,6.67,3.64,3.65,3.96
32,-1.84,-5.80,-1.90,-5.85,5.68,6.66,3.84,3.79,3.96
33,-1.65,-5.60,-1.63,-5.58,5.50,6.55,3.85,3.87,3.95
34,-1.42,-5.36,-1.38,-5.33,5.31,6.36,3.89,3.92,3.94
35,-1.19,-5.13,-1.16,-5.10,5.10,6.11,3.91,3.94,3.94
36,-0.89,-4.82,-0.96,-4.89,4.89,5.83,4.00,3.93,3.93
37,-0.74,-4.66,-0.77,-4.69,4.69,5.54,3.95,3.92,3.92
38,-0.56,-4.47,-0.59,-4.50,4.50,5.24,3.94,3.91,3.91
39,-0.50,-4.40,-0.42,-4.32,4.32,4.96,3.82,3.90,3.90
40,-0.33,-4.22,-0.26,-4.15,4.15,4.69,3.82,3.89,3.89
41,-0.13,-4.01,-0.11,-3.99,3.99,4.45,3.86,3.88,3.88
42,0.07,-3.80,0.04,-3.82,3.82,4.22,3.89,3.87,3.87
43,0.19,-3.66,0.18,-3.67,3.67,4.02,3.86,3.85,3.85
44,0.31,-3.53,0.32,-3.52,3.52,3.83,3.83,3.84,3.84
45,0.47,-3.35,0.44,-3.39,3.39,3.67,3.86,3.83,3.83
46,0.59,-3.22,0.55,-3.26,3.26,3.52,3.85,3.81,3.81
47,0.68,-3.11,0.65,-3.14,3.14,3.39,3.83,3.79,3.79
48,0.67,-3.11,0.74,-3.04,3.04,3.28,3.71,3.78,3.78
49,0.87,-2.89,0.82,-2.94,2.94,3.18,3.81,3.76,3.76
50,0.87,-2.87,0.89,-2.85,2.85,3.09,3.72,3.74,3.74
51,0.87,-2.85,0.96,-2.76,2.76,3.01,3.63,3.72,3.72
52,1.07,-2.63,1.03,-2.67,2.67,2.94,3.74,3.70,3.70
53,1.07,-2.61,1.10,-2.58,2.58,2.87,3.65,3.68,3.68
54,1.18,-2.47,1.16,-2.49,2.49,2.82,3.68,3.65,3.65
55,1.28,-2.35,1.22,-2.41,2.41,2.76,3.69,3.63,3.63
56,1.28,-2.33,1.28,-2.33,2.33,2.72,3.61,3.61,3.61
57,1.28,-2.30,1.34,-2.25,2.25,2.67,3.53,3.58,3.58
58,1.28,-2.27,1.38,-2.17,2.17,2.62,3.45,3.56,3.56
59,1.48,-2.05,1.42,-2.10,2.10,2.58,3.59,3.53,3.53
60,1.48,-2.02,1.45,-2.05,2.05,2.54,3.53,3.50,3.50
61,1.48,-1.99,1.46,-2.01,2.01,2.49,3.49,3.47,3.47
62,1.48,-1.96,1.46,-1.98,1.98,2.44,3.46,3.44,3.44
63,1.48,-1.93,1.44,-1.98,1.98,2.40,3.46,3.41,3.41
64,1.38,-2.00,1.39,-1.98,1.98,2.35,3.37,3.38,3.38
65,1.38,-1.97,1.34,-2.01,2.01,2.30,3.39,3.35,3.35
66,1.27,-2.04,1.27,-2.05,2.05,2.25,3.32,3.31,3.31
67,1.17,-2.11,1.19,-2.09,2.09,2.20,3.26,3.28,3.28
68,1.11,-2.13,1.11,-2.13,2.13,2.15,3.24,3.25,3.25
69,1.02,-2.19,1.04,-2.17,2.17,2.10,3.19,3.21,3.21
70,0.97,-2.20,0.98,-2.19,2.19,2.05,3.16,3.17,3.17
71,0.97,-2.17,0.94,-2.20,2.20,2.00,3.17,3.14,3.14
72,0.83,-2.27,0.91,-2.19,2.19,1.95,3.03,3.10,3.10
73,0.83,-2.23,0.89,-2.17,2.17,1.90,3.00,3.06,3.06
74,0.84,-2.18,0.89,-2.13,2.13,1.85,2.97,3.02,3.02
75,0.91,-2.07,0.90,-2.09,2.09,1.80,3.00,2.99,2.99
76,0.97,-1.98,0.91,-2.04,2.04,1.76,3.01,2.95,2.95
77,0.97,-1.94,0.92,-1.99,1.99,1.71,2.96,2.91,2.91
78,0.97,-1.90,0.93,-1.94,1.94,1.67,2.91,2.87,2.87
79,0.97,-1.86,0.93,-1.90,1.90,1.63,2.87,2.83,2.83
80,0.83,-1.95,0.92,-1.86,1.86,1.59,2.69,2.79,2.79
81,0.87,-1.87,0.91,-1.83,1.83,1.55,2.71,2.74,2.74
82,0.87,-1.83,0.89,-1.81,1.81,1.52,2.68,2.70,2.70
83,0.91,-1.75,0.86,-1.80,1.80,1.48,2.71,2.66,2.66
84,0.86,-1.76,0.83,-1.79,1.79,1.45,2.65,2.62,2.62
85,0.77,-1.81,0.78,-1.79,1.79,1.42,2.57,2.58,2.58
86,0.79,-1.75,0.73,-1.80,1.80,1.39,2.60,2.54,2.54
87,0.67,-1.83,0.68,-1.82,1.82,1.37,2.49,2.50,2.50
88,0.56,-1.89,0.61,-1.84,1.84,1.34,2.40,2.45,2.45
89,0.59,-1.82,0.55,-1.87,1.87,1.32,2.46,2.41,2.41
90,0.48,-1.89,0.48,-1.89,1.89,1.30,2.37,2.37,2.37
91,0.38,-1.95,0.41,-1.92,1.92,1.27,2.30,2.33,2.33
92,0.33,-1.96,0.35,-1.93,1.93,1.26,2.26,2.29,2.29
93,0.28,-1.97,0.30,-1.95,1.95,1.24,2.23,2.25,2.25
94,0.28,-1.93,0.26,-1.95,1.95,1.22,2.23,2.21,2.21
95,0.26,-1.90,0.22,-1.95,1.95,1.20,2.21,2.17,2.17
96,0.17,-1.95,0.19,-1.93,1.93,1.19,2.10,2.13,2.13
97,0.17,-1.91,0.18,-1.91,1.91,1.17,2.08,2.09,2.08
98,0.16,-1.88,0.17,-1.88,1.88,1.16,2.04,2.05,2.04
99,0.15,-1.85,0.17,-1.83,1.83,1.15,1.98,2.00,2.01
100,0.15,-1.82,0.18,-1.78,1.78,1.14,1.93,1.96,1.97
101,0.22,-1.71,0.20,-1.72,1.72,1.13,1.94,1.92,1.93
102,0.20,-1.69,0.22,-1.65,1.65,1.12,1.85,1.87,1.89
104,0.26,-1.55,0.25,-1.58,1.58,1.10,1.84,1.83,1.82
105,0.28,-1.50,0.28,-1.51,1.51,1.09,1.79,1.79,1.78
106,0.33,-1.41,0.30,-1.45,1.45,1.09,1.78,1.75,1.74
107,0.30,-1.41,0.32,-1.39,1.39,1.08,1.69,1.71,1.71
108,0.37,-1.30,0.33,-1.35,1.35,1.07,1.72,1.68,1.67
109,0.36,-1.28,0.33,-1.31,1.31,1.07,1.67,1.64,1.64
110,0.34,-1.27,0.33,-1.28,1.28,1.06,1.62,1.61,1.61
111,0.32,-1.26,0.32,-1.26,1.26,1.06,1.58,1.58,1.58
112,0.31,-1.24,0.32,-1.23,1.23,1.05,1.54,1.55,1.55
113,0.30,-1.22,0.32,-1.20,1.20,1.05,1.50,1.52,1.52
114,0.30,-1.19,0.33,-1.16,1.16,1.04,1.46,1.49,1.49
115,0.29,-1.17,0.35,-1.11,1.11,1.04,1.40,1.45,1.47
117,0.32,-1.09,0.37,-1.05,1.05,1.03,1.37,1.42,1.41
118,0.40,-0.98,0.41,-0.99,0.99,1.03,1.39,1.39,1.39
119,0.51,-0.85,0.44,-0.92,0.92,1.02,1.43,1.36,1.36
120,0.51,-0.83,0.48,-0.86,0.86,1.02,1.37,1.34,1.34
121,0.52,-0.80,0.51,-0.80,0.80,1.02,1.32,1.31,1.32
123,0.53,-0.74,0.53,-0.75,0.75,1.01,1.28,1.28,1.27
124,0.54,-0.71,0.54,-0.71,0.71,1.00,1.25,1.26,1.25
125,0.54,-0.70,0.55,-0.68,0.68,1.00,1.23,1.23,1.24
126,0.55,-0.67,0.55,-0.66,0.66,1.00,1.21,1.21,1.22
128,0.56,-0.62,0.54,-0.65,0.65,0.99,1.21,1.19,1.18
129,0.56,-0.60,0.53,-0.64,0.64,0.98,1.20,1.17,1.16
130,0.50,-0.65,0.52,-0.63,0.63,0.98,1.13,1.15,1.15
131,0.47,-0.66,0.51,-0.62,0.62,0.97,1.09,1.12,1.13
133,0.48,-0.62,0.50,-0.61,0.61,0.97,1.09,1.10,1.10
134,0.48,-0.60,0.49,-0.59,0.59,0.96,1.07,1.08,1.08
135,0.49,-0.58,0.49,-0.57,0.57,0.96,1.07,1.06,1.07
137,0.49,-0.54,0.49,-0.55,0.55,0.95,1.05,1.04,1.04
138,0.49,-0.53,0.49,-0.53,0.53,0.95,1.02,1.02,1.02
140,0.49,-0.50,0.49,-0.51,0.51,0.94,1.00,1.00,0.99
141,0.49,-0.49,0.50,-0.48,0.48,0.93,0.97,0.98,0.98
142,0.50,-0.46,0.50,-0.46,0.46,0.93,0.96,0.96,0.96
144,0.50,-0.43,0.50,-0.43,0.43,0.92,0.94,0.94,0.93
145,0.50,-0.42,0.50,-0.41,0.41,0.92,0.91,0.92,0.92
147,0.50,-0.39,0.50,-0.39,0.39,0.91,0.90,0.90,0.89
148,0.49,-0.39,0.50,-0.38,0.38,0.91,0.87,0.88,0.88
150,0.49,-0.36,0.49,-0.37,0.37,0.91,0.86,0.86,0.85
151,0.49,-0.35,0.47,-0.36,0.36,0.91,0.85,0.84,0.84
153,0.46,-0.35,0.45,-0.36,0.36,0.90,0.82,0.82,0.81
154,0.38,-0.42,0.43,-0.37,0.37,0.90,0.75,0.80,0.80
156,0.39,-0.38,0.39,-0.39,0.39,0.90,0.78,0.78,0.77
157,0.42,-0.34,0.35,-0.41,0.41,0.90,0.83,0.76,0.76
159,0.36,-0.38,0.31,-0.43,0.43,0.90,0.79,0.74,0.74
160,0.22,-0.51,0.27,-0.46,0.46,0.90,0.68,0.72,0.73
162,0.18,-0.53,0.22,-0.48,0.48,0.90,0.66,0.71,0.71
164,0.19,-0.50,0.18,-0.51,0.51,0.90,0.70,0.69,0.69
165,0.11,-0.57,0.14,-0.53,0.53,0.90,0.64,0.68,0.68
167,0.05,-0.61,0.10,-0.56,0.56,0.90,0.61,0.66,0.66
169,0.08,-0.56,0.06,-0.58,0.58,0.90,0.66,0.65,0.64
170,0.09,-0.55,0.02,-0.61,0.61,0.90,0.70,0.64,0.64
172,0.02,-0.60,-0.02,-0.64,0.64,0.91,0.67,0.62,0.62
174,-0.15,-0.76,-0.07,-0.68,0.68,0.91,0.54,0.61,0.61
175,-0.13,-0.74,-0.13,-0.73,0.73,0.92,0.60,0.61,0.61
177,-0.15,-0.75,-0.19,-0.79,0.79,0.92,0.64,0.60,0.60
179,-0.22,-0.81,-0.27,-0.86,0.86,0.93,0.64,0.59,0.59
181,-0.38,-0.96,-0.35,-0.93,0.93,0.94,0.56,0.59,0.58
183,-0.49,-1.07,-0.44,-1.02,1.02,0.95,0.53,0.58,0.58
184,-0.49,-1.07,-0.53,-1.11,1.11,0.95,0.62,0.58,0.58
186,-0.63,-1.20,-0.64,-1.21,1.21,0.96,0.58,0.57,0.58
188,-0.72,-1.29,-0.74,-1.31,1.31,0.97,0.60,0.57,0.57
190,-0.85,-1.42,-0.85,-1.42,1.42,0.98,0.57,0.57,0.57
192,-0.94,-1.51,-0.95,-1.52,1.52,0.99,0.58,0.57,0.57
194,-1.03,-1.60,-1.05,-1.62,1.62,1.00,0.59,0.57,0.57
196,-1.16,-1.72,-1.13,-1.70,1.70,1.02,0.54,0.57,0.57
198,-1.19,-1.75,-1.20,-1.76,1.76,1.03,0.57,0.56,0.56
200,-1.28,-1.84,-1.24,-1.80,1.80,1.04,0.53,0.56,0.56
202,-1.32,-1.88,-1.26,-1.82,1.82,1.05,0.50,0.56,0.56
204,-1.32,-1.88,-1.25,-1.81,1.81,1.07,0.49,0.56,0.56
206,-1.24,-1.80,-1.21,-1.78,1.78,1.08,0.54,0.56,0.56
208,-1.14,-1.70,-1.16,-1.72,1.72,1.10,0.58,0.56,0.56
210,-1.05,-1.61,-1.09,-1.65,1.65,1.11,0.61,0.56,0.56
212,-1.01,-1.57,-1.02,-1.58,1.58,1.12,0.57,0.56,0.56
214,-0.92,-1.48,-0.94,-1.50,1.50,1.14,0.58,0.56,0.56
216,-0.83,-1.39,-0.87,-1.43,1.43,1.15,0.60,0.56,0.56
218,-0.83,-1.39,-0.80,-1.36,1.36,1.16,0.53,0.56,0.56
221,-0.73,-1.29,-0.74,-1.30,1.30,1.18,0.57,0.56,0.56
223,-0.69,-1.25,-0.68,-1.25,1.25,1.20,0.56,0.56,0.56
225,-0.64,-1.20,-0.64,-1.20,1.20,1.21,0.56,0.56,0.56
227,-0.62,-1.18,-0.60,-1.16,1.16,1.22,0.54,0.56,0.57
229,-0.52,-1.09,-0.56,-1.13,1.13,1.23,0.61,0.57,0.57
232,-0.51,-1.08,-0.53,-1.10,1.10,1.25,0.59,0.57,0.57
234,-0.51,-1.08,-0.51,-1.08,1.08,1.26,0.57,0.57,0.57
236,-0.50,-1.08,-0.49,-1.07,1.07,1.27,0.57,0.58,0.58
239,-0.48,-1.06,-0.47,-1.05,1.05,1.29,0.57,0.58,0.58
241,-0.47,-1.06,-0.45,-1.04,1.04,1.29,0.57,0.59,0.59
244,-0.45,-1.04,-0.43,-1.03,1.03,1.31,0.58,0.60,0.60
246,-0.43,-1.03,-0.41,-1.02,1.02,1.31,0.59,0.60,0.60
248,-0.41,-1.02,-0.40,-1.01,1.01,1.32,0.60,0.61,0.61
251,-0.39,-1.01,-0.40,-1.02,1.02,1.33,0.63,0.62,0.62
253,-0.37,-1.00,-0.40,-1.03,1.03,1.34,0.66,0.63,0.63
256,-0.34,-0.97,-0.42,-1.05,1.05,1.34,0.71,0.63,0.63
259,-0.36,-1.00,-0.44,-1.08,1.08,1.35,0.72,0.64,0.64
261,-0.51,-1.16,-0.46,-1.11,1.11,1.35,0.60,0.65,0.65
264,-0.57,-1.22,-0.49,-1.15,1.15,1.36,0.58,0.66,0.66
266,-0.55,-1.21,-0.52,-1.18,1.18,1.36,0.63,0.66,0.66
269,-0.55,-1.22,-0.54,-1.21,1.21,1.37,0.66,0.67,0.67
272,-0.55,-1.23,-0.55,-1.23,1.23,1.37,0.68,0.68,0.68
274,-0.56,-1.24,-0.55,-1.24,1.24,1.37,0.68,0.68,0.69
277,-0.56,-1.25,-0.56,-1.25,1.25,1.37,0.69,0.69,0.69
280,-0.56,-1.26,-0.56,-1.25,1.25,1.38,0.70,0.70,0.70
283,-0.56,-1.26,-0.56,-1.26,1.26,1.38,0.70,0.70,0.70
286,-0.55,-1.26,-0.56,-1.28,1.28,1.38,0.73,0.71,0.71
288,-0.54,-1.26,-0.58,-1.29,1.29,1.38,0.75,0.72,0.72
291,-0.51,-1.23,-0.59,-1.32,1.32,1.39,0.81,0.72,0.72
294,-0.65,-1.38,-0.62,-1.34,1.34,1.39,0.69,0.73,0.73
297,-0.73,-1.46,-0.64,-1.38,1.38,1.39,0.65,0.73,0.73
300,-0.70,-1.44,-0.67,-1.41,1.41,1.40,0.71,0.74,0.74
303,-0.68,-1.42,-0.70,-1.44,1.44,1.40,0.76,0.75,0.75
306,-0.67,-1.42,-0.73,-1.48,1.48,1.40,0.81,0.75,0.75
309,-0.73,-1.49,-0.75,-1.51,1.51,1.41,0.78,0.76,0.76
312,-0.77,-1.53,-0.78,-1.54,1.54,1.42,0.77,0.76,0.76
316,-0.85,-1.62,-0.80,-1.57,1.57,1.43,0.72,0.77,0.77
319,-0.85,-1.62,-0.82,-1.59,1.59,1.43,0.74,0.77,0.77
322,-0.85,-1.63,-0.83,-1.61,1.61,1.44,0.76,0.78,0.78
325,-0.85,-1.63,-0.85,-1.63,1.63,1.45,0.78,0.78,0.78
328,-0.85,-1.64,-0.86,-1.64,1.64,1.46,0.80,0.79,0.79
332,-0.84,-1.63,-0.87,-1.66,1.66,1.48,0.82,0.79,0.79
335,-0.84,-1.63,-0.89,-1.68,1.68,1.49,0.84,0.79,0.79
338,-0.93,-1.73,-0.91,-1.71,1.71,1.50,0.78,0.80,0.80
342,-0.96,-1.76,-0.93,-1.73,1.73,1.52,0.77,0.80,0.80
345,-0.96,-1.76,-0.96,-1.76,1.76,1.54,0.80,0.81,0.81
349,-0.96,-1.77,-0.99,-1.80,1.80,1.56,0.84,0.81,0.81
352,-0.98,-1.79,-1.02,-1.83,1.83,1.57,0.85,0.81,0.81
356,-1.07,-1.88,-1.04,-1.86,1.86,1.60,0.79,0.81,0.81
359,-1.05,-1.86,-1.06,-1.88,1.88,1.62,0.83,0.81,0.81
363,-1.10,-1.92,-1.07,-1.89,1.89,1.64,0.79,0.82,0.82
366,-1.14,-1.96,-1.08,-1.90,1.90,1.66,0.76,0.82,0.82
370,-1.14,-1.96,-1.07,-1.89,1.89,1.69,0.75,0.82,0.82
374,-1.04,-1.86,-1.06,-1.88,1.88,1.72,0.84,0.82,0.82
377,-1.02,-1.84,-1.05,-1.87,1.87,1.74,0.85,0.82,0.82
381,-1.01,-1.83,-1.04,-1.86,1.86,1.77,0.85,0.83,0.83
385,-1.01,-1.84,-1.03,-1.86,1.86,1.80,0.85,0.83,0.83
389,-1.00,-1.83,-1.03,-1.86,1.86,1.83,0.86,0.83,0.83
393,-1.00,-1.84,-1.03,-1.87,1.87,1.87,0.87,0.84,0.84
397,-1.06,-1.91,-1.05,-1.89,1.89,1.90,0.83,0.85,0.85
401,-1.10,-1.96,-1.06,-1.92,1.92,1.93,0.82,0.86,0.86
405,-1.10,-1.97,-1.08,-1.94,1.94,1.97,0.85,0.87,0.87
409,-1.10,-1.98,-1.09,-1.98,1.98,2.00,0.88,0.88,0.88
413,-1.11,-2.01,-1.11,-2.01,2.01,2.04,0.90,0.90,0.90
417,-1.11,-2.03,-1.12,-2.04,2.04,2.07,0.93,0.92,0.92
421,-1.10,-2.04,-1.13,-2.07,2.07,2.10,0.98,0.94,0.94
425,-1.10,-2.06,-1.14,-2.11,2.11,2.14,1.01,0.97,0.97
430,-1.17,-2.16,-1.14,-2.14,2.14,2.18,0.97,0.99,0.99
434,-1.17,-2.19,-1.13,-2.16,2.16,2.21,0.99,1.03,1.02
438,-1.14,-2.20,-1.12,-2.18,2.18,2.24,1.04,1.06,1.06
443,-1.11,-2.20,-1.09,-2.19,2.19,2.28,1.08,1.10,1.09
447,-1.06,-2.19,-1.05,-2.19,2.19,2.31,1.13,1.13,1.13
451,-1.01,-2.18,-1.01,-2.18,2.18,2.33,1.17,1.17,1.17
456,-0.95,-2.16,-0.95,-2.17,2.17,2.37,1.22,1.21,1.21
460,-0.89,-2.14,-0.89,-2.15,2.15,2.39,1.26,1.25,1.25
465,-0.83,-2.12,-0.83,-2.13,2.13,2.42,1.30,1.30,1.30
470,-0.77,-2.10,-0.77,-2.11,2.11,2.45,1.34,1.34,1.34
474,-0.71,-2.08,-0.72,-2.09,2.09,2.46,1.38,1.37,1.37
479,-0.66,-2.07,-0.66,-2.07,2.07,2.49,1.41,1.41,1.41
484,-0.61,-2.05,-0.61,-2.06,2.06,2.50,1.45,1.44,1.45
489,-0.57,-2.05,-0.57,-2.05,2.05,2.52,1.48,1.48,1.48
494,-0.53,-2.03,-0.53,-2.04,2.04,2.53,1.51,1.50,1.50
499,-0.51,-2.04,-0.50,-2.03,2.03,2.54,1.52,1.53,1.53
504,-0.48,-2.03,-0.48,-2.02,2.02,2.55,1.54,1.55,1.55
509,-0.46,-2.02,-0.46,-2.02,2.02,2.55,1.56,1.56,1.56
514,-0.45,-2.02,-0.45,-2.02,2.02,2.56,1.57,1.57,1.57
519,-0.45,-2.03,-0.45,-2.02,2.02,2.56,1.57,1.58,1.58
524,-0.45,-2.03,-0.45,-2.03,2.03,2.55,1.58,1.58,1.58
529,-0.46,-2.04,-0.47,-2.04,2.04,2.55,1.58,1.58,1.58
535,-0.48,-2.05,-0.49,-2.06,2.06,2.54,1.58,1.57,1.57
540,-0.51,-2.07,-0.52,-2.09,2.09,2.53,1.58,1.57,1.57
545,-0.55,-2.11,-0.56,-2.12,2.12,2.52,1.57,1.56,1.56
551,-0.60,-2.14,-0.60,-2.15,2.15,2.51,1.55,1.55,1.55
556,-0.65,-2.18,-0.65,-2.18,2.18,2.50,1.53,1.53,1.53
562,-0.70,-2.22,-0.69,-2.21,2.21,2.48,1.51,1.52,1.52
568,-0.75,-2.26,-0.73,-2.24,2.24,2.47,1.49,1.51,1.51
573,-0.79,-2.29,-0.76,-2.26,2.26,2.45,1.47,1.51,1.50
579,-0.83,-2.33,-0.79,-2.29,2.29,2.44,1.46,1.50,1.50
585,-0.85,-2.34,-0.81,-2.31,2.31,2.42,1.46,1.50,1.50
591,-0.87,-2.36,-0.85,-2.34,2.34,2.40,1.47,1.50,1.49
596,-0.87,-2.37,-0.89,-2.39,2.39,2.39,1.52,1.50,1.50
602,-0.87,-2.37,-0.95,-2.46,2.46,2.37,1.59,1.51,1.51
608,-0.96,-2.48,-1.04,-2.56,2.56,2.36,1.60,1.52,1.52
615,-1.05,-2.58,-1.15,-2.68,2.68,2.34,1.63,1.53,1.53
621,-1.18,-2.73,-1.27,-2.82,2.82,2.33,1.64,1.55,1.55
627,-1.43,-3.00,-1.39,-2.97,2.97,2.32,1.54,1.57,1.57
633,-1.51,-3.11,-1.51,-3.11,3.11,2.31,1.60,1.60,1.60
639,-1.64,-3.27,-1.60,-3.23,3.23,2.30,1.59,1.63,1.63
646,-1.78,-3.44,-1.65,-3.31,3.31,2.29,1.53,1.66,1.66
652,-1.83,-3.52,-1.67,-3.36,3.36,2.28,1.53,1.69,1.69
659,-1.72,-3.44,-1.63,-3.36,3.36,2.28,1.64,1.72,1.72
665,-1.55,-3.31,-1.56,-3.32,3.32,2.27,1.77,1.76,1.76
672,-1.40,-3.19,-1.46,-3.25,3.25,2.27,1.85,1.79,1.79
679,-1.30,-3.13,-1.33,-3.16,3.16,2.27,1.86,1.83,1.83
686,-1.20,-3.06,-1.21,-3.06,3.06,2.27,1.87,1.86,1.86
692,-1.04,-2.93,-1.08,-2.97,2.97,2.28,1.93,1.89,1.89
699,-0.91,-2.83,-0.97,-2.89,2.89,2.28,1.98,1.92,1.92
706,-0.83,-2.78,-0.88,-2.83,2.83,2.29,2.00,1.95,1.95
713,-0.82,-2.80,-0.81,-2.79,2.79,2.30,1.97,1.98,1.98
721,-0.83,-2.83,-0.77,-2.77,2.77,2.31,1.94,2.00,2.00
728,-0.72,-2.74,-0.74,-2.76,2.76,2.32,2.04,2.02,2.02
735,-0.67,-2.71,-0.73,-2.77,2.77,2.34,2.10,2.04,2.04
742,-0.70,-2.76,-0.73,-2.79,2.79,2.35,2.09,2.06,2.06
750,-0.73,-2.81,-0.74,-2.81,2.81,2.37,2.08,2.08,2.08
757,-0.76,-2.85,-0.74,-2.83,2.83,2.39,2.08,2.09,2.09
765,-0.78,-2.88,-0.75,-2.85,2.85,2.41,2.07,2.10,2.10
773,-0.80,-2.91,-0.75,-2.86,2.86,2.43,2.06,2.12,2.12
780,-0.81,-2.93,-0.74,-2.86,2.86,2.46,2.05,2.13,2.13
788,-0.73,-2.86,-0.72,-2.85,2.85,2.48,2.13,2.13,2.13
796,-0.68,-2.82,-0.70,-2.84,2.84,2.51,2.16,2.14,2.14
804,-0.61,-2.76,-0.67,-2.82,2.82,2.53,2.21,2.15,2.15
812,-0.60,-2.76,-0.64,-2.80,2.80,2.56,2.20,2.16,2.16
820,-0.60,-2.76,-0.61,-2.78,2.78,2.59,2.18,2.17,2.16
828,-0.60,-2.77,-0.58,-2.76,2.76,2.62,2.16,2.17,2.17
837,-0.60,-2.78,-0.56,-2.74,2.74,2.65,2.14,2.18,2.18
845,-0.54,-2.72,-0.53,-2.72,2.72,2.67,2.18,2.19,2.19
853,-0.50,-2.69,-0.51,-2.70,2.70,2.70,2.20,2.19,2.19
862,-0.51,-2.71,-0.48,-2.68,2.68,2.72,2.17,2.20,2.20
871,-0.42,-2.63,-0.45,-2.66,2.66,2.75,2.24,2.21,2.21
879,-0.42,-2.63,-0.42,-2.64,2.64,2.77,2.22,2.22,2.22
888,-0.37,-2.59,-0.39,-2.61,2.61,2.79,2.25,2.22,2.22
897,-0.34,-2.57,-0.36,-2.59,2.59,2.81,2.25,2.23,2.23
906,-0.34,-2.58,-0.33,-2.57,2.57,2.83,2.23,2.24,2.24
915,-0.35,-2.60,-0.29,-2.54,2.54,2.84,2.19,2.25,2.25
924,-0.32,-2.58,-0.26,-2.52,2.52,2.85,2.20,2.26,2.26
933,-0.15,-2.42,-0.22,-2.49,2.49,2.85,2.34,2.27,2.27
943,-0.15,-2.43,-0.19,-2.47,2.47,2.85,2.32,2.28,2.28
952,-0.15,-2.44,-0.15,-2.45,2.45,2.85,2.30,2.29,2.29
962,-0.14,-2.45,-0.12,-2.42,2.42,2.84,2.28,2.31,2.31
971,-0.04,-2.36,-0.08,-2.40,2.40,2.83,2.36,2.32,2.32
981,-0.03,-2.37,-0.04,-2.38,2.38,2.81,2.35,2.34,2.34
991,-0.01,-2.36,0.00,-2.35,2.35,2.78,2.34,2.36,2.36
1001,0.00,-2.37,0.06,-2.32,2.32,2.75,2.32,2.37,2.37
1011,0.04,-2.35,0.12,-2.28,2.28,2.72,2.32,2.39,2.39
1021,0.25,-2.17,0.18,-2.23,2.23,2.68,2.48,2.42,2.42
1031,0.28,-2.16,0.26,-2.18,2.18,2.63,2.46,2.44,2.44
1041,0.30,-2.16,0.34,-2.13,2.13,2.58,2.43,2.47,2.47
1052,0.44,-2.05,0.43,-2.07,2.07,2.52,2.51,2.49,2.49
1062,0.52,-2.00,0.51,-2.01,2.01,2.46,2.53,2.52,2.52
1073,0.62,-1.93,0.60,-1.95,1.95,2.39,2.57,2.55,2.55
1084,0.67,-1.91,0.69,-1.90,1.90,2.32,2.57,2.58,2.58
1094,0.75,-1.86,0.77,-1.85,1.85,2.25,2.60,2.62,2.62
1105,0.88,-1.77,0.85,-1.80,1.80,2.17,2.68,2.65,2.65
1116,0.95,-1.73,0.93,-1.75,1.75,2.09,2.70,2.68,2.68
1128,1.02,-1.70,1.02,-1.70,1.70,1.99,2.72,2.72,2.72
1139,1.09,-1.66,1.10,-1.65,1.65,1.90,2.74,2.75,2.75
1150,1.17,-1.61,1.18,-1.60,1.60,1.81,2.77,2.78,2.78
1162,1.26,-1.56,1.27,-1.54,1.54,1.71,2.81,2.82,2.82
1173,1.35,-1.50,1.37,-1.48,1.48,1.62,2.83,2.85,2.85
1185,1.45,-1.43,1.46,-1.42,1.42,1.52,2.87,2.88,2.88
1197,1.56,-1.35,1.56,-1.35,1.35,1.41,2.91,2.91,2.91
1209,1.67,-1.26,1.66,-1.27,1.27,1.31,2.94,2.94,2.94
1221,1.79,-1.17,1.77,-1.19,1.19,1.20,2.98,2.96,2.96
1233,1.92,-1.06,1.87,-1.11,1.11,1.10,3.03,2.98,2.98
1246,1.97,-1.03,1.98,-1.02,1.02,0.98,2.99,3.00,3.00
1258,2.07,-0.94,2.09,-0.93,0.93,0.88,3.00,3.01,3.02
1271,2.16,-0.87,2.20,-0.83,0.83,0.77,2.99,3.03,3.03
1283,2.27,-0.77,2.31,-0.72,0.72,0.66,3.00,3.04,3.04
1296,2.42,-0.62,2.43,-0.62,0.62,0.55,3.04,3.04,3.04
1309,2.57,-0.48,2.54,-0.50,0.50,0.44,3.07,3.05,3.05
1322,2.72,-0.33,2.66,-0.39,0.39,0.32,3.11,3.05,3.05
1335,2.78,-0.27,2.77,-0.27,0.27,0.21,3.05,3.05,3.05
1349,2.88,-0.16,2.89,-0.15,0.15,0.10,3.04,3.04,3.04
1362,2.97,-0.06,3.00,-0.04,0.04,-0.01,3.01,3.04,3.04
1376,3.12,0.09,3.11,0.08,-0.08,-0.13,3.04,3.03,3.03
1390,3.19,0.17,3.22,0.20,-0.20,-0.25,2.99,3.02,3.02
1404,3.31,0.30,3.33,0.32,-0.32,-0.36,2.99,3.01,3.01
1418,3.44,0.44,3.44,0.44,-0.44,-0.48,3.00,3.00,3.00
1432,3.57,0.58,3.55,0.56,-0.56,-0.59,3.02,2.99,2.99
1446,3.70,0.71,3.65,0.67,-0.67,-0.71,3.03,2.99,2.99
1461,3.81,0.83,3.76,0.77,-0.77,-0.83,3.04,2.98,2.98
1475,3.82,0.84,3.86,0.88,-0.88,-0.94,2.94,2.98,2.98
1490,3.92,0.94,3.95,0.98,-0.98,-1.06,2.94,2.98,2.98
1505,4.01,1.03,4.05,1.07,-1.07,-1.18,2.94,2.98,2.98
1520,4.10,1.12,4.15,1.16,-1.16,-1.29,2.94,2.98,2.98
1535,4.28,1.29,4.24,1.25,-1.25,-1.41,3.03,2.99,2.99
1550,4.35,1.34,4.33,1.32,-1.32,-1.53,3.03,3.01,3.01
1566,4.41,1.38,4.41,1.39,-1.39,-1.65,3.03,3.03,3.03
1582,4.54,1.49,4.49,1.44,-1.44,-1.77,3.10,3.05,3.05
1597,4.64,1.56,4.57,1.48,-1.48,-1.88,3.16,3.08,3.08
1613,4.70,1.59,4.64,1.52,-1.52,-2.00,3.18,3.12,3.12
1629,4.68,1.53,4.72,1.57,-1.57,-2.11,3.11,3.16,3.16
1646,4.73,1.53,4.82,1.62,-1.62,-2.23,3.12,3.20,3.20
1662,4.85,1.60,4.93,1.67,-1.67,-2.34,3.18,3.25,3.25
1679,4.97,1.66,5.06,1.75,-1.75,-2.46,3.22,3.31,3.31
1696,5.17,1.80,5.20,1.83,-1.83,-2.57,3.34,3.37,3.37
1713,5.42,1.98,5.36,1.92,-1.92,-2.68,3.50,3.44,3.44
1730,5.62,2.11,5.53,2.02,-2.02,-2.78,3.60,3.51,3.51
1747,5.79,2.20,5.71,2.12,-2.12,-2.88,3.67,3.59,3.59
1764,5.89,2.22,5.88,2.22,-2.22,-2.98,3.67,3.67,3.67
1782,5.99,2.24,6.06,2.31,-2.31,-3.08,3.68,3.75,3.75
1800,6.14,2.30,6.24,2.40,-2.40,-3.17,3.74,3.84,3.84
1818,6.50,2.57,6.42,2.49,-2.49,-3.25,4.01,3.93,3.93
1836,6.62,2.60,6.60,2.58,-2.58,-3.33,4.04,4.02,4.03
1854,6.75,2.63,6.78,2.66,-2.66,-3.40,4.09,4.12,4.12
1873,6.97,2.75,6.96,2.74,-2.74,-3.47,4.23,4.22,4.22
1892,7.10,2.78,7.14,2.82,-2.82,-3.54,4.29,4.32,4.32
1911,7.34,2.91,7.31,2.89,-2.89,-3.59,4.45,4.43,4.43
1930,7.61,3.08,7.49,2.95,-2.95,-3.63,4.66,4.53,4.53
1949,7.73,3.09,7.67,3.02,-3.02,-3.67,4.71,4.64,4.64
1969,7.80,3.05,7.85,3.09,-3.09,-3.70,4.71,4.75,4.75
1988,7.92,3.05,8.04,3.17,-3.17,-3.72,4.75,4.87,4.87
2008,8.13,3.15,8.25,3.26,-3.26,-3.73,4.87,4.98,4.98
