frequency,raw,smoothed,error,error_smoothed,equalization,parametric_eq,fixed_band_eq,equalized_raw,equalized_smoothed,target
20.00,5.33,5.32,-0.56,-0.57,0.58,0.05,-0.24,5.91,5.91,5.90
20.20,5.34,5.35,-0.55,-0.54,0.54,0.04,-0.24,5.88,5.90,5.90
20.40,5.39,5.39,-0.50,-0.51,0.50,0.03,-0.25,5.89,5.89,5.89
20.61,5.42,5.42,-0.47,-0.47,0.46,0.02,-0.26,5.88,5.89,5.89
20.81,5.46,5.46,-0.43,-0.43,0.42,0.01,-0.26,5.88,5.89,5.89
21.02,5.51,5.50,-0.38,-0.39,0.38,0.00,-0.27,5.89,5.89,5.89
21.23,5.54,5.55,-0.35,-0.34,0.34,-0.01,-0.28,5.89,5.89,5.89
21.44,5.59,5.59,-0.30,-0.30,0.31,-0.02,-0.29,5.90,5.89,5.89
21.66,5.63,5.63,-0.26,-0.26,0.26,-0.03,-0.29,5.90,5.89,5.89
21.87,5.66,5.67,-0.23,-0.22,0.22,-0.04,-0.30,5.89,5.89,5.89
22.09,5.71,5.70,-0.18,-0.18,0.18,-0.05,-0.31,5.90,5.89,5.89
22.31,5.74,5.74,-0.15,-0.15,0.15,-0.07,-0.32,5.89,5.89,5.89
22.54,5.77,5.78,-0.12,-0.11,0.11,-0.08,-0.33,5.88,5.88,5.89
22.76,5.81,5.81,-0.07,-0.07,0.07,-0.09,-0.34,5.88,5.88,5.89
22.99,5.85,5.85,-0.03,-0.03,0.03,-0.10,-0.35,5.89,5.88,5.88
23.22,5.89,5.89,0.01,0.00,-0.00,-0.11,-0.36,5.89,5.89,5.88
23.45,5.92,5.92,0.04,0.04,-0.04,-0.12,-0.36,5.89,5.88,5.88
23.69,5.95,5.95,0.07,0.07,-0.07,-0.14,-0.37,5.88,5.88,5.88
23.92,5.98,5.98,0.10,0.10,-0.10,-0.15,-0.38,5.88,5.88,5.88
24.16,6.02,6.02,0.14,0.14,-0.14,-0.16,-0.40,5.89,5.88,5.88
24.40,6.04,6.05,0.16,0.17,-0.17,-0.17,-0.41,5.87,5.88,5.88
24.65,6.08,6.07,0.20,0.20,-0.20,-0.18,-0.42,5.88,5.87,5.88
24.89,6.09,6.10,0.22,0.23,-0.23,-0.20,-0.43,5.86,5.87,5.88
25.14,6.13,6.13,0.26,0.26,-0.26,-0.21,-0.44,5.87,5.87,5.87
25.39,6.17,6.16,0.30,0.29,-0.29,-0.22,-0.45,5.88,5.87,5.87
25.65,6.18,6.19,0.31,0.32,-0.32,-0.23,-0.46,5.86,5.87,5.87
25.91,6.22,6.22,0.35,0.35,-0.35,-0.25,-0.47,5.87,5.87,5.87
26.16,6.24,6.24,0.37,0.37,-0.38,-0.26,-0.48,5.86,5.87,5.87
26.43,6.27,6.27,0.40,0.40,-0.41,-0.27,-0.49,5.86,5.87,5.87
26.69,6.30,6.30,0.44,0.43,-0.43,-0.29,-0.50,5.87,5.87,5.86
26.96,6.32,6.32,0.46,0.46,-0.46,-0.30,-0.52,5.86,5.86,5.86
27.23,6.36,6.35,0.50,0.49,-0.49,-0.31,-0.53,5.87,5.86,5.86
27.50,6.36,6.37,0.50,0.51,-0.51,-0.32,-0.54,5.85,5.86,5.86
27.77,6.40,6.39,0.54,0.54,-0.53,-0.34,-0.55,5.87,5.86,5.86
28.05,6.41,6.41,0.56,0.56,-0.56,-0.35,-0.56,5.85,5.86,5.86
28.33,6.43,6.43,0.58,0.58,-0.58,-0.36,-0.57,5.85,5.85,5.85
28.62,6.46,6.45,0.61,0.60,-0.60,-0.38,-0.58,5.86,5.85,5.85
28.90,6.46,6.47,0.61,0.62,-0.63,-0.39,-0.59,5.84,5.84,5.85
29.19,6.50,6.49,0.65,0.65,-0.65,-0.41,-0.60,5.85,5.85,5.85
29.48,6.50,6.52,0.66,0.67,-0.67,-0.42,-0.61,5.83,5.85,5.84
29.78,6.55,6.53,0.71,0.69,-0.69,-0.43,-0.61,5.86,5.84,5.84
30.08,6.55,6.55,0.71,0.71,-0.71,-0.45,-0.62,5.84,5.84,5.84
30.38,6.55,6.57,0.71,0.74,-0.73,-0.46,-0.63,5.82,5.84,5.84
30.68,6.60,6.58,0.77,0.75,-0.75,-0.47,-0.64,5.85,5.83,5.83
30.99,6.60,6.60,0.77,0.77,-0.77,-0.49,-0.64,5.83,5.83,5.83
31.30,6.60,6.62,0.77,0.79,-0.79,-0.50,-0.65,5.82,5.83,5.83
31.61,6.64,6.63,0.82,0.80,-0.80,-0.52,-0.65,5.84,5.82,5.82
31.93,6.64,6.64,0.82,0.81,-0.82,-0.53,-0.66,5.82,5.82,5.82
32.24,6.64,6.65,0.82,0.83,-0.83,-0.54,-0.66,5.81,5.82,5.82
32.57,6.65,6.66,0.84,0.85,-0.85,-0.56,-0.67,5.80,5.81,5.81
32.89,6.69,6.68,0.88,0.87,-0.87,-0.57,-0.67,5.82,5.81,5.81
33.22,6.69,6.69,0.88,0.88,-0.88,-0.59,-0.68,5.81,5.80,5.81
33.55,6.69,6.70,0.89,0.90,-0.90,-0.60,-0.68,5.79,5.80,5.80
33.89,6.70,6.71,0.90,0.91,-0.91,-0.61,-0.68,5.79,5.80,5.80
34.23,6.74,6.73,0.95,0.93,-0.93,-0.63,-0.68,5.81,5.80,5.79
34.57,6.74,6.74,0.95,0.95,-0.94,-0.64,-0.69,5.80,5.80,5.79
34.92,6.74,6.74,0.95,0.96,-0.95,-0.66,-0.69,5.79,5.79,5.79
35.27,6.74,6.74,0.96,0.96,-0.96,-0.67,-0.69,5.78,5.78,5.78
35.62,6.74,6.74,0.96,0.97,-0.98,-0.69,-0.69,5.76,5.77,5.78
35.97,6.75,6.75,0.98,0.98,-0.99,-0.70,-0.70,5.76,5.76,5.77
36.33,6.76,6.76,1.00,1.00,-1.00,-0.71,-0.70,5.76,5.76,5.77
36.70,6.78,6.77,1.02,1.01,-1.01,-0.73,-0.70,5.77,5.77,5.76
37.06,6.78,6.78,1.03,1.03,-1.02,-0.74,-0.70,5.76,5.76,5.75
37.43,6.78,6.78,1.03,1.03,-1.03,-0.76,-0.70,5.75,5.75,5.75
37.81,6.78,6.78,1.04,1.04,-1.04,-0.77,-0.71,5.74,5.74,5.74
38.19,6.78,6.78,1.04,1.04,-1.05,-0.78,-0.71,5.73,5.73,5.74
38.57,6.78,6.78,1.05,1.05,-1.05,-0.80,-0.71,5.73,5.73,5.73
38.95,6.78,6.78,1.06,1.06,-1.06,-0.81,-0.72,5.72,5.72,5.72
39.34,6.78,6.78,1.06,1.06,-1.07,-0.82,-0.72,5.71,5.71,5.72
39.74,6.78,6.78,1.07,1.07,-1.07,-0.84,-0.72,5.71,5.71,5.71
40.14,6.78,6.78,1.08,1.08,-1.08,-0.85,-0.73,5.70,5.70,5.70
40.54,6.78,6.78,1.09,1.09,-1.09,-0.87,-0.73,5.69,5.69,5.69
40.94,6.78,6.78,1.10,1.10,-1.09,-0.88,-0.74,5.69,5.69,5.69
41.35,6.78,6.78,1.10,1.10,-1.10,-0.89,-0.75,5.69,5.69,5.68
41.76,6.78,6.77,1.11,1.11,-1.10,-0.91,-0.75,5.68,5.67,5.67
42.18,6.76,6.76,1.10,1.10,-1.10,-0.92,-0.76,5.66,5.66,5.66
42.60,6.74,6.75,1.09,1.10,-1.11,-0.93,-0.77,5.63,5.64,5.65
43.03,6.74,6.74,1.10,1.10,-1.11,-0.95,-0.78,5.63,5.63,5.64
43.46,6.74,6.74,1.11,1.11,-1.11,-0.96,-0.79,5.63,5.62,5.63
43.90,6.74,6.75,1.12,1.13,-1.12,-0.97,-0.80,5.62,5.63,5.62
44.33,6.74,6.74,1.13,1.13,-1.12,-0.98,-0.81,5.62,5.62,5.61
44.78,6.74,6.72,1.14,1.13,-1.12,-1.00,-0.82,5.62,5.60,5.60
45.23,6.69,6.71,1.11,1.12,-1.13,-1.01,-0.83,5.57,5.58,5.59
45.68,6.69,6.70,1.12,1.12,-1.13,-1.02,-0.84,5.56,5.57,5.57
46.13,6.69,6.69,1.13,1.13,-1.13,-1.03,-0.85,5.56,5.56,5.56
46.60,6.69,6.68,1.14,1.13,-1.13,-1.04,-0.87,5.56,5.55,5.55
47.06,6.66,6.66,1.13,1.13,-1.13,-1.06,-0.88,5.53,5.54,5.53
47.53,6.64,6.65,1.12,1.13,-1.13,-1.07,-0.89,5.51,5.52,5.52
48.01,6.64,6.64,1.13,1.13,-1.13,-1.08,-0.91,5.51,5.50,5.51
48.49,6.64,6.63,1.15,1.13,-1.14,-1.09,-0.92,5.50,5.49,5.49
48.97,6.60,6.62,1.12,1.14,-1.14,-1.10,-0.94,5.46,5.48,5.48
49.46,6.60,6.60,1.14,1.14,-1.14,-1.11,-0.96,5.46,5.46,5.46
49.96,6.60,6.58,1.16,1.14,-1.14,-1.12,-0.97,5.46,5.44,5.44
50.46,6.56,6.58,1.13,1.15,-1.14,-1.13,-0.99,5.42,5.43,5.43
50.96,6.55,6.55,1.14,1.14,-1.14,-1.14,-1.01,5.41,5.41,5.41
51.47,6.55,6.53,1.16,1.14,-1.14,-1.15,-1.02,5.41,5.39,5.39
51.99,6.50,6.52,1.13,1.14,-1.15,-1.16,-1.04,5.36,5.37,5.37
52.51,6.50,6.50,1.15,1.14,-1.15,-1.17,-1.06,5.36,5.35,5.35
53.03,6.48,6.48,1.15,1.15,-1.15,-1.18,-1.08,5.33,5.33,5.33
53.56,6.46,6.46,1.15,1.15,-1.15,-1.19,-1.10,5.31,5.32,5.31
54.10,6.45,6.44,1.16,1.15,-1.15,-1.20,-1.12,5.30,5.30,5.29
54.64,6.41,6.42,1.14,1.15,-1.15,-1.20,-1.13,5.26,5.27,5.27
55.18,6.41,6.40,1.16,1.15,-1.15,-1.21,-1.15,5.26,5.25,5.25
55.74,6.36,6.37,1.14,1.15,-1.15,-1.22,-1.17,5.21,5.22,5.22
56.29,6.36,6.35,1.16,1.15,-1.15,-1.23,-1.19,5.21,5.20,5.20
56.86,6.32,6.33,1.15,1.15,-1.16,-1.23,-1.21,5.16,5.17,5.18
57.42,6.32,6.31,1.17,1.16,-1.16,-1.24,-1.22,5.16,5.15,5.15
58.00,6.28,6.28,1.16,1.16,-1.16,-1.25,-1.24,5.12,5.12,5.12
58.58,6.27,6.26,1.17,1.17,-1.17,-1.25,-1.26,5.10,5.10,5.10
59.16,6.22,6.23,1.15,1.17,-1.17,-1.26,-1.27,5.05,5.06,5.07
59.76,6.22,6.21,1.18,1.17,-1.17,-1.26,-1.29,5.05,5.04,5.04
60.35,6.18,6.19,1.17,1.18,-1.18,-1.27,-1.30,5.00,5.01,5.01
60.96,6.17,6.16,1.19,1.18,-1.18,-1.27,-1.31,4.99,4.98,4.98
61.57,6.13,6.13,1.18,1.18,-1.18,-1.28,-1.32,4.95,4.95,4.95
62.18,6.09,6.10,1.18,1.19,-1.19,-1.28,-1.34,4.90,4.91,4.91
62.80,6.08,6.07,1.20,1.19,-1.19,-1.28,-1.35,4.89,4.88,4.88
63.43,6.04,6.05,1.19,1.20,-1.20,-1.29,-1.36,4.84,4.85,4.85
64.07,6.02,6.02,1.21,1.21,-1.20,-1.29,-1.37,4.82,4.82,4.81
64.71,5.99,5.99,1.21,1.21,-1.21,-1.29,-1.38,4.78,4.78,4.78
65.35,5.95,5.96,1.21,1.22,-1.22,-1.30,-1.38,4.73,4.74,4.74
66.01,5.92,5.92,1.22,1.22,-1.22,-1.30,-1.39,4.70,4.70,4.70
66.67,5.90,5.89,1.24,1.23,-1.23,-1.30,-1.40,4.67,4.66,4.66
67.33,5.86,5.86,1.24,1.24,-1.24,-1.31,-1.40,4.62,4.62,4.62
68.01,5.83,5.83,1.25,1.25,-1.25,-1.31,-1.41,4.58,4.58,4.58
68.69,5.80,5.80,1.26,1.26,-1.26,-1.31,-1.42,4.54,4.54,4.54
69.37,5.76,5.76,1.26,1.27,-1.27,-1.32,-1.42,4.49,4.50,4.50
70.07,5.73,5.73,1.28,1.28,-1.28,-1.32,-1.43,4.45,4.45,4.45
70.77,5.70,5.70,1.29,1.29,-1.29,-1.33,-1.43,4.41,4.41,4.41
71.48,5.66,5.66,1.30,1.30,-1.30,-1.33,-1.44,4.36,4.36,4.36
72.19,5.62,5.63,1.31,1.31,-1.31,-1.34,-1.44,4.31,4.31,4.31
72.91,5.59,5.59,1.33,1.33,-1.33,-1.35,-1.45,4.26,4.26,4.26
73.64,5.56,5.56,1.34,1.34,-1.34,-1.35,-1.46,4.22,4.22,4.22
74.38,5.52,5.52,1.36,1.35,-1.35,-1.36,-1.46,4.17,4.17,4.17
75.12,5.48,5.48,1.37,1.37,-1.37,-1.37,-1.47,4.11,4.12,4.11
75.87,5.44,5.44,1.38,1.38,-1.38,-1.38,-1.48,4.06,4.06,4.06
76.63,5.41,5.40,1.40,1.39,-1.40,-1.40,-1.49,4.01,4.01,4.01
77.40,5.36,5.36,1.41,1.41,-1.41,-1.41,-1.50,3.95,3.95,3.95
78.17,5.32,5.33,1.42,1.43,-1.43,-1.42,-1.51,3.89,3.90,3.90
78.95,5.29,5.29,1.45,1.44,-1.45,-1.44,-1.52,3.84,3.84,3.84
79.74,5.25,5.25,1.47,1.47,-1.46,-1.46,-1.53,3.79,3.79,3.79
80.54,5.21,5.21,1.48,1.49,-1.48,-1.47,-1.54,3.73,3.73,3.73
81.35,5.18,5.17,1.51,1.50,-1.50,-1.49,-1.56,3.68,3.67,3.67
82.16,5.12,5.13,1.51,1.52,-1.52,-1.51,-1.57,3.60,3.61,3.61
82.98,5.09,5.09,1.54,1.54,-1.54,-1.53,-1.59,3.55,3.55,3.55
83.81,5.04,5.04,1.56,1.56,-1.56,-1.55,-1.61,3.48,3.48,3.48
84.65,5.00,5.00,1.58,1.58,-1.58,-1.57,-1.63,3.42,3.42,3.42
85.50,4.95,4.95,1.59,1.60,-1.60,-1.60,-1.65,3.35,3.36,3.36
86.35,4.92,4.91,1.63,1.62,-1.62,-1.62,-1.67,3.30,3.29,3.29
87.22,4.86,4.87,1.63,1.64,-1.64,-1.64,-1.69,3.22,3.23,3.23
88.09,4.83,4.83,1.67,1.67,-1.66,-1.67,-1.72,3.17,3.16,3.16
88.97,4.78,4.78,1.68,1.69,-1.69,-1.69,-1.74,3.09,3.09,3.10
89.86,4.75,4.74,1.72,1.71,-1.71,-1.72,-1.77,3.04,3.03,3.03
90.76,4.69,4.70,1.73,1.74,-1.74,-1.74,-1.80,2.95,2.96,2.96
91.66,4.66,4.66,1.77,1.76,-1.76,-1.76,-1.83,2.90,2.89,2.89
92.58,4.61,4.61,1.79,1.79,-1.79,-1.79,-1.86,2.82,2.82,2.82
93.51,4.57,4.57,1.82,1.82,-1.81,-1.81,-1.89,2.76,2.75,2.75
94.44,4.52,4.52,1.84,1.84,-1.84,-1.84,-1.93,2.68,2.68,2.68
95.39,4.47,4.48,1.86,1.86,-1.86,-1.86,-1.96,2.61,2.61,2.61
96.34,4.43,4.43,1.89,1.89,-1.89,-1.89,-2.00,2.54,2.54,2.54
97.30,4.38,4.38,1.91,1.91,-1.91,-1.91,-2.03,2.47,2.47,2.47
98.28,4.33,4.33,1.93,1.94,-1.94,-1.93,-2.07,2.39,2.40,2.40
99.26,4.29,4.29,1.97,1.96,-1.96,-1.96,-2.11,2.33,2.33,2.33
100.25,4.24,4.24,1.99,1.98,-1.99,-1.98,-2.15,2.25,2.25,2.25
101.25,4.19,4.19,2.01,2.01,-2.01,-2.00,-2.19,2.18,2.18,2.18
102.27,4.13,4.14,2.02,2.03,-2.03,-2.03,-2.23,2.10,2.11,2.11
103.29,4.10,4.09,2.07,2.06,-2.06,-2.05,-2.27,2.04,2.04,2.03
104.32,4.05,4.04,2.09,2.08,-2.08,-2.07,-2.31,1.97,1.96,1.96
105.37,3.99,4.00,2.10,2.11,-2.11,-2.10,-2.35,1.88,1.89,1.89
106.42,3.94,3.94,2.13,2.13,-2.13,-2.12,-2.39,1.81,1.81,1.82
107.48,3.90,3.89,2.16,2.15,-2.15,-2.14,-2.43,1.75,1.74,1.74
108.56,3.84,3.85,2.17,2.18,-2.18,-2.16,-2.47,1.66,1.67,1.67
109.64,3.80,3.80,2.20,2.20,-2.20,-2.19,-2.51,1.60,1.60,1.60
110.74,3.75,3.75,2.23,2.22,-2.22,-2.21,-2.54,1.53,1.52,1.52
111.85,3.69,3.70,2.24,2.24,-2.24,-2.23,-2.58,1.45,1.45,1.45
112.97,3.64,3.64,2.26,2.26,-2.26,-2.25,-2.61,1.38,1.38,1.38
114.10,3.59,3.59,2.28,2.28,-2.29,-2.28,-2.64,1.30,1.31,1.31
115.24,3.54,3.54,2.30,2.31,-2.31,-2.30,-2.67,1.23,1.24,1.24
116.39,3.50,3.49,2.33,2.33,-2.33,-2.32,-2.70,1.17,1.17,1.17
117.55,3.44,3.44,2.35,2.35,-2.34,-2.34,-2.73,1.10,1.10,1.10
118.73,3.39,3.39,2.37,2.36,-2.36,-2.36,-2.75,1.03,1.03,1.03
119.92,3.33,3.34,2.37,2.38,-2.38,-2.38,-2.77,0.95,0.96,0.96
121.12,3.29,3.28,2.40,2.40,-2.40,-2.40,-2.78,0.89,0.89,0.89
122.33,3.23,3.23,2.41,2.41,-2.41,-2.42,-2.79,0.82,0.82,0.82
123.55,3.17,3.18,2.42,2.43,-2.43,-2.44,-2.80,0.74,0.75,0.75
124.79,3.13,3.13,2.45,2.44,-2.45,-2.46,-2.81,0.69,0.68,0.68
126.03,3.08,3.08,2.46,2.46,-2.46,-2.47,-2.81,0.62,0.62,0.62
127.29,3.03,3.03,2.48,2.48,-2.47,-2.49,-2.81,0.56,0.56,0.55
128.57,2.98,2.98,2.49,2.49,-2.49,-2.51,-2.81,0.50,0.49,0.49
129.85,2.92,2.92,2.50,2.50,-2.50,-2.52,-2.80,0.42,0.43,0.42
131.15,2.87,2.87,2.51,2.51,-2.51,-2.53,-2.79,0.36,0.36,0.36
132.46,2.81,2.81,2.51,2.51,-2.52,-2.54,-2.77,0.29,0.29,0.30
133.79,2.76,2.76,2.52,2.52,-2.53,-2.55,-2.75,0.23,0.23,0.24
135.12,2.71,2.71,2.53,2.53,-2.53,-2.56,-2.73,0.18,0.18,0.18
136.48,2.66,2.66,2.54,2.54,-2.54,-2.57,-2.71,0.12,0.12,0.12
137.84,2.61,2.61,2.55,2.55,-2.55,-2.57,-2.69,0.07,0.07,0.06
139.22,2.56,2.56,2.56,2.56,-2.55,-2.58,-2.66,0.01,0.01,0.00
140.61,2.50,2.50,2.56,2.55,-2.55,-2.58,-2.63,-0.05,-0.05,-0.05
142.02,2.44,2.44,2.55,2.55,-2.55,-2.58,-2.60,-0.11,-0.11,-0.11
143.44,2.38,2.39,2.55,2.55,-2.56,-2.57,-2.57,-0.17,-0.17,-0.16
144.87,2.33,2.33,2.55,2.55,-2.55,-2.57,-2.54,-0.22,-0.22,-0.22
146.32,2.29,2.28,2.56,2.55,-2.55,-2.56,-2.51,-0.26,-0.27,-0.27
147.78,2.23,2.23,2.55,2.55,-2.55,-2.56,-2.48,-0.32,-0.32,-0.32
149.26,2.17,2.18,2.54,2.55,-2.55,-2.55,-2.44,-0.38,-0.37,-0.37
150.75,2.13,2.12,2.55,2.55,-2.55,-2.54,-2.41,-0.42,-0.42,-0.42
152.26,2.07,2.07,2.54,2.54,-2.54,-2.52,-2.38,-0.47,-0.47,-0.47
153.78,2.02,2.02,2.54,2.54,-2.54,-2.51,-2.34,-0.52,-0.52,-0.52
155.32,1.97,1.97,2.54,2.53,-2.54,-2.50,-2.31,-0.57,-0.57,-0.57
156.88,1.91,1.92,2.52,2.53,-2.53,-2.48,-2.28,-0.62,-0.61,-0.61
158.44,1.87,1.87,2.53,2.52,-2.52,-2.47,-2.25,-0.65,-0.66,-0.65
160.03,1.82,1.82,2.52,2.52,-2.52,-2.45,-2.22,-0.70,-0.70,-0.70
161.63,1.77,1.77,2.52,2.51,-2.51,-2.43,-2.19,-0.73,-0.74,-0.75
163.24,1.71,1.71,2.50,2.50,-2.49,-2.42,-2.17,-0.78,-0.79,-0.79
164.88,1.64,1.65,2.47,2.48,-2.48,-2.40,-2.14,-0.84,-0.83,-0.83
166.53,1.59,1.59,2.46,2.46,-2.47,-2.38,-2.11,-0.88,-0.88,-0.87
168.19,1.54,1.54,2.45,2.45,-2.46,-2.36,-2.09,-0.92,-0.92,-0.91
169.87,1.49,1.49,2.44,2.44,-2.44,-2.34,-2.07,-0.95,-0.95,-0.95
171.57,1.44,1.44,2.42,2.42,-2.43,-2.32,-2.05,-0.99,-0.99,-0.98
173.29,1.39,1.39,2.41,2.41,-2.41,-2.31,-2.03,-1.02,-1.02,-1.02
175.02,1.35,1.35,2.40,2.40,-2.39,-2.29,-2.01,-1.04,-1.05,-1.05
176.77,1.30,1.30,2.39,2.38,-2.38,-2.27,-2.00,-1.08,-1.08,-1.09
178.54,1.24,1.24,2.36,2.36,-2.36,-2.25,-1.98,-1.12,-1.12,-1.12
180.32,1.18,1.18,2.33,2.33,-2.34,-2.23,-1.97,-1.16,-1.16,-1.15
182.13,1.12,1.13,2.30,2.31,-2.32,-2.21,-1.96,-1.20,-1.19,-1.18
183.95,1.09,1.08,2.30,2.29,-2.30,-2.20,-1.95,-1.21,-1.22,-1.21
185.79,1.03,1.03,2.27,2.27,-2.27,-2.18,-1.94,-1.24,-1.24,-1.24
187.65,0.98,0.98,2.25,2.25,-2.25,-2.16,-1.93,-1.27,-1.27,-1.27
189.52,0.93,0.93,2.23,2.23,-2.23,-2.14,-1.93,-1.30,-1.30,-1.30
191.42,0.89,0.88,2.21,2.21,-2.21,-2.12,-1.93,-1.32,-1.32,-1.32
193.33,0.84,0.84,2.19,2.19,-2.19,-2.11,-1.92,-1.35,-1.35,-1.35
195.27,0.78,0.79,2.16,2.17,-2.17,-2.09,-1.92,-1.39,-1.37,-1.38
197.22,0.75,0.74,2.15,2.14,-2.14,-2.07,-1.92,-1.39,-1.40,-1.40
199.19,0.70,0.70,2.12,2.12,-2.12,-2.05,-1.92,-1.42,-1.42,-1.42
201.18,0.64,0.65,2.09,2.10,-2.10,-2.04,-1.92,-1.45,-1.44,-1.45
203.19,0.61,0.60,2.08,2.07,-2.07,-2.02,-1.93,-1.46,-1.47,-1.47
205.23,0.56,0.55,2.05,2.04,-2.04,-2.00,-1.93,-1.48,-1.49,-1.49
207.28,0.50,0.51,2.01,2.02,-2.02,-1.99,-1.94,-1.52,-1.51,-1.51
209.35,0.45,0.46,1.98,1.99,-1.99,-1.97,-1.94,-1.54,-1.53,-1.53
211.44,0.42,0.41,1.97,1.96,-1.96,-1.95,-1.95,-1.54,-1.55,-1.55
213.56,0.36,0.36,1.93,1.93,-1.93,-1.94,-1.95,-1.57,-1.57,-1.57
215.69,0.31,0.32,1.90,1.90,-1.91,-1.92,-1.96,-1.59,-1.59,-1.59
217.85,0.28,0.27,1.89,1.88,-1.88,-1.90,-1.96,-1.60,-1.61,-1.60
220.03,0.22,0.23,1.84,1.85,-1.85,-1.89,-1.97,-1.63,-1.62,-1.62
222.23,0.19,0.19,1.83,1.83,-1.82,-1.87,-1.97,-1.63,-1.63,-1.64
224.45,0.14,0.14,1.80,1.80,-1.79,-1.85,-1.98,-1.65,-1.65,-1.65
226.70,0.10,0.10,1.77,1.77,-1.77,-1.84,-1.98,-1.67,-1.67,-1.67
228.96,0.05,0.05,1.74,1.73,-1.74,-1.82,-1.98,-1.69,-1.69,-1.68
231.25,0.00,0.01,1.70,1.71,-1.72,-1.81,-1.99,-1.71,-1.71,-1.70
233.57,-0.03,-0.03,1.68,1.69,-1.69,-1.79,-1.99,-1.72,-1.72,-1.71
235.90,-0.06,-0.07,1.68,1.67,-1.66,-1.77,-1.99,-1.72,-1.73,-1.74
238.26,-0.11,-0.10,1.64,1.65,-1.64,-1.76,-1.99,-1.75,-1.74,-1.75
240.64,-0.15,-0.15,1.61,1.62,-1.61,-1.74,-1.98,-1.76,-1.76,-1.76
243.05,-0.18,-0.19,1.60,1.58,-1.59,-1.73,-1.98,-1.76,-1.78,-1.77
245.48,-0.24,-0.23,1.55,1.56,-1.56,-1.71,-1.97,-1.80,-1.79,-1.79
247.93,-0.27,-0.27,1.53,1.53,-1.53,-1.69,-1.96,-1.80,-1.80,-1.80
250.41,-0.30,-0.31,1.51,1.50,-1.50,-1.68,-1.95,-1.80,-1.81,-1.81
252.92,-0.35,-0.34,1.47,1.48,-1.48,-1.66,-1.94,-1.83,-1.82,-1.82
255.45,-0.38,-0.38,1.45,1.45,-1.45,-1.65,-1.93,-1.83,-1.83,-1.83
258.00,-0.41,-0.41,1.43,1.43,-1.42,-1.63,-1.91,-1.83,-1.84,-1.84
260.58,-0.45,-0.45,1.40,1.40,-1.40,-1.62,-1.89,-1.85,-1.85,-1.85
263.19,-0.49,-0.49,1.37,1.37,-1.37,-1.60,-1.88,-1.86,-1.86,-1.86
265.82,-0.53,-0.52,1.34,1.35,-1.35,-1.58,-1.86,-1.88,-1.87,-1.87
268.48,-0.54,-0.55,1.34,1.32,-1.33,-1.57,-1.83,-1.87,-1.88,-1.88
271.16,-0.58,-0.58,1.30,1.30,-1.30,-1.55,-1.81,-1.88,-1.88,-1.88
273.87,-0.62,-0.61,1.27,1.29,-1.28,-1.54,-1.79,-1.90,-1.88,-1.89
276.61,-0.63,-0.64,1.27,1.26,-1.25,-1.52,-1.76,-1.88,-1.90,-1.90
279.38,-0.67,-0.67,1.24,1.23,-1.23,-1.51,-1.73,-1.90,-1.90,-1.91
282.17,-0.72,-0.71,1.19,1.20,-1.20,-1.49,-1.70,-1.92,-1.91,-1.91
284.99,-0.73,-0.74,1.18,1.17,-1.18,-1.48,-1.68,-1.91,-1.92,-1.91
287.84,-0.77,-0.77,1.14,1.15,-1.15,-1.46,-1.65,-1.92,-1.92,-1.91
290.72,-0.79,-0.79,1.12,1.13,-1.12,-1.45,-1.62,-1.91,-1.91,-1.91
293.63,-0.81,-0.81,1.11,1.10,-1.10,-1.43,-1.59,-1.91,-1.91,-1.92
296.57,-0.84,-0.84,1.08,1.08,-1.08,-1.42,-1.56,-1.91,-1.91,-1.92
299.53,-0.86,-0.86,1.05,1.05,-1.05,-1.40,-1.53,-1.91,-1.91,-1.91
302.53,-0.89,-0.89,1.03,1.03,-1.03,-1.39,-1.50,-1.92,-1.92,-1.92
305.55,-0.91,-0.91,1.00,1.00,-1.01,-1.37,-1.47,-1.92,-1.92,-1.91
308.61,-0.93,-0.93,0.99,0.99,-0.99,-1.36,-1.44,-1.92,-1.91,-1.92
311.69,-0.95,-0.95,0.96,0.97,-0.97,-1.34,-1.41,-1.92,-1.91,-1.91
314.81,-0.95,-0.96,0.97,0.95,-0.94,-1.33,-1.38,-1.89,-1.91,-1.92
317.96,-1.00,-0.98,0.91,0.93,-0.92,-1.31,-1.35,-1.92,-1.91,-1.91
321.14,-1.00,-1.01,0.92,0.90,-0.91,-1.30,-1.32,-1.90,-1.91,-1.92
324.35,-1.03,-1.03,0.88,0.88,-0.89,-1.28,-1.29,-1.92,-1.92,-1.91
327.59,-1.05,-1.04,0.85,0.87,-0.87,-1.27,-1.27,-1.92,-1.91,-1.90
330.87,-1.05,-1.06,0.86,0.85,-0.85,-1.25,-1.24,-1.90,-1.91,-1.91
334.18,-1.07,-1.07,0.83,0.83,-0.84,-1.24,-1.21,-1.90,-1.91,-1.90
337.52,-1.09,-1.08,0.82,0.82,-0.82,-1.22,-1.19,-1.91,-1.90,-1.91
340.90,-1.09,-1.09,0.81,0.81,-0.80,-1.21,-1.16,-1.89,-1.89,-1.90
344.30,-1.09,-1.10,0.80,0.80,-0.79,-1.20,-1.14,-1.88,-1.89,-1.89
347.75,-1.11,-1.11,0.78,0.78,-0.77,-1.18,-1.12,-1.88,-1.89,-1.89
351.23,-1.14,-1.13,0.75,0.75,-0.76,-1.17,-1.10,-1.90,-1.89,-1.89
354.74,-1.14,-1.14,0.73,0.74,-0.75,-1.15,-1.08,-1.89,-1.89,-1.87
358.28,-1.14,-1.14,0.74,0.73,-0.74,-1.14,-1.06,-1.88,-1.88,-1.88
361.87,-1.14,-1.14,0.73,0.73,-0.73,-1.13,-1.04,-1.86,-1.86,-1.87
365.49,-1.14,-1.14,0.72,0.72,-0.72,-1.11,-1.02,-1.85,-1.86,-1.86
369.14,-1.14,-1.15,0.72,0.71,-0.71,-1.10,-1.00,-1.85,-1.85,-1.86
372.83,-1.16,-1.15,0.69,0.70,-0.70,-1.09,-0.98,-1.86,-1.85,-1.85
376.56,-1.16,-1.16,0.69,0.69,-0.69,-1.07,-0.97,-1.85,-1.85,-1.85
380.33,-1.16,-1.16,0.68,0.68,-0.68,-1.06,-0.95,-1.84,-1.85,-1.84
384.13,-1.16,-1.16,0.68,0.68,-0.68,-1.05,-0.94,-1.84,-1.84,-1.84
387.97,-1.16,-1.16,0.68,0.67,-0.67,-1.03,-0.92,-1.83,-1.83,-1.84
391.85,-1.16,-1.16,0.66,0.67,-0.67,-1.02,-0.91,-1.83,-1.83,-1.82
395.77,-1.16,-1.15,0.66,0.66,-0.66,-1.01,-0.90,-1.82,-1.82,-1.82
399.73,-1.14,-1.15,0.67,0.66,-0.66,-1.00,-0.89,-1.80,-1.81,-1.81
403.72,-1.14,-1.14,0.66,0.67,-0.66,-0.98,-0.87,-1.80,-1.80,-1.80
407.76,-1.14,-1.14,0.67,0.66,-0.66,-0.97,-0.86,-1.80,-1.80,-1.81
411.84,-1.14,-1.14,0.66,0.66,-0.66,-0.96,-0.85,-1.80,-1.80,-1.80
415.96,-1.14,-1.14,0.65,0.65,-0.66,-0.95,-0.84,-1.80,-1.80,-1.79
420.12,-1.14,-1.13,0.65,0.66,-0.66,-0.93,-0.84,-1.80,-1.79,-1.79
424.32,-1.12,-1.12,0.66,0.66,-0.66,-0.92,-0.83,-1.78,-1.78,-1.78
428.56,-1.09,-1.10,0.68,0.67,-0.67,-0.91,-0.82,-1.76,-1.77,-1.77
432.85,-1.09,-1.09,0.68,0.68,-0.67,-0.90,-0.81,-1.76,-1.76,-1.76
437.18,-1.09,-1.08,0.68,0.68,-0.67,-0.89,-0.80,-1.76,-1.76,-1.77
441.55,-1.09,-1.08,0.67,0.68,-0.68,-0.88,-0.80,-1.77,-1.75,-1.76
445.96,-1.05,-1.07,0.70,0.68,-0.68,-0.86,-0.79,-1.73,-1.75,-1.75
450.42,-1.05,-1.05,0.68,0.68,-0.69,-0.85,-0.78,-1.74,-1.74,-1.73
454.93,-1.05,-1.03,0.67,0.69,-0.70,-0.84,-0.78,-1.74,-1.72,-1.72
459.48,-1.00,-1.02,0.71,0.69,-0.70,-0.83,-0.77,-1.70,-1.72,-1.71
464.07,-1.00,-1.00,0.71,0.71,-0.71,-0.82,-0.77,-1.71,-1.71,-1.71
468.71,-1.00,-0.98,0.71,0.73,-0.72,-0.81,-0.76,-1.72,-1.70,-1.70
473.40,-0.95,-0.97,0.75,0.73,-0.73,-0.80,-0.76,-1.68,-1.70,-1.70
478.13,-0.95,-0.95,0.74,0.74,-0.74,-0.79,-0.75,-1.68,-1.68,-1.69
482.91,-0.95,-0.93,0.73,0.74,-0.74,-0.78,-0.75,-1.69,-1.68,-1.68
487.74,-0.91,-0.92,0.76,0.75,-0.75,-0.77,-0.74,-1.66,-1.67,-1.67
492.62,-0.91,-0.90,0.75,0.76,-0.76,-0.76,-0.74,-1.67,-1.66,-1.66
497.55,-0.88,-0.88,0.77,0.77,-0.77,-0.75,-0.73,-1.65,-1.65,-1.65
