frequency,raw,error,smoothed,error_smoothed,equalization,equalized_raw,equalized_smoothed,target
20,-3.3453635434788946,-4.131249744324762,-3.319067673498214,-4.104938527117937,4.104938527117937,0.759574983639042,0.7858708536197225,0.785886200845868
21,-2.9111526491866098,-3.697019897794891,-2.9450689247054087,-3.7309385275652938,3.7309385275652938,0.819785878378684,0.785869602859885,0.7858672486082812
22,-2.633949827075191,-3.419792283711624,-2.5945462158675543,-3.380400986908842,3.380400986908841,0.7464511598336503,0.7858547710412869,0.7858424566364333
23,-2.2281679224305804,-3.013978341132039,-2.2674995469846513,-3.0533259051485806,3.053325905148581,0.8251579827180007,0.7858263581639298,0.7858104187014585
24,-1.9084065700292578,-2.6941760456833905,-1.9639289180566966,-2.7497132822845067,2.7497132822845054,0.8413067122552476,0.7857843642278088,0.7857694756541327
25,-1.6592324704773025,-2.4449501544559684,-1.6850353026118992,-2.4707655681795444,2.4707655681795457,0.8115330977022432,0.7857302655676466,0.7857176839786661
26,-1.4377406061686437,-2.223393388217752,-1.42934331328558,-2.21500592090311,2.21500592090311,0.7772653147344661,0.7856626076175299,0.7856527820491079
27,-1.2380469513802335,-2.0236191054177737,-1.1955747884203947,-1.9811546101486175,1.9811546101486173,0.7431076587683838,0.7855798217282226,0.7855721540375402
28,-1.052065675039161,-1.837538466467872,-0.9820576659103318,-1.7675369901858988,1.7675369901858986,0.7154713151467376,0.7854793242755668,0.785472791428711
29,-0.7435257301355805,-1.528876982237033,-0.7869729461763288,-1.572330441812942,1.5723304418129422,0.8288047116773617,0.7853574956366134,0.7853512521014525
30,-0.5779254198952076,-1.3631290368402196,-0.6090576720078922,-1.3942679288733557,1.3942679288733553,0.8163425089781476,0.7852102568654631,0.7852036169450121
31,-0.4542695317884699,-1.239294975775289,-0.4473725412269875,-1.2324054037417818,1.2324054037417813,0.7781358719533114,0.7850328625147938,0.785025443986819
32,-0.2614320662237301,-1.0462437862423162,-0.30131237036410496,-1.0861324293365402,1.0861324293365402,0.82470036311281,0.7848200589724352,0.784811720018586
33,-0.21753589484869817,-1.0020927045684793,-0.17037004769922431,-0.9549361308821078,0.9549361308821078,0.7374002360334097,0.7845660831828836,0.7845568097197813
34,-0.06859460065899046,-0.8528490029508043,-0.053804301089550186,-0.8380688598109232,0.8380688598109228,0.7694742591519323,0.7842645587213727,0.7842544022918139
35,0.027824132123377324,-0.7560733235097029,0.04953420092668483,-0.7343742453746849,0.734374245374685,0.7621983774980623,0.7839084463013698,0.7838974556330802
36,0.22066159768811322,-0.5628165404165195,0.1412777078491318,-0.642212233217963,0.642212233217963,0.8628738309060762,0.7834899410670948,0.7834781381046327
37,0.22066159768811308,-0.5623261702709507,0.2234161928216163,-0.559584194824515,0.559584194824515,0.7802457925126282,0.7830003876461313,0.7829877679590638
38,0.3170803304704844,-0.4653364200611915,0.29801151071410054,-0.4844186995221446,0.4844186995221447,0.8014990299926291,0.7824302102362453,0.7824167505316759
39,0.3170803304704844,-0.46467418285297385,0.3668571107953498,-0.41491173116368274,0.41491173116368274,0.7319920616341671,0.7817688419590325,0.7817545133234582
40,0.41349906325282,-0.3674903758876164,0.4311896685466518,-0.3498149943057748,0.34981499430577473,0.7633140575585947,0.7810046628524265,0.7809894391404364
41,0.41349906325263713,-0.3666097342412323,0.49157654466019185,-0.288548391140816,0.2885483911408159,0.702047454393453,0.7801249358010077,0.7801087974938694
42,0.6063365288174588,-0.1727621456937346,0.5480348735179076,-0.2310808656438081,0.23108086564380817,0.837417394461267,0.7791157391617157,0.7790986745111934
43,0.6063365288190677,-0.1716073728398545,0.6003463774208373,-0.17761551977436585,0.17761551977436588,0.7839520485934336,0.7779618971952031,0.7779439016589222
44,0.7027552616050495,-0.07387272203134898,0.6484464048350878,-0.12820050285075393,0.1282005028507539,0.8309557644558034,0.7766469076858417,0.7766279836363985
45,0.7027552616056679,-0.07237776425817277,0.6927150332903036,-0.08243783547928493,0.08243783547928493,0.7851930970849529,0.7751528687695886,0.7751330258638407
46,0.7027552615897755,-0.07068440047006763,0.7340246792584485,-0.039435726676028814,0.039435726676028814,0.7421909882658043,0.7734604059344773,0.7734396620598432
47,0.7872117655102536,0.015684783027447247,0.7734948596333464,0.0019462597811760742,-0.0019462597811760718,0.7852655057290776,0.7715485998521704,0.7715269824828064
48,0.7991739942786337,0.029801530780814267,0.812035129361691,0.042640213528931076,-0.042640213528931076,0.7565337807497026,0.7693949158327599,0.7693724634978194
49,0.7991739943110933,0.032222095085581715,0.8498651081369064,0.08288997269379068,-0.08288997269379066,0.7162840216173026,0.7669751354431158,0.7669518992255115
50,0.7991739945638208,0.03493465843164012,0.8862320717336472,0.12196878066522418,-0.1219687806652242,0.6772052138985966,0.764263291068423,0.7642393361321806
51,0.9920114606704395,0.23080444913953158,0.91948234145211,0.15825073708266535,-0.15825073708266535,0.8337607235877742,0.7612316043694447,0.761207011530908
52,0.9920114612823713,0.23418616420150518,0.9475048058741611,0.18965437615735276,-0.1896543761573527,0.8023570851250186,0.7578504297168084,0.7578252970808661
53,0.9920114612604699,0.23794881276470103,0.9684100353049957,0.2143218314562326,-0.21432183145623265,0.7776896298042373,0.7540882038487631,0.7540626484957689
54,0.9920114594835999,0.2421258966823171,0.9812042085113714,0.2312928054033646,-0.2312928054033646,0.7607186540802353,0.7499114031080067,0.7498855628012828
55,0.9920114549916845,0.24675291037805902,0.9862088970232668,0.24092438728543766,-0.2409243872854377,0.7510870677062469,0.7452845097378291,0.7452585446136255
56,0.9920114481521816,0.2518673651068115,0.9850695965732486,0.24489960772175537,-0.2448996077217554,0.7471118404304262,0.7401699888514932,0.74014408304537
57,0.9920114421169363,0.2575088011397907,0.9803488034282906,0.24582052561010737,-0.2458205256101073,0.746190916506829,0.7345282778181832,0.7345026409771456
58,0.973722693318547,0.24543003475643266,0.9748501992064027,0.24653240926538178,-0.24653240926538184,0.7271902840531652,0.7283177899410209,0.7282926585621143
59,0.8777382949745174,0.15626772202451522,0.9709096195624896,0.24941468513849244,-0.24941468513849252,0.6283236098360249,0.721494934423997,0.7214705729500022
60,0.9322471810279507,0.21825632470358558,0.9698845291380636,0.25587037440670163,-0.25587037440670163,0.676376806621249,0.7140141547313619,0.7139908563243651
61,1.0240140650762066,0.3182079906408528,0.9719849981729505,0.26615701064173297,-0.26615701064173297,0.7578570544344736,0.7058279875312174,0.7058060744353538
62,0.992011662599164,0.2951446947248131,0.976457400791811,0.2795702563139184,-0.27957025631391835,0.7124414062852455,0.6968871444778926,0.6968669678743509
63,0.992011701845569,0.30488914347591445,0.9820114685742094,0.294870849457442,-0.29487084945744213,0.6971408523881268,0.6871406191167673,0.6871225583696545
64,0.9920116179573115,0.31549133558104114,0.9873159276981989,0.31078010647846877,-0.3107801064784689,0.6812315114788426,0.67653582121973,0.6765202823762704
65,0.9920113115732268,0.32700515739341873,0.9913945726973876,0.32637583205912385,-0.3263758320591237,0.6656354795141031,0.6650187406382639,0.665006154179808
66,0.9920107069277285,0.3394857463018598,0.9938196345258518,0.3412854915552702,-0.34128549155527044,0.6507252153724581,0.6525341429705813,0.6525249606258687
67,0.9920098220764487,0.3529893326629626,0.9946886869954014,0.35566288776881644,-0.3556628877688164,0.6363469343076323,0.639025799226585,0.6390204894134861
68,0.9920088578023887,0.3675730651569238,0.9944472678382843,0.37001051720689726,-0.3700105172068973,0.6219983405954914,0.624436750631387,0.6244357926454649
69,0.9920082767176807,0.38329478971588016,0.9936562157016751,0.3849466067211021,-0.38494660672110204,0.6070616699965786,0.608709608980573,0.6087134870018005
70,0.9920088250656163,0.40021273357817644,0.9927951977198822,0.401008303651288,-0.40100830365128803,0.5910005214143282,0.5917868940685942,0.5917960914874398
71,0.9920114374528163,0.41838503425600304,0.9921553627523001,0.4185439511452987,-0.41854395114529874,0.5734674863075175,0.5736114116070014,0.5736264031968132
72,0.9920169692732927,0.43786905834234124,0.9918273343603723,0.43770066027121657,-0.43770066027121657,0.5543163090020762,0.5541266740891557,0.5541479109309515
73,0.9920257325214603,0.4587204867236947,0.9917560559964547,0.4584786963481424,-0.4584786963481423,0.533547036173318,0.5332773596483124,0.5333052457977656
74,0.9920368729714167,0.4809922058471191,0.9918210153802736,0.4808112173656589,-0.4808112173656589,0.5112256556057578,0.5110097980146147,0.5110446671242976
75,0.9920477163594227,0.5047331352414396,0.9919071113996928,0.5046346434478501,-0.5046346434478501,0.48741307291157254,0.48727246795184265,0.4873145811179831
76,0.9920533117285343,0.5299872229854968,0.9919478803453963,0.5299313831508795,-0.5299313831508796,0.46212192857765466,0.46201649719451665,0.46206608874303745
77,0.9920464815361275,0.5567929232919252,0.9919380465826177,0.5567418563911416,-0.5567418563911417,0.4353046251449858,0.43519619019147604,0.4352535582442023
78,0.9920187109436621,0.5851834942688546,0.9919204532533221,0.585150793569621,-0.5851507935696209,0.40686791737404127,0.40676965968370127,0.4068352166748075
79,0.9919621344386648,0.6151883807418354,0.9919542815016766,0.6152546364355265,-0.6152546364355267,0.3767074980031381,0.37669964506614995,0.3767737536968294
80,0.9918726813817195,0.6468357515317283,0.9920721775368222,0.6471176865398391,-0.6471176865398391,0.3447549948418803,0.34495449099698305,0.3450369298499911
81,0.9917541240578494,0.6801559435849673,0.9922376693578938,0.6807286408672081,-0.6807286408672082,0.31102548319064116,0.3115090284906856,0.311598180472882
82,0.9916223711381084,0.7151851655946914,0.9923209428312143,0.7159760569957265,-0.7159760569957265,0.27564631414238183,0.2763448858354878,0.276437205543417
83,0.9915089448838951,0.7519684099504079,0.9921151858125187,0.7526654299349487,-0.7526654299349488,0.2388435149489463,0.2394497558775699,0.23954053493348715
84,0.9914622825077211,0.7905602245184431,0.9914095978176014,0.7905939830280027,-0.790593983028003,0.20086829947971807,0.20081561478959842,0.20090205798927796
85,0.9915454299355749,0.831021923936284,0.990114951622738,0.8296780482824206,-0.8296780482824209,0.16186738165315406,0.16043690334031713,0.16052350599929088
86,0.991828948470983,0.8734140724327975,0.9884079134348855,0.8700970636373665,-0.8700970636373664,0.12173188483361663,0.11831084979751916,0.11841487603818557
87,0.9923784778704405,0.9177836929589467,0.9868342838551152,0.9123917659139944,-0.9123917659139943,0.07998671195644624,0.07444251794112089,0.07459478491149385
88,0.9932373576369959,0.9641466151360272,0.9863049919893645,0.9574491804477315,-0.9574491804477316,0.0357881771892643,0.02885581154163286,0.02909074250096877
89,0.9944058710119432,1.012466536273773,0.9879427194622611,1.0063344872713622,-1.0063344872713624,-0.011928616259419211,-0.018391767809101345,-0.01806066526182981
90,0.9958198285474895,1.0626335208306392,0.992789391482833,1.0599867600087696,-1.0599867600087696,-0.06416693146128005,-0.06719736852593661,-0.0668136922831497
91,0.9973320913475695,1.1144455452679787,1.0014473728355893,1.1188616474780133,-1.1188616474780129,-0.12152955613044336,-0.1174142746424236,-0.11711345392040906
92,0.9601335025395963,1.129029561788278,1.0137724107200863,1.182648678597003,-1.182648678597003,-0.22251517605740667,-0.16887626787691667,-0.16889605924868167
93,0.9610218073202971,1.1831106640240212,1.0287396473241766,1.2501874368847286,-1.2501874368847288,-0.2891656295644317,-0.22144778956055222,-0.22208885670372425
94,1.0959949223373908,1.3726057157530718,1.0445566281892928,1.3196473621422031,-1.319647362142203,-0.2236524398048121,-0.27509073395291006,-0.27661079341568096
95,1.094601861890732,1.4269747478978445,1.0590124768001248,1.3889380306167323,-1.388938030616732,-0.294336168726,-0.32992555381660726,-0.33237288600711246
96,1.0913310003305732,1.4806097983731745,1.0699620821538496,1.4562187911131934,-1.456218791113193,-0.3648877907826198,-0.3862567089593434,-0.38927879804260135
97,1.0857126666660306,1.5329381834421076,1.0757861842686793,1.52032242546588,-1.52032242546588,-0.4346097587998494,-0.4445362411972007,-0.447225516776077
98,1.0773567710764862,1.5834608905162986,1.0756702912506046,1.580926712318351,-1.580926712318351,-0.5035699412418648,-0.5052564210677464,-0.5061041194398124
99,1.066001895068252,1.6318025122148234,1.0696105045653774,1.638399557777808,-1.638399557777808,-0.5723976627095562,-0.5687890532124307,-0.5658006171465715
100,1.0515557899217585,1.677752652538351,1.0581590228378552,1.6933743436824376,-1.6933743436824376,-0.6418185537606791,-0.6352153208445823,-0.6261968626165926
101,1.0341219087060283,1.7212934151706294,1.042025214000338,1.7462293566972358,-1.7462293566972362,-0.712107447991208,-0.7042041426968981,-0.6871715064646011
102,1.0140083127200423,1.7626092984637851,1.0217076689951523,1.796698190207981,-1.7966981902079806,-0.7826898774879383,-0.7749905212128283,-0.7486009857437428
104,0.9917175041146595,1.8640426571549489,0.9973226505425932,1.843800501605192,-1.8438005016051917,-0.8520829974905322,-0.8464778510625985,-0.8723251530402893
105,0.9679180494511039,1.9022887078799242,0.9687157474586592,1.88616373889039,-1.88616373889039,-0.9182456894392861,-0.9174479914317308,-0.9343706584288203
106,0.9434009065991453,1.9397754753697611,0.9358250278513142,1.9226494946687422,-1.9226494946687422,-0.9792485880695969,-0.9868244668174281,-0.9963745687706158
107,0.9190248854233375,1.9772419240483243,0.8991520099928091,1.9530643818781703,-1.9530643818781703,-1.0340394964548327,-1.0539123718853611,-1.0582170386249867
108,0.8956565307500615,2.015438224441709,0.8601366395827179,1.9786792865067935,-1.9786792865067937,-1.0830227557567322,-1.1185426469240758,-1.1197816936916474
109,0.8741099177656368,2.0550663179729964,0.8212508326420953,2.00232834911903,-2.0023283491190305,-1.1282184313533936,-1.1810775164769352,-1.1809564002073594
110,0.7420738924730075,1.9837078460736803,0.785719108746147,2.027996709569738,-2.027996709569738,-1.2859228170967305,-1.242277600823591,-1.2416339536006729
111,0.7079765000778437,2.009689179847059,0.7569119419541093,2.059985799037773,-2.059985799037773,-1.3520092989599293,-1.3030738570836637,-1.301712679769215
112,0.7293794958618365,2.0904764404320906,0.7375862614334645,2.101900738649756,-2.101900738649756,-1.3725212427879196,-1.3643144772162916,-1.3610969445702543
113,0.7053704428554839,2.1250680121525,0.7292166019592494,2.155776180777327,-2.1557761807773264,-1.4504057379218425,-1.426559578818077,-1.419697569297016
114,0.6775001421535845,2.1549322941358318,0.7316398973343097,2.2216153063423665,-2.221615306342367,-1.5441151641887825,-1.4899754090080572,-1.4774321519822475
115,0.7287520524469473,2.2629773487182256,0.7431323817631754,2.2974762569123817,-2.2974762569123826,-1.5687242044654353,-1.5543438751492071,-1.5342252962712783
117,0.811526545668753,2.456248013076487,0.7608873260699444,2.380053566569134,-2.380053566569134,-1.568527020900381,-1.6191662404991898,-1.644721467407734
118,0.814985676329488,2.513295250192491,0.7817247953930657,2.465539408572681,-2.4655394085726807,-1.6505537322431927,-1.683814613179615,-1.698309573863003
119,0.8203414142918724,2.5710676996425814,0.802792910642189,2.550471509467281,-2.550471509467281,-1.7301300951754088,-1.7476785988250922,-1.750726285350709
120,0.8270198408119687,2.6289515858509542,0.8220417314137956,2.632308579084909,-2.632308579084909,-1.8052887382729403,-1.8102668476711135,-1.8019317450389858
121,0.8344847248326093,2.6863775369251437,0.8383543970127301,2.7096016893531196,-2.70960168935312,-1.8751169645205108,-1.87124729234039,-1.8518928120925344
123,0.8422766219963234,2.7902578086312473,0.8513598838056919,2.7817947109207077,-2.7817947109207077,-1.9395180889243844,-1.9304348271150158,-1.947981186634924
124,0.8500380849753928,2.844111350452539,0.8610690094852328,2.84882010891298,-2.84882010891298,-1.998782023937587,-1.9877510994277472,-1.9940732654771458
125,0.8575227080200833,2.8963725176281803,0.8675241439451726,2.9107073080934254,-2.9107073080934254,-2.053184600073342,-2.0431831641482527,-2.038849809608097
126,0.8645882702407035,2.9468949616425832,0.8706183470566028,2.9673762173354854,-2.9673762173354854,-2.102787947094782,-2.0967578702788825,-2.0823066914018797
128,0.8711767949159346,3.036444964318531,0.8701425292315337,3.018676502042231,-3.0186765020422315,-2.147499707126297,-2.148533972810698,-2.1652681694025966
129,0.8913958221035243,3.0961823867783274,0.8660068227389999,3.064608759537296,-3.064608759537297,-2.1732129374337728,-2.1986019367982967,-2.204786564674803
130,0.9022245405645167,3.145236670496069,0.8585047120869944,3.1055825211132886,-3.1055825211132895,-2.203357980548773,-2.247077809026295,-2.2430121299315524
131,0.867762992647467,3.147723495386873,0.8484754980250138,3.1425587865713087,-3.1425587865713096,-2.2747957939238423,-2.294083288546296,-2.279960502739406
133,0.7965357994275135,3.146637860923172,0.8372709700553695,3.176985895756826,-3.176985895756827,-2.3804500963293136,-2.3397149257014576,-2.3501020614956585
134,0.8008730743870532,3.184212419995443,0.8265180548376203,3.2105325337103894,-3.21053253371039,-2.4096594593233367,-2.3840144788727695,-2.38333934560839
135,0.8047064218132935,3.220093417720247,0.817751563966272,3.244706153817762,-3.244706153817763,-2.4399997320044693,-2.4269545898514906,-2.4153869959069536
137,0.8079742429938075,3.2839951316478624,0.8120376272760129,3.2804857038595037,-3.280485703859504,-2.4725114608656966,-2.468448076583491,-2.476020888654055
138,0.8106199237310927,3.315283784574552,0.8097064453011765,3.318085128460509,-3.318085128460509,-2.5074652047294164,-2.508378683159332,-2.5046638608434595
140,0.812610012524815,3.371360151120152,0.8102716300486769,3.356912882326676,-3.356912882326676,-2.544302869801861,-2.546641252277999,-2.558750138595337
141,0.813949111884098,3.3982035659052507,0.8125537172306198,3.395728784908264,-3.3957287849082642,-2.581779673024166,-2.5831750676776446,-2.5842544540211527
142,0.81468838511333,3.4234624556854514,0.8149687035836518,3.432946416082745,-3.432946416082746,-2.618258030969416,-2.617977712499094,-2.6087740705721214
144,0.8149260607501239,3.4699093253773854,0.815902394686051,3.466998532680476,-3.4669985326804755,-2.6520724719303517,-2.6510961379944247,-2.6549832646272615
145,0.8147998405455039,3.4915344475679406,0.8140734752097802,3.4966753305586886,-3.4966753305586886,-2.6818754900131845,-2.682601855348908,-2.6767346070224365
147,0.8144723588690672,3.532155579679118,0.8087926624140533,3.5213560024706982,-3.521356002470697,-2.7068836436016297,-2.7125633400566436,-2.7176832208100508
148,0.8141116453021033,3.551051928755403,0.8000511042745664,3.5410795312300265,-3.5410795312300256,-2.7269678859279223,-2.7410284269554595,-2.7369402834532996
150,0.81386893505081,3.587034472476592,0.7884161760048327,3.5564396928432496,-3.55643969284325,-2.74257075779244,-2.7680235168384173,-2.773165537425782
151,0.81385630183592,3.60404648748436,0.7747699684867755,3.568337744154638,-3.5683377441546376,-2.754481442318718,-2.793567775667862,-2.79019018564844
153,0.6984241271871545,3.520623791773346,0.7599798548058101,3.5776733655782578,-3.5776733655782564,-2.879249238391102,-2.8176935107724463,-2.8221996645861918
154,0.7001043915558238,3.537341209134013,0.7446208330055273,3.5850825371475734,-3.5850825371475734,-2.8849781455917496,-2.8404617041420464,-2.837236817578189
156,0.7189284847711204,3.584429656696381,0.7288579153704808,3.5908227132637425,-3.5908227132637434,-2.871894228492623,-2.8619647978932625,-2.8655011719252608
157,0.7195899983082992,3.598366175302441,0.7125400779135922,3.5948553325155186,-3.594855332515518,-2.875265334207219,-2.882315254601926,-2.878776176994142
