frequency,raw,error,smoothed,error_smoothed,equalization,parametric_eq,fixed_band_eq,equalized_raw,equalized_smoothed,target
20.00,-16.50,-15.20,-16.52,-15.21,6.00,6.09,2.63,-10.50,-10.52,-1.30
20.20,-16.35,-15.10,-16.34,-15.08,6.00,6.09,2.71,-10.35,-10.34,-1.25
20.40,-16.19,-14.98,-16.17,-14.97,6.00,6.09,2.78,-10.19,-10.17,-1.20
20.61,-16.04,-14.87,-16.03,-14.86,6.00,6.09,2.86,-10.04,-10.03,-1.17
20.81,-15.89,-14.76,-15.89,-14.76,6.00,6.09,2.94,-9.89,-9.89,-1.12
21.02,-15.75,-14.67,-15.78,-14.69,6.00,6.09,3.02,-9.75,-9.78,-1.08
21.23,-15.72,-14.66,-15.71,-14.65,6.00,6.09,3.11,-9.72,-9.71,-1.06
21.44,-15.69,-14.64,-15.68,-14.64,6.00,6.09,3.20,-9.69,-9.68,-1.04
21.66,-15.66,-14.63,-15.66,-14.63,6.00,6.09,3.29,-9.66,-9.66,-1.03
21.87,-15.63,-14.61,-15.62,-14.61,6.00,6.09,3.38,-9.63,-9.62,-1.01
22.09,-15.58,-14.58,-15.58,-14.58,6.00,6.09,3.48,-9.58,-9.58,-1.00
22.31,-15.52,-14.53,-15.52,-14.53,6.00,6.09,3.58,-9.52,-9.52,-0.99
22.54,-15.46,-14.47,-15.46,-14.47,6.00,6.09,3.68,-9.46,-9.46,-0.99
22.76,-15.40,-14.41,-15.40,-14.41,6.00,6.08,3.78,-9.40,-9.40,-0.99
22.99,-15.33,-14.33,-15.34,-14.35,6.00,6.08,3.89,-9.33,-9.34,-1.00
23.22,-15.31,-14.31,-15.30,-14.31,6.00,6.08,4.00,-9.31,-9.30,-1.00
23.45,-15.28,-14.28,-15.28,-14.29,6.00,6.08,4.11,-9.28,-9.28,-1.00
23.69,-15.26,-14.27,-15.27,-14.27,6.00,6.08,4.22,-9.26,-9.27,-0.99
23.92,-15.24,-14.25,-15.22,-14.24,6.00,6.08,4.34,-9.24,-9.22,-0.99
24.16,-15.15,-14.17,-15.14,-14.16,6.00,6.08,4.46,-9.15,-9.14,-0.98
24.40,-15.03,-14.06,-15.03,-14.05,6.00,6.08,4.58,-9.03,-9.03,-0.97
24.65,-14.90,-13.92,-14.90,-13.92,6.00,6.08,4.70,-8.90,-8.90,-0.98
24.89,-14.78,-13.80,-14.79,-13.81,6.00,6.08,4.82,-8.78,-8.79,-0.98
25.14,-14.71,-13.73,-14.72,-13.74,6.00,6.08,4.95,-8.71,-8.72,-0.98
25.39,-14.68,-13.71,-14.67,-13.70,6.00,6.08,5.07,-8.68,-8.67,-0.97
25.65,-14.65,-13.68,-14.64,-13.67,6.00,6.08,5.20,-8.65,-8.64,-0.97
25.91,-14.61,-13.63,-14.61,-13.63,6.00,6.08,5.33,-8.61,-8.61,-0.98
26.16,-14.57,-13.59,-14.56,-13.58,6.00,6.08,5.46,-8.57,-8.56,-0.98
26.43,-14.51,-13.53,-14.51,-13.53,6.00,6.08,5.58,-8.51,-8.51,-0.98
26.69,-14.46,-13.48,-14.46,-13.48,6.00,6.08,5.71,-8.46,-8.46,-0.98
26.96,-14.41,-13.44,-14.41,-13.43,6.00,6.08,5.83,-8.41,-8.41,-0.97
27.23,-14.36,-13.38,-14.36,-13.39,6.00,6.08,5.96,-8.36,-8.36,-0.98
27.50,-14.31,-13.33,-14.32,-13.35,6.00,6.08,6.08,-8.31,-8.32,-0.98
27.77,-14.27,-13.28,-14.26,-13.28,6.00,6.08,6.19,-8.27,-8.26,-0.99
28.05,-14.19,-13.20,-14.16,-13.17,6.00,6.08,6.31,-8.19,-8.16,-0.99
28.33,-14.00,-13.00,-13.99,-12.99,6.00,6.08,6.42,-8.00,-7.99,-1.00
28.62,-13.80,-12.80,-13.79,-12.80,6.00,6.08,6.52,-7.80,-7.79,-1.00
28.90,-13.61,-12.62,-13.66,-12.67,6.00,6.08,6.62,-7.61,-7.66,-0.99
29.19,-13.61,-12.61,-13.64,-12.64,6.00,6.08,6.71,-7.61,-7.64,-1.00
29.48,-13.72,-12.74,-13.71,-12.72,6.00,6.08,6.79,-7.72,-7.71,-0.98
29.78,-13.82,-12.83,-13.80,-12.81,6.00,6.08,6.87,-7.82,-7.80,-0.99
30.08,-13.87,-12.88,-13.83,-12.84,6.00,6.08,6.94,-7.87,-7.83,-0.98
30.38,-13.77,-12.78,-13.77,-12.78,6.00,6.08,7.00,-7.77,-7.77,-0.99
30.68,-13.67,-12.67,-13.68,-12.68,6.00,6.07,7.05,-7.67,-7.68,-1.00
30.99,-13.56,-12.56,-13.59,-12.59,6.00,6.07,7.09,-7.56,-7.59,-1.00
31.30,-13.56,-12.56,-13.57,-12.57,6.00,6.07,7.12,-7.56,-7.57,-1.00
31.61,-13.56,-12.56,-13.56,-12.56,6.00,6.07,7.15,-7.56,-7.56,-1.00
31.93,-13.56,-12.56,-13.52,-12.52,6.00,6.07,7.16,-7.56,-7.52,-1.00
32.24,-13.42,-12.40,-13.40,-12.40,6.00,6.07,7.16,-7.42,-7.40,-1.01
32.57,-13.24,-12.24,-13.24,-12.23,6.00,6.07,7.15,-7.24,-7.24,-1.00
32.89,-13.06,-12.05,-13.10,-12.09,6.00,6.07,7.14,-7.06,-7.10,-1.01
33.22,-13.02,-12.00,-13.03,-12.02,6.00,6.07,7.12,-7.02,-7.03,-1.02
33.55,-13.04,-12.02,-13.03,-12.01,6.00,6.07,7.09,-7.04,-7.03,-1.02
33.89,-13.06,-12.03,-13.04,-12.02,6.00,6.06,7.06,-7.06,-7.04,-1.03
34.23,-13.03,-12.01,-13.02,-11.99,6.00,6.06,7.02,-7.03,-7.02,-1.02
34.57,-12.97,-11.94,-12.97,-11.94,6.00,6.06,6.97,-6.97,-6.97,-1.03
34.92,-12.90,-11.86,-12.91,-11.88,6.00,6.06,6.92,-6.90,-6.91,-1.04
35.27,-12.87,-11.83,-12.86,-11.82,6.00,6.06,6.87,-6.87,-6.86,-1.04
35.62,-12.85,-11.81,-12.84,-11.80,6.00,6.06,6.81,-6.85,-6.84,-1.04
35.97,-12.82,-11.78,-12.85,-11.81,6.00,6.06,6.75,-6.82,-6.85,-1.04
36.33,-12.88,-11.85,-12.89,-11.85,6.00,6.05,6.69,-6.88,-6.89,-1.03
36.70,-12.95,-11.90,-12.94,-11.90,6.00,6.05,6.63,-6.95,-6.94,-1.05
37.06,-12.99,-11.94,-12.95,-11.91,6.00,6.05,6.57,-6.99,-6.95,-1.05
37.43,-12.88,-11.85,-12.89,-11.86,6.00,6.05,6.50,-6.88,-6.89,-1.03
37.81,-12.77,-11.74,-12.77,-11.74,6.00,6.05,6.44,-6.77,-6.77,-1.03
38.19,-12.62,-11.58,-12.58,-11.55,6.00,6.05,6.38,-6.62,-6.58,-1.04
38.57,-12.43,-11.40,-12.42,-11.39,6.00,6.04,6.33,-6.43,-6.42,-1.03
38.95,-12.24,-11.22,-12.34,-11.32,6.00,6.04,6.27,-6.24,-6.34,-1.02
39.34,-12.36,-11.34,-12.38,-11.36,6.00,6.04,6.22,-6.36,-6.38,-1.02
39.74,-12.51,-11.48,-12.46,-11.43,6.00,6.04,6.17,-6.51,-6.46,-1.03
40.14,-12.54,-11.52,-12.46,-11.44,6.00,6.03,6.12,-6.54,-6.46,-1.02
40.54,-12.33,-11.31,-12.34,-11.32,6.00,6.03,6.08,-6.33,-6.34,-1.02
40.94,-12.12,-11.09,-12.18,-11.16,6.00,6.03,6.04,-6.12,-6.18,-1.03
41.35,-12.05,-11.02,-12.05,-11.02,6.00,6.03,6.00,-6.05,-6.05,-1.03
41.76,-12.01,-10.97,-11.99,-10.96,6.00,6.02,5.97,-6.01,-5.99,-1.03
42.18,-11.95,-10.92,-11.92,-10.89,6.00,6.02,5.94,-5.95,-5.92,-1.03
42.60,-11.87,-10.83,-11.87,-10.83,6.00,6.02,5.92,-5.87,-5.87,-1.04
43.03,-11.81,-10.76,-11.88,-10.83,6.00,6.01,5.90,-5.81,-5.88,-1.05
43.46,-11.92,-10.87,-11.92,-10.86,6.00,6.01,5.89,-5.92,-5.92,-1.05
43.90,-12.02,-10.94,-11.95,-10.87,6.00,6.01,5.88,-6.02,-5.95,-1.08
44.33,-11.93,-10.84,-11.91,-10.82,6.00,6.00,5.87,-5.93,-5.91,-1.09
44.78,-11.77,-10.66,-11.80,-10.70,6.00,6.00,5.87,-5.77,-5.80,-1.11
45.23,-11.67,-10.56,-11.69,-10.57,6.00,6.00,5.87,-5.67,-5.69,-1.11
45.68,-11.62,-10.49,-11.61,-10.49,6.00,5.99,5.88,-5.62,-5.61,-1.13
46.13,-11.58,-10.44,-11.57,-10.43,6.00,5.99,5.89,-5.58,-5.57,-1.14
46.60,-11.52,-10.38,-11.52,-10.38,6.00,5.98,5.91,-5.52,-5.52,-1.14
47.06,-11.47,-10.32,-11.47,-10.32,6.00,5.98,5.93,-5.47,-5.47,-1.15
47.53,-11.43,-10.27,-11.42,-10.27,6.00,5.97,5.95,-5.43,-5.42,-1.16
48.01,-11.38,-10.22,-11.39,-10.23,6.00,5.97,5.98,-5.38,-5.39,-1.16
48.49,-11.37,-10.20,-11.37,-10.20,6.00,5.97,6.01,-5.37,-5.37,-1.17
48.97,-11.36,-10.17,-11.37,-10.18,6.00,5.96,6.05,-5.36,-5.37,-1.19
49.46,-11.34,-10.13,-11.35,-10.14,6.00,5.96,6.09,-5.34,-5.35,-1.21
49.96,-11.31,-10.09,-11.21,-9.99,6.00,5.95,6.13,-5.31,-5.21,-1.22
50.46,-11.08,-9.86,-11.05,-9.83,6.00,5.94,6.17,-5.08,-5.05,-1.22
50.96,-10.82,-9.59,-11.01,-9.78,6.00,5.94,6.22,-4.82,-5.01,-1.23
51.47,-11.06,-9.81,-11.07,-9.83,6.00,5.93,6.27,-5.06,-5.07,-1.25
51.99,-11.34,-10.08,-11.22,-9.96,6.00,5.93,6.32,-5.34,-5.22,-1.26
52.51,-11.27,-10.02,-11.28,-10.02,6.00,5.92,6.37,-5.27,-5.28,-1.25
53.03,-11.17,-9.92,-11.09,-9.83,6.00,5.92,6.43,-5.17,-5.09,-1.25
53.56,-10.81,-9.55,-10.83,-9.57,6.00,5.91,6.48,-4.81,-4.83,-1.26
54.10,-10.55,-9.28,-10.68,-9.41,6.00,5.90,6.53,-4.55,-4.68,-1.27
54.64,-10.69,-9.41,-10.68,-9.40,6.00,5.90,6.59,-4.69,-4.68,-1.28
55.18,-10.83,-9.55,-10.82,-9.53,6.00,5.89,6.64,-4.83,-4.82,-1.28
55.74,-10.97,-9.67,-10.91,-9.62,6.00,5.89,6.69,-4.97,-4.91,-1.29
56.29,-10.92,-9.62,-10.86,-9.57,6.00,5.88,6.73,-4.92,-4.86,-1.30
56.86,-10.69,-9.38,-10.76,-9.45,6.00,5.87,6.78,-4.69,-4.76,-1.31
57.42,-10.61,-9.28,-10.63,-9.31,6.00,5.87,6.82,-4.61,-4.63,-1.33
58.00,-10.58,-9.25,-10.54,-9.21,6.00,5.86,6.85,-4.58,-4.54,-1.33
58.58,-10.52,-9.19,-10.54,-9.20,6.00,5.85,6.88,-4.52,-4.54,-1.33
59.16,-10.51,-9.16,-10.56,-9.21,6.00,5.85,6.91,-4.51,-4.56,-1.35
59.76,-10.61,-9.25,-10.56,-9.20,6.00,5.84,6.92,-4.61,-4.56,-1.36
60.35,-10.56,-9.16,-10.51,-9.12,6.00,5.84,6.94,-4.56,-4.51,-1.39
60.96,-10.40,-8.98,-10.38,-8.96,6.00,5.83,6.94,-4.40,-4.38,-1.42
61.57,-10.23,-8.78,-10.29,-8.84,6.00,5.82,6.94,-4.23,-4.29,-1.45
62.18,-10.18,-8.69,-10.29,-8.80,6.00,5.82,6.93,-4.18,-4.29,-1.49
62.80,-10.44,-8.91,-10.33,-8.80,6.00,5.81,6.91,-4.44,-4.33,-1.53
63.43,-10.37,-8.81,-10.29,-8.73,6.00,5.81,6.88,-4.37,-4.29,-1.56
64.07,-10.16,-8.56,-10.16,-8.56,6.00,5.80,6.85,-4.16,-4.16,-1.60
64.71,-9.94,-8.30,-10.08,-8.44,6.00,5.80,6.81,-3.94,-4.08,-1.64
65.35,-10.01,-8.35,-10.08,-8.41,6.00,5.79,6.76,-4.01,-4.08,-1.66
66.01,-10.32,-8.62,-10.11,-8.41,6.00,5.79,6.70,-4.32,-4.11,-1.70
66.67,-10.09,-8.35,-10.11,-8.37,6.00,5.79,6.64,-4.09,-4.11,-1.74
67.33,-9.98,-8.20,-10.08,-8.30,6.00,5.78,6.57,-3.98,-4.08,-1.78
68.01,-9.98,-8.17,-10.04,-8.23,6.00,5.78,6.50,-3.98,-4.04,-1.81
68.69,-10.13,-8.28,-9.99,-8.14,6.00,5.78,6.42,-4.13,-3.99,-1.85
69.37,-9.97,-8.07,-9.88,-7.98,6.00,5.78,6.34,-3.97,-3.88,-1.89
70.07,-9.59,-7.65,-9.75,-7.82,6.00,5.78,6.26,-3.59,-3.75,-1.94
70.77,-9.66,-7.69,-9.70,-7.73,6.00,5.78,6.17,-3.66,-3.70,-1.97
71.48,-9.83,-7.82,-9.81,-7.79,6.00,5.79,6.08,-3.83,-3.81,-2.01
72.19,-10.00,-7.93,-9.95,-7.89,6.00,5.79,5.98,-4.00,-3.95,-2.06
72.91,-10.00,-7.89,-9.94,-7.83,6.00,5.80,5.89,-4.00,-3.94,-2.11
73.64,-9.79,-7.63,-9.83,-7.68,6.00,5.80,5.80,-3.79,-3.83,-2.15
74.38,-9.63,-7.43,-9.65,-7.45,6.00,5.81,5.70,-3.63,-3.65,-2.20
75.12,-9.54,-7.29,-9.49,-7.25,6.00,5.82,5.60,-3.54,-3.49,-2.25
75.87,-9.37,-7.08,-9.44,-7.15,6.00,5.83,5.51,-3.37,-3.44,-2.29
76.63,-9.44,-7.11,-9.48,-7.15,6.00,5.85,5.42,-3.44,-3.48,-2.33
77.40,-9.56,-7.19,-9.51,-7.14,6.00,5.86,5.33,-3.56,-3.51,-2.37
78.17,-9.62,-7.20,-9.52,-7.12,6.00,5.88,5.24,-3.62,-3.52,-2.41
78.95,-9.38,-6.95,-9.47,-7.03,6.00,5.90,5.15,-3.38,-3.47,-2.43
79.74,-9.37,-6.90,-9.39,-6.91,6.00,5.92,5.06,-3.37,-3.39,-2.47
80.54,-9.35,-6.85,-9.33,-6.82,6.00,5.94,4.98,-3.35,-3.33,-2.50
81.35,-9.31,-6.77,-9.30,-6.76,6.00,5.96,4.90,-3.31,-3.30,-2.54
82.16,-9.25,-6.67,-9.23,-6.66,6.00,5.98,4.82,-3.25,-3.23,-2.58
82.98,-9.17,-6.57,-9.20,-6.59,6.00,6.01,4.74,-3.17,-3.20,-2.60
83.81,-9.17,-6.53,-9.22,-6.58,6.00,6.03,4.67,-3.17,-3.22,-2.64
84.65,-9.29,-6.62,-9.27,-6.61,6.00,6.06,4.60,-3.29,-3.27,-2.67
85.50,-9.35,-6.65,-9.28,-6.58,6.01,6.08,4.54,-3.34,-3.27,-2.70
86.35,-9.25,-6.52,-9.22,-6.49,6.01,6.11,4.47,-3.24,-3.21,-2.73
87.22,-9.07,-6.31,-9.16,-6.40,6.00,6.13,4.41,-3.07,-3.16,-2.76
88.09,-9.08,-6.28,-9.15,-6.35,5.99,6.15,4.36,-3.09,-3.15,-2.80
88.97,-9.22,-6.38,-9.10,-6.27,5.98,6.17,4.31,-3.24,-3.12,-2.83
89.86,-9.11,-6.24,-9.03,-6.16,5.97,6.18,4.26,-3.14,-3.06,-2.87
90.76,-8.80,-5.89,-8.92,-6.02,5.97,6.19,4.21,-2.83,-2.96,-2.91
91.66,-8.81,-5.88,-8.82,-5.88,5.95,6.19,4.17,-2.86,-2.87,-2.93
92.58,-8.86,-5.88,-8.82,-5.85,5.92,6.18,4.13,-2.94,-2.90,-2.98
93.51,-8.89,-5.88,-8.91,-5.91,5.88,6.17,4.09,-3.01,-3.03,-3.01
94.44,-8.96,-5.92,-8.95,-5.92,5.84,6.15,4.06,-3.12,-3.11,-3.03
95.39,-8.99,-5.93,-8.94,-5.87,5.80,6.12,4.03,-3.19,-3.14,-3.06
96.34,-8.88,-5.78,-8.88,-5.79,5.77,6.08,4.00,-3.11,-3.11,-3.10
97.30,-8.77,-5.64,-8.81,-5.68,5.74,6.03,3.97,-3.03,-3.07,-3.13
98.28,-8.78,-5.62,-8.77,-5.61,5.72,5.97,3.95,-3.05,-3.05,-3.16
99.26,-8.80,-5.61,-8.81,-5.62,5.69,5.90,3.93,-3.11,-3.12,-3.19
100.25,-8.86,-5.64,-8.89,-5.67,5.64,5.83,3.91,-3.22,-3.24,-3.22
101.25,-8.97,-5.72,-8.93,-5.68,5.60,5.75,3.89,-3.37,-3.33,-3.24
102.27,-8.95,-5.68,-8.92,-5.64,5.55,5.66,3.88,-3.40,-3.37,-3.27
103.29,-8.84,-5.53,-8.87,-5.56,5.52,5.57,3.87,-3.32,-3.35,-3.31
104.32,-8.77,-5.44,-8.79,-5.45,5.48,5.48,3.86,-3.28,-3.30,-3.33
105.37,-8.74,-5.38,-8.72,-5.36,5.44,5.39,3.84,-3.30,-3.28,-3.36
106.42,-8.70,-5.31,-8.69,-5.30,5.38,5.30,3.84,-3.32,-3.32,-3.39
107.48,-8.67,-5.24,-8.71,-5.28,5.30,5.21,3.83,-3.37,-3.41,-3.43
108.56,-8.73,-5.26,-8.75,-5.28,5.22,5.12,3.82,-3.51,-3.52,-3.47
109.64,-8.80,-5.30,-8.74,-5.23,5.15,5.04,3.81,-3.65,-3.58,-3.50
110.74,-8.71,-5.17,-8.65,-5.12,5.08,4.96,3.80,-3.63,-3.57,-3.54
111.85,-8.48,-4.92,-8.56,-4.99,5.01,4.89,3.79,-3.47,-3.55,-3.56
112.97,-8.41,-4.80,-8.46,-4.86,4.93,4.80,3.78,-3.48,-3.53,-3.61
114.10,-8.49,-4.85,-8.40,-4.76,4.83,4.72,3.77,-3.66,-3.57,-3.64
115.24,-8.34,-4.68,-8.38,-4.71,4.71,4.61,3.75,-3.62,-3.66,-3.66
116.39,-8.29,-4.59,-8.32,-4.62,4.58,4.50,3.74,-3.71,-3.73,-3.70
117.55,-8.25,-4.53,-8.19,-4.47,4.43,4.34,3.72,-3.81,-3.76,-3.72
118.73,-8.06,-4.31,-8.08,-4.34,4.28,4.18,3.70,-3.78,-3.80,-3.75
119.92,-7.88,-4.13,-7.90,-4.14,4.10,3.99,3.68,-3.78,-3.80,-3.75
121.12,-7.73,-3.95,-7.69,-3.91,3.91,3.79,3.65,-3.82,-3.77,-3.78
122.33,-7.45,-3.65,-7.47,-3.68,3.71,3.59,3.62,-3.74,-3.76,-3.80
123.55,-7.23,-3.43,-7.24,-3.44,3.49,3.38,3.59,-3.74,-3.76,-3.80
124.79,-7.03,-3.21,-7.03,-3.21,3.25,3.18,3.55,-3.78,-3.77,-3.82
126.03,-6.85,-3.02,-6.85,-3.03,3.01,2.97,3.52,-3.84,-3.84,-3.83
127.29,-6.67,-2.83,-6.66,-2.82,2.76,2.78,3.47,-3.91,-3.90,-3.84
128.57,-6.48,-2.62,-6.46,-2.60,2.53,2.60,3.43,-3.95,-3.93,-3.86
129.85,-6.21,-2.33,-6.23,-2.35,2.31,2.42,3.38,-3.90,-3.92,-3.87
131.15,-5.99,-2.10,-5.98,-2.09,2.11,2.24,3.33,-3.88,-3.87,-3.89
132.46,-5.75,-1.85,-5.73,-1.83,1.94,2.08,3.27,-3.81,-3.80,-3.90
133.79,-5.54,-1.63,-5.56,-1.65,1.77,1.91,3.22,-3.77,-3.79,-3.91
135.12,-5.42,-1.49,-5.49,-1.56,1.63,1.76,3.16,-3.79,-3.86,-3.93
136.48,-5.50,-1.56,-5.48,-1.54,1.50,1.61,3.09,-4.00,-3.98,-3.93
137.84,-5.54,-1.58,-5.45,-1.49,1.40,1.47,3.03,-4.14,-4.05,-3.95
139.22,-5.37,-1.39,-5.37,-1.39,1.31,1.33,2.96,-4.06,-4.06,-3.97
140.61,-5.18,-1.19,-5.24,-1.25,1.23,1.21,2.89,-3.95,-4.01,-3.99
142.02,-5.11,-1.12,-5.12,-1.12,1.16,1.10,2.82,-3.95,-3.97,-3.99
143.44,-5.10,-1.09,-5.05,-1.04,1.07,1.00,2.75,-4.02,-3.98,-4.01
144.87,-5.00,-0.96,-5.01,-0.97,0.99,0.91,2.68,-4.01,-4.02,-4.04
146.32,-4.94,-0.87,-4.96,-0.90,0.90,0.84,2.60,-4.04,-4.05,-4.06
147.78,-4.92,-0.84,-4.92,-0.83,0.84,0.78,2.53,-4.08,-4.08,-4.08
149.26,-4.92,-0.80,-4.91,-0.79,0.79,0.73,2.45,-4.13,-4.13,-4.12
150.75,-4.92,-0.75,-4.91,-0.75,0.75,0.69,2.37,-4.17,-4.17,-4.17
152.26,-4.92,-0.69,-4.91,-0.69,0.71,0.66,2.30,-4.21,-4.20,-4.23
153.78,-4.92,-0.64,-4.93,-0.65,0.66,0.64,2.22,-4.26,-4.27,-4.28
155.32,-4.95,-0.61,-4.98,-0.64,0.62,0.62,2.14,-4.33,-4.37,-4.34
156.88,-5.06,-0.65,-5.02,-0.61,0.57,0.61,2.07,-4.49,-4.45,-4.40
158.44,-5.07,-0.59,-5.05,-0.57,0.53,0.60,1.99,-4.54,-4.52,-4.48
160.03,-5.02,-0.47,-5.04,-0.50,0.49,0.59,1.92,-4.53,-4.55,-4.55
161.63,-5.02,-0.41,-5.02,-0.42,0.46,0.58,1.84,-4.56,-4.57,-4.61
163.24,-5.03,-0.37,-5.03,-0.37,0.43,0.57,1.77,-4.59,-4.60,-4.66
164.88,-5.08,-0.38,-5.08,-0.38,0.42,0.55,1.70,-4.66,-4.66,-4.70
166.53,-5.14,-0.40,-5.14,-0.40,0.41,0.54,1.62,-4.73,-4.74,-4.74
168.19,-5.21,-0.44,-5.20,-0.43,0.41,0.53,1.55,-4.80,-4.79,-4.77
169.87,-5.25,-0.45,-5.24,-0.45,0.42,0.51,1.48,-4.83,-4.82,-4.80
171.57,-5.25,-0.45,-5.26,-0.45,0.43,0.50,1.41,-4.82,-4.82,-4.80
173.29,-5.26,-0.45,-5.26,-0.45,0.45,0.48,1.34,-4.81,-4.81,-4.81
175.02,-5.27,-0.46,-5.27,-0.45,0.46,0.46,1.28,-4.81,-4.80,-4.81
176.77,-5.27,-0.46,-5.27,-0.46,0.47,0.45,1.21,-4.80,-4.80,-4.81
178.54,-5.27,-0.46,-5.27,-0.47,0.47,0.43,1.14,-4.80,-4.80,-4.81
180.32,-5.27,-0.48,-5.27,-0.47,0.47,0.41,1.08,-4.80,-4.80,-4.79
182.13,-5.26,-0.48,-5.26,-0.48,0.46,0.39,1.01,-4.80,-4.80,-4.78
183.95,-5.25,-0.47,-5.25,-0.47,0.46,0.37,0.95,-4.79,-4.79,-4.78
185.79,-5.24,-0.46,-5.24,-0.46,0.45,0.35,0.88,-4.79,-4.78,-4.78
187.65,-5.22,-0.43,-5.22,-0.44,0.45,0.32,0.82,-4.77,-4.78,-4.79
189.52,-5.21,-0.42,-5.20,-0.41,0.43,0.30,0.76,-4.78,-4.77,-4.79
191.42,-5.20,-0.39,-5.20,-0.39,0.41,0.28,0.70,-4.79,-4.79,-4.81
193.33,-5.18,-0.36,-5.21,-0.39,0.37,0.26,0.64,-4.81,-4.84,-4.82
195.27,-5.22,-0.39,-5.21,-0.38,0.34,0.24,0.58,-4.88,-4.87,-4.83
197.22,-5.23,-0.39,-5.18,-0.34,0.30,0.22,0.52,-4.93,-4.88,-4.84
199.19,-5.12,-0.26,-5.13,-0.28,0.27,0.20,0.47,-4.85,-4.86,-4.86
201.18,-5.04,-0.17,-5.07,-0.19,0.24,0.17,0.41,-4.80,-4.83,-4.87
203.19,-5.03,-0.15,-5.02,-0.14,0.20,0.15,0.35,-4.83,-4.82,-4.88
205.23,-5.03,-0.13,-5.03,-0.14,0.17,0.13,0.30,-4.86,-4.86,-4.90
207.28,-5.05,-0.15,-5.06,-0.15,0.13,0.11,0.25,-4.92,-4.94,-4.90
209.35,-5.08,-0.16,-5.06,-0.14,0.10,0.09,0.19,-4.98,-4.97,-4.92
211.44,-5.08,-0.13,-5.04,-0.10,0.07,0.07,0.14,-5.01,-4.97,-4.95
213.56,-4.96,-0.01,-4.99,-0.04,0.05,0.05,0.09,-4.91,-4.95,-4.95
215.69,-4.94,0.02,-4.96,0.00,0.02,0.03,0.04,-4.92,-4.93,-4.96
217.85,-4.94,0.02,-4.94,0.03,-0.01,0.01,-0.01,-4.95,-4.94,-4.96
220.03,-4.95,0.02,-4.93,0.05,-0.05,-0.00,-0.06,-5.00,-4.98,-4.97
222.23,-4.91,0.08,-4.92,0.06,-0.09,-0.02,-0.10,-5.00,-5.01,-4.99
224.45,-4.86,0.12,-4.88,0.10,-0.13,-0.04,-0.15,-4.99,-5.01,-4.98
226.70,-4.88,0.09,-4.83,0.14,-0.15,-0.06,-0.19,-5.03,-4.98,-4.97
228.96,-4.76,0.20,-4.79,0.17,-0.16,-0.07,-0.23,-4.92,-4.95,-4.96
231.25,-4.74,0.21,-4.74,0.21,-0.15,-0.09,-0.27,-4.89,-4.89,-4.95
233.57,-4.73,0.20,-4.72,0.21,-0.15,-0.11,-0.31,-4.88,-4.87,-4.93
235.90,-4.71,0.21,-4.75,0.17,-0.13,-0.12,-0.35,-4.84,-4.89,-4.92
238.26,-4.82,0.09,-4.79,0.11,-0.13,-0.14,-0.38,-4.94,-4.92,-4.90
240.64,-4.83,0.05,-4.83,0.05,-0.12,-0.15,-0.42,-4.95,-4.94,-4.88
243.05,-4.82,0.03,-4.81,0.04,-0.11,-0.17,-0.45,-4.93,-4.92,-4.85
245.48,-4.77,0.05,-4.74,0.08,-0.11,-0.18,-0.48,-4.88,-4.85,-4.82
247.93,-4.62,0.17,-4.68,0.11,-0.12,-0.19,-0.51,-4.74,-4.80,-4.79
250.41,-4.60,0.17,-4.59,0.17,-0.14,-0.20,-0.54,-4.74,-4.73,-4.77
252.92,-4.58,0.16,-4.52,0.21,-0.16,-0.22,-0.56,-4.74,-4.69,-4.73
255.45,-4.44,0.27,-4.50,0.21,-0.20,-0.23,-0.59,-4.64,-4.70,-4.71
258.00,-4.46,0.22,-4.47,0.21,-0.22,-0.24,-0.61,-4.68,-4.69,-4.68
260.58,-4.51,0.16,-4.44,0.22,-0.23,-0.25,-0.63,-4.74,-4.67,-4.67
263.19,-4.40,0.23,-4.42,0.22,-0.22,-0.25,-0.65,-4.62,-4.64,-4.63
265.82,-4.36,0.26,-4.38,0.23,-0.21,-0.26,-0.67,-4.57,-4.59,-4.62
268.48,-4.36,0.23,-4.35,0.24,-0.19,-0.27,-0.68,-4.55,-4.54,-4.59
271.16,-4.36,0.19,-4.36,0.20,-0.19,-0.27,-0.70,-4.54,-4.54,-4.55
273.87,-4.37,0.17,-4.39,0.14,-0.19,-0.27,-0.71,-4.56,-4.57,-4.54
276.61,-4.38,0.12,-4.38,0.12,-0.19,-0.28,-0.73,-4.57,-4.57,-4.50
279.38,-4.40,0.07,-4.33,0.14,-0.19,-0.28,-0.74,-4.58,-4.52,-4.47
282.17,-4.23,0.22,-4.25,0.19,-0.19,-0.27,-0.75,-4.41,-4.44,-4.45
284.99,-4.13,0.28,-4.18,0.24,-0.19,-0.27,-0.76,-4.31,-4.36,-4.41
287.84,-4.14,0.25,-4.12,0.26,-0.19,-0.27,-0.77,-4.33,-4.32,-4.39
290.72,-4.14,0.21,-4.13,0.22,-0.21,-0.26,-0.78,-4.34,-4.34,-4.35
293.63,-4.13,0.20,-4.13,0.19,-0.22,-0.25,-0.79,-4.35,-4.35,-4.33
296.57,-4.12,0.17,-4.10,0.19,-0.24,-0.24,-0.80,-4.36,-4.34,-4.29
299.53,-4.05,0.21,-4.06,0.20,-0.24,-0.23,-0.81,-4.29,-4.30,-4.26
302.53,-4.00,0.24,-4.00,0.24,-0.25,-0.22,-0.82,-4.24,-4.24,-4.24
305.55,-3.94,0.26,-3.93,0.27,-0.24,-0.21,-0.83,-4.18,-4.18,-4.20
308.61,-3.88,0.30,-3.89,0.28,-0.24,-0.19,-0.84,-4.12,-4.13,-4.18
311.69,-3.86,0.29,-3.86,0.28,-0.25,-0.18,-0.85,-4.10,-4.11,-4.15
314.81,-3.86,0.26,-3.85,0.27,-0.25,-0.17,-0.86,-4.11,-4.10,-4.12
317.96,-3.86,0.24,-3.87,0.23,-0.25,-0.16,-0.87,-4.11,-4.13,-4.10
321.14,-3.88,0.22,-3.88,0.21,-0.25,-0.15,-0.88,-4.13,-4.13,-4.10
324.35,-3.90,0.18,-3.86,0.21,-0.26,-0.15,-0.89,-4.16,-4.12,-4.08
327.59,-3.80,0.26,-3.83,0.24,-0.27,-0.16,-0.90,-4.07,-4.09,-4.06
330.87,-3.78,0.27,-3.76,0.28,-0.28,-0.18,-0.92,-4.06,-4.04,-4.05
334.18,-3.70,0.33,-3.70,0.33,-0.29,-0.20,-0.93,-3.99,-3.99,-4.03
337.52,-3.66,0.36,-3.68,0.34,-0.30,-0.23,-0.94,-3.96,-3.98,-4.02
340.90,-3.67,0.34,-3.66,0.35,-0.30,-0.28,-0.96,-3.97,-3.96,-4.00
344.30,-3.67,0.33,-3.67,0.33,-0.30,-0.33,-0.97,-3.97,-3.97,-4.00
347.75,-3.67,0.33,-3.67,0.32,-0.31,-0.40,-0.99,-3.98,-3.98,-4.00
351.23,-3.67,0.32,-3.67,0.32,-0.32,-0.47,-1.01,-3.99,-3.99,-3.99
354.74,-3.65,0.34,-3.65,0.33,-0.36,-0.55,-1.03,-4.01,-4.02,-3.99
358.28,-3.61,0.37,-3.61,0.37,-0.44,-0.64,-1.05,-4.05,-4.05,-3.98
361.87,-3.52,0.46,-3.51,0.47,-0.56,-0.74,-1.07,-4.08,-4.07,-3.98
365.49,-3.36,0.61,-3.34,0.64,-0.72,-0.85,-1.09,-4.08,-4.06,-3.97
369.14,-3.12,0.87,-3.12,0.86,-0.91,-0.96,-1.11,-4.03,-4.04,-3.98
372.83,-2.87,1.12,-2.88,1.11,-1.12,-1.07,-1.13,-3.99,-3.99,-3.99
376.56,-2.63,1.36,-2.63,1.35,-1.32,-1.19,-1.15,-3.95,-3.95,-3.99
380.33,-2.41,1.57,-2.40,1.58,-1.50,-1.31,-1.18,-3.91,-3.90,-3.98
384.13,-2.23,1.75,-2.23,1.76,-1.65,-1.43,-1.20,-3.88,-3.87,-3.98
387.97,-2.09,1.90,-2.12,1.87,-1.76,-1.54,-1.23,-3.85,-3.87,-3.99
391.85,-2.09,1.91,-2.10,1.89,-1.82,-1.64,-1.25,-3.91,-3.92,-4.00
395.77,-2.14,1.85,-2.14,1.85,-1.85,-1.73,-1.28,-3.99,-4.00,-3.99
399.73,-2.22,1.78,-2.19,1.81,-1.87,-1.80,-1.31,-4.09,-4.06,-4.00
403.72,-2.23,1.77,-2.21,1.79,-1.88,-1.85,-1.34,-4.11,-4.09,-4.00
407.76,-2.17,1.84,-2.21,1.80,-1.89,-1.88,-1.36,-4.06,-4.10,-4.01
411.84,-2.19,1.82,-2.17,1.84,-1.91,-1.89,-1.39,-4.10,-4.08,-4.01
