frequency,raw,smoothed,error,error_smoothed,equalization,parametric_eq,fixed_band_eq,equalized_raw,equalized_smoothed,target
20.00,-2.20,-2.20,-8.76,-8.76,6.00,6.84,1.91,3.80,3.80,6.57
20.20,-2.10,-2.10,-8.66,-8.67,6.00,6.78,1.97,3.90,3.90,6.57
20.40,-2.00,-2.00,-8.56,-8.57,6.00,6.73,2.02,4.00,4.00,6.57
20.61,-1.90,-1.90,-8.47,-8.47,6.00,6.67,2.09,4.10,4.10,6.57
20.81,-1.81,-1.81,-8.37,-8.37,6.00,6.61,2.15,4.19,4.19,6.57
21.02,-1.71,-1.71,-8.27,-8.27,6.00,6.55,2.21,4.29,4.29,6.56
21.23,-1.62,-1.61,-8.16,-8.16,6.00,6.49,2.28,4.38,4.39,6.54
21.44,-1.52,-1.52,-8.05,-8.05,6.00,6.43,2.35,4.48,4.48,6.53
21.66,-1.43,-1.43,-7.94,-7.94,6.00,6.37,2.42,4.57,4.57,6.51
21.87,-1.34,-1.34,-7.83,-7.83,6.00,6.31,2.50,4.66,4.66,6.49
22.09,-1.25,-1.24,-7.73,-7.72,6.00,6.24,2.57,4.75,4.76,6.48
22.31,-1.15,-1.15,-7.60,-7.61,6.00,6.18,2.65,4.85,4.85,6.45
22.54,-1.06,-1.05,-7.49,-7.49,6.00,6.11,2.73,4.94,4.95,6.43
22.76,-0.96,-0.96,-7.37,-7.36,6.00,6.05,2.81,5.04,5.04,6.41
22.99,-0.85,-0.85,-7.23,-7.23,6.00,5.98,2.89,5.15,5.15,6.38
23.22,-0.75,-0.75,-7.10,-7.10,6.00,5.92,2.98,5.25,5.25,6.35
23.45,-0.64,-0.64,-6.97,-6.97,6.00,5.85,3.06,5.36,5.36,6.33
23.69,-0.54,-0.54,-6.86,-6.85,6.00,5.78,3.15,5.46,5.47,6.32
23.92,-0.43,-0.43,-6.72,-6.73,6.01,5.71,3.24,5.58,5.58,6.30
24.16,-0.33,-0.32,-6.61,-6.61,6.02,5.64,3.34,5.69,5.70,6.29
24.40,-0.22,-0.22,-6.48,-6.48,6.02,5.57,3.43,5.81,5.81,6.26
24.65,-0.11,-0.11,-6.35,-6.36,6.02,5.50,3.52,5.91,5.91,6.24
24.89,-0.01,-0.00,-6.23,-6.23,5.99,5.43,3.62,5.99,5.99,6.22
25.14,0.10,0.10,-6.11,-6.11,5.95,5.35,3.71,6.06,6.06,6.21
25.39,0.21,0.22,-5.98,-5.98,5.89,5.28,3.81,6.11,6.11,6.19
25.65,0.33,0.33,-5.85,-5.85,5.82,5.21,3.91,6.15,6.14,6.18
25.91,0.44,0.44,-5.71,-5.72,5.72,5.13,4.00,6.16,6.16,6.15
26.16,0.54,0.55,-5.59,-5.59,5.62,5.05,4.10,6.16,6.17,6.14
26.43,0.65,0.65,-5.48,-5.47,5.51,4.98,4.19,6.16,6.16,6.13
26.69,0.75,0.75,-5.35,-5.36,5.39,4.90,4.29,6.14,6.14,6.11
26.96,0.84,0.84,-5.25,-5.26,5.27,4.82,4.38,6.11,6.11,6.09
27.23,0.92,0.93,-5.16,-5.16,5.16,4.74,4.46,6.08,6.08,6.08
27.50,1.01,1.01,-5.06,-5.06,5.05,4.66,4.55,6.06,6.06,6.07
27.77,1.09,1.10,-4.96,-4.96,4.95,4.58,4.63,6.04,6.04,6.05
28.05,1.18,1.18,-4.86,-4.85,4.84,4.50,4.70,6.03,6.03,6.04
28.33,1.28,1.28,-4.73,-4.74,4.74,4.42,4.77,6.02,6.01,6.02
28.62,1.37,1.38,-4.63,-4.63,4.63,4.34,4.84,6.00,6.01,6.01
28.90,1.48,1.48,-4.51,-4.51,4.52,4.25,4.89,6.00,5.99,5.99
29.19,1.58,1.58,-4.39,-4.40,4.40,4.17,4.95,5.98,5.98,5.97
29.48,1.68,1.68,-4.29,-4.28,4.29,4.09,4.99,5.97,5.97,5.97
29.78,1.78,1.78,-4.18,-4.17,4.17,4.00,5.02,5.95,5.96,5.96
30.08,1.89,1.88,-4.06,-4.06,4.06,3.92,5.04,5.95,5.94,5.95
30.38,1.98,1.98,-3.94,-3.94,3.94,3.83,5.06,5.93,5.93,5.93
30.68,2.08,2.08,-3.83,-3.83,3.83,3.74,5.06,5.92,5.92,5.91
30.99,2.18,2.18,-3.71,-3.72,3.72,3.65,5.06,5.90,5.90,5.89
31.30,2.27,2.27,-3.61,-3.61,3.61,3.56,5.04,5.88,5.88,5.88
31.61,2.35,2.36,-3.51,-3.51,3.50,3.48,5.01,5.86,5.86,5.87
31.93,2.44,2.44,-3.40,-3.40,3.39,3.38,4.97,5.83,5.84,5.84
32.24,2.53,2.53,-3.28,-3.29,3.28,3.29,4.92,5.82,5.82,5.81
32.57,2.62,2.62,-3.18,-3.18,3.18,3.20,4.86,5.80,5.80,5.80
32.89,2.71,2.71,-3.07,-3.07,3.07,3.11,4.80,5.78,5.78,5.79
33.22,2.80,2.80,-2.95,-2.96,2.96,3.02,4.72,5.76,5.76,5.75
33.55,2.89,2.89,-2.85,-2.85,2.85,2.93,4.63,5.74,5.74,5.74
33.89,2.97,2.98,-2.75,-2.74,2.74,2.83,4.54,5.72,5.72,5.72
34.23,3.06,3.06,-2.63,-2.64,2.64,2.74,4.44,5.70,5.70,5.70
34.57,3.14,3.14,-2.53,-2.53,2.53,2.64,4.33,5.68,5.67,5.67
34.92,3.22,3.22,-2.43,-2.43,2.43,2.55,4.21,5.65,5.65,5.65
35.27,3.30,3.30,-2.33,-2.33,2.33,2.45,4.09,5.63,5.63,5.64
35.62,3.38,3.38,-2.23,-2.23,2.23,2.36,3.96,5.61,5.61,5.61
35.97,3.46,3.46,-2.13,-2.13,2.13,2.26,3.83,5.59,5.59,5.59
36.33,3.54,3.54,-2.03,-2.03,2.03,2.16,3.70,5.57,5.57,5.57
36.70,3.62,3.62,-1.93,-1.93,1.93,2.07,3.56,5.55,5.55,5.55
37.06,3.70,3.71,-1.82,-1.83,1.82,1.97,3.42,5.53,5.53,5.53
37.43,3.79,3.79,-1.72,-1.72,1.72,1.87,3.28,5.51,5.51,5.51
37.81,3.87,3.88,-1.62,-1.61,1.61,1.77,3.14,5.48,5.49,5.49
38.19,3.96,3.96,-1.50,-1.51,1.50,1.68,2.99,5.46,5.47,5.46
38.57,4.05,4.05,-1.40,-1.40,1.40,1.58,2.84,5.45,5.45,5.45
38.95,4.13,4.14,-1.29,-1.29,1.29,1.48,2.70,5.42,5.43,5.42
39.34,4.22,4.22,-1.18,-1.18,1.18,1.38,2.55,5.41,5.41,5.40
39.74,4.30,4.30,-1.07,-1.08,1.08,1.28,2.40,5.38,5.38,5.37
40.14,4.38,4.38,-0.99,-0.98,0.98,1.18,2.25,5.36,5.36,5.37
40.54,4.46,4.46,-0.88,-0.88,0.88,1.08,2.11,5.34,5.34,5.34
40.94,4.54,4.54,-0.78,-0.78,0.78,0.98,1.96,5.33,5.33,5.33
41.35,4.62,4.62,-0.68,-0.69,0.69,0.88,1.81,5.31,5.31,5.30
41.76,4.69,4.70,-0.60,-0.59,0.59,0.78,1.67,5.29,5.29,5.29
42.18,4.77,4.77,-0.51,-0.50,0.50,0.68,1.52,5.27,5.27,5.28
42.60,4.85,4.85,-0.40,-0.41,0.40,0.58,1.37,5.26,5.25,5.25
43.03,4.93,4.93,-0.31,-0.31,0.31,0.49,1.23,5.24,5.24,5.24
43.46,5.00,5.01,-0.21,-0.21,0.21,0.39,1.09,5.21,5.22,5.22
43.90,5.08,5.08,-0.11,-0.12,0.12,0.29,0.94,5.20,5.20,5.19
44.33,5.15,5.15,-0.02,-0.02,0.02,0.19,0.80,5.17,5.17,5.17
44.78,5.22,5.22,0.07,0.07,-0.07,0.09,0.66,5.15,5.15,5.15
45.23,5.29,5.29,0.17,0.16,-0.16,-0.01,0.52,5.13,5.13,5.13
45.68,5.36,5.36,0.25,0.25,-0.25,-0.10,0.38,5.11,5.11,5.11
46.13,5.43,5.43,0.34,0.34,-0.34,-0.20,0.24,5.10,5.10,5.09
46.60,5.50,5.50,0.42,0.43,-0.42,-0.30,0.10,5.08,5.08,5.08
47.06,5.56,5.57,0.50,0.51,-0.51,-0.39,-0.03,5.06,5.06,5.06
47.53,5.63,5.63,0.59,0.58,-0.59,-0.49,-0.17,5.04,5.04,5.04
48.01,5.69,5.69,0.66,0.67,-0.68,-0.58,-0.31,5.01,5.01,5.03
48.49,5.75,5.76,0.75,0.76,-0.77,-0.68,-0.44,4.99,4.99,5.00
48.97,5.82,5.82,0.86,0.85,-0.85,-0.77,-0.58,4.97,4.97,4.97
49.46,5.88,5.88,0.95,0.95,-0.94,-0.86,-0.71,4.94,4.94,4.94
49.96,5.94,5.95,1.04,1.03,-1.03,-0.95,-0.84,4.92,4.92,4.90
50.46,6.01,6.01,1.11,1.12,-1.11,-1.04,-0.98,4.90,4.90,4.90
50.96,6.07,6.07,1.19,1.20,-1.20,-1.13,-1.11,4.88,4.87,4.88
51.47,6.13,6.13,1.29,1.28,-1.28,-1.22,-1.24,4.85,4.85,4.85
51.99,6.18,6.19,1.36,1.36,-1.36,-1.31,-1.36,4.82,4.83,4.82
52.51,6.24,6.24,1.43,1.44,-1.44,-1.40,-1.49,4.80,4.80,4.81
53.03,6.30,6.30,1.52,1.51,-1.52,-1.48,-1.62,4.79,4.78,4.78
53.56,6.35,6.35,1.59,1.59,-1.60,-1.57,-1.74,4.76,4.76,4.76
54.10,6.40,6.41,1.67,1.67,-1.67,-1.65,-1.86,4.73,4.73,4.73
54.64,6.46,6.46,1.75,1.75,-1.75,-1.74,-1.98,4.71,4.71,4.71
55.18,6.51,6.51,1.83,1.83,-1.83,-1.82,-2.09,4.68,4.68,4.68
55.74,6.56,6.56,1.91,1.91,-1.90,-1.90,-2.21,4.66,4.66,4.65
56.29,6.61,6.61,1.98,1.98,-1.98,-1.98,-2.32,4.63,4.63,4.64
56.86,6.66,6.66,2.05,2.05,-2.05,-2.06,-2.43,4.61,4.61,4.61
57.42,6.71,6.71,2.13,2.13,-2.13,-2.13,-2.53,4.59,4.58,4.58
58.00,6.75,6.76,2.19,2.20,-2.20,-2.21,-2.63,4.55,4.56,4.56
58.58,6.80,6.80,2.27,2.27,-2.27,-2.29,-2.72,4.53,4.54,4.53
59.16,6.85,6.85,2.34,2.34,-2.34,-2.36,-2.82,4.52,4.51,4.51
59.76,6.89,6.89,2.40,2.41,-2.41,-2.43,-2.90,4.49,4.49,4.49
60.35,6.93,6.94,2.47,2.47,-2.48,-2.51,-2.99,4.46,4.46,4.46
60.96,6.98,6.98,2.54,2.54,-2.55,-2.58,-3.07,4.44,4.43,4.45
61.57,7.01,7.02,2.61,2.61,-2.61,-2.65,-3.14,4.40,4.40,4.40
62.18,7.05,7.05,2.68,2.68,-2.68,-2.72,-3.21,4.37,4.37,4.37
62.80,7.09,7.09,2.75,2.75,-2.74,-2.78,-3.27,4.35,4.34,4.34
63.43,7.12,7.13,2.81,2.81,-2.81,-2.85,-3.33,4.31,4.32,4.31
64.07,7.16,7.16,2.88,2.87,-2.87,-2.92,-3.39,4.29,4.29,4.28
64.71,7.19,7.19,2.93,2.93,-2.93,-2.98,-3.44,4.26,4.26,4.27
65.35,7.22,7.23,2.98,2.99,-2.99,-3.05,-3.49,4.23,4.24,4.24
66.01,7.26,7.26,3.04,3.04,-3.04,-3.11,-3.53,4.22,4.21,4.22
66.67,7.29,7.29,3.10,3.10,-3.10,-3.18,-3.57,4.19,4.19,4.19
67.33,7.32,7.32,3.15,3.15,-3.15,-3.24,-3.61,4.17,4.17,4.17
68.01,7.35,7.35,3.21,3.21,-3.21,-3.30,-3.64,4.14,4.14,4.14
68.69,7.38,7.38,3.26,3.27,-3.26,-3.36,-3.67,4.12,4.12,4.12
69.37,7.41,7.41,3.32,3.32,-3.32,-3.42,-3.70,4.09,4.09,4.09
70.07,7.44,7.44,3.38,3.37,-3.37,-3.48,-3.73,4.07,4.07,4.07
70.77,7.46,7.47,3.42,3.43,-3.43,-3.54,-3.75,4.03,4.04,4.04
71.48,7.49,7.49,3.48,3.48,-3.49,-3.60,-3.78,4.01,4.01,4.01
72.19,7.52,7.52,3.54,3.54,-3.54,-3.66,-3.80,3.98,3.98,3.98
72.91,7.54,7.55,3.60,3.60,-3.60,-3.72,-3.82,3.94,3.95,3.95
73.64,7.57,7.57,3.66,3.66,-3.66,-3.78,-3.85,3.91,3.91,3.91
74.38,7.59,7.59,3.71,3.72,-3.72,-3.84,-3.87,3.88,3.88,3.88
75.12,7.61,7.62,3.78,3.78,-3.78,-3.90,-3.89,3.84,3.84,3.83
75.87,7.64,7.64,3.84,3.83,-3.83,-3.95,-3.92,3.81,3.80,3.80
76.63,7.66,7.66,3.89,3.90,-3.89,-4.01,-3.94,3.77,3.77,3.77
77.40,7.68,7.68,3.95,3.95,-3.95,-4.07,-3.97,3.73,3.73,3.73
78.17,7.70,7.70,4.02,4.01,-4.01,-4.13,-4.00,3.69,3.69,3.68
78.95,7.72,7.72,4.06,4.07,-4.07,-4.19,-4.03,3.65,3.65,3.66
79.74,7.74,7.74,4.13,4.13,-4.13,-4.24,-4.06,3.61,3.61,3.61
80.54,7.76,7.76,4.19,4.19,-4.19,-4.30,-4.10,3.57,3.57,3.57
81.35,7.78,7.78,4.26,4.25,-4.25,-4.36,-4.14,3.53,3.53,3.53
82.16,7.79,7.80,4.31,4.31,-4.31,-4.42,-4.18,3.48,3.48,3.48
82.98,7.81,7.81,4.37,4.38,-4.38,-4.48,-4.22,3.43,3.44,3.44
83.81,7.83,7.83,4.45,4.44,-4.44,-4.54,-4.27,3.39,3.39,3.39
84.65,7.85,7.85,4.51,4.51,-4.50,-4.60,-4.32,3.35,3.34,3.34
85.50,7.86,7.87,4.56,4.57,-4.57,-4.65,-4.37,3.29,3.30,3.30
86.35,7.88,7.88,4.63,4.63,-4.63,-4.71,-4.43,3.25,3.25,3.25
87.22,7.90,7.90,4.70,4.70,-4.70,-4.77,-4.49,3.21,3.20,3.20
88.09,7.91,7.92,4.76,4.76,-4.76,-4.83,-4.55,3.15,3.15,3.15
88.97,7.93,7.93,4.82,4.82,-4.82,-4.90,-4.62,3.11,3.10,3.11
89.86,7.94,7.94,4.88,4.89,-4.89,-4.96,-4.68,3.05,3.05,3.06
90.76,7.95,7.96,4.96,4.96,-4.95,-5.02,-4.76,3.00,3.00,3.00
91.66,7.97,7.97,5.02,5.02,-5.02,-5.08,-4.83,2.96,2.95,2.95
92.58,7.98,7.98,5.09,5.08,-5.08,-5.14,-4.91,2.90,2.90,2.89
93.51,7.99,8.00,5.14,5.14,-5.15,-5.20,-5.00,2.85,2.85,2.86
94.44,8.01,8.01,5.21,5.21,-5.21,-5.27,-5.08,2.80,2.80,2.80
95.39,8.02,8.02,5.27,5.27,-5.28,-5.33,-5.17,2.74,2.74,2.75
96.34,8.03,8.03,5.35,5.35,-5.35,-5.39,-5.27,2.69,2.69,2.68
97.30,8.04,8.04,5.41,5.41,-5.41,-5.45,-5.36,2.63,2.63,2.63
98.28,8.05,8.05,5.48,5.48,-5.48,-5.52,-5.46,2.57,2.57,2.57
99.26,8.06,8.07,5.55,5.55,-5.55,-5.58,-5.56,2.51,2.51,2.51
100.25,8.08,8.08,5.63,5.63,-5.63,-5.65,-5.66,2.46,2.45,2.45
101.25,8.09,8.09,5.70,5.70,-5.70,-5.71,-5.77,2.40,2.40,2.40
102.27,8.10,8.10,5.77,5.77,-5.77,-5.77,-5.88,2.34,2.33,2.33
103.29,8.10,8.11,5.84,5.84,-5.84,-5.84,-5.99,2.26,2.27,2.26
104.32,8.11,8.11,5.91,5.91,-5.91,-5.90,-6.10,2.20,2.20,2.21
105.37,8.12,8.12,5.97,5.97,-5.98,-5.97,-6.21,2.14,2.14,2.15
106.42,8.13,8.13,6.05,6.05,-6.05,-6.03,-6.32,2.08,2.08,2.08
107.48,8.14,8.14,6.12,6.12,-6.12,-6.10,-6.43,2.02,2.02,2.02
108.56,8.15,8.15,6.20,6.20,-6.19,-6.16,-6.54,1.96,1.96,1.95
109.64,8.15,8.16,6.27,6.27,-6.27,-6.23,-6.65,1.89,1.89,1.89
110.74,8.16,8.16,6.33,6.34,-6.34,-6.29,-6.76,1.82,1.82,1.83
111.85,8.17,8.17,6.41,6.41,-6.41,-6.36,-6.86,1.76,1.75,1.76
112.97,8.17,8.18,6.49,6.49,-6.49,-6.42,-6.96,1.68,1.69,1.68
114.10,8.18,8.18,6.56,6.56,-6.56,-6.48,-7.06,1.62,1.62,1.62
115.24,8.19,8.19,6.63,6.64,-6.63,-6.55,-7.16,1.56,1.55,1.56
116.39,8.19,8.20,6.71,6.71,-6.71,-6.61,-7.25,1.49,1.49,1.48
117.55,8.20,8.20,6.78,6.78,-6.78,-6.67,-7.33,1.42,1.42,1.42
118.73,8.21,8.21,6.86,6.85,-6.85,-6.74,-7.41,1.36,1.36,1.36
119.92,8.21,8.22,6.91,6.92,-6.92,-6.80,-7.48,1.30,1.30,1.30
121.12,8.22,8.22,6.98,6.98,-6.98,-6.86,-7.55,1.24,1.24,1.24
122.33,8.23,8.23,7.05,7.05,-7.05,-6.92,-7.61,1.18,1.18,1.18
123.55,8.24,8.24,7.12,7.12,-7.12,-6.99,-7.66,1.12,1.12,1.13
124.79,8.25,8.25,7.19,7.18,-7.19,-7.05,-7.70,1.06,1.06,1.06
126.03,8.26,8.26,7.25,7.25,-7.26,-7.11,-7.74,1.01,1.01,1.01
127.29,8.27,8.27,7.32,7.32,-7.32,-7.17,-7.77,0.95,0.95,0.95
128.57,8.28,8.28,7.40,7.39,-7.39,-7.23,-7.79,0.89,0.89,0.89
129.85,8.29,8.29,7.46,7.46,-7.45,-7.28,-7.81,0.84,0.84,0.84
131.15,8.30,8.30,7.51,7.52,-7.51,-7.34,-7.82,0.79,0.79,0.79
132.46,8.31,8.31,7.58,7.58,-7.58,-7.40,-7.82,0.74,0.74,0.73
133.79,8.32,8.32,7.63,7.63,-7.64,-7.46,-7.82,0.69,0.69,0.69
135.12,8.33,8.33,7.69,7.69,-7.69,-7.51,-7.81,0.64,0.64,0.64
136.48,8.34,8.35,7.74,7.74,-7.75,-7.57,-7.80,0.60,0.60,0.60
137.84,8.36,8.36,7.79,7.80,-7.80,-7.62,-7.78,0.56,0.56,0.57
139.22,8.37,8.37,7.86,7.85,-7.85,-7.68,-7.76,0.53,0.53,0.52
140.61,8.38,8.38,7.91,7.90,-7.89,-7.73,-7.74,0.49,0.49,0.47
142.02,8.39,8.39,7.93,7.94,-7.94,-7.78,-7.72,0.45,0.45,0.46
143.44,8.40,8.40,7.97,7.98,-7.98,-7.83,-7.69,0.42,0.42,0.43
144.87,8.41,8.41,8.02,8.02,-8.02,-7.88,-7.67,0.39,0.39,0.39
146.32,8.42,8.42,8.06,8.06,-8.06,-7.93,-7.64,0.36,0.36,0.36
147.78,8.43,8.43,8.09,8.10,-8.10,-7.98,-7.61,0.34,0.34,0.34
149.26,8.44,8.44,8.13,8.13,-8.13,-8.03,-7.59,0.31,0.31,0.31
150.75,8.45,8.45,8.18,8.17,-8.17,-8.08,-7.57,0.28,0.28,0.28
152.26,8.46,8.46,8.21,8.21,-8.21,-8.12,-7.55,0.25,0.25,0.25
153.78,8.47,8.47,8.25,8.25,-8.25,-8.17,-7.53,0.22,0.22,0.22
155.32,8.48,8.48,8.28,8.28,-8.29,-8.21,-7.52,0.20,0.20,0.20
156.88,8.49,8.49,8.32,8.32,-8.32,-8.26,-7.51,0.17,0.17,0.18
158.44,8.50,8.50,8.36,8.36,-8.36,-8.30,-7.50,0.14,0.14,0.14
160.03,8.51,8.51,8.40,8.40,-8.40,-8.34,-7.50,0.12,0.12,0.11
161.63,8.52,8.52,8.44,8.44,-8.43,-8.38,-7.50,0.09,0.09,0.08
163.24,8.52,8.53,8.46,8.47,-8.47,-8.42,-7.51,0.06,0.06,0.06
164.88,8.53,8.53,8.49,8.50,-8.50,-8.46,-7.52,0.03,0.03,0.04
166.53,8.54,8.54,8.53,8.53,-8.54,-8.50,-7.53,0.01,0.00,0.01
168.19,8.54,8.55,8.57,8.57,-8.57,-8.53,-7.56,-0.03,-0.03,-0.03
169.87,8.55,8.55,8.61,8.61,-8.61,-8.57,-7.58,-0.05,-0.05,-0.06
171.57,8.56,8.56,8.65,8.64,-8.64,-8.60,-7.62,-0.08,-0.08,-0.08
173.29,8.56,8.57,8.67,8.68,-8.68,-8.64,-7.65,-0.12,-0.12,-0.11
175.02,8.57,8.57,8.72,8.72,-8.72,-8.67,-7.70,-0.15,-0.15,-0.15
176.77,8.57,8.58,8.76,8.76,-8.76,-8.70,-7.74,-0.19,-0.19,-0.19
178.54,8.58,8.58,8.81,8.80,-8.80,-8.73,-7.80,-0.22,-0.22,-0.22
180.32,8.58,8.58,8.84,8.84,-8.84,-8.76,-7.86,-0.26,-0.26,-0.26
182.13,8.58,8.59,8.87,8.88,-8.88,-8.79,-7.93,-0.30,-0.29,-0.29
183.95,8.59,8.59,8.92,8.92,-8.92,-8.82,-8.00,-0.33,-0.33,-0.33
185.79,8.59,8.59,8.96,8.96,-8.96,-8.85,-8.08,-0.36,-0.36,-0.36
187.65,8.59,8.59,9.00,9.00,-8.99,-8.87,-8.16,-0.40,-0.40,-0.40
189.52,8.59,8.59,9.03,9.03,-9.02,-8.90,-8.25,-0.43,-0.43,-0.43
191.42,8.59,8.59,9.06,9.05,-9.05,-8.92,-8.34,-0.46,-0.46,-0.46
193.33,8.59,8.59,9.08,9.08,-9.08,-8.95,-8.44,-0.49,-0.49,-0.48
195.27,8.59,8.59,9.10,9.11,-9.11,-8.97,-8.54,-0.52,-0.52,-0.51
197.22,8.59,8.59,9.13,9.13,-9.13,-8.99,-8.65,-0.54,-0.55,-0.54
199.19,8.58,8.59,9.17,9.16,-9.16,-9.01,-8.76,-0.58,-0.57,-0.59
201.18,8.58,8.58,9.18,9.19,-9.18,-9.03,-8.88,-0.60,-0.60,-0.60
203.19,8.58,8.58,9.20,9.20,-9.20,-9.05,-9.00,-0.62,-0.62,-0.62
205.23,8.57,8.58,9.22,9.21,-9.22,-9.06,-9.13,-0.65,-0.64,-0.64
207.28,8.57,8.57,9.22,9.23,-9.23,-9.08,-9.26,-0.66,-0.66,-0.65
209.35,8.56,8.57,9.25,9.25,-9.25,-9.10,-9.39,-0.68,-0.68,-0.68
211.44,8.56,8.56,9.27,9.26,-9.26,-9.11,-9.52,-0.70,-0.70,-0.71
213.56,8.55,8.55,9.27,9.27,-9.27,-9.12,-9.65,-0.72,-0.72,-0.72
215.69,8.54,8.54,9.27,9.27,-9.28,-9.14,-9.79,-0.73,-0.73,-0.72
217.85,8.53,8.54,9.27,9.28,-9.28,-9.15,-9.92,-0.75,-0.75,-0.74
220.03,8.53,8.53,9.29,9.28,-9.29,-9.16,-10.05,-0.75,-0.76,-0.76
222.23,8.52,8.52,9.29,9.29,-9.28,-9.17,-10.17,-0.76,-0.76,-0.77
224.45,8.51,8.51,9.28,9.29,-9.28,-9.17,-10.30,-0.77,-0.77,-0.76
226.70,8.50,8.50,9.28,9.27,-9.27,-9.18,-10.41,-0.77,-0.77,-0.77
228.96,8.49,8.49,9.27,9.26,-9.26,-9.19,-10.52,-0.77,-0.77,-0.78
231.25,8.47,8.48,9.24,9.24,-9.25,-9.19,-10.61,-0.77,-0.77,-0.77
233.57,8.46,8.46,9.22,9.22,-9.23,-9.19,-10.71,-0.76,-0.77,-0.76
235.90,8.44,8.45,9.20,9.20,-9.20,-9.19,-10.78,-0.76,-0.76,-0.76
238.26,8.43,8.43,9.19,9.18,-9.17,-9.19,-10.84,-0.74,-0.74,-0.75
240.64,8.41,8.41,9.15,9.15,-9.14,-9.19,-10.89,-0.73,-0.73,-0.73
243.05,8.38,8.39,9.10,9.11,-9.10,-9.19,-10.92,-0.72,-0.72,-0.72
245.48,8.36,8.36,9.06,9.07,-9.06,-9.19,-10.94,-0.70,-0.70,-0.70
247.93,8.33,8.33,9.02,9.02,-9.02,-9.18,-10.94,-0.69,-0.69,-0.69
250.41,8.30,8.30,8.98,8.97,-8.97,-9.17,-10.91,-0.67,-0.67,-0.68
252.92,8.27,8.27,8.92,8.92,-8.92,-9.16,-10.88,-0.65,-0.65,-0.64
255.45,8.24,8.24,8.86,8.87,-8.87,-9.15,-10.82,-0.63,-0.63,-0.62
258.00,8.21,8.21,8.81,8.81,-8.82,-9.14,-10.75,-0.61,-0.61,-0.60
260.58,8.18,8.19,8.77,8.77,-8.77,-9.13,-10.65,-0.59,-0.58,-0.59
263.19,8.16,8.16,8.72,8.72,-8.72,-9.11,-10.55,-0.56,-0.56,-0.56
265.82,8.14,8.14,8.68,8.68,-8.68,-9.09,-10.43,-0.53,-0.54,-0.54
268.48,8.12,8.13,8.64,8.64,-8.63,-9.07,-10.30,-0.51,-0.51,-0.51
271.16,8.11,8.11,8.59,8.60,-8.59,-9.05,-10.15,-0.48,-0.48,-0.48
273.87,8.10,8.10,8.57,8.56,-8.56,-9.03,-9.99,-0.46,-0.46,-0.47
276.61,8.09,8.09,8.52,8.53,-8.53,-9.00,-9.83,-0.44,-0.44,-0.43
279.38,8.09,8.09,8.51,8.51,-8.51,-8.97,-9.66,-0.42,-0.42,-0.42
282.17,8.10,8.10,8.49,8.49,-8.50,-8.94,-9.48,-0.40,-0.40,-0.39
284.99,8.11,8.12,8.48,8.48,-8.50,-8.91,-9.29,-0.39,-0.38,-0.37
287.84,8.15,8.15,8.49,8.49,-8.51,-8.87,-9.10,-0.35,-0.36,-0.34
290.72,8.19,8.19,8.50,8.51,-8.52,-8.83,-8.92,-0.33,-0.33,-0.31
293.63,8.25,8.25,8.54,8.53,-8.54,-8.79,-8.72,-0.29,-0.29,-0.29
296.57,8.30,8.31,8.56,8.56,-8.56,-8.75,-8.53,-0.26,-0.25,-0.26
299.53,8.36,8.36,8.59,8.59,-8.58,-8.70,-8.34,-0.21,-0.22,-0.23
302.53,8.40,8.40,8.61,8.60,-8.58,-8.65,-8.15,-0.18,-0.18,-0.20
305.55,8.43,8.43,8.59,8.60,-8.58,-8.60,-7.96,-0.15,-0.15,-0.16
308.61,8.45,8.45,8.58,8.58,-8.57,-8.55,-7.77,-0.11,-0.12,-0.13
311.69,8.45,8.45,8.55,8.54,-8.54,-8.49,-7.59,-0.08,-0.09,-0.09
314.81,8.43,8.43,8.49,8.50,-8.49,-8.43,-7.40,-0.06,-0.06,-0.06
317.96,8.40,8.41,8.43,8.44,-8.44,-8.37,-7.22,-0.04,-0.03,-0.03
321.14,8.37,8.37,8.38,8.37,-8.37,-8.30,-7.05,-0.00,-0.00,-0.00
324.35,8.32,8.32,8.30,8.30,-8.30,-8.23,-6.88,0.02,0.02,0.02
327.59,8.27,8.27,8.21,8.22,-8.22,-8.16,-6.71,0.05,0.05,0.06
330.87,8.21,8.21,8.12,8.13,-8.13,-8.08,-6.54,0.08,0.08,0.09
334.18,8.15,8.15,8.05,8.04,-8.04,-8.00,-6.38,0.11,0.11,0.10
337.52,8.08,8.08,7.95,7.95,-7.95,-7.92,-6.23,0.13,0.13,0.13
340.90,8.00,8.01,7.84,7.85,-7.85,-7.84,-6.07,0.15,0.15,0.16
344.30,7.93,7.93,7.76,7.75,-7.75,-7.75,-5.93,0.18,0.18,0.18
347.75,7.85,7.85,7.65,7.65,-7.65,-7.66,-5.78,0.21,0.20,0.20
351.23,7.76,7.77,7.54,7.54,-7.54,-7.56,-5.64,0.23,0.23,0.22
354.74,7.67,7.67,7.43,7.43,-7.42,-7.46,-5.51,0.25,0.25,0.24
358.28,7.57,7.57,7.31,7.31,-7.31,-7.36,-5.37,0.27,0.26,0.26
361.87,7.46,7.46,7.19,7.18,-7.18,-7.26,-5.25,0.28,0.28,0.28
365.49,7.35,7.35,7.05,7.06,-7.06,-7.15,-5.12,0.29,0.29,0.30
369.14,7.24,7.24,6.93,6.93,-6.94,-7.04,-5.00,0.31,0.31,0.31
372.83,7.14,7.14,6.81,6.81,-6.81,-6.93,-4.89,0.33,0.33,0.33
376.56,7.03,7.04,6.68,6.68,-6.68,-6.81,-4.77,0.35,0.35,0.35
380.33,6.93,6.93,6.56,6.56,-6.56,-6.69,-4.66,0.37,0.37,0.38
384.13,6.83,6.83,6.44,6.43,-6.43,-6.57,-4.56,0.40,0.39,0.40
387.97,6.72,6.73,6.31,6.31,-6.31,-6.44,-4.45,0.41,0.42,0.41
391.85,6.62,6.62,6.19,6.19,-6.19,-6.32,-4.35,0.44,0.44,0.43
395.77,6.52,6.52,6.06,6.06,-6.06,-6.18,-4.26,0.46,0.46,0.46
399.73,6.41,6.42,5.93,5.94,-5.94,-6.05,-4.16,0.48,0.48,0.48
403.72,6.31,6.31,5.81,5.81,-5.81,-5.92,-4.07,0.50,0.50,0.50
407.76,6.20,6.20,5.69,5.68,-5.69,-5.78,-3.98,0.52,0.52,0.52
411.84,6.10,6.10,5.56,5.56,-5.56,-5.64,-3.90,0.54,0.54,0.55
415.96,5.99,6.00,5.43,5.43,-5.43,-5.50,-3.81,0.56,0.56,0.56
420.12,5.89,5.89,5.31,5.30,-5.30,-5.35,-3.73,0.59,0.59,0.58
424.32,5.78,5.78,5.17,5.17,-5.17,-5.21,-3.65,0.61,0.61,0.61
428.56,5.67,5.67,5.04,5.04,-5.04,-5.06,-3.57,0.63,0.63,0.63
432.85,5.56,5.56,4.91,4.91,-4.91,-4.91,-3.50,0.65,0.65,0.65
437.18,5.45,5.45,4.77,4.77,-4.77,-4.75,-3.42,0.68,0.68,0.68
441.55,5.34,5.34,4.63,4.64,-4.64,-4.60,-3.35,0.71,0.71,0.71
445.96,5.23,5.23,4.51,4.50,-4.50,-4.45,-3.27,0.73,0.73,0.73
450.42,5.11,5.11,4.37,4.36,-4.36,-4.29,-3.20,0.75,0.75,0.75
454.93,4.99,5.00,4.21,4.22,-4.22,-4.13,-3.13,0.77,0.78,0.79
459.48,4.88,4.88,4.08,4.07,-4.08,-3.97,-3.06,0.80,0.80,0.80
464.07,4.77,4.77,3.94,3.93,-3.94,-3.81,-2.98,0.83,0.83,0.83
468.71,4.66,4.66,3.79,3.80,-3.80,-3.65,-2.91,0.86,0.86,0.87
473.40,4.55,4.55,3.66,3.66,-3.66,-3.49,-2.84,0.90,0.90,0.89
478.13,4.44,4.44,3.52,3.52,-3.51,-3.32,-2.77,0.93,0.93,0.92
482.91,4.32,4.32,3.37,3.37,-3.37,-3.16,-2.69,0.95,0.95,0.95
487.74,4.20,4.20,3.22,3.23,-3.22,-2.99,-2.62,0.98,0.98,0.98
492.62,4.08,4.08,3.07,3.07,-3.07,-2.83,-2.55,1.01,1.01,1.01
497.55,3.95,3.95,2.92,2.92,-2.92,-2.66,-2.47,1.04,1.04,1.03
502.52,3.82,3.82,2.75,2.76,-2.76,-2.50,-2.40,1.06,1.06,1.07
507.55,3.69,3.69,2.60,2.60,-2.60,-2.33,-2.32,1.09,1.09,1.09
512.62,3.56,3.56,2.45,2.44,-2.44,-2.16,-2.24,1.12,1.12,1.12
517.75,3.42,3.43,2.28,2.28,-2.28,-2.00,-2.16,1.14,1.14,1.15
522.93,3.29,3.29,2.12,2.12,-2.12,-1.83,-2.08,1.17,1.17,1.18
528.16,3.16,3.16,1.97,1.96,-1.96,-1.66,-2.00,1.20,1.20,1.20
