frequency,raw
20,-13.20
21,-12.65
22,-12.19
23,-11.74
24,-11.42
25,-11.01
26,-10.73
27,-10.30
28,-10.05
29,-9.80
30,-9.44
31,-9.15
32,-8.87
33,-8.68
34,-8.50
35,-8.18
36,-7.88
37,-7.72
38,-7.53
39,-7.28
40,-7.12
41,-6.88
42,-6.61
43,-6.34
44,-6.08
45,-5.91
46,-5.58
47,-5.42
48,-5.26
49,-4.93
50,-4.67
51,-4.58
52,-4.36
53,-4.29
54,-3.96
55,-3.96
56,-3.85
57,-3.65
58,-3.64
59,-3.58
60,-3.39
61,-3.31
62,-3.31
63,-3.17
64,-2.99
65,-2.99
66,-2.99
67,-2.93
68,-2.66
69,-2.66
70,-2.66
71,-2.66
72,-2.63
73,-2.48
74,-2.34
75,-2.34
76,-2.34
77,-2.48
78,-2.38
79,-2.45
80,-2.50
81,-2.57
82,-2.66
83,-2.66
84,-2.66
85,-2.66
86,-2.66
87,-2.66
88,-2.66
89,-2.66
90,-2.66
91,-2.58
92,-2.46
93,-2.34
94,-2.46
95,-2.42
96,-2.34
97,-2.34
98,-2.34
99,-2.34
100,-2.34
101,-2.34
102,-2.34
104,-2.34
105,-2.34
106,-2.32
107,-2.21
108,-2.11
109,-2.01
110,-2.01
111,-2.01
112,-2.01
113,-1.92
114,-1.82
115,-1.72
117,-1.37
118,-1.37
119,-1.34
120,-1.24
121,-1.15
123,-1.04
124,-1.03
125,-0.85
126,-0.72
128,-0.72
129,-0.72
130,-0.66
131,-0.58
133,-0.41
134,-0.39
135,-0.39
137,-0.23
138,-0.15
140,-0.07
141,-0.07
142,-0.07
144,-0.07
145,-0.07
147,-0.07
148,-0.07
150,-0.07
151,-0.07
153,-0.07
154,-0.07
156,-0.07
157,-0.07
159,-0.07
160,-0.07
162,0.04
164,0.09
165,0.09
167,0.09
169,-0.00
170,-0.07
172,-0.07
174,-0.07
175,-0.07
177,-0.07
179,-0.07
181,-0.07
183,-0.07
184,-0.07
186,-0.07
188,-0.07
190,-0.07
192,-0.07
194,-0.07
196,-0.07
198,-0.07
200,-0.07
202,-0.07
204,-0.07
206,-0.07
208,-0.06
210,0.05
212,0.09
214,0.10
216,0.21
218,0.26
221,0.26
223,0.26
225,0.26
227,0.23
229,0.13
232,-0.01
234,-0.07
236,-0.07
239,-0.07
241,-0.07
244,-0.07
246,-0.07
248,-0.07
251,-0.07
253,-0.07
256,-0.07
259,-0.07
261,-0.07
264,-0.07
266,-0.07
269,-0.07
272,-0.07
274,-0.07
277,-0.07
280,-0.07
283,-0.07
286,-0.07
288,-0.07
291,-0.07
294,-0.04
297,0.07
300,0.00
303,-0.07
306,-0.07
309,-0.07
312,-0.07
316,-0.07
319,-0.07
322,-0.07
325,-0.09
328,-0.20
332,-0.33
335,-0.39
338,-0.39
342,-0.51
345,-0.60
349,-0.72
352,-0.72
356,-0.80
359,-0.89
363,-1.02
366,-1.11
370,-1.23
374,-1.35
377,-1.44
381,-1.56
385,-1.68
389,-1.69
393,-1.81
397,-2.01
401,-2.01
405,-2.09
409,-2.20
413,-2.31
417,-2.34
421,-2.34
425,-2.34
430,-2.44
434,-2.55
438,-2.65
443,-2.66
447,-2.66
451,-2.66
456,-2.78
460,-2.88
465,-2.99
470,-2.99
474,-2.99
479,-2.99
484,-2.99
489,-2.99
494,-2.99
499,-2.99
504,-2.99
509,-2.99
514,-2.99
519,-2.99
524,-2.99
529,-2.99
535,-2.99
540,-2.91
545,-2.80
551,-2.68
556,-2.66
562,-2.62
568,-2.50
573,-2.40
579,-2.34
585,-2.33
591,-2.21
596,-2.12
602,-2.01
608,-2.01
615,-1.93
621,-1.82
627,-1.71
633,-1.69
639,-1.69
646,-1.69
652,-1.49
659,-1.37
665,-1.37
672,-1.37
679,-1.37
686,-1.37
692,-1.37
699,-1.29
706,-1.20
713,-1.20
721,-1.10
728,-1.04
735,-1.04
742,-1.04
750,-1.04
757,-1.04
765,-1.04
773,-1.04
780,-1.03
788,-0.91
796,-0.80
804,-0.72
812,-0.72
820,-0.72
828,-0.72
837,-0.72
845,-0.72
853,-0.66
862,-0.55
871,-0.43
879,-0.39
888,-0.39
897,-0.39
906,-0.39
915,-0.36
924,-0.25
933,-0.14
943,-0.07
952,-0.07
962,-0.07
971,-0.07
981,-0.07
991,-0.07
1001,0.01
1011,0.12
1021,0.23
1031,0.26
1041,0.26
1052,0.26
1062,0.26
1073,0.26
1084,0.26
1094,0.36
1105,0.42
1116,0.42
1128,0.55
1139,0.58
1150,0.58
1162,0.58
1173,0.58
1185,0.58
1197,0.58
1209,0.58
1221,0.58
1233,0.58
1246,0.70
1258,0.80
1271,0.90
1283,0.90
1296,0.90
1309,0.90
1322,0.90
1335,0.99
1349,1.11
1362,1.21
1376,1.23
1390,1.23
1404,1.23
1418,1.23
1432,1.23
1446,1.24
1461,1.36
1475,1.47
1490,1.55
1505,1.55
1520,1.55
1535,1.55
1550,1.55
1566,1.55
1582,1.55
1597,1.55
1613,1.55
1629,1.55
1646,1.55
1662,1.55
1679,1.55
1696,1.55
1713,1.55
1730,1.46
1747,1.35
1764,1.24
1782,1.23
1800,1.23
1818,1.23
1836,1.23
1854,1.23
1873,1.21
1892,1.10
1911,0.99
1930,0.90
1949,0.90
1969,0.90
1988,0.90
2008,0.90
2028,0.90
2048,0.90
2069,0.90
2090,0.90
2111,0.90
2132,0.90
2153,0.90
2175,0.90
2196,0.90
2218,0.90
2240,0.90
2263,0.95
2285,1.06
2308,1.17
2331,1.23
2355,1.23
2378,1.23
2402,1.23
2426,1.23
2450,1.23
2475,1.31
2500,1.39
2525,1.39
2550,1.49
2575,1.55
2601,1.55
2627,1.55
2653,1.55
2680,1.56
2707,1.67
2734,1.71
2761,1.73
2789,1.85
2817,1.88
2845,1.88
2873,1.88
2902,1.88
2931,1.88
2960,1.88
2990,1.88
3020,1.88
3050,1.88
3080,1.88
3111,1.88
3142,1.88
3174,1.88
3206,1.88
3238,1.88
3270,1.88
3303,1.88
3336,1.88
3369,1.88
3403,1.88
3437,1.82
3471,1.71
3506,1.59
3541,1.55
3576,1.55
3612,1.55
3648,1.38
3685,1.23
3721,1.23
3759,1.23
3796,1.14
3834,0.91
3873,0.90
3911,0.90
3950,0.90
3990,0.78
4030,0.67
4070,0.58
4111,0.58
4152,0.58
4193,0.58
4235,0.58
4278,0.58
4321,0.58
4364,0.58
4407,0.58
4451,0.58
4496,0.59
4541,0.70
4586,0.89
4632,1.11
4679,1.34
4725,1.73
4773,2.12
4820,2.34
4868,2.56
4917,2.79
4966,3.01
5016,3.35
5066,3.56
5117,3.69
5168,3.91
5220,4.06
5272,4.20
5325,4.42
5378,4.56
5432,4.67
5486,4.78
5541,5.00
5596,5.12
5652,5.12
5709,5.12
5766,5.12
5823,5.12
5882,5.12
5940,4.97
6000,4.80
6060,4.80
6120,4.71
6182,4.59
6244,4.48
6306,4.37
6369,4.26
6433,4.15
6497,4.15
6562,4.15
6628,4.15
6694,4.15
6761,4.07
6828,3.99
6897,3.99
6966,4.08
7035,4.15
7106,4.15
7177,4.15
7249,4.26
7321,4.47
7394,4.47
7468,4.47
7543,4.49
7618,4.60
7694,4.71
7771,4.80
7849,4.80
7928,4.80
8007,4.75
8087,4.64
8168,4.53
8250,4.47
8332,4.46
8415,4.24
8499,4.15
8584,4.11
8670,3.89
8757,3.74
8845,3.60
8933,3.38
9022,3.24
9113,3.13
9204,3.02
9296,2.91
9389,2.85
9483,2.84
9577,2.73
9673,2.62
9770,2.53
9868,2.53
9966,2.53
10066,2.53
10167,2.53
10268,2.53
10371,2.48
10475,2.37
10579,2.26
10685,2.14
10792,2.03
10900,1.92
11009,1.74
11119,1.55
11230,1.55
11343,1.47
11456,1.36
11571,1.25
11686,1.23
11803,1.23
11921,1.23
12040,1.23
12161,1.23
12282,1.23
12405,1.23
12529,1.23
12655,1.23
12781,1.23
12909,1.23
13038,1.26
13168,1.37
13300,1.39
13433,1.39
13567,1.39
13703,1.28
13840,1.23
13978,1.22
14118,1.11
14259,0.92
14402,0.70
14546,0.47
14692,0.25
14838,0.02
14987,-0.20
15137,-0.52
15288,-0.86
15441,-1.20
15595,-1.64
15751,-2.15
15909,-2.71
16068,-3.15
16229,-3.60
16391,-4.05
16555,-4.50
16720,-4.95
16888,-5.37
17056,-5.70
17227,-5.94
17399,-6.21
17573,-6.55
17749,-6.78
17926,-7.06
18106,-7.39
18287,-7.61
18470,-7.99
18654,-8.44
18841,-8.89
19029,-9.16
19220,-9.46
19412,-9.91
19606,-10.16
19802,-10.38
20000,-10.61
