frequency,raw,error,smoothed,error_smoothed,equalization,parametric_eq,fixed_band_eq,equalized_raw,equalized_smoothed,target
20.00,-2.74,-1.23,-2.74,-1.23,1.23,0.87,0.55,-1.51,-1.51,-1.51
20.20,-2.72,-1.25,-2.72,-1.25,1.25,0.86,0.57,-1.47,-1.47,-1.47
20.40,-2.70,-1.27,-2.70,-1.27,1.27,0.86,0.59,-1.43,-1.43,-1.43
20.61,-2.68,-1.28,-2.68,-1.29,1.29,0.86,0.61,-1.39,-1.39,-1.40
20.81,-2.67,-1.31,-2.66,-1.31,1.30,0.86,0.63,-1.36,-1.36,-1.36
21.02,-2.65,-1.33,-2.65,-1.32,1.31,0.86,0.65,-1.33,-1.33,-1.32
21.23,-2.63,-1.33,-2.63,-1.33,1.32,0.86,0.66,-1.31,-1.31,-1.30
21.44,-2.61,-1.33,-2.61,-1.33,1.33,0.86,0.69,-1.28,-1.28,-1.28
21.66,-2.59,-1.33,-2.59,-1.32,1.33,0.85,0.71,-1.26,-1.26,-1.26
21.87,-2.57,-1.32,-2.57,-1.32,1.32,0.85,0.73,-1.24,-1.24,-1.25
22.09,-2.55,-1.32,-2.55,-1.31,1.32,0.85,0.75,-1.23,-1.23,-1.23
22.31,-2.53,-1.31,-2.53,-1.31,1.31,0.85,0.77,-1.22,-1.22,-1.22
22.54,-2.52,-1.31,-2.51,-1.30,1.30,0.85,0.80,-1.22,-1.22,-1.21
22.76,-2.50,-1.30,-2.50,-1.29,1.29,0.85,0.82,-1.21,-1.21,-1.20
22.99,-2.48,-1.28,-2.48,-1.28,1.28,0.84,0.85,-1.20,-1.20,-1.20
23.22,-2.46,-1.26,-2.46,-1.26,1.27,0.84,0.87,-1.19,-1.19,-1.19
23.45,-2.44,-1.25,-2.44,-1.25,1.26,0.84,0.90,-1.18,-1.18,-1.18
23.69,-2.42,-1.24,-2.42,-1.25,1.25,0.84,0.92,-1.16,-1.17,-1.17
23.92,-2.41,-1.24,-2.40,-1.24,1.24,0.84,0.95,-1.16,-1.16,-1.16
24.16,-2.39,-1.24,-2.39,-1.24,1.24,0.83,0.98,-1.15,-1.15,-1.14
24.40,-2.37,-1.24,-2.37,-1.24,1.23,0.83,1.01,-1.14,-1.14,-1.12
24.65,-2.35,-1.22,-2.35,-1.23,1.22,0.83,1.03,-1.13,-1.12,-1.12
24.89,-2.33,-1.21,-2.33,-1.21,1.21,0.83,1.06,-1.11,-1.11,-1.11
25.14,-2.31,-1.20,-2.31,-1.20,1.21,0.83,1.09,-1.10,-1.10,-1.11
25.39,-2.29,-1.19,-2.29,-1.19,1.20,0.82,1.12,-1.09,-1.09,-1.10
25.65,-2.27,-1.19,-2.27,-1.19,1.19,0.82,1.15,-1.08,-1.08,-1.08
25.91,-2.26,-1.18,-2.25,-1.18,1.18,0.82,1.17,-1.08,-1.08,-1.08
26.16,-2.24,-1.17,-2.24,-1.17,1.17,0.82,1.20,-1.07,-1.07,-1.07
26.43,-2.22,-1.16,-2.22,-1.16,1.16,0.81,1.23,-1.06,-1.06,-1.06
26.69,-2.20,-1.15,-2.20,-1.15,1.15,0.81,1.26,-1.04,-1.04,-1.05
26.96,-2.18,-1.15,-2.18,-1.14,1.14,0.81,1.28,-1.03,-1.03,-1.03
27.23,-2.16,-1.14,-2.16,-1.14,1.13,0.81,1.31,-1.02,-1.02,-1.02
27.50,-2.14,-1.13,-2.14,-1.13,1.13,0.80,1.33,-1.01,-1.02,-1.01
27.77,-2.13,-1.12,-2.12,-1.12,1.12,0.80,1.36,-1.01,-1.01,-1.01
28.05,-2.11,-1.11,-2.11,-1.11,1.11,0.80,1.38,-1.00,-1.00,-0.99
28.33,-2.09,-1.09,-2.09,-1.10,1.10,0.79,1.40,-0.99,-0.99,-0.99
28.62,-2.07,-1.08,-2.07,-1.09,1.09,0.79,1.42,-0.98,-0.98,-0.98
28.90,-2.06,-1.08,-2.05,-1.08,1.08,0.79,1.43,-0.98,-0.97,-0.98
29.19,-2.04,-1.06,-2.04,-1.07,1.07,0.79,1.45,-0.97,-0.97,-0.98
29.48,-2.02,-1.07,-2.02,-1.06,1.06,0.78,1.46,-0.96,-0.96,-0.95
29.78,-2.00,-1.05,-2.00,-1.05,1.05,0.78,1.47,-0.95,-0.95,-0.95
30.08,-1.98,-1.04,-1.98,-1.04,1.03,0.78,1.48,-0.94,-0.94,-0.94
30.38,-1.96,-1.02,-1.96,-1.02,1.02,0.77,1.49,-0.93,-0.93,-0.94
30.68,-1.94,-1.02,-1.94,-1.01,1.01,0.77,1.49,-0.93,-0.93,-0.92
30.99,-1.92,-0.99,-1.92,-1.00,1.00,0.76,1.49,-0.92,-0.92,-0.92
31.30,-1.90,-0.98,-1.90,-0.98,0.98,0.76,1.49,-0.91,-0.91,-0.91
31.61,-1.88,-0.97,-1.88,-0.97,0.97,0.76,1.49,-0.90,-0.90,-0.90
31.93,-1.86,-0.96,-1.86,-0.96,0.97,0.75,1.48,-0.89,-0.90,-0.90
32.24,-1.85,-0.95,-1.85,-0.96,0.96,0.75,1.47,-0.89,-0.89,-0.90
32.57,-1.84,-0.96,-1.83,-0.95,0.95,0.75,1.46,-0.88,-0.88,-0.88
32.89,-1.82,-0.95,-1.82,-0.95,0.95,0.74,1.44,-0.87,-0.87,-0.87
33.22,-1.81,-0.95,-1.81,-0.95,0.94,0.74,1.43,-0.86,-0.86,-0.86
33.55,-1.80,-0.94,-1.79,-0.94,0.94,0.73,1.41,-0.86,-0.86,-0.85
33.89,-1.78,-0.93,-1.78,-0.94,0.93,0.73,1.39,-0.85,-0.85,-0.85
34.23,-1.77,-0.93,-1.76,-0.93,0.92,0.72,1.36,-0.84,-0.84,-0.84
34.57,-1.75,-0.92,-1.75,-0.91,0.92,0.72,1.34,-0.83,-0.83,-0.83
34.92,-1.73,-0.90,-1.73,-0.91,0.91,0.71,1.31,-0.82,-0.82,-0.83
35.27,-1.72,-0.89,-1.72,-0.90,0.90,0.71,1.28,-0.81,-0.82,-0.82
35.62,-1.72,-0.90,-1.71,-0.90,0.90,0.70,1.25,-0.82,-0.81,-0.81
35.97,-1.71,-0.89,-1.71,-0.90,0.90,0.70,1.22,-0.81,-0.81,-0.82
36.33,-1.71,-0.90,-1.70,-0.89,0.89,0.69,1.19,-0.81,-0.81,-0.81
36.70,-1.70,-0.89,-1.70,-0.89,0.89,0.69,1.16,-0.80,-0.81,-0.81
37.06,-1.70,-0.89,-1.70,-0.89,0.89,0.68,1.13,-0.80,-0.80,-0.80
37.43,-1.70,-0.90,-1.69,-0.89,0.89,0.67,1.09,-0.81,-0.80,-0.80
37.81,-1.69,-0.89,-1.69,-0.89,0.89,0.67,1.06,-0.80,-0.80,-0.80
38.19,-1.69,-0.89,-1.68,-0.88,0.88,0.66,1.02,-0.80,-0.80,-0.80
38.57,-1.68,-0.87,-1.68,-0.88,0.88,0.66,0.99,-0.80,-0.80,-0.80
38.95,-1.68,-0.87,-1.67,-0.87,0.87,0.65,0.96,-0.81,-0.81,-0.81
39.34,-1.67,-0.86,-1.67,-0.86,0.86,0.64,0.92,-0.81,-0.81,-0.81
39.74,-1.66,-0.84,-1.66,-0.85,0.85,0.64,0.89,-0.81,-0.81,-0.81
40.14,-1.65,-0.84,-1.65,-0.84,0.84,0.63,0.85,-0.81,-0.81,-0.81
40.54,-1.64,-0.83,-1.64,-0.83,0.83,0.62,0.82,-0.81,-0.81,-0.81
40.94,-1.63,-0.81,-1.63,-0.81,0.82,0.61,0.78,-0.81,-0.81,-0.81
41.35,-1.62,-0.80,-1.62,-0.80,0.81,0.61,0.75,-0.80,-0.80,-0.82
41.76,-1.61,-0.80,-1.61,-0.80,0.81,0.60,0.72,-0.80,-0.80,-0.81
42.18,-1.61,-0.80,-1.61,-0.80,0.80,0.59,0.68,-0.80,-0.81,-0.80
42.60,-1.61,-0.80,-1.61,-0.80,0.80,0.58,0.65,-0.81,-0.81,-0.81
43.03,-1.61,-0.80,-1.60,-0.80,0.79,0.57,0.62,-0.82,-0.81,-0.80
43.46,-1.60,-0.79,-1.60,-0.79,0.78,0.56,0.58,-0.82,-0.82,-0.81
43.90,-1.59,-0.77,-1.59,-0.78,0.77,0.55,0.55,-0.82,-0.82,-0.82
44.33,-1.58,-0.76,-1.58,-0.76,0.76,0.54,0.52,-0.82,-0.82,-0.82
44.78,-1.57,-0.75,-1.56,-0.74,0.74,0.53,0.49,-0.82,-0.82,-0.82
45.23,-1.55,-0.72,-1.55,-0.72,0.73,0.52,0.46,-0.82,-0.82,-0.83
45.68,-1.53,-0.71,-1.53,-0.70,0.71,0.51,0.43,-0.82,-0.82,-0.82
46.13,-1.51,-0.68,-1.51,-0.69,0.69,0.50,0.40,-0.82,-0.82,-0.83
46.60,-1.49,-0.67,-1.49,-0.67,0.67,0.49,0.37,-0.82,-0.82,-0.81
47.06,-1.47,-0.65,-1.46,-0.65,0.64,0.47,0.34,-0.82,-0.82,-0.82
47.53,-1.44,-0.61,-1.44,-0.63,0.62,0.46,0.32,-0.82,-0.82,-0.82
48.01,-1.42,-0.61,-1.41,-0.59,0.59,0.45,0.29,-0.83,-0.83,-0.81
48.49,-1.39,-0.56,-1.39,-0.56,0.55,0.43,0.26,-0.83,-0.83,-0.83
48.97,-1.36,-0.51,-1.36,-0.52,0.52,0.42,0.24,-0.84,-0.84,-0.84
49.46,-1.33,-0.48,-1.33,-0.47,0.48,0.41,0.21,-0.85,-0.85,-0.85
49.96,-1.30,-0.43,-1.30,-0.44,0.44,0.39,0.18,-0.86,-0.86,-0.87
50.46,-1.28,-0.41,-1.27,-0.40,0.40,0.37,0.16,-0.88,-0.87,-0.87
50.96,-1.25,-0.37,-1.25,-0.36,0.36,0.36,0.13,-0.88,-0.88,-0.87
51.47,-1.22,-0.31,-1.22,-0.32,0.32,0.34,0.11,-0.89,-0.89,-0.90
51.99,-1.19,-0.28,-1.19,-0.28,0.29,0.32,0.08,-0.90,-0.90,-0.91
52.51,-1.17,-0.26,-1.17,-0.25,0.25,0.30,0.06,-0.91,-0.91,-0.91
53.03,-1.15,-0.22,-1.15,-0.22,0.22,0.28,0.04,-0.93,-0.93,-0.93
53.56,-1.13,-0.19,-1.13,-0.19,0.18,0.26,0.01,-0.94,-0.94,-0.94
54.10,-1.11,-0.15,-1.11,-0.15,0.15,0.24,-0.01,-0.96,-0.96,-0.96
54.64,-1.09,-0.12,-1.09,-0.12,0.12,0.22,-0.03,-0.97,-0.97,-0.97
55.18,-1.08,-0.09,-1.08,-0.09,0.09,0.20,-0.05,-0.99,-0.99,-0.99
55.74,-1.07,-0.06,-1.06,-0.06,0.06,0.17,-0.07,-1.01,-1.00,-1.01
56.29,-1.05,-0.04,-1.05,-0.03,0.03,0.15,-0.09,-1.02,-1.02,-1.01
56.86,-1.04,-0.01,-1.04,-0.00,0.00,0.12,-0.11,-1.03,-1.03,-1.03
57.42,-1.03,0.03,-1.03,0.02,-0.02,0.10,-0.13,-1.05,-1.05,-1.05
58.00,-1.02,0.05,-1.02,0.05,-0.05,0.07,-0.15,-1.06,-1.06,-1.07
58.58,-1.01,0.07,-1.01,0.07,-0.07,0.04,-0.16,-1.08,-1.08,-1.08
59.16,-1.00,0.10,-1.00,0.10,-0.10,0.01,-0.18,-1.09,-1.09,-1.09
59.76,-0.99,0.12,-0.99,0.12,-0.12,-0.02,-0.20,-1.11,-1.11,-1.11
60.35,-0.99,0.14,-0.99,0.14,-0.15,-0.05,-0.21,-1.13,-1.13,-1.13
60.96,-0.99,0.17,-0.99,0.17,-0.17,-0.09,-0.23,-1.16,-1.16,-1.15
61.57,-1.00,0.19,-0.99,0.19,-0.19,-0.12,-0.24,-1.19,-1.19,-1.19
62.18,-1.00,0.23,-1.00,0.22,-0.22,-0.16,-0.25,-1.21,-1.22,-1.22
62.80,-1.01,0.23,-1.01,0.24,-0.24,-0.19,-0.27,-1.25,-1.25,-1.24
63.43,-1.01,0.27,-1.01,0.27,-0.27,-0.23,-0.28,-1.27,-1.28,-1.28
64.07,-1.02,0.29,-1.01,0.29,-0.29,-0.26,-0.29,-1.31,-1.30,-1.30
64.71,-1.02,0.31,-1.02,0.32,-0.31,-0.30,-0.30,-1.33,-1.33,-1.33
65.35,-1.02,0.34,-1.02,0.34,-0.34,-0.33,-0.31,-1.36,-1.36,-1.36
66.01,-1.02,0.37,-1.02,0.37,-0.37,-0.36,-0.32,-1.39,-1.39,-1.39
66.67,-1.02,0.39,-1.02,0.39,-0.40,-0.40,-0.33,-1.42,-1.42,-1.41
67.33,-1.02,0.42,-1.01,0.42,-0.43,-0.43,-0.34,-1.45,-1.44,-1.44
68.01,-1.01,0.46,-1.01,0.46,-0.46,-0.46,-0.34,-1.47,-1.47,-1.47
68.69,-1.00,0.50,-1.00,0.50,-0.50,-0.48,-0.35,-1.49,-1.50,-1.50
69.37,-1.00,0.53,-1.00,0.53,-0.53,-0.51,-0.36,-1.53,-1.53,-1.53
70.07,-1.00,0.56,-0.99,0.57,-0.56,-0.53,-0.37,-1.56,-1.55,-1.56
70.77,-0.99,0.60,-0.99,0.59,-0.59,-0.55,-0.37,-1.58,-1.58,-1.58
71.48,-0.99,0.62,-0.99,0.62,-0.62,-0.56,-0.38,-1.61,-1.61,-1.61
72.19,-1.00,0.64,-0.99,0.64,-0.64,-0.57,-0.38,-1.64,-1.63,-1.64
72.91,-1.01,0.66,-1.01,0.66,-0.65,-0.58,-0.39,-1.66,-1.66,-1.66
73.64,-1.02,0.67,-1.02,0.67,-0.66,-0.59,-0.40,-1.68,-1.68,-1.69
74.38,-1.04,0.67,-1.04,0.67,-0.67,-0.59,-0.40,-1.71,-1.71,-1.70
75.12,-1.06,0.67,-1.06,0.67,-0.67,-0.60,-0.41,-1.73,-1.73,-1.73
75.87,-1.09,0.66,-1.08,0.66,-0.67,-0.60,-0.41,-1.75,-1.75,-1.75
76.63,-1.11,0.66,-1.11,0.66,-0.66,-0.59,-0.42,-1.77,-1.77,-1.76
77.40,-1.13,0.65,-1.13,0.65,-0.65,-0.59,-0.42,-1.78,-1.78,-1.78
78.17,-1.16,0.64,-1.15,0.64,-0.64,-0.59,-0.43,-1.80,-1.79,-1.80
78.95,-1.18,0.63,-1.18,0.63,-0.63,-0.58,-0.44,-1.80,-1.81,-1.81
79.74,-1.21,0.61,-1.21,0.61,-0.61,-0.58,-0.44,-1.82,-1.82,-1.82
80.54,-1.24,0.59,-1.23,0.60,-0.60,-0.58,-0.45,-1.83,-1.83,-1.83
81.35,-1.26,0.58,-1.26,0.58,-0.58,-0.57,-0.46,-1.84,-1.84,-1.84
82.16,-1.28,0.57,-1.28,0.57,-0.57,-0.57,-0.46,-1.84,-1.85,-1.85
82.98,-1.31,0.55,-1.30,0.55,-0.55,-0.57,-0.47,-1.86,-1.86,-1.85
83.81,-1.33,0.54,-1.32,0.54,-0.54,-0.56,-0.48,-1.87,-1.87,-1.86
84.65,-1.34,0.54,-1.34,0.53,-0.53,-0.56,-0.49,-1.87,-1.87,-1.88
85.50,-1.35,0.52,-1.35,0.53,-0.53,-0.56,-0.49,-1.88,-1.88,-1.87
86.35,-1.36,0.52,-1.35,0.52,-0.53,-0.56,-0.50,-1.88,-1.88,-1.88
87.22,-1.36,0.52,-1.36,0.52,-0.53,-0.57,-0.51,-1.88,-1.88,-1.88
88.09,-1.36,0.53,-1.35,0.53,-0.53,-0.57,-0.52,-1.89,-1.88,-1.88
88.97,-1.35,0.53,-1.35,0.53,-0.53,-0.57,-0.53,-1.88,-1.88,-1.88
89.86,-1.34,0.54,-1.34,0.54,-0.54,-0.58,-0.54,-1.87,-1.88,-1.88
90.76,-1.34,0.55,-1.34,0.55,-0.54,-0.59,-0.55,-1.88,-1.88,-1.89
91.66,-1.34,0.55,-1.34,0.55,-0.55,-0.59,-0.56,-1.88,-1.88,-1.89
92.58,-1.34,0.56,-1.34,0.55,-0.55,-0.60,-0.57,-1.89,-1.89,-1.90
93.51,-1.34,0.55,-1.34,0.55,-0.55,-0.61,-0.58,-1.89,-1.89,-1.88
94.44,-1.34,0.55,-1.34,0.55,-0.56,-0.62,-0.60,-1.89,-1.89,-1.89
95.39,-1.34,0.55,-1.34,0.56,-0.56,-0.63,-0.61,-1.90,-1.90,-1.89
96.34,-1.34,0.57,-1.34,0.57,-0.57,-0.64,-0.62,-1.90,-1.90,-1.91
97.30,-1.34,0.58,-1.34,0.58,-0.57,-0.65,-0.64,-1.91,-1.91,-1.91
98.28,-1.34,0.59,-1.34,0.59,-0.58,-0.66,-0.65,-1.92,-1.92,-1.92
99.26,-1.34,0.60,-1.34,0.59,-0.59,-0.68,-0.66,-1.93,-1.93,-1.93
100.25,-1.34,0.60,-1.34,0.60,-0.60,-0.69,-0.68,-1.94,-1.94,-1.94
101.25,-1.34,0.61,-1.34,0.62,-0.62,-0.70,-0.69,-1.95,-1.95,-1.95
102.27,-1.34,0.63,-1.34,0.63,-0.63,-0.72,-0.71,-1.97,-1.97,-1.97
103.29,-1.34,0.65,-1.34,0.65,-0.65,-0.73,-0.72,-1.98,-1.98,-1.99
104.32,-1.34,0.66,-1.34,0.67,-0.66,-0.75,-0.74,-2.00,-2.00,-2.00
105.37,-1.34,0.68,-1.34,0.68,-0.69,-0.76,-0.75,-2.02,-2.03,-2.02
106.42,-1.34,0.71,-1.34,0.71,-0.71,-0.78,-0.77,-2.05,-2.05,-2.05
107.48,-1.34,0.73,-1.33,0.74,-0.74,-0.79,-0.79,-2.08,-2.08,-2.07
108.56,-1.33,0.78,-1.33,0.77,-0.78,-0.80,-0.80,-2.10,-2.11,-2.11
109.64,-1.33,0.81,-1.32,0.81,-0.81,-0.82,-0.82,-2.14,-2.13,-2.13
110.74,-1.32,0.85,-1.32,0.85,-0.85,-0.83,-0.84,-2.16,-2.16,-2.16
111.85,-1.32,0.89,-1.32,0.88,-0.88,-0.85,-0.85,-2.20,-2.20,-2.20
112.97,-1.33,0.92,-1.33,0.91,-0.91,-0.86,-0.87,-2.24,-2.24,-2.25
114.10,-1.35,0.93,-1.34,0.94,-0.94,-0.88,-0.89,-2.29,-2.29,-2.28
115.24,-1.37,0.96,-1.36,0.97,-0.97,-0.89,-0.90,-2.33,-2.33,-2.33
116.39,-1.38,1.00,-1.38,0.99,-0.98,-0.91,-0.92,-2.36,-2.37,-2.38
117.55,-1.41,1.01,-1.41,1.01,-1.00,-0.92,-0.94,-2.40,-2.41,-2.41
118.73,-1.45,1.01,-1.45,1.01,-1.01,-0.94,-0.95,-2.45,-2.45,-2.46
119.92,-1.49,1.00,-1.49,1.01,-1.01,-0.95,-0.97,-2.50,-2.50,-2.49
121.12,-1.53,1.01,-1.52,1.01,-1.02,-0.97,-0.99,-2.54,-2.54,-2.54
122.33,-1.55,1.02,-1.55,1.02,-1.02,-0.98,-1.01,-2.56,-2.57,-2.57
123.55,-1.58,1.02,-1.58,1.02,-1.02,-1.00,-1.02,-2.60,-2.60,-2.60
124.79,-1.61,1.03,-1.61,1.02,-1.03,-1.01,-1.04,-2.63,-2.64,-2.63
126.03,-1.65,1.02,-1.64,1.03,-1.04,-1.03,-1.05,-2.68,-2.67,-2.67
127.29,-1.66,1.05,-1.66,1.04,-1.05,-1.04,-1.07,-2.71,-2.71,-2.70
128.57,-1.68,1.07,-1.68,1.06,-1.07,-1.06,-1.09,-2.75,-2.75,-2.75
129.85,-1.69,1.08,-1.68,1.09,-1.09,-1.08,-1.10,-2.78,-2.78,-2.77
131.15,-1.69,1.12,-1.68,1.12,-1.12,-1.10,-1.12,-2.80,-2.80,-2.80
132.46,-1.68,1.15,-1.68,1.15,-1.15,-1.12,-1.14,-2.82,-2.82,-2.83
133.79,-1.67,1.18,-1.67,1.18,-1.18,-1.14,-1.15,-2.84,-2.85,-2.85
135.12,-1.67,1.21,-1.67,1.21,-1.21,-1.17,-1.17,-2.87,-2.87,-2.88
136.48,-1.67,1.23,-1.67,1.24,-1.24,-1.19,-1.19,-2.90,-2.90,-2.90
137.84,-1.67,1.26,-1.67,1.27,-1.26,-1.22,-1.21,-2.93,-2.93,-2.93
139.22,-1.67,1.29,-1.67,1.29,-1.29,-1.25,-1.22,-2.95,-2.95,-2.96
140.61,-1.67,1.32,-1.67,1.32,-1.31,-1.28,-1.24,-2.98,-2.98,-2.99
142.02,-1.67,1.33,-1.67,1.33,-1.33,-1.32,-1.26,-3.00,-3.00,-3.00
143.44,-1.67,1.35,-1.67,1.35,-1.35,-1.35,-1.28,-3.02,-3.02,-3.02
144.87,-1.67,1.38,-1.67,1.37,-1.38,-1.39,-1.30,-3.04,-3.04,-3.04
146.32,-1.67,1.40,-1.67,1.40,-1.40,-1.43,-1.32,-3.07,-3.07,-3.07
147.78,-1.67,1.42,-1.67,1.42,-1.43,-1.47,-1.34,-3.09,-3.09,-3.09
149.26,-1.67,1.44,-1.67,1.45,-1.45,-1.51,-1.36,-3.12,-3.12,-3.11
150.75,-1.67,1.49,-1.67,1.48,-1.48,-1.55,-1.39,-3.15,-3.15,-3.16
152.26,-1.67,1.51,-1.67,1.51,-1.51,-1.59,-1.41,-3.18,-3.18,-3.18
153.78,-1.67,1.54,-1.67,1.55,-1.54,-1.64,-1.44,-3.21,-3.21,-3.20
155.32,-1.67,1.58,-1.67,1.57,-1.57,-1.68,-1.46,-3.24,-3.24,-3.25
156.88,-1.67,1.60,-1.67,1.60,-1.61,-1.72,-1.49,-3.27,-3.27,-3.27
158.44,-1.67,1.64,-1.67,1.64,-1.64,-1.76,-1.52,-3.31,-3.31,-3.30
160.03,-1.67,1.68,-1.67,1.68,-1.68,-1.81,-1.55,-3.34,-3.34,-3.34
161.63,-1.67,1.72,-1.67,1.71,-1.71,-1.85,-1.58,-3.38,-3.38,-3.38
163.24,-1.67,1.75,-1.67,1.75,-1.75,-1.89,-1.61,-3.41,-3.41,-3.42
164.88,-1.67,1.78,-1.67,1.78,-1.78,-1.93,-1.64,-3.45,-3.45,-3.44
166.53,-1.67,1.82,-1.67,1.82,-1.82,-1.97,-1.68,-3.48,-3.48,-3.48
168.19,-1.67,1.86,-1.67,1.85,-1.85,-2.01,-1.71,-3.52,-3.52,-3.52
169.87,-1.67,1.89,-1.67,1.89,-1.89,-2.05,-1.75,-3.55,-3.55,-3.56
171.57,-1.67,1.93,-1.67,1.93,-1.92,-2.09,-1.79,-3.59,-3.59,-3.60
173.29,-1.68,1.97,-1.68,1.96,-1.96,-2.13,-1.83,-3.64,-3.64,-3.65
175.02,-1.69,2.00,-1.68,2.00,-2.01,-2.16,-1.87,-3.70,-3.69,-3.68
176.77,-1.69,2.05,-1.68,2.05,-2.06,-2.20,-1.91,-3.75,-3.75,-3.74
178.54,-1.67,2.12,-1.67,2.11,-2.12,-2.23,-1.96,-3.79,-3.80,-3.78
180.32,-1.66,2.17,-1.65,2.18,-2.19,-2.27,-2.01,-3.84,-3.84,-3.83
182.13,-1.63,2.25,-1.62,2.25,-2.26,-2.30,-2.05,-3.88,-3.88,-3.87
183.95,-1.59,2.34,-1.60,2.33,-2.33,-2.33,-2.10,-3.92,-3.93,-3.93
185.79,-1.57,2.40,-1.57,2.41,-2.40,-2.36,-2.15,-3.97,-3.97,-3.97
187.65,-1.55,2.49,-1.54,2.49,-2.48,-2.40,-2.20,-4.02,-4.02,-4.03
189.52,-1.52,2.56,-1.52,2.55,-2.55,-2.43,-2.26,-4.06,-4.07,-4.08
191.42,-1.51,2.61,-1.51,2.62,-2.61,-2.45,-2.31,-4.12,-4.11,-4.12
193.33,-1.50,2.67,-1.50,2.66,-2.67,-2.48,-2.37,-4.16,-4.16,-4.16
195.27,-1.50,2.71,-1.50,2.71,-2.71,-2.51,-2.42,-4.21,-4.21,-4.20
197.22,-1.51,2.75,-1.50,2.76,-2.76,-2.54,-2.48,-4.26,-4.26,-4.26
199.19,-1.51,2.80,-1.51,2.79,-2.79,-2.56,-2.54,-4.30,-4.30,-4.31
201.18,-1.52,2.83,-1.52,2.83,-2.82,-2.59,-2.60,-4.33,-4.34,-4.35
203.19,-1.54,2.84,-1.53,2.85,-2.84,-2.61,-2.66,-4.37,-4.37,-4.38
205.23,-1.56,2.87,-1.56,2.86,-2.85,-2.64,-2.72,-4.41,-4.41,-4.43
207.28,-1.59,2.86,-1.59,2.87,-2.87,-2.66,-2.77,-4.46,-4.46,-4.45
209.35,-1.62,2.88,-1.62,2.88,-2.88,-2.68,-2.83,-4.50,-4.50,-4.50
211.44,-1.65,2.90,-1.65,2.89,-2.90,-2.70,-2.89,-4.54,-4.55,-4.54
213.56,-1.68,2.90,-1.67,2.90,-2.92,-2.72,-2.95,-4.59,-4.58,-4.57
215.69,-1.68,2.91,-1.68,2.92,-2.94,-2.74,-3.01,-4.61,-4.62,-4.59
217.85,-1.68,2.95,-1.68,2.95,-2.96,-2.76,-3.07,-4.64,-4.64,-4.63
220.03,-1.68,2.99,-1.67,2.99,-2.98,-2.78,-3.12,-4.66,-4.66,-4.67
222.23,-1.67,3.03,-1.67,3.02,-3.01,-2.80,-3.17,-4.68,-4.68,-4.69
224.45,-1.67,3.04,-1.67,3.05,-3.04,-2.82,-3.22,-4.70,-4.70,-4.71
226.70,-1.67,3.06,-1.67,3.07,-3.06,-2.83,-3.27,-4.73,-4.73,-4.73
228.96,-1.67,3.09,-1.67,3.08,-3.08,-2.85,-3.32,-4.75,-4.75,-4.76
231.25,-1.67,3.09,-1.67,3.10,-3.10,-2.86,-3.36,-4.77,-4.77,-4.76
233.57,-1.67,3.11,-1.67,3.11,-3.11,-2.87,-3.40,-4.78,-4.78,-4.78
235.90,-1.67,3.13,-1.67,3.12,-3.12,-2.89,-3.43,-4.79,-4.79,-4.79
238.26,-1.67,3.13,-1.67,3.13,-3.13,-2.90,-3.47,-4.80,-4.80,-4.80
240.64,-1.67,3.14,-1.67,3.14,-3.14,-2.91,-3.49,-4.80,-4.80,-4.81
243.05,-1.67,3.13,-1.67,3.14,-3.14,-2.92,-3.52,-4.81,-4.81,-4.80
245.48,-1.67,3.14,-1.67,3.14,-3.14,-2.93,-3.53,-4.81,-4.81,-4.81
247.93,-1.67,3.13,-1.67,3.14,-3.14,-2.94,-3.55,-4.80,-4.80,-4.80
250.41,-1.67,3.14,-1.67,3.13,-3.13,-2.94,-3.55,-4.80,-4.80,-4.81
252.92,-1.67,3.12,-1.67,3.12,-3.12,-2.95,-3.56,-4.79,-4.79,-4.79
255.45,-1.67,3.11,-1.67,3.11,-3.11,-2.96,-3.56,-4.78,-4.78,-4.77
258.00,-1.67,3.10,-1.67,3.10,-3.10,-2.96,-3.55,-4.76,-4.77,-4.77
260.58,-1.68,3.09,-1.67,3.09,-3.08,-2.97,-3.54,-4.76,-4.76,-4.76
263.19,-1.68,3.07,-1.68,3.07,-3.07,-2.97,-3.53,-4.75,-4.75,-4.75
265.82,-1.68,3.06,-1.68,3.05,-3.06,-2.97,-3.51,-4.73,-4.74,-4.74
268.48,-1.68,3.04,-1.67,3.04,-3.05,-2.98,-3.49,-4.73,-4.72,-4.71
271.16,-1.67,3.03,-1.66,3.04,-3.05,-2.98,-3.46,-4.71,-4.71,-4.70
273.87,-1.64,3.05,-1.64,3.04,-3.05,-2.98,-3.44,-4.68,-4.69,-4.69
276.61,-1.62,3.05,-1.62,3.05,-3.06,-2.98,-3.40,-4.67,-4.67,-4.66
279.38,-1.60,3.06,-1.59,3.06,-3.07,-2.98,-3.37,-4.66,-4.66,-4.66
282.17,-1.56,3.08,-1.56,3.08,-3.08,-2.98,-3.33,-4.64,-4.64,-4.64
284.99,-1.53,3.10,-1.52,3.10,-3.10,-2.98,-3.30,-4.63,-4.63,-4.62
287.84,-1.49,3.13,-1.49,3.13,-3.12,-2.98,-3.26,-4.61,-4.61,-4.62
290.72,-1.45,3.15,-1.45,3.15,-3.14,-2.97,-3.22,-4.59,-4.59,-4.60
293.63,-1.42,3.16,-1.42,3.17,-3.16,-2.97,-3.17,-4.58,-4.58,-4.58
296.57,-1.39,3.18,-1.39,3.18,-3.18,-2.97,-3.13,-4.56,-4.57,-4.56
299.53,-1.37,3.19,-1.37,3.19,-3.19,-2.96,-3.09,-4.55,-4.55,-4.56
302.53,-1.35,3.20,-1.34,3.20,-3.19,-2.96,-3.05,-4.54,-4.54,-4.55
305.55,-1.33,3.19,-1.33,3.20,-3.19,-2.95,-3.00,-4.52,-4.52,-4.52
308.61,-1.32,3.20,-1.32,3.19,-3.19,-2.95,-2.96,-4.50,-4.51,-4.51
311.69,-1.32,3.19,-1.32,3.18,-3.18,-2.94,-2.92,-4.49,-4.49,-4.50
314.81,-1.33,3.15,-1.32,3.16,-3.17,-2.93,-2.88,-4.49,-4.49,-4.48
317.96,-1.33,3.15,-1.33,3.15,-3.15,-2.93,-2.84,-4.48,-4.48,-4.48
321.14,-1.34,3.13,-1.33,3.14,-3.14,-2.92,-2.80,-4.48,-4.48,-4.47
324.35,-1.34,3.14,-1.34,3.13,-3.13,-2.91,-2.76,-4.47,-4.47,-4.47
327.59,-1.34,3.12,-1.34,3.12,-3.13,-2.90,-2.72,-4.46,-4.47,-4.45
330.87,-1.34,3.12,-1.34,3.12,-3.12,-2.89,-2.69,-4.46,-4.46,-4.46
334.18,-1.34,3.12,-1.33,3.12,-3.12,-2.89,-2.66,-4.46,-4.46,-4.46
337.52,-1.33,3.12,-1.33,3.12,-3.12,-2.88,-2.63,-4.45,-4.45,-4.45
340.90,-1.32,3.12,-1.32,3.12,-3.12,-2.87,-2.60,-4.44,-4.44,-4.44
344.30,-1.32,3.12,-1.32,3.13,-3.12,-2.86,-2.57,-4.44,-4.44,-4.44
347.75,-1.32,3.13,-1.32,3.12,-3.12,-2.85,-2.54,-4.44,-4.44,-4.44
351.23,-1.33,3.12,-1.33,3.12,-3.11,-2.84,-2.52,-4.44,-4.44,-4.44
354.74,-1.34,3.11,-1.34,3.11,-3.10,-2.83,-2.50,-4.44,-4.44,-4.45
358.28,-1.37,3.09,-1.36,3.09,-3.09,-2.82,-2.47,-4.45,-4.45,-4.46
361.87,-1.39,3.07,-1.39,3.07,-3.07,-2.81,-2.46,-4.46,-4.46,-4.46
365.49,-1.42,3.04,-1.42,3.05,-3.05,-2.80,-2.44,-4.47,-4.47,-4.46
369.14,-1.45,3.02,-1.44,3.02,-3.03,-2.79,-2.42,-4.47,-4.47,-4.47
372.83,-1.47,3.00,-1.47,3.00,-3.00,-2.78,-2.41,-4.47,-4.48,-4.47
376.56,-1.51,2.97,-1.50,2.98,-2.98,-2.78,-2.40,-4.48,-4.48,-4.48
380.33,-1.53,2.96,-1.53,2.95,-2.95,-2.77,-2.39,-4.48,-4.48,-4.48
384.13,-1.57,2.93,-1.57,2.93,-2.92,-2.76,-2.38,-4.49,-4.49,-4.49
387.97,-1.61,2.90,-1.61,2.90,-2.90,-2.75,-2.38,-4.50,-4.50,-4.50
391.85,-1.65,2.87,-1.65,2.86,-2.87,-2.74,-2.37,-4.51,-4.51,-4.52
395.77,-1.69,2.82,-1.68,2.83,-2.84,-2.73,-2.37,-4.52,-4.52,-4.51
399.73,-1.72,2.80,-1.72,2.80,-2.80,-2.73,-2.37,-4.52,-4.52,-4.52
403.72,-1.76,2.77,-1.76,2.77,-2.76,-2.72,-2.37,-4.52,-4.52,-4.53
407.76,-1.80,2.74,-1.80,2.73,-2.72,-2.71,-2.37,-4.52,-4.52,-4.54
411.84,-1.85,2.68,-1.85,2.69,-2.68,-2.70,-2.38,-4.53,-4.53,-4.53
415.96,-1.90,2.64,-1.90,2.64,-2.64,-2.70,-2.38,-4.54,-4.54,-4.54
420.12,-1.95,2.59,-1.95,2.59,-2.59,-2.69,-2.39,-4.54,-4.54,-4.54
424.32,-2.01,2.53,-2.00,2.54,-2.54,-2.69,-2.40,-4.55,-4.55,-4.54
428.56,-2.06,2.49,-2.06,2.49,-2.49,-2.68,-2.40,-4.55,-4.55,-4.55
