frequency,raw
20.00,7.65
20.20,7.65
20.40,7.64
20.61,7.63
20.81,7.62
21.02,7.61
21.23,7.60
21.44,7.59
21.66,7.58
21.87,7.57
22.09,7.57
22.31,7.56
22.54,7.55
22.76,7.54
22.99,7.53
23.22,7.52
23.45,7.50
23.69,7.49
23.92,7.48
24.16,7.46
24.40,7.45
24.65,7.44
24.89,7.42
25.14,7.41
25.39,7.39
25.65,7.38
25.91,7.37
26.16,7.35
26.43,7.34
26.69,7.33
26.96,7.31
27.23,7.30
27.50,7.28
27.77,7.27
28.05,7.25
28.33,7.24
28.62,7.24
28.90,7.23
29.19,7.24
29.48,7.24
29.78,7.25
30.08,7.25
30.38,7.25
30.68,7.24
30.99,7.23
31.30,7.22
31.61,7.20
31.93,7.19
32.24,7.17
32.57,7.15
32.89,7.13
33.22,7.11
33.55,7.09
33.89,7.07
34.23,7.05
34.57,7.03
34.92,7.00
35.27,6.98
35.62,6.96
35.97,6.95
36.33,6.93
36.70,6.91
37.06,6.89
37.43,6.87
37.81,6.85
38.19,6.82
38.57,6.80
38.95,6.78
39.34,6.76
39.74,6.74
40.14,6.71
40.54,6.69
40.94,6.67
41.35,6.64
41.76,6.62
42.18,6.59
42.60,6.56
43.03,6.52
43.46,6.49
43.90,6.45
44.33,6.42
44.78,6.38
45.23,6.35
45.68,6.33
46.13,6.30
46.60,6.29
47.06,6.27
47.53,6.26
48.01,6.25
48.49,6.25
48.97,6.24
49.46,6.23
49.96,6.22
50.46,6.20
50.96,6.18
51.47,6.16
51.99,6.14
52.51,6.11
53.03,6.08
53.56,6.05
54.10,6.01
54.64,5.98
55.18,5.95
55.74,5.92
56.29,5.88
56.86,5.85
57.42,5.82
58.00,5.79
58.58,5.75
59.16,5.71
59.76,5.68
60.35,5.65
60.96,5.61
61.57,5.58
62.18,5.54
62.80,5.51
63.43,5.47
64.07,5.44
64.71,5.40
65.35,5.36
66.01,5.32
66.67,5.28
67.33,5.24
68.01,5.20
68.69,5.16
69.37,5.13
70.07,5.10
70.77,5.07
71.48,5.03
72.19,4.99
72.91,4.95
73.64,4.92
74.38,4.88
75.12,4.84
75.87,4.80
76.63,4.76
77.40,4.72
78.17,4.68
78.95,4.64
79.74,4.59
80.54,4.55
81.35,4.50
82.16,4.45
82.98,4.41
83.81,4.36
84.65,4.32
85.50,4.28
86.35,4.24
87.22,4.20
88.09,4.15
88.97,4.10
89.86,4.05
90.76,4.00
91.66,3.95
92.58,3.90
93.51,3.86
94.44,3.82
95.39,3.77
96.34,3.72
97.30,3.65
98.28,3.59
99.26,3.54
100.25,3.50
101.25,3.46
102.27,3.41
103.29,3.35
104.32,3.29
105.37,3.24
106.42,3.18
107.48,3.13
108.56,3.08
109.64,3.02
110.74,2.98
111.85,2.93
112.97,2.88
114.10,2.83
115.24,2.77
116.39,2.71
117.55,2.65
118.73,2.60
119.92,2.55
121.12,2.51
122.33,2.47
123.55,2.43
124.79,2.39
126.03,2.34
127.29,2.29
128.57,2.25
129.85,2.19
131.15,2.14
132.46,2.09
133.79,2.05
135.12,2.00
136.48,1.95
137.84,1.89
139.22,1.84
140.61,1.78
142.02,1.72
143.44,1.67
144.87,1.61
146.32,1.56
147.78,1.50
149.26,1.44
150.75,1.39
152.26,1.33
153.78,1.28
155.32,1.23
156.88,1.18
158.44,1.12
160.03,1.06
161.63,1.00
163.24,0.94
164.88,0.88
166.53,0.82
168.19,0.75
169.87,0.69
171.57,0.64
173.29,0.59
175.02,0.54
176.77,0.51
178.54,0.47
180.32,0.44
182.13,0.41
183.95,0.39
185.79,0.35
187.65,0.31
189.52,0.27
191.42,0.22
193.33,0.17
195.27,0.12
197.22,0.06
199.19,0.01
201.18,-0.05
203.19,-0.10
205.23,-0.16
207.28,-0.21
209.35,-0.26
211.44,-0.32
213.56,-0.37
215.69,-0.42
217.85,-0.48
220.03,-0.53
222.23,-0.58
224.45,-0.64
226.70,-0.69
228.96,-0.74
231.25,-0.80
233.57,-0.85
235.90,-0.90
238.26,-0.95
240.64,-1.00
243.05,-1.04
245.48,-1.08
247.93,-1.13
250.41,-1.17
252.92,-1.21
255.45,-1.25
258.00,-1.29
260.58,-1.33
263.19,-1.37
265.82,-1.41
268.48,-1.46
271.16,-1.51
273.87,-1.55
276.61,-1.60
279.38,-1.64
282.17,-1.69
284.99,-1.74
287.84,-1.78
290.72,-1.83
293.63,-1.87
296.57,-1.92
299.53,-1.96
302.53,-2.01
305.55,-2.05
308.61,-2.09
311.69,-2.14
314.81,-2.18
317.96,-2.22
321.14,-2.26
324.35,-2.30
327.59,-2.34
330.87,-2.38
334.18,-2.42
337.52,-2.46
340.90,-2.50
344.30,-2.54
347.75,-2.57
351.23,-2.61
354.74,-2.64
358.28,-2.68
361.87,-2.72
365.49,-2.75
369.14,-2.79
372.83,-2.82
376.56,-2.86
380.33,-2.89
384.13,-2.92
387.97,-2.96
391.85,-2.99
395.77,-3.02
399.73,-3.05
403.72,-3.08
407.76,-3.11
411.84,-3.14
415.96,-3.17
420.12,-3.20
424.32,-3.22
428.56,-3.25
432.85,-3.28
437.18,-3.30
441.55,-3.32
445.96,-3.34
450.42,-3.36
454.93,-3.38
459.48,-3.40
464.07,-3.41
468.71,-3.42
473.40,-3.43
478.13,-3.44
482.91,-3.44
487.74,-3.44
492.62,-3.44
497.55,-3.44
502.52,-3.43
507.55,-3.42
512.62,-3.40
517.75,-3.38
522.93,-3.36
528.16,-3.34
533.44,-3.31
538.77,-3.28
544.16,-3.25
549.60,-3.21
555.10,-3.18
560.65,-3.14
566.25,-3.10
571.92,-3.06
577.64,-3.02
583.41,-2.98
589.25,-2.94
595.14,-2.90
601.09,-2.86
607.10,-2.82
613.17,-2.78
619.30,-2.74
625.50,-2.70
631.75,-2.66
638.07,-2.62
644.45,-2.58
650.89,-2.54
657.40,-2.50
663.98,-2.46
670.62,-2.42
677.32,-2.38
684.10,-2.34
690.94,-2.30
697.85,-2.26
704.83,-2.22
711.87,-2.18
718.99,-2.14
726.18,-2.09
733.44,-2.05
740.78,-2.01
748.19,-1.96
755.67,-1.91
763.23,-1.87
770.86,-1.82
778.57,-1.77
786.35,-1.72
794.22,-1.67
802.16,-1.62
810.18,-1.56
818.28,-1.51
826.46,-1.45
834.73,-1.39
843.08,-1.33
851.51,-1.27
860.02,-1.20
868.62,-1.14
877.31,-1.07
886.08,-1.00
894.94,-0.93
903.89,-0.86
912.93,-0.78
922.06,-0.70
931.28,-0.62
940.59,-0.54
950.00,-0.46
959.50,-0.37
969.09,-0.29
978.78,-0.20
988.57,-0.11
998.46,-0.01
1008.44,0.08
1018.53,0.18
1028.71,0.27
1039.00,0.37
1049.39,0.47
1059.88,0.57
1070.48,0.66
1081.19,0.76
1092.00,0.86
1102.92,0.96
1113.95,1.06
1125.09,1.16
1136.34,1.26
1147.70,1.35
1159.18,1.44
1170.77,1.54
1182.48,1.63
1194.30,1.72
1206.25,1.80
1218.31,1.89
1230.49,1.97
1242.80,2.05
1255.22,2.13
1267.78,2.20
1280.45,2.28
1293.26,2.34
1306.19,2.41
1319.25,2.48
1332.45,2.54
1345.77,2.60
1359.23,2.66
1372.82,2.72
1386.55,2.77
1400.41,2.82
1414.42,2.87
1428.56,2.92
1442.85,2.97
1457.28,3.01
1471.85,3.06
1486.57,3.10
1501.43,3.14
1516.45,3.19
1531.61,3.23
1546.93,3.27
1562.40,3.31
1578.02,3.35
1593.80,3.39
1609.74,3.43
1625.84,3.47
1642.10,3.51
1658.52,3.55
1675.10,3.59
1691.85,3.64
1708.77,3.68
1725.86,3.72
1743.12,3.76
1760.55,3.79
1778.15,3.83
1795.94,3.87
1813.90,3.91
1832.03,3.94
1850.36,3.98
1868.86,4.01
1887.55,4.05
1906.42,4.09
1925.49,4.12
1944.74,4.16
1964.19,4.19
1983.83,4.22
2003.67,4.26
2023.71,4.29
2043.94,4.32
2064.38,4.36
2085.03,4.39
2105.88,4.42
2126.94,4.45
2148.20,4.48
2169.69,4.50
2191.38,4.52
2213.30,4.54
2235.43,4.55
2257.78,4.55
2280.36,4.56
2303.17,4.55
2326.20,4.55
2349.46,4.53
2372.95,4.52
2396.68,4.50
2420.65,4.47
2444.86,4.45
2469.31,4.42
2494.00,4.39
2518.94,4.37
2544.13,4.36
2569.57,4.36
2595.27,4.38
2621.22,4.40
2647.43,4.43
2673.90,4.46
2700.64,4.49
2727.65,4.50
2754.93,4.50
2782.48,4.49
2810.30,4.48
2838.40,4.46
2866.79,4.44
2895.46,4.42
2924.41,4.40
2953.65,4.38
2983.19,4.36
3013.02,4.34
3043.15,4.32
3073.58,4.30
3104.32,4.28
3135.36,4.26
3166.72,4.25
3198.38,4.24
3230.37,4.23
3262.67,4.22
3295.30,4.22
3328.25,4.22
3361.53,4.22
3395.15,4.23
3429.10,4.24
3463.39,4.26
3498.03,4.28
3533.01,4.31
3568.34,4.34
3604.02,4.38
3640.06,4.42
3676.46,4.46
3713.22,4.49
3750.36,4.53
3787.86,4.56
3825.74,4.60
3864.00,4.63
3902.64,4.67
3941.66,4.71
3981.08,4.75
4020.89,4.80
4061.10,4.85
4101.71,4.90
4142.73,4.97
4184.15,5.03
4226.00,5.10
4268.26,5.17
4310.94,5.22
4354.05,5.26
4397.59,5.29
4441.56,5.31
4485.98,5.30
4530.84,5.29
4576.15,5.27
4621.91,5.24
4668.13,5.19
4714.81,5.13
4761.96,5.07
4809.58,5.00
4857.67,4.92
4906.25,4.85
4955.31,4.78
5004.87,4.71
5054.91,4.62
5105.46,4.53
5156.52,4.40
5208.08,4.23
5260.16,3.99
5312.77,3.71
5365.89,3.36
5419.55,2.97
5473.75,2.56
5528.49,2.13
5583.77,1.70
5639.61,1.28
5696.00,0.87
5752.96,0.51
5810.49,0.16
5868.60,-0.15
5927.28,-0.43
5986.56,-0.69
6046.42,-0.90
6106.89,-1.09
6167.96,-1.25
6229.64,-1.37
6291.93,-1.47
6354.85,-1.52
6418.40,-1.55
6482.58,-1.55
6547.41,-1.51
6612.88,-1.43
6679.01,-1.31
6745.80,-1.15
6813.26,-0.95
6881.39,-0.70
6950.21,-0.39
7019.71,-0.05
7089.91,0.34
7160.81,0.77
7232.41,1.21
7304.74,1.67
7377.79,2.08
7451.56,2.43
7526.08,2.71
7601.34,2.91
7677.35,3.00
7754.13,3.06
7831.67,3.06
7909.98,3.06
7989.08,3.09
8068.98,3.19
8149.67,3.33
8231.16,3.52
8313.47,3.72
8396.61,3.90
8480.57,4.04
8565.38,4.08
8651.03,4.06
8737.54,3.95
8824.92,3.75
8913.17,3.48
9002.30,3.19
9092.32,2.86
9183.25,2.53
9275.08,2.23
9367.83,1.96
9461.51,1.76
9556.12,1.63
9651.68,1.58
9748.20,1.61
9845.68,1.75
9944.14,1.98
10043.58,2.29
10144.02,2.65
10245.46,3.05
10347.91,3.41
10451.39,3.69
10555.91,3.75
10661.46,3.60
10768.08,3.25
10875.76,2.63
10984.52,1.84
11094.36,1.01
11205.31,0.18
11317.36,-0.47
11430.53,-1.02
11544.84,-1.33
11660.29,-1.48
11776.89,-1.53
11894.66,-1.44
12013.60,-1.34
12133.74,-1.27
12255.08,-1.24
12377.63,-1.26
12501.41,-1.29
12626.42,-1.34
12752.68,-1.36
12880.21,-1.31
13009.01,-1.21
13139.10,-1.11
13270.49,-0.85
13403.20,-0.53
13537.23,-0.09
13672.60,0.39
13809.33,0.88
13947.42,1.26
14086.90,1.40
14227.77,1.37
14370.04,1.09
14513.74,0.51
14658.88,-0.38
14805.47,-1.29
14953.52,-2.25
15103.06,-3.05
15254.09,-3.78
15406.63,-4.22
15560.70,-4.69
15716.30,-5.22
15873.47,-6.00
16032.20,-6.83
16192.52,-7.56
16354.45,-7.94
16517.99,-8.07
16683.17,-7.73
16850.01,-7.14
17018.51,-6.34
17188.69,-5.26
17360.58,-4.15
17534.18,-3.06
17709.53,-2.13
17886.62,-1.44
18065.49,-0.98
18246.14,-0.77
18428.60,-1.01
18612.89,-1.60
18799.02,-2.54
18987.01,-3.88
19176.88,-5.65
19368.65,-7.61
19562.33,-9.67
19757.96,-11.70
19955.54,-13.73
