frequency,raw,smoothed,error,error_smoothed,equalization,parametric_eq,fixed_band_eq,equalized_raw,equalized_smoothed,target
20.00,-0.13,-0.13,-5.73,-5.73,5.71,5.51,1.69,5.59,5.59,5.60
20.20,-0.07,-0.06,-5.70,-5.70,5.69,5.46,1.74,5.63,5.63,5.63
20.40,-0.01,-0.00,-5.67,-5.66,5.67,5.41,1.79,5.66,5.67,5.66
20.61,0.05,0.06,-5.63,-5.63,5.64,5.36,1.85,5.70,5.70,5.68
20.81,0.11,0.12,-5.60,-5.60,5.61,5.31,1.90,5.73,5.73,5.71
21.02,0.17,0.17,-5.57,-5.56,5.58,5.27,1.96,5.75,5.75,5.74
21.23,0.22,0.22,-5.53,-5.53,5.54,5.22,2.02,5.76,5.76,5.75
21.44,0.26,0.27,-5.49,-5.50,5.50,5.17,2.08,5.76,5.76,5.76
21.66,0.30,0.31,-5.47,-5.46,5.45,5.12,2.14,5.76,5.76,5.77
21.87,0.36,0.35,-5.41,-5.42,5.40,5.08,2.21,5.76,5.76,5.77
22.09,0.41,0.41,-5.37,-5.37,5.35,5.03,2.27,5.75,5.76,5.78
22.31,0.48,0.47,-5.30,-5.30,5.29,4.98,2.34,5.77,5.77,5.78
22.54,0.54,0.55,-5.23,-5.23,5.23,4.93,2.41,5.78,5.78,5.78
22.76,0.61,0.61,-5.16,-5.16,5.17,4.89,2.48,5.79,5.79,5.78
22.99,0.68,0.68,-5.08,-5.09,5.12,4.84,2.56,5.80,5.79,5.77
23.22,0.72,0.73,-5.04,-5.04,5.06,4.79,2.63,5.78,5.78,5.76
23.45,0.77,0.77,-4.99,-4.99,5.00,4.75,2.71,5.77,5.77,5.76
23.69,0.81,0.81,-4.95,-4.95,4.94,4.70,2.79,5.75,5.75,5.76
23.92,0.87,0.87,-4.90,-4.90,4.88,4.65,2.86,5.74,5.75,5.76
24.16,0.93,0.93,-4.85,-4.84,4.82,4.61,2.95,5.74,5.75,5.77
24.40,1.01,1.00,-4.76,-4.77,4.76,4.56,3.03,5.76,5.76,5.77
24.65,1.07,1.08,-4.69,-4.69,4.69,4.52,3.11,5.77,5.77,5.76
24.89,1.16,1.15,-4.60,-4.61,4.63,4.47,3.19,5.78,5.78,5.76
25.14,1.22,1.21,-4.54,-4.55,4.56,4.43,3.28,5.78,5.77,5.76
25.39,1.27,1.27,-4.49,-4.49,4.49,4.38,3.36,5.76,5.76,5.76
25.65,1.31,1.31,-4.44,-4.44,4.43,4.34,3.45,5.75,5.75,5.76
25.91,1.36,1.36,-4.38,-4.38,4.37,4.29,3.53,5.74,5.74,5.74
26.16,1.42,1.42,-4.33,-4.33,4.32,4.25,3.62,5.74,5.74,5.74
26.43,1.47,1.47,-4.27,-4.27,4.27,4.20,3.70,5.75,5.75,5.74
26.69,1.52,1.52,-4.22,-4.22,4.23,4.16,3.78,5.75,5.75,5.74
26.96,1.57,1.57,-4.17,-4.17,4.18,4.12,3.86,5.76,5.75,5.74
27.23,1.60,1.61,-4.13,-4.13,4.14,4.07,3.94,5.75,5.75,5.74
27.50,1.63,1.63,-4.10,-4.10,4.10,4.03,4.02,5.73,5.73,5.74
27.77,1.66,1.66,-4.06,-4.06,4.05,3.99,4.09,5.72,5.72,5.73
28.05,1.69,1.70,-4.03,-4.02,4.00,3.94,4.16,5.70,5.71,5.72
28.33,1.75,1.75,-3.96,-3.97,3.95,3.90,4.22,5.71,5.70,5.71
28.62,1.80,1.80,-3.91,-3.91,3.90,3.86,4.29,5.70,5.70,5.71
28.90,1.86,1.86,-3.85,-3.84,3.84,3.82,4.34,5.70,5.70,5.71
29.19,1.92,1.93,-3.77,-3.78,3.78,3.77,4.39,5.71,5.71,5.70
29.48,1.98,1.99,-3.72,-3.71,3.73,3.73,4.43,5.72,5.72,5.71
29.78,2.04,2.04,-3.65,-3.66,3.68,3.69,4.47,5.73,5.72,5.69
30.08,2.08,2.08,-3.61,-3.62,3.64,3.65,4.50,5.72,5.71,5.69
30.38,2.09,2.09,-3.59,-3.59,3.59,3.61,4.53,5.69,5.69,5.68
30.68,2.10,2.10,-3.57,-3.57,3.55,3.57,4.54,5.65,5.65,5.68
30.99,2.11,2.13,-3.55,-3.54,3.51,3.53,4.55,5.62,5.64,5.67
31.30,2.17,2.17,-3.49,-3.49,3.47,3.49,4.55,5.64,5.64,5.66
31.61,2.23,2.23,-3.43,-3.42,3.43,3.44,4.54,5.66,5.66,5.66
31.93,2.30,2.29,-3.35,-3.36,3.39,3.40,4.52,5.69,5.68,5.65
32.24,2.33,2.33,-3.30,-3.31,3.33,3.36,4.50,5.67,5.66,5.64
32.57,2.35,2.36,-3.28,-3.28,3.28,3.32,4.47,5.63,5.63,5.64
32.89,2.37,2.38,-3.26,-3.25,3.22,3.28,4.43,5.60,5.61,5.63
33.22,2.42,2.43,-3.20,-3.19,3.17,3.25,4.39,5.59,5.60,5.62
33.55,2.50,2.49,-3.12,-3.12,3.11,3.21,4.34,5.61,5.61,5.62
33.89,2.56,2.56,-3.04,-3.05,3.06,3.17,4.28,5.62,5.62,5.60
34.23,2.61,2.61,-2.99,-2.99,3.01,3.13,4.22,5.62,5.62,5.60
34.57,2.64,2.65,-2.94,-2.94,2.95,3.09,4.15,5.60,5.60,5.59
34.92,2.68,2.68,-2.89,-2.90,2.90,3.05,4.08,5.58,5.58,5.57
35.27,2.71,2.72,-2.86,-2.85,2.85,3.01,4.00,5.56,5.56,5.57
35.62,2.75,2.75,-2.80,-2.81,2.80,2.97,3.92,5.55,5.55,5.56
35.97,2.78,2.79,-2.76,-2.76,2.76,2.93,3.84,5.54,5.54,5.54
36.33,2.82,2.83,-2.72,-2.71,2.71,2.90,3.76,5.54,5.54,5.54
36.70,2.86,2.86,-2.66,-2.66,2.66,2.86,3.67,5.53,5.53,5.53
37.06,2.90,2.90,-2.61,-2.62,2.62,2.82,3.58,5.52,5.52,5.51
37.43,2.93,2.94,-2.57,-2.57,2.57,2.78,3.49,5.50,5.50,5.51
37.81,2.97,2.97,-2.52,-2.52,2.52,2.74,3.40,5.49,5.49,5.49
38.19,3.01,3.01,-2.47,-2.47,2.47,2.71,3.31,5.48,5.48,5.48
38.57,3.05,3.05,-2.42,-2.42,2.42,2.67,3.22,5.47,5.47,5.47
38.95,3.09,3.09,-2.37,-2.37,2.37,2.63,3.13,5.46,5.46,5.46
39.34,3.12,3.13,-2.32,-2.32,2.32,2.59,3.04,5.44,5.44,5.44
39.74,3.16,3.16,-2.27,-2.27,2.26,2.55,2.95,5.43,5.43,5.43
40.14,3.20,3.20,-2.22,-2.22,2.21,2.52,2.86,5.41,5.41,5.42
40.54,3.24,3.24,-2.16,-2.17,2.16,2.48,2.77,5.41,5.41,5.41
40.94,3.28,3.29,-2.12,-2.11,2.12,2.44,2.68,5.40,5.41,5.40
41.35,3.33,3.33,-2.05,-2.06,2.08,2.40,2.60,5.41,5.41,5.39
41.76,3.37,3.37,-2.01,-2.01,2.03,2.36,2.52,5.41,5.40,5.38
42.18,3.39,3.38,-1.98,-1.99,1.99,2.33,2.43,5.38,5.37,5.37
42.60,3.39,3.39,-1.96,-1.97,1.94,2.29,2.35,5.33,5.34,5.36
43.03,3.39,3.42,-1.96,-1.93,1.89,2.25,2.27,5.29,5.31,5.35
43.46,3.46,3.46,-1.87,-1.87,1.85,2.21,2.20,5.31,5.31,5.33
43.90,3.52,3.51,-1.78,-1.80,1.80,2.17,2.12,5.33,5.32,5.31
44.33,3.56,3.56,-1.72,-1.73,1.76,2.13,2.05,5.32,5.32,5.29
44.78,3.58,3.58,-1.69,-1.69,1.71,2.09,1.97,5.29,5.29,5.27
45.23,3.59,3.59,-1.66,-1.66,1.66,2.06,1.90,5.25,5.25,5.25
45.68,3.59,3.60,-1.64,-1.64,1.62,2.02,1.83,5.21,5.22,5.23
46.13,3.60,3.62,-1.61,-1.59,1.59,1.98,1.77,5.19,5.21,5.21
46.60,3.66,3.66,-1.54,-1.54,1.56,1.94,1.70,5.22,5.21,5.20
47.06,3.70,3.69,-1.48,-1.50,1.53,1.90,1.64,5.23,5.21,5.18
47.53,3.69,3.70,-1.47,-1.47,1.49,1.86,1.57,5.18,5.19,5.17
48.01,3.69,3.68,-1.46,-1.46,1.44,1.82,1.51,5.13,5.12,5.15
48.49,3.68,3.68,-1.44,-1.45,1.38,1.78,1.45,5.07,5.06,5.12
48.97,3.67,3.72,-1.42,-1.37,1.33,1.73,1.39,5.00,5.05,5.09
49.46,3.78,3.79,-1.28,-1.27,1.28,1.69,1.34,5.06,5.06,5.06
49.96,3.90,3.86,-1.13,-1.18,1.22,1.65,1.28,5.13,5.08,5.03
50.46,3.90,3.91,-1.11,-1.11,1.17,1.61,1.22,5.07,5.07,5.02
50.96,3.89,3.91,-1.10,-1.08,1.11,1.56,1.17,5.00,5.01,5.00
51.47,3.89,3.89,-1.07,-1.07,1.05,1.52,1.12,4.95,4.95,4.96
51.99,3.89,3.91,-1.04,-1.04,1.00,1.48,1.07,4.90,4.91,4.94
52.51,3.93,3.93,-0.99,-0.99,0.96,1.43,1.02,4.90,4.90,4.92
53.03,3.97,3.97,-0.93,-0.93,0.93,1.39,0.97,4.90,4.89,4.90
53.56,3.99,3.99,-0.88,-0.88,0.90,1.34,0.92,4.89,4.89,4.88
54.10,4.00,4.00,-0.85,-0.85,0.86,1.30,0.87,4.87,4.87,4.85
54.64,3.99,4.00,-0.83,-0.82,0.83,1.25,0.82,4.83,4.83,4.82
55.18,3.99,4.00,-0.80,-0.80,0.80,1.20,0.77,4.80,4.80,4.80
55.74,3.99,3.98,-0.78,-0.79,0.78,1.15,0.73,4.77,4.76,4.77
56.29,3.97,3.96,-0.78,-0.79,0.77,1.11,0.68,4.74,4.73,4.75
56.86,3.92,3.95,-0.80,-0.78,0.77,1.06,0.64,4.70,4.72,4.72
57.42,3.92,3.93,-0.77,-0.77,0.78,1.01,0.59,4.71,4.71,4.70
58.00,3.93,3.92,-0.74,-0.76,0.80,0.96,0.54,4.73,4.71,4.68
58.58,3.88,3.87,-0.77,-0.78,0.81,0.91,0.50,4.70,4.69,4.66
59.16,3.81,3.79,-0.82,-0.84,0.83,0.85,0.45,4.65,4.63,4.64
59.76,3.69,3.72,-0.93,-0.89,0.85,0.80,0.41,4.54,4.58,4.62
60.35,3.65,3.68,-0.93,-0.91,0.87,0.75,0.36,4.53,4.55,4.58
60.96,3.69,3.65,-0.87,-0.90,0.89,0.69,0.32,4.58,4.54,4.56
61.57,3.63,3.63,-0.88,-0.89,0.90,0.64,0.27,4.54,4.53,4.52
62.18,3.57,3.58,-0.91,-0.90,0.92,0.58,0.23,4.49,4.50,4.48
62.80,3.52,3.54,-0.94,-0.91,0.93,0.53,0.18,4.45,4.47,4.46
63.43,3.51,3.52,-0.91,-0.91,0.94,0.47,0.14,4.45,4.45,4.42
64.07,3.52,3.49,-0.87,-0.91,0.94,0.41,0.09,4.46,4.43,4.40
64.71,3.43,3.44,-0.94,-0.93,0.94,0.35,0.04,4.37,4.38,4.37
65.35,3.38,3.40,-0.96,-0.95,0.93,0.29,-0.01,4.31,4.32,4.34
66.01,3.36,3.37,-0.95,-0.95,0.90,0.23,-0.05,4.26,4.27,4.32
66.67,3.39,3.40,-0.89,-0.89,0.85,0.17,-0.10,4.25,4.25,4.29
67.33,3.45,3.45,-0.80,-0.81,0.79,0.10,-0.15,4.24,4.24,4.26
68.01,3.52,3.51,-0.70,-0.72,0.71,0.04,-0.20,4.24,4.22,4.23
68.69,3.57,3.59,-0.62,-0.61,0.63,-0.02,-0.25,4.20,4.21,4.20
69.37,3.66,3.67,-0.51,-0.50,0.52,-0.09,-0.30,4.18,4.19,4.16
70.07,3.77,3.75,-0.36,-0.39,0.41,-0.15,-0.35,4.19,4.16,4.13
70.77,3.82,3.83,-0.28,-0.28,0.29,-0.22,-0.41,4.12,4.12,4.11
71.48,3.88,3.89,-0.19,-0.19,0.17,-0.29,-0.46,4.06,4.06,4.07
72.19,3.95,3.95,-0.08,-0.09,0.05,-0.36,-0.51,4.00,4.00,4.04
72.91,4.03,4.05,0.02,0.05,-0.07,-0.43,-0.57,3.95,3.98,4.00
73.64,4.17,4.17,0.21,0.21,-0.20,-0.50,-0.62,3.98,3.98,3.96
74.38,4.30,4.29,0.37,0.35,-0.32,-0.57,-0.68,3.98,3.96,3.94
75.12,4.40,4.39,0.51,0.49,-0.45,-0.64,-0.73,3.95,3.93,3.90
75.87,4.44,4.46,0.58,0.59,-0.59,-0.72,-0.79,3.86,3.87,3.87
76.63,4.53,4.54,0.70,0.70,-0.72,-0.79,-0.85,3.81,3.81,3.84
77.40,4.62,4.63,0.82,0.82,-0.85,-0.86,-0.91,3.77,3.77,3.81
78.17,4.73,4.75,0.97,0.97,-0.98,-0.94,-0.97,3.76,3.77,3.77
78.95,4.87,4.86,1.12,1.12,-1.10,-1.02,-1.03,3.77,3.76,3.74
79.74,4.97,4.95,1.26,1.24,-1.22,-1.09,-1.09,3.76,3.73,3.71
80.54,5.01,5.03,1.34,1.35,-1.34,-1.17,-1.16,3.68,3.69,3.68
81.35,5.07,5.10,1.43,1.46,-1.46,-1.25,-1.22,3.62,3.64,3.64
82.16,5.19,5.17,1.59,1.56,-1.57,-1.33,-1.29,3.62,3.60,3.61
82.98,5.25,5.25,1.68,1.68,-1.68,-1.41,-1.36,3.57,3.56,3.58
83.81,5.30,5.31,1.77,1.78,-1.79,-1.49,-1.42,3.52,3.53,3.53
84.65,5.37,5.38,1.88,1.88,-1.89,-1.57,-1.49,3.49,3.49,3.49
85.50,5.45,5.46,1.99,2.00,-1.99,-1.65,-1.56,3.47,3.47,3.47
86.35,5.54,5.53,2.12,2.11,-2.09,-1.73,-1.64,3.45,3.44,3.43
87.22,5.60,5.58,2.22,2.19,-2.19,-1.81,-1.71,3.41,3.39,3.39
88.09,5.60,5.62,2.26,2.27,-2.28,-1.89,-1.79,3.32,3.34,3.35
88.97,5.63,5.67,2.32,2.36,-2.38,-1.98,-1.86,3.26,3.30,3.32
89.86,5.76,5.73,2.49,2.46,-2.47,-2.06,-1.94,3.30,3.26,3.27
90.76,5.80,5.79,2.58,2.56,-2.55,-2.14,-2.02,3.25,3.24,3.22
91.66,5.81,5.83,2.63,2.64,-2.63,-2.23,-2.10,3.19,3.20,3.19
92.58,5.83,5.85,2.70,2.71,-2.70,-2.31,-2.18,3.13,3.15,3.14
93.51,5.88,5.88,2.78,2.78,-2.78,-2.39,-2.26,3.11,3.10,3.10
94.44,5.91,5.90,2.86,2.85,-2.84,-2.48,-2.35,3.07,3.06,3.06
95.39,5.91,5.91,2.90,2.90,-2.91,-2.56,-2.43,3.01,3.01,3.01
96.34,5.91,5.91,2.95,2.95,-2.97,-2.65,-2.52,2.95,2.95,2.96
97.30,5.91,5.93,3.00,3.01,-3.02,-2.73,-2.61,2.89,2.90,2.91
98.28,5.94,5.95,3.08,3.08,-3.08,-2.81,-2.70,2.87,2.87,2.87
99.26,5.98,5.96,3.16,3.14,-3.13,-2.90,-2.79,2.85,2.83,2.82
100.25,5.96,5.97,3.19,3.19,-3.17,-2.98,-2.88,2.79,2.79,2.78
101.25,5.94,5.95,3.21,3.22,-3.21,-3.07,-2.97,2.73,2.74,2.73
102.27,5.93,5.94,3.25,3.25,-3.25,-3.15,-3.06,2.69,2.69,2.69
103.29,5.92,5.92,3.30,3.28,-3.28,-3.23,-3.15,2.64,2.64,2.63
104.32,5.90,5.90,3.31,3.31,-3.31,-3.31,-3.24,2.59,2.59,2.59
105.37,5.87,5.87,3.33,3.33,-3.34,-3.40,-3.34,2.53,2.53,2.55
106.42,5.85,5.85,3.35,3.35,-3.38,-3.48,-3.43,2.48,2.47,2.50
107.48,5.83,5.85,3.38,3.40,-3.42,-3.56,-3.52,2.42,2.44,2.45
108.56,5.86,5.86,3.47,3.46,-3.46,-3.64,-3.60,2.41,2.41,2.40
109.64,5.88,5.87,3.53,3.51,-3.50,-3.72,-3.69,2.39,2.37,2.35
110.74,5.86,5.87,3.56,3.56,-3.54,-3.80,-3.78,2.32,2.32,2.31
111.85,5.84,5.85,3.58,3.60,-3.59,-3.88,-3.86,2.25,2.26,2.26
112.97,5.83,5.84,3.64,3.64,-3.64,-3.96,-3.94,2.19,2.19,2.19
114.10,5.83,5.83,3.69,3.69,-3.69,-4.03,-4.02,2.14,2.14,2.15
115.24,5.83,5.83,3.74,3.74,-3.74,-4.11,-4.09,2.09,2.09,2.09
116.39,5.83,5.83,3.79,3.79,-3.80,-4.18,-4.16,2.04,2.04,2.04
117.55,5.83,5.84,3.85,3.85,-3.85,-4.26,-4.23,1.99,1.99,1.99
118.73,5.84,5.84,3.91,3.91,-3.90,-4.33,-4.29,1.94,1.94,1.93
119.92,5.84,5.85,3.96,3.96,-3.96,-4.40,-4.35,1.88,1.88,1.89
121.12,5.85,5.86,4.02,4.02,-4.02,-4.48,-4.41,1.83,1.84,1.84
122.33,5.86,5.86,4.08,4.07,-4.08,-4.55,-4.45,1.79,1.79,1.78
123.55,5.87,5.87,4.13,4.13,-4.13,-4.61,-4.50,1.74,1.74,1.74
124.79,5.87,5.88,4.18,4.19,-4.18,-4.68,-4.53,1.69,1.69,1.69
126.03,5.88,5.89,4.24,4.25,-4.24,-4.75,-4.57,1.64,1.65,1.64
127.29,5.89,5.88,4.30,4.29,-4.30,-4.81,-4.60,1.60,1.58,1.59
128.57,5.88,5.88,4.35,4.35,-4.36,-4.88,-4.62,1.53,1.52,1.53
129.85,5.85,5.88,4.37,4.40,-4.41,-4.94,-4.64,1.44,1.47,1.48
131.15,5.90,5.89,4.47,4.46,-4.47,-5.00,-4.66,1.44,1.42,1.43
132.46,5.91,5.91,4.53,4.52,-4.52,-5.06,-4.67,1.40,1.39,1.39
133.79,5.91,5.93,4.56,4.58,-4.56,-5.12,-4.67,1.35,1.37,1.35
135.12,5.92,5.92,4.63,4.62,-4.60,-5.18,-4.68,1.32,1.32,1.29
136.48,5.92,5.91,4.67,4.65,-4.64,-5.23,-4.68,1.28,1.27,1.26
137.84,5.87,5.88,4.66,4.67,-4.68,-5.29,-4.67,1.20,1.21,1.21
139.22,5.84,5.85,4.68,4.68,-4.70,-5.34,-4.67,1.14,1.15,1.16
140.61,5.82,5.83,4.71,4.71,-4.72,-5.39,-4.66,1.11,1.12,1.12
142.02,5.83,5.83,4.74,4.74,-4.73,-5.44,-4.66,1.11,1.11,1.10
143.44,5.83,5.82,4.78,4.77,-4.74,-5.49,-4.65,1.09,1.08,1.06
144.87,5.80,5.79,4.79,4.78,-4.76,-5.53,-4.64,1.05,1.04,1.01
146.32,5.74,5.76,4.77,4.78,-4.79,-5.58,-4.63,0.96,0.97,0.98
147.78,5.72,5.73,4.78,4.79,-4.82,-5.62,-4.61,0.90,0.90,0.95
149.26,5.72,5.73,4.82,4.83,-4.87,-5.66,-4.61,0.85,0.86,0.91
150.75,5.76,5.76,4.90,4.90,-4.93,-5.70,-4.60,0.83,0.83,0.86
152.26,5.81,5.81,4.99,4.98,-4.99,-5.74,-4.59,0.82,0.81,0.83
153.78,5.85,5.86,5.06,5.07,-5.06,-5.78,-4.58,0.80,0.80,0.79
155.32,5.90,5.90,5.16,5.15,-5.12,-5.81,-4.58,0.79,0.79,0.74
156.88,5.93,5.93,5.22,5.22,-5.17,-5.84,-4.58,0.77,0.76,0.71
158.44,5.93,5.93,5.27,5.26,-5.21,-5.87,-4.58,0.72,0.71,0.67
160.03,5.90,5.90,5.28,5.27,-5.25,-5.90,-4.58,0.66,0.65,0.63
161.63,5.84,5.86,5.26,5.27,-5.28,-5.93,-4.59,0.56,0.57,0.58
163.24,5.82,5.83,5.28,5.28,-5.32,-5.96,-4.59,0.50,0.51,0.54
164.88,5.82,5.82,5.31,5.31,-5.37,-5.98,-4.61,0.46,0.46,0.51
166.53,5.84,5.85,5.37,5.37,-5.42,-6.01,-4.62,0.42,0.42,0.47
168.19,5.89,5.90,5.46,5.46,-5.49,-6.03,-4.64,0.40,0.41,0.44
169.87,5.95,5.97,5.56,5.57,-5.56,-6.05,-4.66,0.39,0.40,0.40
171.57,6.05,6.03,5.69,5.67,-5.64,-6.07,-4.69,0.42,0.40,0.36
173.29,6.08,6.08,5.76,5.75,-5.70,-6.08,-4.71,0.38,0.38,0.33
175.02,6.09,6.10,5.80,5.82,-5.76,-6.10,-4.75,0.33,0.34,0.29
176.77,6.08,6.09,5.84,5.84,-5.81,-6.11,-4.78,0.27,0.28,0.25
178.54,6.08,6.06,5.88,5.85,-5.86,-6.12,-4.82,0.22,0.20,0.20
180.32,6.02,6.03,5.86,5.86,-5.90,-6.13,-4.86,0.12,0.13,0.17
182.13,5.99,6.02,5.86,5.89,-5.94,-6.14,-4.91,0.05,0.08,0.14
183.95,6.03,6.04,5.94,5.94,-5.99,-6.15,-4.96,0.05,0.05,0.09
185.79,6.10,6.09,6.04,6.03,-6.03,-6.16,-5.02,0.07,0.05,0.06
187.65,6.13,6.13,6.11,6.10,-6.08,-6.16,-5.07,0.05,0.05,0.02
189.52,6.14,6.15,6.15,6.16,-6.13,-6.16,-5.13,0.01,0.02,-0.01
191.42,6.15,6.16,6.19,6.20,-6.18,-6.17,-5.20,-0.03,-0.02,-0.04
193.33,6.17,6.16,6.24,6.22,-6.22,-6.17,-5.27,-0.05,-0.07,-0.07
195.27,6.14,6.14,6.24,6.24,-6.25,-6.16,-5.34,-0.10,-0.10,-0.10
197.22,6.11,6.13,6.24,6.26,-6.26,-6.16,-5.41,-0.15,-0.13,-0.12
199.19,6.11,6.12,6.27,6.27,-6.26,-6.16,-5.48,-0.14,-0.14,-0.16
201.18,6.11,6.10,6.29,6.28,-6.25,-6.15,-5.56,-0.14,-0.16,-0.18
203.19,6.06,6.06,6.26,6.26,-6.24,-6.15,-5.64,-0.18,-0.18,-0.19
205.23,6.00,6.01,6.22,6.22,-6.23,-6.14,-5.72,-0.23,-0.23,-0.22
207.28,5.94,5.96,6.17,6.19,-6.22,-6.13,-5.81,-0.28,-0.27,-0.22
209.35,5.92,5.93,6.17,6.18,-6.21,-6.12,-5.89,-0.28,-0.28,-0.25
211.44,5.92,5.93,6.20,6.19,-6.19,-6.11,-5.98,-0.26,-0.26,-0.27
213.56,5.92,5.92,6.20,6.19,-6.17,-6.10,-6.06,-0.25,-0.25,-0.28
215.69,5.91,5.88,6.19,6.17,-6.15,-6.09,-6.14,-0.24,-0.27,-0.28
217.85,5.81,5.85,6.11,6.14,-6.13,-6.08,-6.22,-0.32,-0.28,-0.29
220.03,5.79,5.81,6.10,6.11,-6.11,-6.06,-6.30,-0.32,-0.30,-0.30
222.23,5.80,5.76,6.12,6.07,-6.09,-6.05,-6.38,-0.28,-0.33,-0.32
224.45,5.71,5.74,6.02,6.05,-6.05,-6.03,-6.45,-0.34,-0.32,-0.31
226.70,5.67,5.71,5.98,6.02,-6.02,-6.02,-6.52,-0.34,-0.31,-0.31
228.96,5.71,5.68,6.02,5.98,-5.98,-6.00,-6.59,-0.26,-0.30,-0.31
231.25,5.65,5.65,5.95,5.95,-5.94,-5.98,-6.65,-0.29,-0.29,-0.30
233.57,5.61,5.62,5.91,5.92,-5.91,-5.96,-6.70,-0.29,-0.29,-0.30
235.90,5.54,5.57,5.84,5.87,-5.88,-5.94,-6.75,-0.33,-0.31,-0.30
238.26,5.55,5.53,5.85,5.82,-5.85,-5.92,-6.79,-0.29,-0.32,-0.30
240.64,5.50,5.52,5.79,5.80,-5.81,-5.90,-6.82,-0.31,-0.30,-0.29
243.05,5.48,5.51,5.76,5.79,-5.78,-5.88,-6.85,-0.30,-0.27,-0.28
245.48,5.54,5.50,5.81,5.77,-5.76,-5.86,-6.86,-0.22,-0.26,-0.27
247.93,5.48,5.49,5.74,5.75,-5.74,-5.83,-6.87,-0.25,-0.25,-0.25
250.41,5.46,5.48,5.72,5.72,-5.72,-5.81,-6.86,-0.26,-0.24,-0.25
252.92,5.46,5.46,5.69,5.69,-5.71,-5.79,-6.85,-0.24,-0.25,-0.23
255.45,5.47,5.47,5.68,5.68,-5.70,-5.77,-6.83,-0.22,-0.22,-0.21
258.00,5.48,5.48,5.68,5.68,-5.68,-5.74,-6.80,-0.20,-0.20,-0.19
260.58,5.49,5.49,5.67,5.67,-5.67,-5.72,-6.76,-0.17,-0.18,-0.18
263.19,5.49,5.49,5.65,5.65,-5.65,-5.69,-6.71,-0.15,-0.15,-0.16
265.82,5.49,5.49,5.64,5.63,-5.62,-5.67,-6.66,-0.13,-0.13,-0.14
268.48,5.48,5.50,5.60,5.62,-5.59,-5.64,-6.60,-0.11,-0.09,-0.12
271.16,5.48,5.48,5.58,5.58,-5.55,-5.62,-6.53,-0.07,-0.07,-0.09
273.87,5.48,5.44,5.56,5.52,-5.51,-5.59,-6.45,-0.02,-0.07,-0.08
276.61,5.37,5.40,5.43,5.46,-5.46,-5.57,-6.37,-0.09,-0.06,-0.06
279.38,5.33,5.37,5.38,5.41,-5.42,-5.54,-6.29,-0.09,-0.05,-0.04
282.17,5.37,5.34,5.40,5.37,-5.39,-5.52,-6.20,-0.02,-0.05,-0.03
284.99,5.35,5.33,5.36,5.34,-5.37,-5.49,-6.11,-0.01,-0.03,-0.00
287.84,5.33,5.36,5.32,5.34,-5.36,-5.47,-6.02,-0.02,-0.00,0.01
290.72,5.34,5.39,5.31,5.35,-5.36,-5.44,-5.92,-0.02,0.02,0.04
293.63,5.49,5.43,5.44,5.37,-5.38,-5.42,-5.82,0.11,0.05,0.05
296.57,5.49,5.50,5.41,5.42,-5.40,-5.39,-5.73,0.09,0.09,0.08
299.53,5.50,5.56,5.41,5.46,-5.43,-5.37,-5.63,0.07,0.13,0.10
302.53,5.63,5.58,5.52,5.46,-5.46,-5.35,-5.53,0.17,0.12,0.11
305.55,5.64,5.64,5.50,5.50,-5.49,-5.32,-5.43,0.15,0.15,0.15
308.61,5.65,5.70,5.49,5.53,-5.53,-5.30,-5.34,0.13,0.17,0.17
311.69,5.77,5.73,5.58,5.53,-5.56,-5.28,-5.24,0.21,0.16,0.19
314.81,5.78,5.78,5.56,5.56,-5.59,-5.25,-5.15,0.19,0.19,0.23
317.96,5.80,5.86,5.56,5.61,-5.62,-5.23,-5.06,0.18,0.24,0.25
321.14,5.94,5.92,5.68,5.65,-5.64,-5.21,-4.97,0.30,0.27,0.26
324.35,5.99,5.97,5.72,5.69,-5.67,-5.19,-4.88,0.33,0.31,0.28
327.59,5.99,6.00,5.69,5.70,-5.67,-5.17,-4.80,0.32,0.33,0.31
330.87,5.98,5.99,5.66,5.67,-5.67,-5.15,-4.72,0.32,0.32,0.32
334.18,5.98,5.99,5.64,5.65,-5.65,-5.13,-4.64,0.34,0.34,0.34
337.52,5.98,5.99,5.63,5.63,-5.61,-5.12,-4.57,0.37,0.38,0.36
340.90,5.98,5.97,5.60,5.59,-5.57,-5.10,-4.50,0.42,0.40,0.39
344.30,5.93,5.92,5.53,5.51,-5.52,-5.08,-4.43,0.42,0.40,0.40
347.75,5.83,5.86,5.41,5.44,-5.45,-5.07,-4.36,0.38,0.41,0.42
351.23,5.78,5.80,5.35,5.37,-5.38,-5.05,-4.30,0.40,0.42,0.44
354.74,5.78,5.77,5.33,5.31,-5.31,-5.04,-4.24,0.47,0.46,0.46
358.28,5.74,5.74,5.27,5.26,-5.24,-5.03,-4.19,0.50,0.49,0.47
361.87,5.69,5.69,5.20,5.20,-5.18,-5.01,-4.14,0.51,0.51,0.49
365.49,5.61,5.61,5.11,5.11,-5.13,-5.00,-4.09,0.48,0.48,0.50
369.14,5.55,5.55,5.05,5.04,-5.09,-4.99,-4.04,0.47,0.46,0.51
372.83,5.50,5.54,4.98,5.02,-5.05,-4.98,-4.00,0.45,0.49,0.53
376.56,5.54,5.55,5.01,5.01,-5.03,-4.96,-3.96,0.52,0.53,0.53
380.33,5.62,5.56,5.06,5.00,-4.99,-4.95,-3.92,0.63,0.56,0.56
384.13,5.52,5.56,4.95,4.99,-4.96,-4.94,-3.89,0.57,0.60,0.57
387.97,5.51,5.54,4.93,4.96,-4.92,-4.93,-3.86,0.59,0.62,0.58
391.85,5.52,5.49,4.94,4.90,-4.88,-4.92,-3.83,0.65,0.62,0.59
395.77,5.46,5.47,4.86,4.87,-4.83,-4.90,-3.81,0.64,0.64,0.61
399.73,5.39,5.40,4.78,4.78,-4.77,-4.89,-3.78,0.62,0.63,0.62
403.72,5.33,5.30,4.71,4.67,-4.72,-4.87,-3.76,0.62,0.58,0.62
407.76,5.20,5.24,4.57,4.60,-4.66,-4.86,-3.74,0.54,0.58,0.63
411.84,5.17,5.23,4.52,4.58,-4.61,-4.84,-3.72,0.57,0.62,0.65
415.96,5.27,5.22,4.61,4.56,-4.56,-4.82,-3.71,0.71,0.66,0.66
420.12,5.26,5.22,4.60,4.55,-4.53,-4.80,-3.69,0.73,0.69,0.67
424.32,5.15,5.20,4.48,4.53,-4.50,-4.77,-3.68,0.65,0.70,0.68
428.56,5.14,5.15,4.46,4.47,-4.47,-4.74,-3.66,0.67,0.68,0.69
432.85,5.16,5.13,4.47,4.43,-4.44,-4.71,-3.65,0.72,0.69,0.70
437.18,5.10,5.14,4.40,4.43,-4.40,-4.68,-3.64,0.70,0.74,0.70
441.55,5.11,5.12,4.39,4.40,-4.37,-4.64,-3.62,0.75,0.75,0.72
445.96,5.14,5.08,4.41,4.35,-4.34,-4.60,-3.61,0.81,0.74,0.73
450.42,5.00,5.02,4.26,4.28,-4.32,-4.55,-3.60,0.69,0.70,0.74
454.93,4.96,4.98,4.20,4.22,-4.30,-4.50,-3.58,0.66,0.68,0.76
459.48,4.94,5.01,4.17,4.24,-4.28,-4.44,-3.56,0.66,0.72,0.77
464.07,5.09,5.06,4.31,4.27,-4.26,-4.38,-3.54,0.84,0.80,0.79
468.71,5.17,5.08,4.37,4.28,-4.22,-4.31,-3.52,0.95,0.86,0.81
473.40,5.01,5.08,4.20,4.26,-4.18,-4.24,-3.50,0.83,0.90,0.82
478.13,4.98,5.03,4.15,4.19,-4.13,-4.16,-3.48,0.85,0.89,0.84
482.91,4.99,4.94,4.15,4.09,-4.08,-4.08,-3.45,0.91,0.86,0.85
487.74,4.90,4.85,4.04,3.98,-4.02,-3.99,-3.42,0.88,0.82,0.87
492.62,4.70,4.79,3.82,3.91,-3.96,-3.90,-3.38,0.75,0.83,0.89
497.55,4.67,4.73,3.78,3.83,-3.89,-3.81,-3.35,0.79,0.84,0.89
502.52,4.81,4.68,3.90,3.77,-3.82,-3.71,-3.31,1.00,0.87,0.91
507.55,4.65,4.69,3.73,3.76,-3.74,-3.61,-3.26,0.91,0.95,0.92
512.62,4.57,4.66,3.63,3.72,-3.67,-3.50,-3.22,0.91,1.00,0.94
517.75,4.67,4.59,3.71,3.63,-3.60,-3.39,-3.17,1.08,0.99,0.96
522.93,4.54,4.53,3.56,3.55,-3.52,-3.28,-3.12,1.02,1.01,0.98
528.16,4.38,4.42,3.39,3.42,-3.43,-3.16,-3.06,0.96,0.99,0.99
533.44,4.27,4.28,3.26,3.27,-3.32,-3.05,-3.00,0.96,0.96,1.01
538.77,4.17,4.19,3.14,3.16,-3.19,-2.93,-2.94,0.98,1.00,1.03
544.16,4.12,4.13,3.07,3.08,-3.05,-2.80,-2.88,1.07,1.08,1.05
