frequency,raw,error,smoothed,error_smoothed,equalization,parametric_eq,equalized_raw,equalized_smoothed,target
20.00,-2.43,-5.53,-2.37,-5.45,5.45,1.66,3.02,3.08,3.10
20.20,-2.35,-5.45,-2.31,-5.39,5.39,1.71,3.04,3.08,3.10
20.40,-2.27,-5.37,-2.26,-5.34,5.34,1.76,3.06,3.08,3.10
20.61,-2.19,-5.29,-2.20,-5.28,5.28,1.81,3.09,3.08,3.10
20.81,-2.10,-5.20,-2.14,-5.22,5.22,1.86,3.12,3.08,3.10
21.02,-2.03,-5.13,-2.09,-5.17,5.17,1.92,3.14,3.08,3.10
21.23,-1.98,-5.08,-2.03,-5.12,5.12,1.98,3.14,3.09,3.09
21.44,-1.94,-5.04,-1.98,-5.07,5.07,2.03,3.12,3.09,3.09
21.66,-1.90,-5.00,-1.93,-5.02,5.02,2.09,3.11,3.09,3.09
21.87,-1.85,-4.94,-1.88,-4.97,4.97,2.15,3.11,3.09,3.09
22.09,-1.82,-4.91,-1.83,-4.92,4.92,2.22,3.10,3.09,3.09
22.31,-1.79,-4.88,-1.78,-4.87,4.87,2.28,3.08,3.09,3.09
22.54,-1.75,-4.84,-1.75,-4.83,4.83,2.35,3.08,3.08,3.09
22.76,-1.72,-4.81,-1.71,-4.79,4.79,2.42,3.07,3.08,3.09
22.99,-1.69,-4.78,-1.67,-4.75,4.75,2.49,3.06,3.08,3.09
23.22,-1.65,-4.74,-1.63,-4.71,4.71,2.56,3.05,3.08,3.09
23.45,-1.60,-4.69,-1.59,-4.67,4.67,2.63,3.06,3.07,3.08
23.69,-1.56,-4.65,-1.55,-4.62,4.62,2.71,3.06,3.07,3.08
23.92,-1.51,-4.59,-1.50,-4.58,4.58,2.78,3.07,3.07,3.08
24.16,-1.46,-4.54,-1.46,-4.53,4.53,2.86,3.07,3.07,3.08
24.40,-1.41,-4.49,-1.41,-4.48,4.48,2.94,3.07,3.07,3.08
24.65,-1.35,-4.43,-1.36,-4.44,4.44,3.02,3.08,3.07,3.08
24.89,-1.29,-4.37,-1.31,-4.39,4.39,3.10,3.10,3.07,3.08
25.14,-1.25,-4.33,-1.26,-4.34,4.34,3.18,3.09,3.07,3.07
25.39,-1.21,-4.28,-1.22,-4.29,4.29,3.26,3.08,3.07,3.07
25.65,-1.17,-4.24,-1.17,-4.24,4.24,3.34,3.07,3.07,3.07
25.91,-1.13,-4.20,-1.12,-4.19,4.19,3.42,3.06,3.07,3.07
26.16,-1.09,-4.16,-1.08,-4.14,4.14,3.51,3.05,3.06,3.07
26.43,-1.03,-4.10,-1.03,-4.09,4.09,3.59,3.06,3.06,3.07
26.69,-0.98,-4.05,-0.98,-4.05,4.05,3.67,3.06,3.06,3.06
26.96,-0.93,-4.00,-0.94,-4.00,4.00,3.74,3.07,3.06,3.06
27.23,-0.89,-3.95,-0.90,-3.96,3.96,3.82,3.06,3.06,3.06
27.50,-0.86,-3.92,-0.86,-3.92,3.92,3.90,3.05,3.06,3.06
27.77,-0.83,-3.89,-0.82,-3.87,3.87,3.97,3.04,3.05,3.06
28.05,-0.80,-3.86,-0.78,-3.83,3.83,4.04,3.03,3.05,3.05
28.33,-0.74,-3.79,-0.74,-3.79,3.79,4.10,3.05,3.05,3.05
28.62,-0.68,-3.73,-0.71,-3.76,3.76,4.16,3.07,3.05,3.05
28.90,-0.62,-3.67,-0.67,-3.72,3.72,4.22,3.10,3.05,3.05
29.19,-0.60,-3.65,-0.64,-3.68,3.68,4.27,3.08,3.04,3.05
29.48,-0.61,-3.66,-0.61,-3.65,3.65,4.32,3.04,3.04,3.04
29.78,-0.62,-3.66,-0.58,-3.62,3.62,4.36,3.00,3.03,3.04
30.08,-0.60,-3.64,-0.55,-3.58,3.58,4.39,2.98,3.03,3.04
30.38,-0.54,-3.58,-0.52,-3.55,3.55,4.42,3.01,3.03,3.04
30.68,-0.48,-3.52,-0.49,-3.52,3.52,4.44,3.04,3.03,3.03
30.99,-0.42,-3.45,-0.46,-3.49,3.49,4.46,3.06,3.03,3.03
31.30,-0.41,-3.44,-0.43,-3.46,3.46,4.47,3.04,3.02,3.03
31.61,-0.41,-3.44,-0.41,-3.42,3.42,4.47,3.01,3.01,3.03
31.93,-0.40,-3.43,-0.38,-3.39,3.39,4.46,2.99,3.01,3.02
32.24,-0.36,-3.38,-0.35,-3.35,3.35,4.45,2.99,3.01,3.02
32.57,-0.30,-3.32,-0.31,-3.32,3.32,4.43,3.02,3.01,3.02
32.89,-0.24,-3.26,-0.27,-3.29,3.29,4.41,3.04,3.01,3.01
33.22,-0.22,-3.23,-0.24,-3.25,3.25,4.37,3.03,3.02,3.01
33.55,-0.23,-3.24,-0.21,-3.22,3.22,4.34,2.99,3.01,3.01
33.89,-0.24,-3.25,-0.19,-3.19,3.19,4.29,2.95,3.00,3.00
34.23,-0.19,-3.19,-0.17,-3.16,3.16,4.25,2.96,2.99,3.00
34.57,-0.12,-3.12,-0.14,-3.12,3.12,4.20,3.00,2.98,3.00
34.92,-0.05,-3.05,-0.11,-3.09,3.09,4.14,3.04,2.98,2.99
35.27,-0.02,-3.01,-0.08,-3.06,3.06,4.08,3.04,2.98,2.99
35.62,-0.02,-3.01,-0.05,-3.03,3.03,4.02,3.01,2.98,2.99
35.97,-0.01,-2.99,-0.02,-3.00,3.00,3.96,2.98,2.98,2.98
36.33,-0.02,-3.00,0.00,-2.96,2.96,3.89,2.94,2.97,2.98
36.70,-0.02,-2.99,0.03,-2.93,2.93,3.83,2.91,2.96,2.97
37.06,-0.02,-2.99,0.06,-2.90,2.90,3.76,2.88,2.96,2.97
37.43,0.07,-2.89,0.10,-2.86,2.86,3.69,2.93,2.96,2.96
37.81,0.16,-2.80,0.13,-2.83,2.83,3.62,2.99,2.96,2.96
38.19,0.20,-2.76,0.15,-2.79,2.79,3.55,2.99,2.95,2.95
38.57,0.21,-2.74,0.18,-2.76,2.76,3.48,2.97,2.93,2.95
38.95,0.22,-2.73,0.20,-2.72,2.72,3.41,2.94,2.93,2.94
39.34,0.24,-2.70,0.24,-2.68,2.68,3.35,2.92,2.92,2.94
39.74,0.26,-2.68,0.28,-2.65,2.65,3.28,2.90,2.92,2.93
40.14,0.30,-2.63,0.31,-2.61,2.61,3.21,2.91,2.92,2.93
40.54,0.34,-2.58,0.35,-2.58,2.58,3.15,2.92,2.92,2.92
40.94,0.38,-2.54,0.38,-2.55,2.55,3.09,2.93,2.92,2.92
41.35,0.39,-2.52,0.40,-2.52,2.52,3.03,2.91,2.92,2.91
41.76,0.39,-2.52,0.41,-2.49,2.49,2.97,2.88,2.90,2.90
42.18,0.42,-2.48,0.41,-2.46,2.46,2.91,2.88,2.88,2.90
42.60,0.48,-2.41,0.43,-2.44,2.44,2.86,2.92,2.87,2.89
43.03,0.53,-2.36,0.45,-2.42,2.42,2.81,2.94,2.86,2.88
43.46,0.51,-2.37,0.47,-2.39,2.39,2.76,2.90,2.86,2.88
43.90,0.49,-2.38,0.49,-2.37,2.37,2.71,2.85,2.85,2.87
44.33,0.49,-2.37,0.51,-2.34,2.34,2.66,2.83,2.85,2.86
44.78,0.49,-2.37,0.53,-2.31,2.31,2.62,2.80,2.84,2.85
45.23,0.48,-2.37,0.54,-2.29,2.29,2.58,2.76,2.83,2.85
45.68,0.46,-2.38,0.56,-2.26,2.26,2.54,2.72,2.82,2.84
46.13,0.49,-2.34,0.58,-2.23,2.23,2.50,2.72,2.81,2.83
46.60,0.62,-2.21,0.60,-2.20,2.20,2.46,2.82,2.80,2.82
47.06,0.73,-2.09,0.62,-2.17,2.17,2.43,2.90,2.79,2.81
47.53,0.71,-2.10,0.64,-2.15,2.15,2.40,2.86,2.79,2.80
48.01,0.69,-2.11,0.66,-2.13,2.13,2.37,2.82,2.79,2.79
48.49,0.69,-2.10,0.68,-2.11,2.11,2.34,2.79,2.79,2.79
48.97,0.69,-2.09,0.69,-2.09,2.09,2.31,2.78,2.78,2.78
49.46,0.69,-2.08,0.69,-2.08,2.08,2.29,2.76,2.77,2.77
49.96,0.69,-2.07,0.69,-2.07,2.07,2.26,2.75,2.75,2.75
50.46,0.69,-2.06,0.68,-2.06,2.06,2.24,2.75,2.74,2.74
50.96,0.69,-2.05,0.66,-2.06,2.06,2.22,2.74,2.72,2.73
51.47,0.70,-2.02,0.64,-2.05,2.05,2.20,2.75,2.70,2.72
51.99,0.72,-1.99,0.63,-2.05,2.05,2.19,2.77,2.68,2.71
52.51,0.61,-2.09,0.62,-2.05,2.05,2.17,2.66,2.66,2.70
53.03,0.51,-2.18,0.61,-2.04,2.04,2.15,2.55,2.65,2.69
53.56,0.48,-2.20,0.61,-2.04,2.04,2.14,2.52,2.65,2.67
54.10,0.47,-2.19,0.60,-2.04,2.04,2.12,2.51,2.64,2.66
54.64,0.50,-2.15,0.58,-2.05,2.05,2.11,2.55,2.63,2.65
55.18,0.54,-2.10,0.55,-2.06,2.06,2.09,2.60,2.62,2.63
55.74,0.57,-2.05,0.52,-2.08,2.08,2.07,2.65,2.60,2.62
56.29,0.60,-2.01,0.48,-2.10,2.10,2.06,2.70,2.59,2.61
56.86,0.61,-1.98,0.44,-2.13,2.13,2.04,2.74,2.57,2.59
57.42,0.53,-2.05,0.39,-2.17,2.17,2.03,2.69,2.56,2.58
58.00,0.42,-2.14,0.33,-2.21,2.21,2.01,2.63,2.54,2.56
58.58,0.33,-2.22,0.27,-2.26,2.26,1.99,2.58,2.52,2.55
59.16,0.22,-2.31,0.21,-2.30,2.30,1.97,2.52,2.51,2.53
59.76,0.09,-2.42,0.14,-2.35,2.35,1.95,2.44,2.49,2.51
60.35,-0.00,-2.50,0.08,-2.40,2.40,1.93,2.39,2.47,2.50
60.96,-0.07,-2.55,0.01,-2.43,2.43,1.91,2.36,2.44,2.48
61.57,-0.07,-2.53,-0.04,-2.46,2.46,1.89,2.39,2.42,2.46
62.18,-0.10,-2.55,-0.08,-2.48,2.48,1.86,2.38,2.40,2.44
62.80,-0.20,-2.63,-0.10,-2.48,2.48,1.83,2.28,2.38,2.43
63.43,-0.20,-2.61,-0.11,-2.47,2.47,1.80,2.26,2.36,2.41
64.07,-0.14,-2.53,-0.09,-2.43,2.43,1.77,2.29,2.34,2.39
64.71,-0.02,-2.39,-0.04,-2.38,2.38,1.74,2.35,2.33,2.37
65.35,0.06,-2.29,0.01,-2.31,2.31,1.71,2.37,2.32,2.35
66.01,0.09,-2.24,0.09,-2.23,2.23,1.67,2.31,2.31,2.33
66.67,0.16,-2.15,0.17,-2.13,2.13,1.64,2.29,2.30,2.31
67.33,0.25,-2.04,0.25,-2.03,2.03,1.60,2.28,2.28,2.28
68.01,0.37,-1.90,0.34,-1.92,1.92,1.56,2.29,2.26,2.26
68.69,0.43,-1.81,0.44,-1.81,1.81,1.52,2.23,2.24,2.24
69.37,0.50,-1.72,0.53,-1.69,1.69,1.48,2.19,2.23,2.22
70.07,0.59,-1.61,0.62,-1.58,1.58,1.43,2.17,2.21,2.19
70.77,0.81,-1.36,0.71,-1.47,1.47,1.39,2.28,2.18,2.17
71.48,0.86,-1.29,0.78,-1.37,1.37,1.34,2.23,2.15,2.15
72.19,0.86,-1.26,0.85,-1.27,1.27,1.30,2.13,2.12,2.12
72.91,0.92,-1.18,0.91,-1.18,1.18,1.25,2.10,2.10,2.10
73.64,0.97,-1.10,0.97,-1.10,1.10,1.21,2.07,2.07,2.07
74.38,1.03,-1.02,1.02,-1.03,1.03,1.16,2.06,2.05,2.05
75.12,1.10,-0.92,1.06,-0.96,0.96,1.11,2.06,2.03,2.02
75.87,1.16,-0.84,1.10,-0.90,0.90,1.06,2.06,2.00,1.99
76.63,1.07,-0.90,1.12,-0.85,0.85,1.02,1.92,1.97,1.97
77.40,1.08,-0.86,1.14,-0.80,0.80,0.97,1.88,1.93,1.94
78.17,1.19,-0.72,1.15,-0.75,0.75,0.92,1.94,1.90,1.91
78.95,1.19,-0.70,1.15,-0.71,0.71,0.87,1.90,1.86,1.88
79.74,1.19,-0.67,1.17,-0.67,0.67,0.82,1.85,1.84,1.85
80.54,1.19,-0.64,1.19,-0.62,0.62,0.78,1.81,1.81,1.83
81.35,1.19,-0.61,1.21,-0.58,0.58,0.73,1.77,1.78,1.80
82.16,1.19,-0.58,1.22,-0.53,0.53,0.68,1.72,1.75,1.77
82.98,1.19,-0.55,1.24,-0.48,0.48,0.64,1.67,1.72,1.74
83.81,1.19,-0.52,1.26,-0.43,0.43,0.59,1.62,1.69,1.71
84.65,1.24,-0.44,1.28,-0.39,0.39,0.54,1.62,1.66,1.68
85.50,1.30,-0.35,1.30,-0.34,0.34,0.49,1.63,1.64,1.65
86.35,1.35,-0.27,1.32,-0.29,0.29,0.45,1.63,1.60,1.62
87.22,1.39,-0.20,1.33,-0.24,0.24,0.40,1.62,1.57,1.58
88.09,1.40,-0.15,1.35,-0.19,0.19,0.36,1.59,1.54,1.55
88.97,1.40,-0.12,1.37,-0.14,0.14,0.31,1.54,1.51,1.52
89.86,1.40,-0.09,1.39,-0.10,0.10,0.27,1.50,1.49,1.49
90.76,1.40,-0.06,1.40,-0.06,0.06,0.22,1.46,1.46,1.46
91.66,1.40,-0.03,1.41,-0.02,0.02,0.18,1.42,1.43,1.42
92.58,1.40,0.01,1.41,0.02,-0.02,0.13,1.38,1.40,1.39
93.51,1.40,0.04,1.41,0.05,-0.05,0.09,1.35,1.36,1.36
94.44,1.40,0.07,1.40,0.08,-0.08,0.04,1.32,1.32,1.33
95.39,1.40,0.10,1.39,0.11,-0.11,-0.00,1.29,1.28,1.29
96.34,1.40,0.14,1.38,0.14,-0.14,-0.05,1.26,1.24,1.26
97.30,1.39,0.16,1.38,0.16,-0.16,-0.09,1.22,1.21,1.23
98.28,1.38,0.18,1.38,0.19,-0.19,-0.13,1.18,1.18,1.19
99.26,1.37,0.21,1.38,0.22,-0.22,-0.18,1.15,1.15,1.16
100.25,1.35,0.22,1.37,0.25,-0.25,-0.22,1.10,1.12,1.13
101.25,1.33,0.23,1.37,0.28,-0.28,-0.26,1.05,1.09,1.09
102.27,1.32,0.26,1.36,0.30,-0.30,-0.30,1.01,1.06,1.06
103.29,1.31,0.28,1.35,0.33,-0.33,-0.34,0.98,1.02,1.03
104.32,1.35,0.35,1.34,0.36,-0.36,-0.39,0.99,0.99,1.00
105.37,1.44,0.48,1.33,0.38,-0.38,-0.43,1.06,0.95,0.96
106.42,1.40,0.47,1.32,0.40,-0.40,-0.47,1.00,0.92,0.93
107.48,1.33,0.43,1.30,0.42,-0.42,-0.50,0.91,0.88,0.89
108.56,1.29,0.43,1.29,0.44,-0.44,-0.54,0.85,0.85,0.86
109.64,1.27,0.44,1.28,0.46,-0.46,-0.58,0.81,0.82,0.83
110.74,1.25,0.45,1.27,0.48,-0.48,-0.62,0.77,0.79,0.80
111.85,1.23,0.46,1.26,0.50,-0.50,-0.65,0.73,0.76,0.77
112.97,1.22,0.48,1.25,0.52,-0.52,-0.68,0.70,0.73,0.74
114.10,1.22,0.51,1.24,0.54,-0.54,-0.72,0.68,0.70,0.71
115.24,1.22,0.54,1.23,0.56,-0.56,-0.75,0.66,0.67,0.68
116.39,1.22,0.57,1.22,0.58,-0.58,-0.78,0.64,0.64,0.65
117.55,1.22,0.59,1.21,0.60,-0.60,-0.81,0.62,0.61,0.63
118.73,1.23,0.63,1.22,0.62,-0.62,-0.83,0.60,0.60,0.60
119.92,1.23,0.65,1.23,0.65,-0.65,-0.86,0.58,0.58,0.58
121.12,1.24,0.68,1.23,0.68,-0.68,-0.88,0.56,0.56,0.56
122.33,1.25,0.71,1.24,0.70,-0.70,-0.90,0.54,0.54,0.54
123.55,1.26,0.74,1.25,0.73,-0.73,-0.92,0.53,0.52,0.52
124.79,1.26,0.76,1.26,0.76,-0.76,-0.94,0.50,0.50,0.50
126.03,1.27,0.79,1.27,0.78,-0.78,-0.95,0.48,0.48,0.48
127.29,1.28,0.82,1.27,0.81,-0.81,-0.97,0.47,0.46,0.46
128.57,1.28,0.83,1.28,0.84,-0.84,-0.98,0.44,0.44,0.44
129.85,1.29,0.86,1.29,0.86,-0.86,-0.99,0.42,0.42,0.42
131.15,1.29,0.88,1.29,0.89,-0.89,-1.00,0.40,0.40,0.41
132.46,1.30,0.91,1.30,0.92,-0.92,-1.01,0.38,0.38,0.39
133.79,1.30,0.93,1.30,0.94,-0.94,-1.01,0.35,0.36,0.37
135.12,1.31,0.96,1.30,0.97,-0.97,-1.02,0.34,0.33,0.35
136.48,1.31,0.98,1.31,0.99,-0.99,-1.02,0.31,0.32,0.33
137.84,1.31,1.00,1.32,1.02,-1.02,-1.02,0.29,0.31,0.30
139.22,1.32,1.03,1.33,1.04,-1.04,-1.03,0.28,0.29,0.28
140.61,1.32,1.05,1.32,1.06,-1.06,-1.03,0.26,0.26,0.26
142.02,1.32,1.08,1.32,1.08,-1.08,-1.03,0.24,0.24,0.24
143.44,1.32,1.10,1.31,1.09,-1.09,-1.03,0.23,0.22,0.22
144.87,1.32,1.12,1.30,1.10,-1.10,-1.02,0.21,0.19,0.20
146.32,1.32,1.14,1.29,1.12,-1.12,-1.02,0.20,0.17,0.18
147.78,1.32,1.16,1.28,1.13,-1.13,-1.02,0.19,0.15,0.16
149.26,1.32,1.18,1.27,1.14,-1.14,-1.02,0.18,0.13,0.14
150.75,1.32,1.19,1.26,1.15,-1.15,-1.02,0.17,0.11,0.12
152.26,1.19,1.08,1.25,1.16,-1.16,-1.02,0.03,0.09,0.11
153.78,1.12,1.03,1.25,1.17,-1.17,-1.01,-0.05,0.08,0.09
155.32,1.19,1.12,1.24,1.18,-1.18,-1.01,0.01,0.06,0.07
156.88,1.22,1.16,1.23,1.19,-1.19,-1.01,0.02,0.04,0.06
158.44,1.22,1.18,1.23,1.20,-1.20,-1.01,0.01,0.02,0.04
160.03,1.22,1.20,1.22,1.22,-1.22,-1.01,0.00,0.01,0.02
161.63,1.30,1.29,1.22,1.23,-1.23,-1.01,0.07,-0.01,0.00
163.24,1.28,1.29,1.21,1.24,-1.24,-1.01,0.03,-0.03,-0.01
164.88,1.16,1.19,1.21,1.26,-1.26,-1.02,-0.10,-0.05,-0.03
166.53,1.27,1.32,1.21,1.27,-1.27,-1.02,-0.00,-0.07,-0.05
168.19,1.24,1.31,1.21,1.28,-1.28,-1.02,-0.05,-0.08,-0.07
169.87,1.19,1.28,1.21,1.30,-1.30,-1.03,-0.11,-0.09,-0.09
171.57,1.19,1.29,1.20,1.31,-1.31,-1.03,-0.12,-0.10,-0.11
173.29,1.18,1.30,1.19,1.32,-1.32,-1.04,-0.14,-0.13,-0.12
175.02,1.18,1.32,1.19,1.33,-1.33,-1.05,-0.15,-0.14,-0.14
176.77,1.17,1.32,1.18,1.34,-1.34,-1.05,-0.17,-0.16,-0.15
178.54,1.17,1.33,1.18,1.35,-1.35,-1.06,-0.18,-0.16,-0.16
180.32,1.17,1.34,1.19,1.36,-1.36,-1.07,-0.19,-0.17,-0.17
182.13,1.18,1.35,1.20,1.37,-1.37,-1.08,-0.19,-0.17,-0.17
183.95,1.19,1.36,1.20,1.37,-1.37,-1.09,-0.19,-0.18,-0.18
185.79,1.20,1.37,1.20,1.38,-1.38,-1.11,-0.18,-0.18,-0.18
187.65,1.22,1.39,1.21,1.39,-1.39,-1.12,-0.17,-0.17,-0.17
189.52,1.23,1.40,1.22,1.39,-1.39,-1.13,-0.16,-0.17,-0.17
191.42,1.24,1.40,1.23,1.39,-1.39,-1.15,-0.15,-0.16,-0.16
193.33,1.26,1.42,1.23,1.39,-1.39,-1.16,-0.13,-0.16,-0.16
195.27,1.27,1.42,1.23,1.39,-1.39,-1.18,-0.12,-0.16,-0.15
197.22,1.29,1.44,1.23,1.38,-1.38,-1.19,-0.10,-0.15,-0.15
199.19,1.21,1.36,1.22,1.38,-1.38,-1.21,-0.17,-0.15,-0.15
201.18,1.12,1.27,1.21,1.37,-1.37,-1.23,-0.25,-0.16,-0.15
203.19,1.20,1.35,1.20,1.36,-1.36,-1.25,-0.16,-0.16,-0.15
205.23,1.31,1.46,1.19,1.35,-1.35,-1.26,-0.04,-0.16,-0.15
207.28,1.21,1.37,1.17,1.34,-1.34,-1.28,-0.14,-0.17,-0.16
209.35,1.12,1.28,1.16,1.34,-1.34,-1.30,-0.22,-0.18,-0.16
211.44,1.11,1.28,1.14,1.33,-1.33,-1.32,-0.22,-0.19,-0.17
213.56,1.11,1.29,1.13,1.32,-1.32,-1.34,-0.22,-0.20,-0.18
215.69,1.10,1.29,1.12,1.32,-1.32,-1.35,-0.22,-0.20,-0.19
217.85,1.10,1.30,1.11,1.32,-1.32,-1.37,-0.22,-0.21,-0.20
220.03,1.09,1.30,1.10,1.32,-1.32,-1.39,-0.23,-0.22,-0.21
222.23,1.09,1.31,1.10,1.32,-1.32,-1.40,-0.23,-0.22,-0.22
224.45,1.09,1.31,1.10,1.32,-1.32,-1.42,-0.23,-0.22,-0.23
226.70,1.09,1.32,1.09,1.32,-1.32,-1.43,-0.23,-0.23,-0.23
228.96,1.10,1.33,1.09,1.32,-1.32,-1.44,-0.22,-0.23,-0.23
231.25,1.10,1.32,1.10,1.32,-1.32,-1.45,-0.22,-0.22,-0.23
233.57,1.11,1.33,1.10,1.31,-1.31,-1.46,-0.20,-0.21,-0.22
235.90,1.13,1.34,1.10,1.31,-1.31,-1.47,-0.18,-0.21,-0.21
238.26,1.14,1.34,1.10,1.30,-1.30,-1.47,-0.16,-0.20,-0.21
240.64,1.07,1.26,1.09,1.29,-1.29,-1.48,-0.22,-0.20,-0.19
243.05,1.06,1.24,1.09,1.28,-1.28,-1.48,-0.22,-0.19,-0.18
245.48,1.17,1.34,1.09,1.27,-1.27,-1.48,-0.10,-0.18,-0.17
247.93,1.09,1.24,1.09,1.26,-1.26,-1.48,-0.17,-0.17,-0.16
250.41,1.05,1.19,1.08,1.25,-1.25,-1.47,-0.20,-0.16,-0.14
252.92,1.05,1.18,1.08,1.24,-1.24,-1.46,-0.19,-0.16,-0.13
255.45,1.07,1.19,1.08,1.23,-1.23,-1.45,-0.16,-0.15,-0.12
258.00,1.07,1.18,1.09,1.22,-1.22,-1.44,-0.16,-0.13,-0.12
260.58,1.08,1.19,1.09,1.21,-1.21,-1.43,-0.14,-0.12,-0.11
263.19,1.08,1.19,1.09,1.20,-1.20,-1.41,-0.13,-0.12,-0.11
265.82,1.08,1.19,1.08,1.19,-1.19,-1.39,-0.12,-0.12,-0.11
268.48,1.08,1.19,1.07,1.19,-1.19,-1.37,-0.11,-0.12,-0.11
271.16,1.07,1.18,1.05,1.18,-1.18,-1.35,-0.11,-0.12,-0.11
273.87,1.07,1.18,1.04,1.16,-1.16,-1.33,-0.09,-0.13,-0.11
276.61,1.07,1.18,1.03,1.15,-1.15,-1.30,-0.08,-0.12,-0.11
279.38,1.07,1.18,1.01,1.13,-1.13,-1.28,-0.07,-0.12,-0.11
282.17,1.14,1.25,0.99,1.12,-1.12,-1.25,0.02,-0.13,-0.11
284.99,1.04,1.14,0.98,1.11,-1.11,-1.22,-0.07,-0.13,-0.11
287.84,0.80,0.90,0.97,1.09,-1.09,-1.19,-0.29,-0.12,-0.10
290.72,0.79,0.88,0.97,1.08,-1.08,-1.16,-0.29,-0.11,-0.09
293.63,0.90,0.98,0.97,1.06,-1.06,-1.13,-0.16,-0.09,-0.09
296.57,0.92,1.00,0.96,1.05,-1.05,-1.10,-0.13,-0.09,-0.08
299.53,0.93,1.00,0.94,1.03,-1.03,-1.07,-0.10,-0.09,-0.07
302.53,0.94,1.00,0.93,1.02,-1.02,-1.03,-0.08,-0.09,-0.06
305.55,0.95,1.00,0.91,1.00,-1.00,-1.00,-0.05,-0.09,-0.05
308.61,0.96,1.00,0.90,0.98,-0.98,-0.97,-0.03,-0.09,-0.04
311.69,0.99,1.02,0.89,0.97,-0.97,-0.94,0.02,-0.08,-0.04
314.81,1.05,1.08,0.88,0.95,-0.95,-0.90,0.09,-0.07,-0.03
317.96,0.97,0.99,0.89,0.94,-0.94,-0.87,0.03,-0.05,-0.03
321.14,0.86,0.88,0.89,0.92,-0.92,-0.84,-0.06,-0.03,-0.02
324.35,0.71,0.73,0.87,0.89,-0.89,-0.81,-0.19,-0.02,-0.02
327.59,0.70,0.72,0.84,0.87,-0.87,-0.77,-0.18,-0.03,-0.02
330.87,0.75,0.77,0.81,0.85,-0.85,-0.74,-0.10,-0.04,-0.02
334.18,0.77,0.79,0.78,0.83,-0.83,-0.71,-0.06,-0.05,-0.02
337.52,0.77,0.79,0.75,0.80,-0.80,-0.68,-0.04,-0.05,-0.03
340.90,0.84,0.86,0.73,0.78,-0.78,-0.65,0.06,-0.05,-0.03
344.30,0.82,0.84,0.71,0.75,-0.75,-0.62,0.06,-0.05,-0.03
347.75,0.71,0.73,0.69,0.73,-0.73,-0.59,-0.03,-0.04,-0.02
351.23,0.67,0.69,0.68,0.71,-0.71,-0.56,-0.04,-0.03,-0.02
354.74,0.67,0.69,0.67,0.69,-0.69,-0.53,-0.02,-0.02,-0.02
358.28,0.58,0.59,0.66,0.66,-0.66,-0.50,-0.08,-0.00,-0.01
361.87,0.51,0.52,0.64,0.63,-0.63,-0.48,-0.13,0.01,-0.01
365.49,0.56,0.56,0.61,0.61,-0.61,-0.45,-0.05,0.00,-0.00
369.14,0.63,0.62,0.57,0.58,-0.58,-0.42,0.05,-0.01,0.01
372.83,0.69,0.67,0.54,0.54,-0.54,-0.40,0.14,-0.00,0.01
376.56,0.58,0.56,0.51,0.51,-0.51,-0.37,0.07,0.00,0.02
380.33,0.52,0.49,0.49,0.47,-0.47,-0.34,0.04,0.01,0.03
384.13,0.47,0.44,0.45,0.44,-0.44,-0.32,0.03,0.01,0.03
387.97,0.36,0.32,0.42,0.41,-0.41,-0.29,-0.05,0.01,0.04
391.85,0.38,0.34,0.40,0.38,-0.38,-0.27,0.00,0.02,0.04
395.77,0.39,0.35,0.37,0.35,-0.35,-0.25,0.04,0.02,0.04
399.73,0.26,0.22,0.35,0.32,-0.32,-0.22,-0.06,0.03,0.04
403.72,0.26,0.22,0.32,0.29,-0.29,-0.20,-0.04,0.03,0.04
407.76,0.39,0.35,0.29,0.27,-0.27,-0.18,0.11,0.01,0.04
411.84,0.37,0.33,0.27,0.26,-0.26,-0.15,0.11,0.01,0.04
415.96,0.25,0.21,0.26,0.24,-0.24,-0.13,0.01,0.02,0.04
420.12,0.15,0.10,0.27,0.23,-0.23,-0.11,-0.08,0.04,0.05
424.32,0.16,0.10,0.28,0.22,-0.22,-0.09,-0.06,0.06,0.06
428.56,0.34,0.26,0.30,0.21,-0.21,-0.07,0.13,0.09,0.08
432.85,0.40,0.30,0.32,0.20,-0.20,-0.05,0.20,0.12,0.10
437.18,0.30,0.17,0.33,0.19,-0.19,-0.02,0.11,0.15,0.13
441.55,0.31,0.14,0.35,0.17,-0.17,-0.00,0.13,0.18,0.17
445.96,0.35,0.14,0.38,0.16,-0.16,0.02,0.19,0.22,0.21
450.42,0.44,0.18,0.41,0.14,-0.14,0.04,0.30,0.27,0.26
454.93,0.52,0.21,0.43,0.11,-0.11,0.06,0.40,0.32,0.31
459.48,0.48,0.11,0.46,0.09,-0.09,0.08,0.39,0.38,0.36
464.07,0.49,0.07,0.49,0.05,-0.05,0.10,0.43,0.43,0.42
468.71,0.51,0.03,0.50,0.02,-0.02,0.12,0.49,0.48,0.48
473.40,0.52,-0.02,0.50,-0.02,0.02,0.13,0.53,0.52,0.54
478.13,0.50,-0.09,0.50,-0.05,0.05,0.15,0.55,0.56,0.59
482.91,0.51,-0.13,0.52,-0.09,0.09,0.17,0.60,0.61,0.64
487.74,0.57,-0.12,0.54,-0.12,0.12,0.19,0.69,0.67,0.69
492.62,0.62,-0.11,0.55,-0.16,0.16,0.21,0.77,0.70,0.73
497.55,0.54,-0.23,0.54,-0.18,0.18,0.23,0.72,0.73,0.77
502.52,0.43,-0.36,0.54,-0.21,0.21,0.24,0.64,0.75,0.79
507.55,0.42,-0.39,0.55,-0.23,0.23,0.26,0.65,0.78,0.81
512.62,0.46,-0.37,0.54,-0.25,0.25,0.28,0.71,0.79,0.82
517.75,0.56,-0.27,0.53,-0.27,0.27,0.30,0.82,0.80,0.83
522.93,0.62,-0.20,0.51,-0.28,0.28,0.31,0.90,0.79,0.82
528.16,0.61,-0.20,0.48,-0.30,0.30,0.33,0.90,0.78,0.81
533.44,0.56,-0.23,0.45,-0.31,0.31,0.35,0.87,0.77,0.79
538.77,0.43,-0.33,0.42,-0.33,0.33,0.37,0.76,0.75,0.76
544.16,0.31,-0.43,0.38,-0.35,0.35,0.39,0.66,0.73,0.73
549.60,0.36,-0.35,0.33,-0.37,0.37,0.40,0.73,0.70,0.70
555.10,0.36,-0.31,0.28,-0.40,0.40,0.42,0.76,0.68,0.67
560.65,0.18,-0.46,0.23,-0.43,0.43,0.44,0.61,0.66,0.64
566.25,0.09,-0.53,0.16,-0.47,0.47,0.46,0.56,0.63,0.61
571.92,0.04,-0.55,0.09,-0.51,0.51,0.48,0.55,0.60,0.59
577.64,0.02,-0.55,0.01,-0.55,0.55,0.50,0.57,0.56,0.57
583.41,0.03,-0.53,-0.05,-0.60,0.60,0.52,0.63,0.55,0.56
589.25,-0.07,-0.62,-0.10,-0.65,0.65,0.53,0.58,0.55,0.55
595.14,-0.15,-0.70,-0.15,-0.70,0.70,0.55,0.55,0.55,0.55
601.09,-0.29,-0.85,-0.19,-0.76,0.76,0.58,0.46,0.57,0.55
607.10,-0.28,-0.85,-0.23,-0.81,0.81,0.60,0.53,0.58,0.57
613.17,-0.20,-0.79,-0.27,-0.86,0.86,0.62,0.66,0.60,0.59
619.30,-0.32,-0.94,-0.30,-0.92,0.92,0.64,0.60,0.62,0.61
625.50,-0.41,-1.06,-0.31,-0.97,0.97,0.66,0.56,0.66,0.65
631.75,-0.36,-1.05,-0.33,-1.03,1.03,0.69,0.66,0.70,0.69
638.07,-0.27,-1.01,-0.35,-1.08,1.08,0.71,0.81,0.73,0.73
644.45,-0.26,-1.04,-0.37,-1.13,1.13,0.73,0.87,0.77,0.78
650.89,-0.41,-1.24,-0.37,-1.18,1.18,0.76,0.77,0.81,0.83
657.40,-0.40,-1.28,-0.37,-1.23,1.23,0.79,0.83,0.86,0.88
663.98,-0.31,-1.24,-0.36,-1.28,1.28,0.81,0.97,0.92,0.93
670.62,-0.36,-1.34,-0.35,-1.33,1.33,0.84,0.96,0.97,0.98
677.32,-0.36,-1.39,-0.36,-1.37,1.37,0.87,1.01,1.01,1.03
684.10,-0.39,-1.46,-0.36,-1.41,1.41,0.90,1.02,1.05,1.07
690.94,-0.36,-1.47,-0.36,-1.45,1.45,0.93,1.09,1.09,1.11
697.85,-0.43,-1.57,-0.37,-1.48,1.48,0.96,1.05,1.11,1.14
704.83,-0.36,-1.52,-0.38,-1.52,1.52,0.99,1.15,1.13,1.16
711.87,-0.31,-1.49,-0.39,-1.54,1.54,1.02,1.23,1.15,1.18
718.99,-0.30,-1.49,-0.40,-1.56,1.56,1.05,1.26,1.17,1.19
726.18,-0.31,-1.51,-0.40,-1.58,1.58,1.09,1.27,1.19,1.20
733.44,-0.39,-1.59,-0.40,-1.60,1.60,1.12,1.20,1.19,1.20
