frequency,raw,error,smoothed,error_smoothed,equalization,parametric_eq,equalized_raw,equalized_smoothed,target
20.00,-40.66,-35.30,-40.65,-35.29,6.00,2.69,-34.66,-34.65,-5.35
20.20,-40.58,-35.26,-40.58,-35.26,6.00,2.76,-34.58,-34.58,-5.31
20.40,-40.51,-35.23,-40.51,-35.23,6.00,2.84,-34.51,-34.51,-5.27
20.61,-40.43,-35.20,-40.43,-35.20,6.00,2.92,-34.43,-34.43,-5.23
20.81,-40.36,-35.16,-40.36,-35.16,6.00,3.01,-34.36,-34.36,-5.19
21.02,-40.28,-35.13,-40.28,-35.13,6.00,3.09,-34.28,-34.28,-5.15
21.23,-40.20,-35.09,-40.20,-35.09,6.00,3.18,-34.20,-34.20,-5.11
21.44,-40.12,-35.04,-40.12,-35.05,6.00,3.28,-34.12,-34.12,-5.07
21.66,-40.04,-35.01,-40.04,-35.01,6.00,3.37,-34.04,-34.04,-5.03
21.87,-39.97,-34.97,-39.96,-34.97,6.00,3.47,-33.97,-33.96,-4.99
22.09,-39.88,-34.92,-39.88,-34.92,6.00,3.57,-33.88,-33.88,-4.95
22.31,-39.80,-34.88,-39.79,-34.88,6.00,3.67,-33.80,-33.79,-4.91
22.54,-39.71,-34.84,-39.71,-34.83,6.00,3.78,-33.71,-33.71,-4.87
22.76,-39.62,-34.78,-39.62,-34.78,6.00,3.88,-33.62,-33.62,-4.83
22.99,-39.53,-34.73,-39.53,-34.74,6.00,3.99,-33.53,-33.53,-4.80
23.22,-39.44,-34.68,-39.44,-34.68,6.00,4.11,-33.44,-33.44,-4.76
23.45,-39.35,-34.63,-39.35,-34.63,6.00,4.22,-33.35,-33.35,-4.72
23.69,-39.26,-34.58,-39.26,-34.58,6.00,4.34,-33.26,-33.26,-4.68
23.92,-39.17,-34.53,-39.16,-34.52,6.00,4.47,-33.17,-33.16,-4.64
24.16,-39.07,-34.47,-39.07,-34.47,6.00,4.59,-33.07,-33.07,-4.60
24.40,-38.97,-34.40,-38.97,-34.41,6.00,4.72,-32.97,-32.97,-4.56
24.65,-38.87,-34.34,-38.87,-34.35,6.00,4.84,-32.87,-32.87,-4.52
24.89,-38.77,-34.28,-38.77,-34.28,6.00,4.97,-32.77,-32.77,-4.49
25.14,-38.67,-34.22,-38.67,-34.22,6.00,5.11,-32.67,-32.67,-4.45
25.39,-38.57,-34.15,-38.57,-34.15,6.00,5.24,-32.57,-32.57,-4.41
25.65,-38.46,-34.08,-38.46,-34.08,6.00,5.37,-32.46,-32.46,-4.37
25.91,-38.36,-34.02,-38.35,-34.01,6.00,5.51,-32.36,-32.35,-4.34
26.16,-38.25,-33.95,-38.24,-33.94,6.00,5.64,-32.25,-32.24,-4.30
26.43,-38.13,-33.86,-38.13,-33.87,6.00,5.78,-32.13,-32.13,-4.26
26.69,-38.02,-33.79,-38.02,-33.79,6.00,5.91,-32.02,-32.02,-4.23
26.96,-37.91,-33.71,-37.90,-33.71,6.00,6.05,-31.91,-31.90,-4.20
27.23,-37.79,-33.63,-37.79,-33.63,6.00,6.18,-31.79,-31.79,-4.16
27.50,-37.67,-33.54,-37.67,-33.54,6.00,6.31,-31.67,-31.67,-4.13
27.77,-37.55,-33.45,-37.55,-33.45,6.00,6.43,-31.55,-31.55,-4.09
28.05,-37.43,-33.37,-37.43,-33.36,6.00,6.55,-31.43,-31.43,-4.06
28.33,-37.30,-33.27,-37.30,-33.27,6.00,6.67,-31.30,-31.30,-4.03
28.62,-37.17,-33.17,-37.17,-33.17,6.00,6.78,-31.17,-31.17,-4.00
28.90,-37.04,-33.07,-37.04,-33.08,6.00,6.88,-31.04,-31.04,-3.97
29.19,-36.91,-32.97,-36.91,-32.97,6.00,6.98,-30.91,-30.91,-3.93
29.48,-36.78,-32.87,-36.77,-32.87,6.00,7.07,-30.78,-30.77,-3.90
29.78,-36.64,-32.77,-36.63,-32.76,6.00,7.15,-30.64,-30.63,-3.87
30.08,-36.50,-32.66,-36.49,-32.64,6.00,7.22,-30.50,-30.49,-3.84
30.38,-36.35,-32.53,-36.34,-32.53,6.00,7.29,-30.35,-30.34,-3.82
30.68,-36.20,-32.41,-36.20,-32.41,6.00,7.34,-30.20,-30.20,-3.79
30.99,-36.05,-32.29,-36.05,-32.28,6.00,7.38,-30.05,-30.05,-3.76
31.30,-35.89,-32.15,-35.89,-32.15,6.00,7.41,-29.89,-29.89,-3.74
31.61,-35.73,-32.02,-35.74,-32.02,6.00,7.43,-29.73,-29.74,-3.71
31.93,-35.58,-31.89,-35.58,-31.89,6.00,7.44,-29.58,-29.58,-3.69
32.24,-35.41,-31.74,-35.41,-31.75,6.00,7.44,-29.41,-29.41,-3.66
32.57,-35.25,-31.61,-35.25,-31.61,6.00,7.43,-29.25,-29.25,-3.64
32.89,-35.08,-31.46,-35.08,-31.46,6.00,7.41,-29.08,-29.08,-3.62
33.22,-34.92,-31.32,-34.92,-31.31,6.00,7.38,-28.92,-28.92,-3.60
33.55,-34.75,-31.16,-34.75,-31.16,6.00,7.34,-28.75,-28.75,-3.58
33.89,-34.58,-31.01,-34.57,-31.01,6.00,7.29,-28.58,-28.57,-3.56
34.23,-34.41,-30.86,-34.40,-30.85,6.00,7.24,-28.41,-28.40,-3.55
34.57,-34.23,-30.70,-34.23,-30.69,6.00,7.18,-28.23,-28.23,-3.53
34.92,-34.05,-30.53,-34.05,-30.53,6.00,7.12,-28.05,-28.05,-3.52
35.27,-33.87,-30.37,-33.87,-30.37,6.00,7.05,-27.87,-27.87,-3.50
35.62,-33.69,-30.20,-33.69,-30.20,6.00,6.98,-27.69,-27.69,-3.49
35.97,-33.51,-30.03,-33.51,-30.03,6.00,6.91,-27.51,-27.51,-3.48
36.33,-33.33,-29.86,-33.32,-29.85,6.00,6.84,-27.33,-27.32,-3.47
36.70,-33.14,-29.68,-33.14,-29.68,6.00,6.76,-27.14,-27.14,-3.46
37.06,-32.96,-29.51,-32.95,-29.50,6.00,6.68,-26.96,-26.95,-3.45
37.43,-32.77,-29.33,-32.77,-29.32,6.00,6.61,-26.77,-26.77,-3.44
37.81,-32.58,-29.15,-32.58,-29.14,6.00,6.53,-26.58,-26.58,-3.43
38.19,-32.40,-28.97,-32.39,-28.96,6.00,6.46,-26.40,-26.39,-3.43
38.57,-32.20,-28.78,-32.21,-28.78,6.00,6.39,-26.20,-26.21,-3.42
38.95,-32.01,-28.59,-32.02,-28.60,6.00,6.31,-26.01,-26.02,-3.42
39.34,-31.83,-28.41,-31.84,-28.42,6.00,6.25,-25.83,-25.84,-3.42
39.74,-31.66,-28.24,-31.65,-28.24,6.00,6.18,-25.66,-25.65,-3.41
40.14,-31.48,-28.07,-31.47,-28.05,6.00,6.12,-25.48,-25.47,-3.41
40.54,-31.29,-27.88,-31.29,-27.87,6.00,6.06,-25.29,-25.29,-3.41
40.94,-31.11,-27.70,-31.10,-27.69,6.00,6.01,-25.11,-25.10,-3.41
41.35,-30.93,-27.52,-30.93,-27.52,6.00,5.96,-24.93,-24.93,-3.41
41.76,-30.75,-27.34,-30.75,-27.34,6.00,5.91,-24.75,-24.75,-3.41
42.18,-30.57,-27.16,-30.57,-27.16,6.00,5.87,-24.57,-24.57,-3.41
42.60,-30.40,-26.98,-30.40,-26.99,6.00,5.83,-24.40,-24.40,-3.41
43.03,-30.23,-26.82,-30.23,-26.82,6.00,5.79,-24.23,-24.23,-3.41
43.46,-30.06,-26.65,-30.06,-26.65,6.00,5.76,-24.06,-24.06,-3.41
43.90,-29.89,-26.48,-29.89,-26.48,6.00,5.74,-23.89,-23.89,-3.41
44.33,-29.73,-26.31,-29.73,-26.32,6.00,5.71,-23.73,-23.73,-3.41
44.78,-29.57,-26.16,-29.57,-26.16,6.00,5.70,-23.57,-23.57,-3.41
45.23,-29.41,-26.00,-29.41,-26.00,6.00,5.68,-23.41,-23.41,-3.41
45.68,-29.25,-25.84,-29.25,-25.84,6.00,5.68,-23.25,-23.25,-3.41
46.13,-29.09,-25.68,-29.09,-25.69,6.00,5.67,-23.09,-23.09,-3.41
46.60,-28.94,-25.53,-28.94,-25.53,6.00,5.67,-22.94,-22.94,-3.41
47.06,-28.79,-25.38,-28.79,-25.38,6.00,5.67,-22.79,-22.79,-3.41
47.53,-28.64,-25.23,-28.64,-25.23,6.00,5.68,-22.64,-22.64,-3.40
48.01,-28.50,-25.10,-28.49,-25.09,6.00,5.69,-22.50,-22.49,-3.40
48.49,-28.34,-24.94,-28.34,-24.94,6.00,5.71,-22.34,-22.34,-3.40
48.97,-28.19,-24.79,-28.19,-24.80,6.00,5.73,-22.19,-22.19,-3.39
49.46,-28.04,-24.65,-28.04,-24.65,6.00,5.75,-22.04,-22.04,-3.39
49.96,-27.89,-24.51,-27.89,-24.51,6.00,5.78,-21.89,-21.89,-3.38
50.46,-27.75,-24.37,-27.74,-24.36,6.00,5.81,-21.75,-21.74,-3.38
50.96,-27.60,-24.22,-27.59,-24.22,6.00,5.84,-21.60,-21.59,-3.37
51.47,-27.45,-24.08,-27.44,-24.08,6.00,5.87,-21.45,-21.44,-3.37
51.99,-27.29,-23.93,-27.29,-23.93,6.00,5.91,-21.29,-21.29,-3.36
52.51,-27.14,-23.78,-27.14,-23.78,6.00,5.94,-21.14,-21.14,-3.36
53.03,-26.99,-23.63,-26.99,-23.63,6.00,5.98,-20.99,-20.99,-3.36
53.56,-26.85,-23.49,-26.84,-23.48,6.00,6.02,-20.85,-20.84,-3.35
54.10,-26.70,-23.35,-26.68,-23.33,6.00,6.06,-20.70,-20.68,-3.35
54.64,-26.53,-23.18,-26.53,-23.17,6.00,6.10,-20.53,-20.53,-3.35
55.18,-26.37,-23.02,-26.37,-23.02,6.00,6.14,-20.37,-20.37,-3.35
55.74,-26.21,-22.86,-26.21,-22.86,6.00,6.18,-20.21,-20.21,-3.35
56.29,-26.06,-22.70,-26.05,-22.70,6.00,6.22,-20.06,-20.05,-3.35
56.86,-25.90,-22.54,-25.89,-22.53,6.00,6.25,-19.90,-19.89,-3.36
57.42,-25.74,-22.37,-25.73,-22.37,6.00,6.29,-19.74,-19.73,-3.36
58.00,-25.57,-22.20,-25.57,-22.20,6.00,6.32,-19.57,-19.57,-3.37
58.58,-25.41,-22.03,-25.41,-22.03,6.00,6.34,-19.41,-19.41,-3.38
59.16,-25.25,-21.86,-25.25,-21.86,6.00,6.37,-19.25,-19.25,-3.38
59.76,-25.09,-21.69,-25.09,-21.69,6.00,6.39,-19.09,-19.09,-3.39
60.35,-24.93,-21.52,-24.92,-21.52,6.00,6.40,-18.93,-18.92,-3.40
60.96,-24.76,-21.35,-24.76,-21.35,6.00,6.41,-18.76,-18.76,-3.41
61.57,-24.60,-21.17,-24.60,-21.18,6.00,6.42,-18.60,-18.60,-3.42
62.18,-24.44,-21.00,-24.44,-21.01,6.00,6.42,-18.44,-18.44,-3.43
62.80,-24.28,-20.83,-24.28,-20.84,6.00,6.42,-18.28,-18.28,-3.44
63.43,-24.13,-20.67,-24.12,-20.67,6.00,6.41,-18.13,-18.12,-3.45
64.07,-23.97,-20.51,-23.97,-20.51,6.00,6.39,-17.97,-17.97,-3.46
64.71,-23.81,-20.34,-23.81,-20.34,6.00,6.37,-17.81,-17.81,-3.47
65.35,-23.64,-20.16,-23.65,-20.18,6.00,6.35,-17.64,-17.65,-3.48
66.01,-23.49,-20.01,-23.49,-20.01,6.00,6.32,-17.49,-17.49,-3.48
66.67,-23.34,-19.85,-23.34,-19.85,6.00,6.29,-17.34,-17.34,-3.49
67.33,-23.19,-19.69,-23.18,-19.69,6.00,6.26,-17.19,-17.18,-3.49
68.01,-23.04,-19.54,-23.02,-19.52,6.00,6.22,-17.04,-17.02,-3.50
68.69,-22.87,-19.37,-22.86,-19.36,6.00,6.18,-16.87,-16.86,-3.50
69.37,-22.71,-19.20,-22.71,-19.20,6.00,6.13,-16.71,-16.71,-3.50
70.07,-22.55,-19.04,-22.55,-19.04,6.00,6.09,-16.55,-16.55,-3.51
70.77,-22.39,-18.88,-22.39,-18.88,6.00,6.04,-16.39,-16.39,-3.51
71.48,-22.23,-18.72,-22.23,-18.71,6.00,5.99,-16.23,-16.23,-3.51
72.19,-22.07,-18.55,-22.07,-18.55,6.00,5.94,-16.07,-16.07,-3.52
72.91,-21.91,-18.39,-21.91,-18.39,6.00,5.89,-15.91,-15.91,-3.52
73.64,-21.75,-18.22,-21.75,-18.22,6.00,5.84,-15.75,-15.75,-3.52
74.38,-21.58,-18.05,-21.58,-18.06,6.00,5.80,-15.58,-15.58,-3.53
75.12,-21.42,-17.89,-21.42,-17.89,6.00,5.75,-15.42,-15.42,-3.53
75.87,-21.27,-17.73,-21.26,-17.72,6.00,5.70,-15.27,-15.26,-3.53
76.63,-21.11,-17.57,-21.10,-17.56,6.00,5.66,-15.11,-15.10,-3.54
77.40,-20.94,-17.40,-20.94,-17.39,6.00,5.62,-14.94,-14.94,-3.54
78.17,-20.77,-17.22,-20.77,-17.23,6.00,5.58,-14.77,-14.77,-3.55
78.95,-20.61,-17.06,-20.61,-17.06,6.00,5.55,-14.61,-14.61,-3.55
79.74,-20.45,-16.89,-20.45,-16.89,6.00,5.51,-14.45,-14.45,-3.55
80.54,-20.29,-16.73,-20.28,-16.73,6.00,5.48,-14.29,-14.28,-3.56
81.35,-20.12,-16.56,-20.12,-16.56,6.00,5.46,-14.12,-14.12,-3.56
82.16,-19.96,-16.40,-19.95,-16.40,6.00,5.43,-13.96,-13.95,-3.56
82.98,-19.79,-16.23,-19.79,-16.23,6.00,5.42,-13.79,-13.79,-3.56
83.81,-19.62,-16.06,-19.62,-16.07,6.00,5.40,-13.62,-13.62,-3.55
84.65,-19.45,-15.90,-19.45,-15.91,6.00,5.39,-13.45,-13.45,-3.55
85.50,-19.29,-15.74,-19.29,-15.75,6.00,5.38,-13.29,-13.29,-3.55
86.35,-19.13,-15.58,-19.12,-15.58,6.00,5.38,-13.13,-13.12,-3.55
87.22,-18.96,-15.42,-18.96,-15.42,6.00,5.38,-12.96,-12.96,-3.54
88.09,-18.79,-15.25,-18.80,-15.25,6.00,5.38,-12.79,-12.80,-3.54
88.97,-18.63,-15.09,-18.64,-15.09,6.00,5.39,-12.63,-12.64,-3.54
89.86,-18.47,-14.92,-18.47,-14.92,6.00,5.40,-12.47,-12.47,-3.54
90.76,-18.31,-14.76,-18.31,-14.75,6.00,5.42,-12.31,-12.31,-3.55
91.66,-18.15,-14.59,-18.15,-14.57,6.00,5.44,-12.15,-12.15,-3.56
92.58,-17.99,-14.42,-17.99,-14.40,6.00,5.46,-11.99,-11.99,-3.57
93.51,-17.83,-14.24,-17.82,-14.22,6.00,5.49,-11.83,-11.82,-3.59
94.44,-17.68,-14.07,-17.65,-14.03,6.00,5.52,-11.68,-11.65,-3.61
95.39,-17.52,-13.89,-17.49,-13.85,6.00,5.56,-11.52,-11.49,-3.63
96.34,-17.35,-13.69,-17.33,-13.66,6.00,5.59,-11.35,-11.33,-3.66
97.30,-17.18,-13.48,-17.17,-13.46,6.00,5.64,-11.18,-11.17,-3.69
98.28,-17.00,-13.27,-17.01,-13.27,6.00,5.68,-11.00,-11.01,-3.73
99.26,-16.84,-13.07,-16.85,-13.07,6.00,5.73,-10.84,-10.85,-3.77
100.25,-16.66,-12.85,-16.69,-12.87,6.00,5.78,-10.66,-10.69,-3.81
101.25,-16.48,-12.63,-16.54,-12.67,6.00,5.83,-10.48,-10.54,-3.85
102.27,-16.33,-12.43,-16.38,-12.48,6.00,5.89,-10.33,-10.38,-3.89
103.29,-16.23,-12.29,-16.22,-12.28,6.00,5.94,-10.23,-10.22,-3.94
104.32,-16.12,-12.13,-16.07,-12.08,6.00,6.00,-10.12,-10.07,-3.98
105.37,-15.96,-11.93,-15.91,-11.88,6.00,6.06,-9.96,-9.91,-4.03
106.42,-15.79,-11.72,-15.76,-11.69,6.00,6.12,-9.79,-9.76,-4.07
107.48,-15.62,-11.50,-15.61,-11.49,6.00,6.18,-9.62,-9.61,-4.11
108.56,-15.46,-11.30,-15.46,-11.30,6.00,6.24,-9.46,-9.46,-4.15
109.64,-15.31,-11.12,-15.31,-11.11,6.00,6.30,-9.31,-9.31,-4.19
110.74,-15.16,-10.93,-15.16,-10.93,6.00,6.35,-9.16,-9.16,-4.23
111.85,-15.00,-10.74,-15.01,-10.75,6.00,6.41,-9.00,-9.01,-4.26
112.97,-14.84,-10.55,-14.86,-10.57,6.00,6.46,-8.84,-8.86,-4.29
114.10,-14.67,-10.35,-14.71,-10.39,6.00,6.50,-8.67,-8.71,-4.32
115.24,-14.53,-10.19,-14.56,-10.22,6.00,6.55,-8.53,-8.56,-4.34
116.39,-14.45,-10.08,-14.41,-10.05,6.00,6.59,-8.45,-8.41,-4.36
117.55,-14.32,-9.94,-14.26,-9.89,6.00,6.62,-8.32,-8.26,-4.38
118.73,-14.14,-9.74,-14.12,-9.73,6.00,6.65,-8.14,-8.12,-4.40
119.92,-13.97,-9.56,-13.98,-9.57,6.00,6.67,-7.97,-7.98,-4.41
121.12,-13.81,-9.39,-13.84,-9.42,6.00,6.68,-7.81,-7.84,-4.42
122.33,-13.71,-9.28,-13.70,-9.27,6.00,6.69,-7.71,-7.70,-4.43
123.55,-13.58,-9.14,-13.56,-9.12,6.00,6.69,-7.58,-7.56,-4.43
124.79,-13.41,-8.97,-13.42,-8.98,6.00,6.68,-7.41,-7.42,-4.44
126.03,-13.25,-8.80,-13.29,-8.84,6.00,6.67,-7.25,-7.29,-4.45
127.29,-13.17,-8.72,-13.15,-8.70,6.00,6.64,-7.17,-7.15,-4.45
128.57,-13.05,-8.59,-13.02,-8.56,6.00,6.61,-7.05,-7.02,-4.46
129.85,-12.89,-8.42,-12.89,-8.42,6.00,6.58,-6.89,-6.89,-4.46
131.15,-12.74,-8.27,-12.76,-8.29,6.00,6.53,-6.74,-6.76,-4.47
132.46,-12.65,-8.17,-12.64,-8.16,6.00,6.48,-6.65,-6.64,-4.48
133.79,-12.52,-8.03,-12.52,-8.02,6.00,6.43,-6.52,-6.52,-4.49
135.12,-12.37,-7.87,-12.39,-7.89,6.00,6.37,-6.37,-6.39,-4.50
136.48,-12.28,-7.77,-12.27,-7.76,6.00,6.30,-6.28,-6.27,-4.51
137.84,-12.16,-7.64,-12.16,-7.63,6.00,6.23,-6.16,-6.16,-4.52
139.22,-12.07,-7.53,-12.04,-7.50,6.00,6.15,-6.07,-6.04,-4.54
140.61,-11.97,-7.41,-11.93,-7.37,6.00,6.07,-5.97,-5.93,-4.55
142.02,-11.80,-7.23,-11.82,-7.25,6.00,5.99,-5.80,-5.82,-4.57
143.44,-11.71,-7.12,-11.71,-7.12,6.00,5.91,-5.71,-5.71,-4.59
144.87,-11.58,-6.97,-11.61,-6.99,6.00,5.82,-5.58,-5.61,-4.61
146.32,-11.50,-6.87,-11.50,-6.87,6.00,5.73,-5.50,-5.50,-4.63
147.78,-11.39,-6.74,-11.39,-6.74,6.00,5.64,-5.39,-5.39,-4.65
149.26,-11.31,-6.63,-11.29,-6.62,6.00,5.56,-5.31,-5.29,-4.67
150.75,-11.20,-6.50,-11.19,-6.49,6.00,5.47,-5.20,-5.19,-4.70
152.26,-11.11,-6.39,-11.09,-6.37,6.00,5.38,-5.11,-5.09,-4.72
153.78,-10.99,-6.25,-10.99,-6.25,5.98,5.30,-5.00,-5.01,-4.74
155.32,-10.91,-6.14,-10.90,-6.13,5.95,5.21,-4.96,-4.95,-4.77
156.88,-10.79,-6.00,-10.81,-6.02,5.90,5.13,-4.89,-4.91,-4.79
158.44,-10.71,-5.90,-10.72,-5.90,5.83,5.05,-4.88,-4.89,-4.81
160.03,-10.61,-5.77,-10.63,-5.79,5.74,4.97,-4.86,-4.89,-4.83
161.63,-10.54,-5.68,-10.54,-5.68,5.65,4.89,-4.88,-4.89,-4.86
163.24,-10.47,-5.59,-10.45,-5.57,5.56,4.82,-4.91,-4.89,-4.88
164.88,-10.37,-5.47,-10.36,-5.46,5.46,4.75,-4.91,-4.90,-4.90
166.53,-10.29,-5.37,-10.28,-5.35,5.35,4.68,-4.94,-4.92,-4.92
168.19,-10.22,-5.28,-10.19,-5.25,5.25,4.62,-4.97,-4.94,-4.94
169.87,-10.12,-5.16,-10.11,-5.15,5.15,4.56,-4.97,-4.96,-4.96
171.57,-10.03,-5.06,-10.02,-5.05,5.05,4.50,-4.98,-4.97,-4.97
173.29,-9.95,-4.96,-9.94,-4.96,4.96,4.44,-4.99,-4.98,-4.98
175.02,-9.84,-4.84,-9.86,-4.87,4.87,4.39,-4.97,-4.99,-4.99
176.77,-9.76,-4.76,-9.78,-4.78,4.78,4.34,-4.98,-5.00,-5.00
178.54,-9.70,-4.69,-9.70,-4.70,4.70,4.29,-5.00,-5.00,-5.01
180.32,-9.64,-4.63,-9.62,-4.62,4.62,4.25,-5.02,-5.00,-5.01
182.13,-9.58,-4.57,-9.55,-4.55,4.55,4.21,-5.03,-5.01,-5.01
183.95,-9.48,-4.47,-9.48,-4.48,4.48,4.18,-5.00,-5.01,-5.01
185.79,-9.41,-4.40,-9.42,-4.41,4.41,4.14,-4.99,-5.01,-5.01
187.65,-9.34,-4.33,-9.36,-4.35,4.35,4.11,-4.98,-5.00,-5.01
189.52,-9.29,-4.29,-9.30,-4.30,4.30,4.09,-4.99,-5.01,-5.00
191.42,-9.24,-4.24,-9.25,-4.25,4.25,4.06,-4.99,-5.00,-5.00
193.33,-9.19,-4.19,-9.20,-4.20,4.20,4.04,-4.99,-5.00,-4.99
195.27,-9.15,-4.16,-9.15,-4.15,4.15,4.02,-5.00,-5.00,-4.99
197.22,-9.12,-4.13,-9.10,-4.10,4.10,4.01,-5.02,-5.00,-4.99
199.19,-9.07,-4.08,-9.05,-4.06,4.06,3.99,-5.01,-4.99,-4.99
201.18,-9.03,-4.04,-9.01,-4.01,4.01,3.98,-5.02,-4.99,-4.98
203.19,-8.98,-3.99,-8.96,-3.97,3.97,3.97,-5.01,-5.00,-4.99
205.23,-8.94,-3.95,-8.92,-3.92,3.92,3.97,-5.02,-5.00,-4.99
207.28,-8.89,-3.90,-8.88,-3.88,3.88,3.96,-5.01,-5.01,-4.99
209.35,-8.85,-3.85,-8.84,-3.83,3.83,3.96,-5.02,-5.01,-5.00
211.44,-8.79,-3.78,-8.80,-3.79,3.79,3.96,-5.00,-5.02,-5.01
213.56,-8.75,-3.73,-8.76,-3.74,3.74,3.96,-5.01,-5.02,-5.02
215.69,-8.71,-3.68,-8.73,-3.70,3.70,3.96,-5.01,-5.03,-5.03
217.85,-8.70,-3.66,-8.70,-3.66,3.66,3.96,-5.04,-5.04,-5.04
220.03,-8.68,-3.62,-8.67,-3.62,3.62,3.97,-5.06,-5.05,-5.05
222.23,-8.65,-3.58,-8.65,-3.58,3.58,3.97,-5.07,-5.07,-5.07
224.45,-8.63,-3.54,-8.63,-3.55,3.55,3.98,-5.08,-5.09,-5.08
226.70,-8.60,-3.50,-8.62,-3.51,3.51,3.98,-5.08,-5.10,-5.10
228.96,-8.59,-3.47,-8.61,-3.48,3.48,3.99,-5.10,-5.12,-5.12
231.25,-8.59,-3.45,-8.60,-3.46,3.46,3.99,-5.13,-5.14,-5.14
233.57,-8.59,-3.43,-8.59,-3.43,3.43,3.99,-5.15,-5.16,-5.15
235.90,-8.60,-3.43,-8.59,-3.41,3.41,4.00,-5.19,-5.18,-5.17
238.26,-8.61,-3.42,-8.58,-3.39,3.39,4.00,-5.22,-5.19,-5.19
240.64,-8.61,-3.41,-8.58,-3.38,3.38,4.00,-5.23,-5.21,-5.20
243.05,-8.61,-3.39,-8.58,-3.36,3.36,4.00,-5.25,-5.22,-5.22
245.48,-8.60,-3.37,-8.58,-3.35,3.35,4.00,-5.24,-5.23,-5.23
247.93,-8.59,-3.35,-8.59,-3.35,3.35,4.00,-5.24,-5.24,-5.24
250.41,-8.59,-3.34,-8.59,-3.34,3.34,3.99,-5.24,-5.25,-5.25
252.92,-8.59,-3.33,-8.60,-3.35,3.35,3.99,-5.24,-5.26,-5.25
255.45,-8.60,-3.34,-8.62,-3.35,3.35,3.98,-5.24,-5.26,-5.26
258.00,-8.61,-3.35,-8.63,-3.37,3.37,3.98,-5.24,-5.26,-5.26
260.58,-8.63,-3.36,-8.65,-3.38,3.38,3.97,-5.25,-5.27,-5.26
263.19,-8.65,-3.38,-8.66,-3.40,3.40,3.96,-5.25,-5.26,-5.26
265.82,-8.69,-3.42,-8.69,-3.43,3.43,3.95,-5.26,-5.26,-5.26
268.48,-8.71,-3.45,-8.71,-3.45,3.45,3.94,-5.25,-5.26,-5.26
271.16,-8.74,-3.48,-8.74,-3.48,3.48,3.93,-5.25,-5.26,-5.25
273.87,-8.79,-3.54,-8.77,-3.52,3.52,3.91,-5.27,-5.25,-5.25
276.61,-8.82,-3.58,-8.80,-3.55,3.55,3.90,-5.26,-5.24,-5.24
279.38,-8.84,-3.61,-8.82,-3.59,3.59,3.89,-5.25,-5.23,-5.22
282.17,-8.86,-3.65,-8.85,-3.63,3.63,3.88,-5.23,-5.22,-5.21
284.99,-8.88,-3.68,-8.87,-3.67,3.67,3.87,-5.21,-5.21,-5.20
287.84,-8.91,-3.73,-8.89,-3.70,3.70,3.85,-5.20,-5.19,-5.18
290.72,-8.93,-3.76,-8.92,-3.74,3.74,3.84,-5.19,-5.17,-5.16
293.63,-8.96,-3.81,-8.94,-3.78,3.78,3.84,-5.18,-5.16,-5.15
296.57,-8.98,-3.85,-8.96,-3.82,3.82,3.83,-5.16,-5.14,-5.13
299.53,-8.98,-3.86,-8.99,-3.87,3.87,3.82,-5.11,-5.12,-5.12
302.53,-8.99,-3.89,-9.02,-3.91,3.91,3.82,-5.08,-5.11,-5.10
305.55,-9.02,-3.93,-9.05,-3.96,3.96,3.81,-5.06,-5.09,-5.08
308.61,-9.05,-3.98,-9.08,-4.01,4.01,3.81,-5.04,-5.07,-5.07
311.69,-9.10,-4.05,-9.12,-4.07,4.07,3.82,-5.03,-5.05,-5.05
314.81,-9.15,-4.11,-9.16,-4.12,4.12,3.82,-5.02,-5.03,-5.03
317.96,-9.20,-4.18,-9.20,-4.19,4.19,3.83,-5.01,-5.02,-5.02
321.14,-9.26,-4.26,-9.25,-4.25,4.25,3.83,-5.01,-5.00,-5.00
324.35,-9.31,-4.33,-9.29,-4.32,4.32,3.85,-4.99,-4.98,-4.98
327.59,-9.36,-4.40,-9.34,-4.38,4.38,3.86,-4.97,-4.96,-4.96
330.87,-9.41,-4.47,-9.39,-4.45,4.45,3.88,-4.95,-4.94,-4.94
334.18,-9.45,-4.53,-9.44,-4.52,4.52,3.90,-4.92,-4.92,-4.92
337.52,-9.50,-4.60,-9.49,-4.59,4.59,3.92,-4.90,-4.90,-4.89
340.90,-9.54,-4.67,-9.54,-4.66,4.66,3.95,-4.87,-4.87,-4.87
344.30,-9.59,-4.75,-9.58,-4.73,4.73,3.97,-4.85,-4.85,-4.84
347.75,-9.63,-4.81,-9.62,-4.80,4.80,4.01,-4.83,-4.82,-4.82
351.23,-9.67,-4.88,-9.66,-4.87,4.87,4.04,-4.80,-4.79,-4.79
354.74,-9.71,-4.94,-9.70,-4.93,4.93,4.08,-4.77,-4.77,-4.76
358.28,-9.74,-5.00,-9.74,-5.00,5.00,4.12,-4.74,-4.74,-4.74
361.87,-9.78,-5.06,-9.78,-5.06,5.06,4.17,-4.71,-4.72,-4.72
365.49,-9.81,-5.11,-9.82,-5.13,5.13,4.22,-4.68,-4.70,-4.69
369.14,-9.85,-5.18,-9.86,-5.19,5.19,4.27,-4.66,-4.67,-4.67
372.83,-9.90,-5.25,-9.90,-5.25,5.25,4.32,-4.65,-4.65,-4.65
376.56,-9.95,-5.32,-9.94,-5.30,5.30,4.38,-4.64,-4.63,-4.63
380.33,-9.98,-5.36,-9.98,-5.36,5.36,4.44,-4.62,-4.62,-4.61
384.13,-10.02,-5.42,-10.02,-5.42,5.42,4.50,-4.60,-4.60,-4.60
387.97,-10.07,-5.48,-10.06,-5.47,5.47,4.56,-4.60,-4.59,-4.58
391.85,-10.11,-5.54,-10.10,-5.52,5.52,4.63,-4.58,-4.58,-4.57
395.77,-10.15,-5.59,-10.15,-5.58,5.58,4.70,-4.57,-4.57,-4.56
399.73,-10.19,-5.63,-10.19,-5.63,5.63,4.77,-4.56,-4.56,-4.55
403.72,-10.23,-5.68,-10.23,-5.68,5.68,4.84,-4.55,-4.56,-4.55
407.76,-10.27,-5.72,-10.28,-5.72,5.72,4.92,-4.54,-4.56,-4.55
411.84,-10.33,-5.78,-10.33,-5.77,5.77,4.99,-4.55,-4.56,-4.55
415.96,-10.39,-5.83,-10.38,-5.82,5.82,5.06,-4.57,-4.56,-4.56
420.12,-10.45,-5.89,-10.44,-5.87,5.87,5.14,-4.58,-4.57,-4.56
424.32,-10.49,-5.92,-10.49,-5.92,5.90,5.21,-4.59,-4.59,-4.57
428.56,-10.53,-5.95,-10.55,-5.97,5.93,5.28,-4.60,-4.62,-4.58
432.85,-10.58,-5.99,-10.61,-6.03,5.96,5.35,-4.62,-4.65,-4.59
437.18,-10.66,-6.06,-10.67,-6.08,5.97,5.41,-4.68,-4.70,-4.60
441.55,-10.73,-6.12,-10.74,-6.14,5.99,5.48,-4.74,-4.75,-4.60
445.96,-10.80,-6.18,-10.80,-6.20,6.00,5.53,-4.80,-4.81,-4.61
450.42,-10.88,-6.26,-10.87,-6.26,6.00,5.59,-4.88,-4.87,-4.62
454.93,-10.93,-6.30,-10.94,-6.32,6.00,5.63,-4.93,-4.94,-4.62
459.48,-10.98,-6.35,-11.00,-6.38,6.00,5.67,-4.98,-5.00,-4.63
464.07,-11.03,-6.40,-11.06,-6.43,6.00,5.70,-5.03,-5.06,-4.63
468.71,-11.09,-6.46,-11.12,-6.48,6.00,5.73,-5.09,-5.12,-4.63
473.40,-11.16,-6.52,-11.17,-6.52,6.00,5.74,-5.16,-5.17,-4.63
478.13,-11.21,-6.57,-11.20,-6.55,6.00,5.74,-5.21,-5.20,-4.63
