frequency,raw,error,smoothed,error_smoothed,equalization,parametric_eq,equalized_raw,equalized_smoothed,target
20.00,2.81,0.29,2.81,0.29,-0.29,-0.63,2.52,2.52,2.52
20.20,2.84,0.32,2.84,0.32,-0.32,-0.65,2.52,2.52,2.52
20.40,2.86,0.34,2.86,0.34,-0.34,-0.67,2.52,2.52,2.52
20.61,2.89,0.37,2.89,0.37,-0.37,-0.69,2.52,2.52,2.52
20.81,2.92,0.40,2.92,0.40,-0.40,-0.71,2.52,2.52,2.52
21.02,2.94,0.42,2.95,0.43,-0.43,-0.73,2.51,2.52,2.52
21.23,2.98,0.46,2.98,0.46,-0.46,-0.75,2.52,2.52,2.52
21.44,3.01,0.50,3.01,0.49,-0.49,-0.77,2.52,2.51,2.51
21.66,3.03,0.52,3.04,0.52,-0.52,-0.80,2.51,2.51,2.51
21.87,3.06,0.55,3.07,0.56,-0.56,-0.82,2.51,2.51,2.51
22.09,3.10,0.59,3.10,0.59,-0.59,-0.84,2.51,2.51,2.51
22.31,3.13,0.62,3.13,0.62,-0.62,-0.87,2.51,2.51,2.51
22.54,3.16,0.65,3.16,0.65,-0.65,-0.89,2.51,2.51,2.51
22.76,3.20,0.69,3.20,0.69,-0.69,-0.92,2.51,2.51,2.51
22.99,3.23,0.72,3.23,0.72,-0.72,-0.94,2.51,2.51,2.51
23.22,3.26,0.75,3.26,0.76,-0.76,-0.97,2.50,2.51,2.51
23.45,3.30,0.80,3.30,0.79,-0.79,-1.00,2.51,2.50,2.50
23.69,3.33,0.83,3.33,0.83,-0.83,-1.03,2.50,2.50,2.50
23.92,3.37,0.87,3.37,0.87,-0.87,-1.06,2.51,2.50,2.50
24.16,3.41,0.91,3.40,0.90,-0.90,-1.09,2.51,2.50,2.50
24.40,3.43,0.93,3.44,0.94,-0.94,-1.12,2.49,2.50,2.50
24.65,3.47,0.97,3.48,0.98,-0.98,-1.15,2.49,2.50,2.50
24.89,3.51,1.01,3.51,1.02,-1.02,-1.18,2.49,2.50,2.50
25.14,3.55,1.06,3.55,1.06,-1.06,-1.21,2.49,2.49,2.50
25.39,3.59,1.10,3.59,1.10,-1.10,-1.24,2.49,2.49,2.49
25.65,3.63,1.14,3.63,1.14,-1.14,-1.27,2.49,2.49,2.49
25.91,3.67,1.18,3.67,1.18,-1.18,-1.30,2.49,2.49,2.49
26.16,3.71,1.22,3.71,1.22,-1.22,-1.34,2.49,2.49,2.49
26.43,3.75,1.26,3.75,1.26,-1.26,-1.37,2.49,2.49,2.49
26.69,3.79,1.31,3.79,1.30,-1.30,-1.40,2.49,2.48,2.49
26.96,3.83,1.35,3.83,1.35,-1.35,-1.43,2.48,2.48,2.48
27.23,3.87,1.39,3.87,1.39,-1.39,-1.47,2.48,2.48,2.48
27.50,3.90,1.42,3.91,1.43,-1.43,-1.50,2.47,2.48,2.48
27.77,3.95,1.47,3.95,1.47,-1.47,-1.53,2.48,2.48,2.48
28.05,3.99,1.52,3.98,1.51,-1.51,-1.56,2.48,2.48,2.48
28.33,4.02,1.55,4.02,1.55,-1.55,-1.59,2.47,2.47,2.47
28.62,4.06,1.59,4.06,1.59,-1.59,-1.62,2.47,2.47,2.47
28.90,4.09,1.62,4.09,1.63,-1.63,-1.65,2.47,2.47,2.47
29.19,4.12,1.65,4.13,1.66,-1.66,-1.68,2.46,2.47,2.47
29.48,4.16,1.70,4.16,1.70,-1.70,-1.71,2.46,2.46,2.46
29.78,4.20,1.74,4.20,1.74,-1.74,-1.74,2.46,2.46,2.46
30.08,4.23,1.77,4.23,1.77,-1.77,-1.76,2.46,2.46,2.46
30.38,4.26,1.80,4.26,1.80,-1.80,-1.79,2.46,2.46,2.46
30.68,4.29,1.84,4.29,1.84,-1.84,-1.81,2.45,2.45,2.46
30.99,4.33,1.88,4.32,1.87,-1.87,-1.83,2.46,2.45,2.45
31.30,4.35,1.90,4.35,1.90,-1.90,-1.85,2.45,2.45,2.45
31.61,4.38,1.93,4.37,1.93,-1.93,-1.87,2.45,2.45,2.45
31.93,4.40,1.96,4.40,1.95,-1.95,-1.89,2.45,2.44,2.44
32.24,4.42,1.98,4.42,1.98,-1.98,-1.91,2.44,2.44,2.44
32.57,4.44,2.00,4.44,2.01,-2.01,-1.92,2.43,2.44,2.44
32.89,4.46,2.03,4.47,2.03,-2.03,-1.94,2.43,2.43,2.43
33.22,4.49,2.06,4.49,2.05,-2.05,-1.95,2.44,2.43,2.43
33.55,4.50,2.07,4.50,2.08,-2.08,-1.96,2.42,2.43,2.43
33.89,4.52,2.10,4.52,2.10,-2.10,-1.98,2.42,2.42,2.42
34.23,4.54,2.12,4.54,2.12,-2.12,-1.99,2.42,2.42,2.42
34.57,4.57,2.15,4.56,2.15,-2.15,-2.00,2.42,2.42,2.42
34.92,4.58,2.17,4.58,2.17,-2.17,-2.01,2.41,2.41,2.41
35.27,4.60,2.19,4.60,2.20,-2.20,-2.02,2.41,2.41,2.41
35.62,4.62,2.21,4.62,2.22,-2.22,-2.03,2.40,2.40,2.41
35.97,4.64,2.24,4.64,2.24,-2.24,-2.04,2.40,2.40,2.40
36.33,4.66,2.26,4.67,2.27,-2.27,-2.05,2.39,2.40,2.40
36.70,4.68,2.29,4.69,2.29,-2.29,-2.06,2.39,2.39,2.39
37.06,4.71,2.32,4.71,2.32,-2.32,-2.08,2.39,2.39,2.39
37.43,4.73,2.35,4.73,2.34,-2.34,-2.09,2.39,2.38,2.38
37.81,4.75,2.37,4.75,2.37,-2.37,-2.10,2.38,2.38,2.38
38.19,4.77,2.40,4.77,2.39,-2.39,-2.12,2.38,2.37,2.37
38.57,4.79,2.42,4.79,2.42,-2.42,-2.13,2.37,2.37,2.37
38.95,4.81,2.45,4.81,2.44,-2.44,-2.15,2.37,2.36,2.36
39.34,4.83,2.47,4.83,2.47,-2.47,-2.17,2.36,2.36,2.36
39.74,4.85,2.50,4.85,2.49,-2.49,-2.18,2.36,2.35,2.35
40.14,4.86,2.51,4.86,2.52,-2.52,-2.20,2.34,2.35,2.35
40.54,4.88,2.54,4.88,2.54,-2.54,-2.23,2.34,2.34,2.34
40.94,4.90,2.56,4.90,2.56,-2.56,-2.25,2.34,2.34,2.34
41.35,4.91,2.58,4.92,2.59,-2.59,-2.27,2.32,2.33,2.33
41.76,4.94,2.62,4.94,2.61,-2.61,-2.30,2.33,2.32,2.32
42.18,4.95,2.63,4.96,2.64,-2.64,-2.33,2.31,2.32,2.32
42.60,4.97,2.66,4.97,2.66,-2.66,-2.36,2.31,2.31,2.31
43.03,4.99,2.69,4.99,2.69,-2.69,-2.39,2.30,2.30,2.30
43.46,5.01,2.71,5.01,2.71,-2.71,-2.42,2.30,2.30,2.30
43.90,5.03,2.74,5.03,2.74,-2.74,-2.46,2.29,2.29,2.29
44.33,5.05,2.77,5.05,2.76,-2.76,-2.50,2.29,2.28,2.28
44.78,5.06,2.79,5.07,2.79,-2.79,-2.53,2.27,2.28,2.28
45.23,5.08,2.81,5.08,2.81,-2.81,-2.58,2.27,2.27,2.27
45.68,5.10,2.84,5.10,2.84,-2.84,-2.62,2.26,2.26,2.26
46.13,5.12,2.87,5.12,2.87,-2.87,-2.66,2.26,2.25,2.25
46.60,5.13,2.89,5.13,2.89,-2.89,-2.71,2.24,2.24,2.24
47.06,5.15,2.92,5.15,2.91,-2.91,-2.76,2.24,2.23,2.23
47.53,5.17,2.95,5.16,2.94,-2.94,-2.81,2.23,2.23,2.22
48.01,5.18,2.97,5.18,2.96,-2.96,-2.86,2.22,2.22,2.22
48.49,5.19,2.98,5.19,2.99,-2.99,-2.91,2.20,2.21,2.21
48.97,5.21,3.01,5.21,3.01,-3.01,-2.97,2.20,2.20,2.20
49.46,5.22,3.03,5.22,3.04,-3.04,-3.02,2.18,2.19,2.19
49.96,5.23,3.05,5.24,3.06,-3.06,-3.08,2.17,2.18,2.18
50.46,5.25,3.09,5.25,3.09,-3.09,-3.14,2.17,2.17,2.17
50.96,5.27,3.12,5.26,3.11,-3.11,-3.20,2.16,2.15,2.15
51.47,5.28,3.14,5.28,3.14,-3.14,-3.26,2.15,2.14,2.14
51.99,5.29,3.16,5.29,3.16,-3.16,-3.32,2.13,2.13,2.13
52.51,5.30,3.18,5.31,3.19,-3.19,-3.38,2.11,2.12,2.12
53.03,5.32,3.21,5.32,3.21,-3.21,-3.44,2.11,2.11,2.11
53.56,5.33,3.24,5.34,3.24,-3.24,-3.50,2.09,2.09,2.09
54.10,5.36,3.28,5.35,3.27,-3.27,-3.56,2.09,2.08,2.08
54.64,5.36,3.29,5.37,3.30,-3.30,-3.62,2.06,2.07,2.07
55.18,5.38,3.33,5.38,3.33,-3.33,-3.68,2.05,2.06,2.06
55.74,5.40,3.36,5.40,3.36,-3.36,-3.73,2.04,2.04,2.04
56.29,5.41,3.38,5.42,3.39,-3.39,-3.79,2.02,2.03,2.03
56.86,5.43,3.42,5.43,3.42,-3.42,-3.84,2.01,2.01,2.01
57.42,5.45,3.45,5.45,3.45,-3.45,-3.90,2.00,2.00,2.00
58.00,5.47,3.49,5.47,3.49,-3.49,-3.94,1.99,1.98,1.98
58.58,5.48,3.51,5.49,3.52,-3.52,-3.99,1.96,1.97,1.97
59.16,5.51,3.56,5.50,3.55,-3.55,-4.03,1.96,1.95,1.95
59.76,5.52,3.59,5.52,3.59,-3.59,-4.07,1.93,1.93,1.93
60.35,5.54,3.62,5.54,3.62,-3.62,-4.11,1.92,1.92,1.92
60.96,5.55,3.65,5.55,3.65,-3.65,-4.14,1.90,1.90,1.90
61.57,5.57,3.69,5.57,3.69,-3.69,-4.17,1.88,1.88,1.88
62.18,5.59,3.73,5.59,3.72,-3.72,-4.19,1.87,1.86,1.86
62.80,5.61,3.76,5.60,3.76,-3.76,-4.21,1.85,1.85,1.85
63.43,5.62,3.79,5.62,3.79,-3.79,-4.23,1.83,1.83,1.83
64.07,5.63,3.82,5.64,3.83,-3.83,-4.24,1.80,1.81,1.81
64.71,5.65,3.86,5.65,3.87,-3.87,-4.25,1.78,1.79,1.79
65.35,5.67,3.90,5.67,3.90,-3.90,-4.26,1.77,1.77,1.77
66.01,5.68,3.93,5.69,3.94,-3.94,-4.26,1.74,1.75,1.75
66.67,5.70,3.97,5.70,3.98,-3.98,-4.26,1.72,1.73,1.73
67.33,5.72,4.02,5.72,4.01,-4.01,-4.26,1.71,1.70,1.71
68.01,5.73,4.05,5.73,4.05,-4.05,-4.25,1.68,1.68,1.68
68.69,5.75,4.09,5.75,4.09,-4.09,-4.24,1.66,1.66,1.66
69.37,5.76,4.12,5.76,4.13,-4.13,-4.24,1.63,1.64,1.64
70.07,5.78,4.17,5.78,4.16,-4.16,-4.22,1.62,1.61,1.62
70.77,5.79,4.20,5.79,4.20,-4.20,-4.21,1.59,1.59,1.59
71.48,5.81,4.24,5.81,4.24,-4.24,-4.20,1.57,1.57,1.57
72.19,5.82,4.28,5.82,4.27,-4.27,-4.18,1.55,1.54,1.54
72.91,5.83,4.31,5.83,4.31,-4.31,-4.17,1.52,1.52,1.52
73.64,5.84,4.35,5.84,4.34,-4.34,-4.16,1.50,1.49,1.49
74.38,5.84,4.37,5.85,4.38,-4.38,-4.14,1.46,1.47,1.47
75.12,5.86,4.42,5.85,4.41,-4.41,-4.13,1.45,1.44,1.44
75.87,5.86,4.45,5.86,4.45,-4.45,-4.12,1.42,1.41,1.41
76.63,5.86,4.47,5.86,4.48,-4.48,-4.11,1.38,1.39,1.39
77.40,5.87,4.51,5.87,4.51,-4.51,-4.10,1.36,1.36,1.36
78.17,5.87,4.54,5.87,4.54,-4.54,-4.09,1.33,1.33,1.33
78.95,5.87,4.57,5.87,4.57,-4.57,-4.09,1.30,1.30,1.30
79.74,5.87,4.59,5.87,4.60,-4.60,-4.09,1.27,1.27,1.28
80.54,5.87,4.62,5.87,4.63,-4.63,-4.09,1.24,1.25,1.25
81.35,5.88,4.66,5.87,4.66,-4.66,-4.09,1.22,1.22,1.22
82.16,5.87,4.68,5.87,4.68,-4.68,-4.10,1.19,1.19,1.19
82.98,5.87,4.71,5.87,4.71,-4.71,-4.10,1.16,1.16,1.16
83.81,5.87,4.74,5.87,4.74,-4.74,-4.12,1.13,1.13,1.13
84.65,5.86,4.76,5.86,4.77,-4.77,-4.13,1.10,1.10,1.10
85.50,5.86,4.79,5.86,4.79,-4.79,-4.15,1.07,1.07,1.07
86.35,5.85,4.81,5.85,4.82,-4.82,-4.17,1.03,1.04,1.04
87.22,5.84,4.84,5.85,4.84,-4.84,-4.19,1.00,1.01,1.00
88.09,5.84,4.87,5.84,4.86,-4.86,-4.22,0.98,0.97,0.97
88.97,5.83,4.89,5.83,4.89,-4.89,-4.25,0.94,0.94,0.94
89.86,5.82,4.91,5.82,4.91,-4.91,-4.28,0.91,0.91,0.91
90.76,5.81,4.93,5.81,4.93,-4.93,-4.32,0.88,0.88,0.88
91.66,5.80,4.96,5.80,4.95,-4.95,-4.36,0.85,0.84,0.84
92.58,5.78,4.97,5.79,4.97,-4.97,-4.40,0.81,0.81,0.81
93.51,5.77,4.99,5.77,4.99,-4.99,-4.45,0.78,0.78,0.78
94.44,5.76,5.01,5.76,5.01,-5.01,-4.50,0.75,0.75,0.75
95.39,5.75,5.04,5.75,5.03,-5.03,-4.55,0.72,0.71,0.71
96.34,5.73,5.05,5.73,5.05,-5.05,-4.61,0.68,0.68,0.68
97.30,5.71,5.06,5.72,5.07,-5.07,-4.66,0.64,0.65,0.65
98.28,5.70,5.09,5.70,5.09,-5.09,-4.72,0.61,0.61,0.61
99.26,5.68,5.10,5.69,5.11,-5.11,-4.79,0.58,0.58,0.58
100.25,5.67,5.12,5.67,5.12,-5.12,-4.85,0.55,0.55,0.55
101.25,5.65,5.14,5.65,5.14,-5.14,-4.92,0.51,0.51,0.52
102.27,5.64,5.16,5.64,5.15,-5.15,-4.98,0.49,0.48,0.48
103.29,5.62,5.17,5.62,5.17,-5.17,-5.05,0.45,0.45,0.45
104.32,5.60,5.18,5.60,5.18,-5.18,-5.12,0.42,0.42,0.42
105.37,5.58,5.20,5.58,5.19,-5.19,-5.19,0.39,0.38,0.38
106.42,5.55,5.20,5.56,5.21,-5.21,-5.26,0.34,0.35,0.35
107.48,5.53,5.21,5.54,5.22,-5.22,-5.33,0.31,0.32,0.32
108.56,5.51,5.23,5.51,5.23,-5.23,-5.40,0.28,0.28,0.28
109.64,5.49,5.24,5.49,5.24,-5.24,-5.47,0.25,0.25,0.25
110.74,5.47,5.25,5.46,5.24,-5.24,-5.53,0.23,0.22,0.22
111.85,5.44,5.25,5.44,5.25,-5.25,-5.59,0.19,0.19,0.19
112.97,5.41,5.25,5.41,5.26,-5.26,-5.65,0.15,0.16,0.16
114.10,5.38,5.26,5.39,5.26,-5.26,-5.71,0.12,0.12,0.12
115.24,5.36,5.27,5.36,5.27,-5.27,-5.76,0.09,0.09,0.09
116.39,5.33,5.27,5.33,5.27,-5.27,-5.80,0.06,0.06,0.06
117.55,5.30,5.27,5.30,5.27,-5.27,-5.85,0.03,0.03,0.03
118.73,5.27,5.27,5.27,5.27,-5.27,-5.88,0.00,0.00,0.00
119.92,5.24,5.27,5.24,5.27,-5.27,-5.91,-0.03,-0.03,-0.03
121.12,5.21,5.27,5.21,5.27,-5.27,-5.93,-0.06,-0.06,-0.06
122.33,5.17,5.26,5.17,5.26,-5.26,-5.94,-0.09,-0.09,-0.09
123.55,5.14,5.26,5.14,5.26,-5.26,-5.95,-0.12,-0.12,-0.12
124.79,5.10,5.25,5.10,5.25,-5.25,-5.95,-0.15,-0.15,-0.15
126.03,5.07,5.25,5.07,5.24,-5.24,-5.94,-0.17,-0.18,-0.18
127.29,5.03,5.24,5.03,5.24,-5.24,-5.92,-0.20,-0.21,-0.21
128.57,4.99,5.22,4.99,5.22,-5.22,-5.90,-0.23,-0.23,-0.23
129.85,4.96,5.22,4.95,5.21,-5.21,-5.87,-0.25,-0.26,-0.26
131.15,4.91,5.20,4.91,5.20,-5.20,-5.83,-0.29,-0.29,-0.29
132.46,4.87,5.18,4.87,5.19,-5.19,-5.79,-0.31,-0.31,-0.31
133.79,4.83,5.17,4.83,5.17,-5.17,-5.74,-0.34,-0.34,-0.34
135.12,4.79,5.16,4.79,5.15,-5.15,-5.68,-0.36,-0.37,-0.37
136.48,4.74,5.13,4.74,5.14,-5.14,-5.62,-0.39,-0.39,-0.39
137.84,4.69,5.11,4.70,5.12,-5.12,-5.55,-0.43,-0.42,-0.42
139.22,4.65,5.09,4.66,5.10,-5.10,-5.48,-0.45,-0.44,-0.44
140.61,4.61,5.08,4.61,5.08,-5.08,-5.41,-0.47,-0.47,-0.47
142.02,4.57,5.06,4.57,5.06,-5.06,-5.33,-0.49,-0.49,-0.49
143.44,4.52,5.03,4.52,5.03,-5.03,-5.25,-0.51,-0.51,-0.51
144.87,4.47,5.01,4.47,5.01,-5.01,-5.17,-0.54,-0.54,-0.54
146.32,4.43,4.99,4.43,4.99,-4.99,-5.08,-0.56,-0.56,-0.56
147.78,4.38,4.96,4.38,4.97,-4.97,-5.00,-0.58,-0.58,-0.58
149.26,4.34,4.94,4.34,4.94,-4.94,-4.91,-0.60,-0.60,-0.60
150.75,4.29,4.91,4.29,4.92,-4.92,-4.83,-0.63,-0.62,-0.62
152.26,4.24,4.89,4.25,4.89,-4.89,-4.75,-0.65,-0.64,-0.64
153.78,4.20,4.87,4.20,4.86,-4.86,-4.66,-0.66,-0.66,-0.66
155.32,4.15,4.84,4.15,4.84,-4.84,-4.58,-0.69,-0.68,-0.68
156.88,4.10,4.81,4.10,4.81,-4.81,-4.50,-0.71,-0.70,-0.70
158.44,4.05,4.77,4.05,4.78,-4.78,-4.42,-0.73,-0.72,-0.72
160.03,4.01,4.75,4.01,4.75,-4.75,-4.34,-0.74,-0.74,-0.74
161.63,3.95,4.71,3.96,4.72,-4.72,-4.27,-0.77,-0.76,-0.76
163.24,3.91,4.69,3.91,4.68,-4.68,-4.20,-0.77,-0.78,-0.78
164.88,3.86,4.66,3.85,4.65,-4.65,-4.12,-0.79,-0.80,-0.80
166.53,3.81,4.62,3.80,4.62,-4.62,-4.06,-0.81,-0.81,-0.81
168.19,3.75,4.58,3.75,4.58,-4.58,-3.99,-0.83,-0.83,-0.83
169.87,3.69,4.54,3.70,4.54,-4.54,-3.93,-0.85,-0.85,-0.85
171.57,3.64,4.50,3.64,4.50,-4.50,-3.87,-0.86,-0.86,-0.86
173.29,3.58,4.46,3.59,4.46,-4.46,-3.81,-0.88,-0.88,-0.88
175.02,3.53,4.42,3.53,4.42,-4.42,-3.76,-0.89,-0.89,-0.89
176.77,3.47,4.38,3.47,4.38,-4.38,-3.71,-0.91,-0.91,-0.91
178.54,3.42,4.34,3.42,4.34,-4.34,-3.66,-0.92,-0.92,-0.92
180.32,3.36,4.30,3.36,4.29,-4.29,-3.61,-0.93,-0.94,-0.94
182.13,3.30,4.25,3.30,4.25,-4.25,-3.57,-0.95,-0.95,-0.95
183.95,3.23,4.19,3.24,4.20,-4.20,-3.53,-0.97,-0.96,-0.96
185.79,3.18,4.16,3.18,4.15,-4.15,-3.49,-0.97,-0.98,-0.98
187.65,3.12,4.11,3.12,4.10,-4.10,-3.46,-0.98,-0.99,-0.99
189.52,3.05,4.05,3.05,4.05,-4.05,-3.42,-1.00,-1.00,-1.00
191.42,2.99,4.00,2.99,4.00,-4.00,-3.39,-1.01,-1.01,-1.01
193.33,2.93,3.95,2.92,3.95,-3.95,-3.37,-1.02,-1.02,-1.02
195.27,2.86,3.90,2.86,3.89,-3.89,-3.34,-1.03,-1.04,-1.04
197.22,2.79,3.84,2.79,3.84,-3.84,-3.32,-1.05,-1.05,-1.05
199.19,2.73,3.79,2.73,3.79,-3.79,-3.30,-1.05,-1.06,-1.06
201.18,2.66,3.73,2.66,3.73,-3.73,-3.28,-1.07,-1.07,-1.07
203.19,2.59,3.67,2.59,3.67,-3.67,-3.26,-1.08,-1.08,-1.08
205.23,2.52,3.61,2.53,3.62,-3.62,-3.25,-1.10,-1.09,-1.09
207.28,2.46,3.56,2.46,3.56,-3.56,-3.23,-1.10,-1.10,-1.10
209.35,2.39,3.50,2.39,3.50,-3.50,-3.22,-1.11,-1.11,-1.11
211.44,2.33,3.45,2.33,3.45,-3.45,-3.21,-1.11,-1.12,-1.12
213.56,2.26,3.39,2.26,3.39,-3.39,-3.20,-1.13,-1.13,-1.12
215.69,2.20,3.33,2.20,3.33,-3.33,-3.18,-1.13,-1.13,-1.13
217.85,2.13,3.27,2.13,3.27,-3.27,-3.17,-1.14,-1.14,-1.14
220.03,2.07,3.22,2.07,3.22,-3.22,-3.16,-1.15,-1.15,-1.15
222.23,2.01,3.17,2.00,3.16,-3.16,-3.15,-1.15,-1.16,-1.16
224.45,1.94,3.11,1.94,3.10,-3.10,-3.14,-1.16,-1.17,-1.17
226.70,1.87,3.04,1.87,3.05,-3.05,-3.13,-1.18,-1.17,-1.17
228.96,1.81,2.99,1.81,2.99,-2.99,-3.12,-1.18,-1.18,-1.18
231.25,1.75,2.94,1.75,2.94,-2.94,-3.10,-1.19,-1.19,-1.19
233.57,1.69,2.89,1.69,2.89,-2.89,-3.09,-1.20,-1.20,-1.19
235.90,1.63,2.83,1.63,2.84,-2.84,-3.07,-1.21,-1.20,-1.20
238.26,1.57,2.78,1.58,2.79,-2.79,-3.05,-1.22,-1.21,-1.21
240.64,1.51,2.72,1.52,2.74,-2.74,-3.03,-1.23,-1.22,-1.21
243.05,1.47,2.69,1.47,2.69,-2.69,-3.00,-1.22,-1.22,-1.22
245.48,1.41,2.64,1.42,2.65,-2.65,-2.98,-1.24,-1.23,-1.23
247.93,1.37,2.60,1.37,2.61,-2.61,-2.95,-1.24,-1.23,-1.23
250.41,1.33,2.57,1.32,2.56,-2.56,-2.92,-1.23,-1.24,-1.24
252.92,1.28,2.52,1.28,2.52,-2.52,-2.88,-1.24,-1.24,-1.24
255.45,1.23,2.48,1.24,2.49,-2.49,-2.85,-1.25,-1.25,-1.25
258.00,1.19,2.44,1.19,2.45,-2.45,-2.81,-1.26,-1.25,-1.25
260.58,1.15,2.41,1.15,2.41,-2.41,-2.77,-1.26,-1.26,-1.26
263.19,1.11,2.37,1.11,2.37,-2.37,-2.72,-1.26,-1.26,-1.26
265.82,1.07,2.34,1.07,2.34,-2.34,-2.68,-1.26,-1.27,-1.27
268.48,1.03,2.30,1.03,2.30,-2.30,-2.63,-1.27,-1.27,-1.27
271.16,0.99,2.27,0.98,2.26,-2.26,-2.58,-1.27,-1.28,-1.28
273.87,0.94,2.22,0.94,2.23,-2.23,-2.52,-1.28,-1.28,-1.28
276.61,0.90,2.19,0.90,2.19,-2.19,-2.47,-1.29,-1.29,-1.29
279.38,0.86,2.15,0.86,2.15,-2.15,-2.41,-1.29,-1.29,-1.29
282.17,0.82,2.12,0.82,2.11,-2.11,-2.36,-1.29,-1.29,-1.29
284.99,0.77,2.07,0.78,2.07,-2.07,-2.30,-1.30,-1.30,-1.30
287.84,0.73,2.03,0.73,2.03,-2.03,-2.24,-1.30,-1.30,-1.30
290.72,0.69,2.00,0.69,1.99,-1.99,-2.18,-1.30,-1.31,-1.31
293.63,0.65,1.96,0.65,1.95,-1.95,-2.12,-1.30,-1.31,-1.31
296.57,0.60,1.91,0.60,1.91,-1.91,-2.05,-1.31,-1.31,-1.31
299.53,0.56,1.88,0.56,1.87,-1.87,-1.99,-1.31,-1.32,-1.32
302.53,0.51,1.83,0.51,1.83,-1.83,-1.93,-1.32,-1.32,-1.32
305.55,0.46,1.78,0.47,1.79,-1.79,-1.87,-1.33,-1.32,-1.32
308.61,0.42,1.75,0.42,1.75,-1.75,-1.81,-1.33,-1.33,-1.33
311.69,0.37,1.70,0.37,1.70,-1.70,-1.74,-1.33,-1.33,-1.33
314.81,0.33,1.66,0.33,1.66,-1.66,-1.68,-1.33,-1.34,-1.33
317.96,0.28,1.62,0.28,1.62,-1.62,-1.62,-1.34,-1.34,-1.33
321.14,0.23,1.57,0.23,1.58,-1.58,-1.56,-1.35,-1.34,-1.34
324.35,0.18,1.52,0.19,1.53,-1.53,-1.50,-1.35,-1.35,-1.34
327.59,0.13,1.47,0.14,1.49,-1.49,-1.44,-1.36,-1.35,-1.34
330.87,0.08,1.43,0.10,1.44,-1.44,-1.38,-1.36,-1.35,-1.35
334.18,0.03,1.38,0.05,1.40,-1.40,-1.32,-1.36,-1.35,-1.35
337.52,-0.02,1.33,-0.01,1.34,-1.34,-1.26,-1.36,-1.35,-1.35
340.90,-0.07,1.28,-0.07,1.29,-1.29,-1.20,-1.36,-1.35,-1.35
344.30,-0.12,1.24,-0.13,1.23,-1.23,-1.15,-1.35,-1.36,-1.35
347.75,-0.18,1.18,-0.19,1.17,-1.17,-1.09,-1.35,-1.36,-1.36
351.23,-0.22,1.14,-0.26,1.10,-1.10,-1.03,-1.32,-1.36,-1.36
354.74,-0.29,1.07,-0.34,1.03,-1.03,-0.98,-1.31,-1.36,-1.36
358.28,-0.39,0.97,-0.41,0.95,-0.95,-0.93,-1.34,-1.36,-1.36
361.87,-0.49,0.88,-0.50,0.86,-0.86,-0.87,-1.35,-1.36,-1.37
365.49,-0.59,0.78,-0.59,0.78,-0.78,-0.82,-1.36,-1.36,-1.37
369.14,-0.69,0.68,-0.68,0.68,-0.68,-0.77,-1.37,-1.36,-1.37
372.83,-0.79,0.58,-0.78,0.59,-0.59,-0.72,-1.38,-1.37,-1.37
376.56,-0.87,0.50,-0.87,0.50,-0.50,-0.67,-1.36,-1.37,-1.37
380.33,-0.97,0.41,-0.97,0.40,-0.40,-0.62,-1.37,-1.37,-1.37
384.13,-1.06,0.32,-1.07,0.31,-0.31,-0.57,-1.37,-1.38,-1.38
387.97,-1.16,0.22,-1.17,0.22,-0.22,-0.52,-1.38,-1.39,-1.38
391.85,-1.25,0.13,-1.26,0.13,-0.13,-0.47,-1.38,-1.39,-1.38
395.77,-1.34,0.04,-1.34,0.06,-0.06,-0.42,-1.39,-1.40,-1.38
399.73,-1.42,-0.04,-1.41,-0.01,0.01,-0.38,-1.40,-1.40,-1.38
403.72,-1.50,-0.12,-1.48,-0.08,0.08,-0.33,-1.42,-1.40,-1.38
407.76,-1.56,-0.17,-1.53,-0.13,0.13,-0.29,-1.43,-1.40,-1.39
411.84,-1.61,-0.22,-1.57,-0.17,0.17,-0.24,-1.44,-1.41,-1.39
415.96,-1.64,-0.25,-1.61,-0.20,0.20,-0.20,-1.44,-1.41,-1.39
420.12,-1.66,-0.27,-1.63,-0.22,0.22,-0.16,-1.44,-1.41,-1.39
424.32,-1.66,-0.27,-1.64,-0.22,0.22,-0.11,-1.43,-1.41,-1.39
428.56,-1.65,-0.25,-1.64,-0.22,0.22,-0.07,-1.42,-1.41,-1.40
432.85,-1.64,-0.24,-1.63,-0.22,0.22,-0.03,-1.42,-1.41,-1.40
437.18,-1.61,-0.21,-1.61,-0.20,0.20,0.00,-1.41,-1.40,-1.40
441.55,-1.58,-0.18,-1.59,-0.19,0.19,0.04,-1.39,-1.40,-1.40
445.96,-1.56,-0.17,-1.56,-0.17,0.17,0.08,-1.39,-1.39,-1.39
450.42,-1.51,-0.12,-1.53,-0.14,0.14,0.11,-1.37,-1.39,-1.39
454.93,-1.48,-0.09,-1.50,-0.12,0.12,0.14,-1.36,-1.38,-1.39
459.48,-1.44,-0.06,-1.47,-0.10,0.10,0.18,-1.34,-1.37,-1.38
464.07,-1.42,-0.05,-1.45,-0.08,0.08,0.21,-1.34,-1.37,-1.37
468.71,-1.41,-0.04,-1.43,-0.06,0.06,0.23,-1.35,-1.36,-1.37
473.40,-1.39,-0.03,-1.41,-0.05,0.05,0.26,-1.34,-1.35,-1.36
478.13,-1.38,-0.03,-1.39,-0.04,0.04,0.29,-1.34,-1.35,-1.35
482.91,-1.38,-0.04,-1.37,-0.03,0.03,0.31,-1.35,-1.34,-1.34
487.74,-1.37,-0.05,-1.36,-0.03,0.03,0.33,-1.34,-1.33,-1.32
492.62,-1.35,-0.04,-1.34,-0.03,0.03,0.35,-1.32,-1.31,-1.31
497.55,-1.34,-0.04,-1.33,-0.03,0.03,0.37,-1.31,-1.30,-1.30
502.52,-1.34,-0.06,-1.32,-0.03,0.03,0.39,-1.31,-1.29,-1.28
507.55,-1.32,-0.06,-1.31,-0.04,0.04,0.40,-1.28,-1.27,-1.26
512.62,-1.31,-0.06,-1.30,-0.04,0.04,0.42,-1.27,-1.26,-1.25
517.75,-1.28,-0.05,-1.29,-0.05,0.05,0.43,-1.23,-1.24,-1.23
522.93,-1.27,-0.06,-1.27,-0.06,0.06,0.44,-1.21,-1.22,-1.21
528.16,-1.26,-0.06,-1.26,-0.07,0.07,0.45,-1.19,-1.20,-1.20
533.44,-1.24,-0.06,-1.25,-0.08,0.08,0.46,-1.16,-1.18,-1.18
538.77,-1.24,-0.08,-1.24,-0.09,0.09,0.46,-1.15,-1.15,-1.16
544.16,-1.23,-0.09,-1.23,-0.10,0.10,0.47,-1.12,-1.13,-1.13
549.60,-1.22,-0.11,-1.23,-0.12,0.12,0.47,-1.10,-1.11,-1.11
555.10,-1.22,-0.13,-1.22,-0.14,0.14,0.47,-1.08,-1.08,-1.09
560.65,-1.22,-0.16,-1.22,-0.16,0.16,0.47,-1.06,-1.06,-1.06
566.25,-1.21,-0.18,-1.21,-0.18,0.18,0.47,-1.03,-1.03,-1.03
571.92,-1.21,-0.21,-1.21,-0.20,0.20,0.47,-1.00,-1.01,-1.00
577.64,-1.21,-0.23,-1.21,-0.23,0.23,0.47,-0.98,-0.98,-0.98
583.41,-1.21,-0.26,-1.20,-0.25,0.25,0.47,-0.96,-0.95,-0.95
589.25,-1.20,-0.28,-1.20,-0.28,0.28,0.47,-0.92,-0.92,-0.92
595.14,-1.20,-0.31,-1.19,-0.30,0.30,0.46,-0.90,-0.89,-0.89
601.09,-1.19,-0.33,-1.18,-0.32,0.32,0.46,-0.87,-0.86,-0.86
607.10,-1.18,-0.35,-1.17,-0.34,0.34,0.46,-0.84,-0.83,-0.83
613.17,-1.17,-0.37,-1.16,-0.36,0.36,0.45,-0.81,-0.80,-0.79
619.30,-1.15,-0.39,-1.15,-0.38,0.38,0.45,-0.77,-0.77,-0.76
625.50,-1.13,-0.40,-1.14,-0.40,0.40,0.45,-0.73,-0.73,-0.73
631.75,-1.12,-0.42,-1.12,-0.42,0.42,0.44,-0.70,-0.70,-0.70
638.07,-1.11,-0.44,-1.10,-0.44,0.44,0.44,-0.67,-0.67,-0.67
644.45,-1.09,-0.46,-1.09,-0.45,0.45,0.43,-0.64,-0.63,-0.63
650.89,-1.07,-0.47,-1.07,-0.47,0.47,0.43,-0.60,-0.60,-0.60
657.40,-1.05,-0.48,-1.05,-0.48,0.48,0.43,-0.56,-0.57,-0.57
663.98,-1.03,-0.50,-1.03,-0.50,0.50,0.42,-0.53,-0.53,-0.53
670.62,-1.01,-0.51,-1.01,-0.52,0.52,0.42,-0.49,-0.50,-0.50
677.32,-0.99,-0.53,-1.00,-0.54,0.54,0.42,-0.45,-0.46,-0.46
684.10,-0.98,-0.55,-0.98,-0.55,0.55,0.42,-0.43,-0.42,-0.43
690.94,-0.96,-0.57,-0.96,-0.57,0.57,0.41,-0.39,-0.39,-0.39
697.85,-0.94,-0.59,-0.94,-0.59,0.59,0.41,-0.35,-0.35,-0.35
