frequency,raw,error,smoothed,error_smoothed,equalization,equalized_raw,equalized_smoothed,target
20,-10.932509115404907,-10.948988277799096,-10.824143572885442,-10.840608359409918,5.999999999999999,-4.932509115404907,-4.8241435728854425,0.016479162394188673
21,-10.256410256410254,-10.274056342879552,-10.315922337866764,-10.333570055482996,6.000000000000001,-4.256410256410253,-4.3159223378667635,0.017646086469297995
22,-9.783074844519303,-9.801837415511875,-9.83918037015395,-9.857953998154377,6.0,-3.7830748445193034,-3.839180370153951,0.01876257099257117
23,-9.296524727760769,-9.316351937495911,-9.393917669747,-9.413760187424062,6.0,-3.2965247277607688,-3.3939176697469993,0.01982720973514196
24,-8.888888888888893,-8.90972723243668,-8.980134236645902,-9.000988623292036,5.999999999999998,-2.8888888888888946,-2.9801342366459043,0.020838343547786575
25,-8.660968660968663,-8.68276268988338,-8.600785246395915,-8.62259654644776,6.0,-2.6609686609686634,-2.6007852463959154,0.02179402891471538
26,-8.205128205128204,-8.227820209338182,-8.25233351284438,-8.275044883737584,6.000000000000001,-2.2051282051282035,-2.2523335128443795,0.022692004209976968
27,-7.97720797720798,-8.000742124754984,-7.931623362124629,-7.955175768935893,6.0,-1.9772079772079802,-1.931623362124629,0.023534147547003226
28,-7.7492877492877525,-7.773601224255685,-7.634366448620275,-7.658697019458369,5.999999999999998,-1.7492877492877543,-1.634366448620277,0.02431347496793279
29,-7.293447293447293,-7.318472012792068,-7.355665497415484,-7.380705707451622,6.0,-1.2934472934472927,-1.355665497415484,0.02502471934477457
30,-7.065527065527072,-7.091188318998036,-7.091717405650001,-7.117391949650365,6.0,-1.065527065527072,-1.0917174056500007,0.025661253470963263
31,-6.837606837606842,-6.863821897167014,-6.839412707044183,-6.865638135946455,6.000000000000001,-0.8376068376068408,-0.8394127070441817,0.026215059560172893
32,-6.609686609686612,-6.636363418628747,-6.596678670515175,-6.623362380708452,6.0,-0.6096866096866123,-0.5966786705151748,0.0266768089421352
33,-6.381766381766381,-6.408802447140019,-6.362370309667726,-6.389409788494479,5.96581307997354,-0.4159533017928414,-0.39655722969418683,0.027036065373637452
34,-6.153846153846154,-6.181128539838357,-6.135960810469106,-6.163243085088579,5.8948826491913575,-0.2589635046547967,-0.2410781612777484,0.027282385992203118
35,-5.925925925925929,-5.953330718220566,-5.917463632684898,-5.9448650338869715,5.790488036655741,-0.13543788927018774,-0.12697559602915653,0.02740479229463677
36,-5.698005698005702,-5.725398025319597,-5.70726060343428,-5.734646783201122,5.66051130846833,-0.03749438953737272,-0.04674929496595048,0.02739232731389496
37,-5.470085470085473,-5.497319821691272,-5.505956920591128,-5.533183119368344,5.5101468700622185,0.040061399976745626,0.004189949471090415,0.02723435160580001
38,-5.42234911358676,-5.449269891401763,-5.314200974587552,-5.341112508089778,5.341112508089777,-0.08123660549698286,0.026911533502225637,0.026920777815003127
39,-5.014245014245022,-5.040687232374183,-5.132430879305613,-5.158863779622875,5.158863779622875,0.144618765377853,0.02643290031726231,0.026442218129161255
40,-4.983597715180869,-5.009387744775071,-4.960644507093472,-4.986426254301813,4.986426254301814,0.0028285391209452726,0.0257817472083417,0.0257900295942024
41,-4.786324786324791,-4.811281174332005,-4.7982629045076575,-4.823213165899611,4.823213165899612,0.036888379574821606,0.024950261391954776,0.024956388007214336
42,-4.6107478729776314,-4.634682058541493,-4.644175653448015,-4.668106942471709,4.6681069424717085,0.0573590694940771,0.023931289023693125,0.023934185563861288
43,-4.558404558404561,-4.581121415925775,-4.49701486412138,-4.519733031734713,4.519733031734713,-0.03867152666984808,0.02271816761333323,0.02271685752121444
44,-4.330484330484332,-4.351782455536343,-4.35563325888242,-4.376937731930562,4.376937731930563,0.046453401446231446,0.021304473048143535,0.02129812505201123
45,-4.330484330484332,-4.350155992194493,-4.219706694837321,-4.239390384847596,4.239390384847595,-0.09109394563673678,0.01968369001027348,0.019671661710161104
46,-4.102564102564102,-4.120394794390652,-4.090321807589769,-4.108170624904569,4.108170624904569,0.005606522340467102,0.01784881731480059,0.017830691826550282
47,-3.8746438746438794,-3.890411404260072,-3.970365680484333,-3.986157603378264,3.986157603378264,0.11151372873438481,0.015791922893931165,0.015767529616192544
48,-3.874643874643879,-3.8881169660301174,-3.8645174775335085,-3.8780211436137453,3.878021143613745,0.0033772689698658986,0.013503666080236343,0.013473091386238423
49,-3.874643874643879,-3.885580266822519,-3.778672964113091,-3.789645770460934,3.7896457704609334,-0.08499810418294551,0.010972806347842479,0.010936392178639842
50,-3.646723646723651,-3.6548676956285626,-3.718739433683127,-3.7269251523425533,3.726925152342553,0.08020150561890205,0.008185718659425856,0.008144048904911827
51,-3.646723646723651,-3.651803457597355,-3.6889228375405376,-3.694048773003277,3.694048773003278,0.04732512627962704,0.005125935462740205,0.005079810873704016
52,-3.6467236467236512,-3.648447784440134,-3.689857779409592,-3.691631513685377,3.691631513685377,0.04490786696172577,0.0017737342757850882,0.001724137716482943
53,-3.6467236467236512,-3.6447774890892366,-3.717123650117796,-3.7152294379912076,3.715229437991209,0.06850579126755774,-0.0018942121265870249,-0.0019461576344146359
54,-3.6467236467236512,-3.6407654594660506,-3.7607448548183173,-3.7548397461815926,3.754839746181593,0.10811609945794176,-0.005905108636724332,-0.005958187257600667
55,-3.6467236467236512,-3.6363804707991276,-3.806120878953241,-3.7958306560921153,3.7958306560921153,0.1491070093684641,-0.010290222861125464,-0.010343175924523607
56,-3.874643874643879,-3.8595073237453907,-3.8364771971772673,-3.8213922221729124,3.8213922221729137,-0.053251652470965194,-0.015084975004353574,-0.015136550898488199
57,-4.102564102564102,-4.08218617195965,-3.8364626641726,-3.816133734956137,3.8161337349561357,-0.2864303676079665,-0.020328929216464342,-0.020377930604452477
58,-4.102564102564103,-4.076453089584009,-3.796094758258258,-3.7700290713248514,3.770029071324852,-0.3325350312392512,-0.026065686933406162,-0.026111012980093662
59,-3.874643874643879,-3.842260506553238,-3.7140267404817013,-3.681684054043348,3.681684054043348,-0.19295982060053074,-0.03234268643835314,-0.03238336809064091
60,-3.653380380427553,-3.614134237476594,-3.5991754406576524,-3.5599645244765776,3.559964524476578,-0.09341585595097479,-0.03921091618107431,-0.03924614295095896
61,-3.4188034188034213,-3.3720497293413225,-3.4700966467665344,-3.4233720946096087,3.4233720946096087,0.004568675806187361,-0.046724552156925725,-0.04675368946209879
62,-3.190883190883192,-3.1359200624408765,-3.3520264301590963,-3.297085898410364,3.297085898410364,0.10620270752717209,-0.05494053174873237,-0.05496312844231532
63,-3.1908831908831914,-3.1269493267829676,-3.272074930462866,-3.208156852662041,3.208156852662043,0.01727366177885159,-0.06391807780082281,-0.06393386410022384
64,-3.1908831908831914,-3.1171561270238164,-3.253522031976198,-3.1798038447177337,3.1798038447177337,-0.011079346165457693,-0.07371818725846424,-0.073727063859375
65,-3.1908831908831914,-3.1064780726586934,-3.310421011118999,-3.2260179124019355,3.226017912401935,0.03513472151874364,-0.08440309871706386,-0.08440511822449803
66,-3.1908831908831914,-3.094852096448059,-3.4437190241240083,-3.3476832720659706,3.3476832720659715,0.1568000811827801,-0.09603575205803683,-0.09603109443513258
67,-3.418803418803421,-3.310135222721885,-3.6398513072852694,-3.531172055443274,3.5311720554432737,0.11236863663985286,-0.10867925184199567,-0.10866819608153566
68,-3.744436138564108,-3.6220568997437135,-3.8722919345743394,-3.7498955895634465,3.749895589563447,0.005459450999338866,-0.12239634501089247,-0.12237923882039459
69,-4.128788336296711,-3.991562186337535,-4.105916570771652,-3.9686676491608237,3.9686676491608246,-0.160120687135886,-0.13724892161082725,-0.1372261499591758
70,-4.5076100943584905,-4.354340597209324,-4.303368948278575,-4.1500714049642315,4.150071404964231,-0.3575386893942598,-0.15329754331434398,-0.1532694971491657
71,-4.786324786324791,-4.615756737422582,-4.432083746054077,-4.261482746360201,4.261482746360202,-0.5248420399645886,-0.17060099969387466,-0.17056804890220878
72,-4.779206721023582,-4.590028353745806,-4.470372519262487,-4.281156629002706,4.281156629002707,-0.4980500920208746,-0.18921589025977958,-0.18917836727777537
73,-4.558404558404561,-4.349250127398861,-4.411142922439812,-4.20194668749305,4.201946687493049,-0.3564578709115125,-0.20919623494676376,-0.20915443100569986
74,-4.330484330484332,-4.099937044867577,-4.262397744546539,-4.031804625350247,4.031804625350248,-0.2986797051340835,-0.23059311919629089,-0.2305472856167552
75,-4.075207336819535,-3.821802620899809,-4.0445069874642865,-3.7910526050957847,3.7910526050957842,-0.2841547317237505,-0.25345438236850226,-0.2534047159197259
76,-3.6660937516375554,-3.3883228162128107,-3.785105023996269,-3.5072806741688156,3.5072806741688165,-0.15881307746873885,-0.27782434982745263,-0.2777709354247446
77,-3.2395063484108344,-2.935820061340897,-3.513055413221055,-3.2093118398003084,3.209311839800309,-0.030194508610525528,-0.3037435734207463,-0.3036862870699375
78,-3.1277101473397213,-2.7965231975063887,-3.2530569729868146,-2.9218084795581785,2.9218084795581785,-0.20590166778154284,-0.33124849342863616,-0.33118694983333263
79,-2.9629629629629624,-2.602658316512454,-3.022111134968117,-2.6617402073611984,2.6617402073611993,-0.30122275560176304,-0.3603709276069176,-0.3603046464505084
80,-2.7350427350427395,-2.3439763866040693,-2.8283838172892284,-2.437246415019459,2.437246415019459,-0.2977963200232807,-0.39113740226976956,-0.3910663484386703
81,-2.7350427350427395,-2.3115487591768646,-2.672239915320975,-2.2486713435730503,2.2486713435730508,-0.4863713914696888,-0.42356857174792406,-0.4234939758658749
82,-2.7227338118806372,-2.2651297211676664,-2.5486702172369853,-2.090991029333183,2.090991029333183,-0.6317427825474544,-0.45767918790380246,-0.4576040907129708
83,-2.4036067778201726,-1.9101991936492806,-2.4501256482450477,-1.9566465653594456,1.956646565359446,-0.4469602124607266,-0.4934790828856017,-0.49340758417089203
84,-2.2792022792022806,-1.7482929194810946,-2.368921832568661,-1.8379466719152229,1.8379466719152235,-0.44125560728705704,-0.5309751606534374,-0.530909359721186
85,-2.2792022792022806,-1.7090942639033342,-2.298749182395608,-1.7285758043548332,1.7285758043548332,-0.5506264748474474,-0.5701733780407747,-0.5701080152989464
86,-2.2792022792022806,-1.668206750017657,-2.2352353035913275,-1.6241567742723144,1.6241567742723142,-0.6550455049299664,-0.6110785293190133,-0.6109955291846236
87,-2.2792022792022806,-1.6256453237234787,-2.175801458913387,-1.5221122135201122,1.522112213520112,-0.7570900656821686,-0.6536892453932752,-0.6535569554788019
88,-2.051282051282051,-1.3535119152233412,-2.1191651745054862,-1.4211782019418724,1.4211782019418722,-0.6301038493401789,-0.6979869725636141,-0.6977701360587099
89,-2.0512820512820515,-1.3076766144981522,-2.064794022133831,-1.3208728900208562,1.3208728900208562,-0.7304091612611954,-0.7439211321129746,-0.7436054367838993
90,-2.051282051282051,-1.2602565348778407,-2.012491221018267,-1.221094001118124,1.2210940011181242,-0.8301880501639269,-0.7913972199001429,-0.7910255164042104
91,-2.0322467380807674,-1.192261600959509,-1.9621693958298159,-1.1218913154257728,1.1218913154257726,-0.9103554226549948,-0.8402780804040433,-0.8399851371212583
92,-1.8233618233618287,-0.932930797302272,-1.913786403422299,-1.023378404963769,1.0233784049637689,-0.7999834183980599,-0.8904079984585302,-0.8904310260595567
93,-1.8233618233618287,-0.8810600263568826,-1.867380695928699,-0.9257181569915806,0.9257181569915806,-0.8976436663702482,-0.9416625389371184,-0.9423017970049461
94,-1.8233618233618287,-0.827833881711153,-1.823134891382637,-0.8291199163773966,0.8291199163773965,-0.9942419069844323,-0.9940149750052406,-0.9955279416506757
95,-1.8233618233618287,-0.773329924128694,-1.7813991857480036,-0.7338021887412712,0.733802188741271,-1.0895596346205578,-1.0475969970067327,-1.0500318992331348
96,-1.8233618233618287,-0.717633610548384,-1.7426214814827938,-0.6398977357334572,0.6398977357334571,-1.1834640876283715,-1.1027237457493366,-1.1057282128134447
97,-1.7187083911349532,-0.556184611596394,-1.7071685839801565,-0.54731161577559,0.54731161577559,-1.1713967753593633,-1.1598569682045665,-1.1625237795385592
98,-1.5954415954415995,-0.3751233944725947,-1.675081410877378,-0.45558415432695515,0.4555841543269551,-1.1398574411146445,-1.2194972565504227,-1.2203182009690048
99,-1.5954415954415995,-0.3164373574725359,-1.6458644543636611,-0.3638414808170486,0.36384148081704853,-1.231600114624551,-1.2820229735466127,-1.2790042379690636
100,-1.5954415954415995,-0.25697322273211154,-1.6184314359190006,-0.27091167537027855,0.2709116753702786,-1.324529920071321,-1.347519760548722,-1.338468372709488
101,-1.5954415954415992,-0.1968501174019499,-1.5912909554666976,-0.17563233890589544,0.1756323389058955,-1.4198092565357037,-1.415658616560802,-1.3985914780396493
102,-1.5954415954415992,-0.13619200356844718,-1.5629624620227807,-0.07728842153511914,0.07728842153511915,-1.5181531739064802,-1.4856740404876616,-1.459249591873152
104,-1.5954415954415992,-0.013162178930210544,-1.5325023270185538,0.023963889733990815,-0.023963889733990818,-1.6194054851755901,-1.5564662167525447,-1.5822794165113887
105,-1.5954415954415992,0.04826006840654129,-1.4999471765520231,0.12686387930924217,-0.12686387930924217,-1.7223054747508415,-1.6268110558612654,-1.6437016638481405
106,-1.433986963565225,0.2711577724357799,-1.4664888825702964,0.22913457672522589,-0.22913457672522583,-1.6631215402904507,-1.6956234592955222,-1.7051447360010048
107,-1.3675213675213698,0.3989561891864044,-1.434285571402968,0.32791181365723576,-0.32791181365723576,-1.6954331811786054,-1.7621973850602037,-1.7664775567077742
108,-1.3675213675213698,0.4600488437185897,-1.4059466838272934,0.42040369327909094,-0.4204036932790909,-1.7879250608004607,-1.8263503771063843,-1.8275702112399594
109,-1.3675213675213698,0.5207736933048142,-1.3838469841028216,0.5045823596909871,-0.5045823596909871,-1.8721037272123568,-1.8884293437938087,-1.888295060826184
110,-1.3675213675213698,0.5810064858652337,-1.3694753778158268,0.5797027059306125,-0.5797027059306123,-1.9472240734519821,-1.9491780837464392,-1.9485278533866035
111,-1.3675213675213698,0.6406274412610973,-1.3629964008949624,0.6465133001663397,-0.64651330016634,-2.0140346676877097,-2.0095097010613023,-2.008148808782467
112,-1.3675213675213698,0.6995222884541024,-1.3631202614078841,0.7071337580337894,-0.7071337580337895,-2.074655125555159,-2.0702540194416734,-2.067043655975472
113,-1.3675213675213698,0.7575832319169891,-1.367285414159983,0.7646673971764422,-0.7646673971764419,-2.132188764697812,-2.131952811336425,-2.125104599438359
114,-1.3675213675213698,0.8147098254104499,-1.3720927691400095,0.8226617721974112,-0.8226617721974114,-2.190183139718781,-2.1947545413374208,-2.1822311929318197
115,-1.3675213675213698,0.8708097328744548,-1.3739034318281658,0.8845209844878493,-0.8845209844878497,-2.2520423520092194,-2.258424416316015,-2.2383311003958246
117,-1.3675213675213698,0.9805120747745106,-1.3695071881143264,0.9529413717895886,-0.9529413717895885,-2.3204627393109583,-2.322448559903915,-2.3480334422958804
118,-1.3675213675213698,1.033192439053614,-1.3567627322748244,1.0294231887112275,-1.0294231887112273,-2.3969445562325973,-2.3861859209860516,-2.400713806574984
119,-1.3675213675213698,1.0845765508165264,-1.3350936692611808,1.1139216012505861,-1.1139216012505861,-2.481442968771956,-2.449015270511767,-2.452097918337896
120,-1.3675213675213698,1.1346162455118396,-1.3057114773004153,1.2047255274603184,-1.2047255274603184,-2.572246894981688,-2.5104370047607336,-2.5021376130332094
121,-1.3675213675213698,1.1832728728775765,-1.2714558951800703,1.2986576475395606,-1.2986576475395604,-2.66617901506093,-2.5701135427196307,-2.5507942403989463
123,-1.1396011396011405,1.505835707366819,-1.2362156191721545,1.3916414449749577,-1.3916414449749572,-2.5312425845760975,-2.6278570641471117,-2.6454368469679594
124,-1.1396011396011403,1.5503408463022756,-1.2040125983615635,1.4795766610246195,-1.4795766610246197,-2.61917780062576,-2.683589259386183,-2.689941985903416
125,-1.1396011396011403,1.5933921005970824,-1.1779637355711658,1.559336110692974,-1.5593361106929737,-2.6989372502941142,-2.73729984626414,-2.7329932401982227
126,-1.1396011396011403,1.6349905968965035,-1.159417201183364,1.6296035313849975,-1.629603531384997,-2.769204670986137,-2.7890207325683614,-2.774591736497644
128,-1.1396011396011403,1.7159679708073612,-1.147547870521548,1.6912699587711293,-1.6912699587711295,-2.8308710983722696,-2.838817829292678,-2.8555691104085015
129,-1.1396011396011403,1.7533856736305382,-1.1395757152618304,1.747214781749069,-1.7472147817490693,-2.88681592135021,-2.8867904970108995,-2.8929868132316785
130,-1.1396011396011403,1.789404429732111,-1.1315762996159682,1.8014887184373434,-1.8014887184373432,-2.9410898580384837,-2.9330650180533113,-2.9290055693332513
131,-1.1396011396011403,1.824051254934802,-1.1196512553532036,1.8581229887878479,-1.8581229887878479,-2.997724128388988,-2.9777742441410515,-2.9636523945359423
133,-1.1396011396011405,1.8918083737831315,-1.1010953683532092,1.9199309992321942,-1.9199309992321947,-3.059532138833335,-3.021026367585404,-3.031409513384272
134,-1.1396011396011403,1.9225902153743406,-1.0751894072257404,1.9876854557321932,-1.9876854557321937,-3.127286595333334,-3.0628748629579343,-3.062191354975481
135,-1.1396011396011405,1.9521229602607983,-1.0433710818089512,2.059932694328539,-2.059932694328539,-3.1995338339296797,-3.10330377613749,-3.091724099861939
137,-0.9116809116809108,2.238113553656991,-1.0087470528955131,2.1334896201893505,-2.1334896201893505,-3.0451705318702613,-3.142236673084864,-3.149794465337902
138,-0.9116809116809108,2.264154225938845,-0.9751303266510494,2.2044367722132465,-2.204436772213247,-3.1161176838941578,-3.1795670988642963,-3.1758351376197558
140,-0.9116809116809108,2.3156080583790812,-0.945940942040551,2.269257577411368,-2.2692575774113686,-3.1809384890922794,-3.2151985194519197,-3.227288970059992
141,-0.9116809116809108,2.3384570247513796,-0.9233401028519412,2.3257373947816506,-2.32573739478165,-3.237418306462561,-3.2490774976335914,-3.2501379364322904
142,-0.9116809116809108,2.3603041476727893,-0.9078689309731438,2.373338518326038,-2.373338518326039,-3.2850194300069497,-3.281207449299183,-3.2719850593537
144,-0.911680911680911,2.4038279466097503,-0.8986724853756278,2.41296718627269,-2.412967186272689,-3.3246480979535997,-3.311639671648317,-3.3155088582906616
145,-0.9116809116809108,2.4228837429295704,-0.8941795786599344,2.4462689716806953,-2.446268971680695,-3.3579498833616057,-3.3404485503406294,-3.3345646546104812
147,-0.9116809116809108,2.4611279896920686,-0.8929553056060615,2.4747487213915225,-2.474748721391522,-3.386429633072433,-3.3677040269975835,-3.3728089013729794
148,-0.911680911680911,2.477671884112884,-0.8943981707684966,2.4990559247016346,-2.4990559247016346,-3.4107368363825454,-3.393454095470131,-3.389352795793795
150,-0.9116809116809108,2.5111740154533866,-0.8990278576083148,2.5186962795279033,-2.5186962795279033,-3.430377191208814,-3.417724137136218,-3.4228549271342974
151,-0.9116809116809108,2.525463413351847,-0.9082703717469225,2.5322608935985595,-2.53226089359856,-3.443941805279471,-3.4405312653454825,-3.437144325032758
153,-0.9116809116809108,2.554722478503776,-0.9238316242338274,2.53807322866745,-2.538073228667449,-3.44975414034836,-3.4619048529012764,-3.466403390184687
154,-0.9116809116809108,2.566990308477949,-0.946889674763495,2.5350125384599176,-2.5350125384599176,-3.4466934501408284,-3.4819022132234125,-3.47867122015886
