frequency,raw,error,smoothed,error_smoothed,equalization,parametric_eq,equalized_raw,equalized_smoothed,target
20.00,-3.14,-6.76,-3.14,-6.75,6.00,1.99,2.86,2.86,3.62
20.20,-3.06,-6.69,-3.06,-6.69,6.00,2.05,2.94,2.94,3.63
20.40,-2.99,-6.62,-2.98,-6.62,6.00,2.11,3.01,3.02,3.64
20.61,-2.91,-6.56,-2.90,-6.55,6.00,2.17,3.09,3.10,3.65
20.81,-2.83,-6.49,-2.83,-6.49,6.00,2.23,3.17,3.17,3.66
21.02,-2.75,-6.42,-2.75,-6.42,6.00,2.29,3.25,3.25,3.67
21.23,-2.68,-6.36,-2.67,-6.35,6.00,2.36,3.32,3.33,3.68
21.44,-2.60,-6.29,-2.60,-6.29,6.00,2.43,3.40,3.40,3.69
21.66,-2.52,-6.22,-2.52,-6.22,6.00,2.50,3.48,3.48,3.70
21.87,-2.44,-6.15,-2.44,-6.15,5.99,2.57,3.56,3.55,3.71
22.09,-2.37,-6.09,-2.36,-6.09,5.97,2.64,3.61,3.61,3.72
22.31,-2.29,-6.02,-2.28,-6.02,5.94,2.72,3.66,3.66,3.73
22.54,-2.21,-5.95,-2.21,-5.95,5.90,2.80,3.70,3.70,3.74
22.76,-2.13,-5.88,-2.13,-5.88,5.86,2.88,3.73,3.73,3.76
22.99,-2.05,-5.81,-2.05,-5.82,5.80,2.96,3.76,3.75,3.77
23.22,-1.98,-5.75,-1.97,-5.75,5.75,3.04,3.77,3.77,3.78
23.45,-1.90,-5.69,-1.89,-5.68,5.68,3.13,3.79,3.79,3.79
23.69,-1.82,-5.62,-1.82,-5.62,5.62,3.21,3.80,3.80,3.80
23.92,-1.74,-5.55,-1.74,-5.55,5.55,3.30,3.81,3.81,3.81
24.16,-1.67,-5.49,-1.66,-5.48,5.48,3.39,3.82,3.82,3.82
24.40,-1.58,-5.42,-1.58,-5.41,5.41,3.48,3.83,3.83,3.84
24.65,-1.50,-5.34,-1.50,-5.34,5.34,3.57,3.85,3.84,3.85
24.89,-1.41,-5.27,-1.42,-5.28,5.28,3.67,3.86,3.85,3.86
25.14,-1.34,-5.20,-1.34,-5.21,5.21,3.76,3.87,3.87,3.87
25.39,-1.26,-5.14,-1.26,-5.14,5.14,3.85,3.87,3.88,3.88
25.65,-1.19,-5.07,-1.18,-5.07,5.07,3.95,3.88,3.89,3.89
25.91,-1.11,-5.01,-1.10,-5.00,5.00,4.04,3.89,3.90,3.90
26.16,-1.02,-4.93,-1.02,-4.93,4.93,4.13,3.91,3.91,3.91
26.43,-0.95,-4.87,-0.94,-4.86,4.86,4.23,3.92,3.92,3.92
26.69,-0.87,-4.79,-0.87,-4.79,4.79,4.32,3.93,3.93,3.93
26.96,-0.79,-4.73,-0.79,-4.73,4.73,4.40,3.94,3.94,3.94
27.23,-0.71,-4.66,-0.71,-4.66,4.66,4.49,3.95,3.95,3.95
27.50,-0.63,-4.59,-0.63,-4.59,4.59,4.57,3.96,3.96,3.96
27.77,-0.55,-4.52,-0.55,-4.52,4.52,4.65,3.98,3.97,3.97
28.05,-0.48,-4.46,-0.47,-4.45,4.45,4.73,3.98,3.98,3.98
28.33,-0.40,-4.39,-0.40,-4.39,4.39,4.80,3.99,3.99,3.99
28.62,-0.32,-4.32,-0.32,-4.32,4.32,4.86,4.00,4.00,4.00
28.90,-0.25,-4.26,-0.24,-4.25,4.25,4.92,4.01,4.01,4.01
29.19,-0.17,-4.19,-0.16,-4.18,4.18,4.97,4.02,4.02,4.02
29.48,-0.09,-4.12,-0.09,-4.12,4.12,5.02,4.03,4.03,4.03
29.78,-0.02,-4.06,-0.01,-4.05,4.05,5.05,4.04,4.04,4.04
30.08,0.06,-3.99,0.07,-3.99,3.99,5.08,4.05,4.05,4.05
30.38,0.14,-3.92,0.14,-3.92,3.92,5.11,4.06,4.06,4.06
30.68,0.22,-3.85,0.22,-3.85,3.85,5.12,4.08,4.07,4.07
30.99,0.30,-3.78,0.29,-3.79,3.79,5.12,4.09,4.08,4.08
31.30,0.37,-3.72,0.37,-3.72,3.72,5.12,4.10,4.09,4.09
31.61,0.44,-3.66,0.44,-3.66,3.66,5.11,4.10,4.10,4.10
31.93,0.51,-3.60,0.52,-3.60,3.60,5.08,4.11,4.11,4.11
32.24,0.58,-3.54,0.59,-3.53,3.53,5.05,4.12,4.12,4.12
32.57,0.66,-3.47,0.66,-3.47,3.47,5.02,4.13,4.13,4.13
32.89,0.73,-3.41,0.73,-3.41,3.41,4.97,4.14,4.14,4.14
33.22,0.80,-3.35,0.81,-3.35,3.35,4.91,4.15,4.15,4.15
33.55,0.87,-3.29,0.88,-3.28,3.28,4.85,4.16,4.16,4.16
33.89,0.95,-3.21,0.94,-3.22,3.22,4.79,4.18,4.17,4.17
34.23,1.01,-3.16,1.01,-3.16,3.16,4.71,4.18,4.18,4.18
34.57,1.08,-3.10,1.08,-3.10,3.10,4.63,4.19,4.18,4.18
34.92,1.14,-3.05,1.15,-3.04,3.04,4.55,4.19,4.19,4.19
35.27,1.21,-2.99,1.22,-2.98,2.98,4.46,4.20,4.20,4.20
35.62,1.28,-2.92,1.28,-2.92,2.92,4.37,4.21,4.21,4.21
35.97,1.35,-2.86,1.35,-2.87,2.87,4.28,4.22,4.21,4.22
36.33,1.41,-2.81,1.41,-2.81,2.81,4.18,4.22,4.22,4.22
36.70,1.48,-2.75,1.48,-2.75,2.75,4.08,4.23,4.23,4.23
37.06,1.54,-2.69,1.54,-2.69,2.69,3.98,4.24,4.24,4.24
37.43,1.60,-2.64,1.60,-2.64,2.64,3.88,4.24,4.24,4.24
37.81,1.66,-2.59,1.67,-2.58,2.58,3.77,4.24,4.25,4.25
38.19,1.72,-2.53,1.73,-2.53,2.53,3.67,4.25,4.25,4.26
38.57,1.78,-2.48,1.79,-2.47,2.47,3.57,4.25,4.26,4.26
38.95,1.84,-2.42,1.85,-2.41,2.41,3.47,4.26,4.27,4.27
39.34,1.91,-2.36,1.91,-2.36,2.36,3.36,4.27,4.27,4.27
39.74,1.97,-2.30,1.97,-2.31,2.31,3.26,4.28,4.28,4.28
40.14,2.03,-2.25,2.03,-2.25,2.25,3.16,4.28,4.28,4.28
40.54,2.09,-2.19,2.09,-2.20,2.20,3.06,4.29,4.29,4.29
40.94,2.14,-2.15,2.14,-2.15,2.15,2.96,4.29,4.29,4.29
41.35,2.20,-2.09,2.20,-2.09,2.09,2.87,4.30,4.30,4.30
41.76,2.26,-2.04,2.26,-2.04,2.04,2.77,4.31,4.30,4.30
42.18,2.31,-1.99,2.31,-1.99,1.99,2.68,4.30,4.30,4.31
42.60,2.36,-1.94,2.37,-1.94,1.94,2.59,4.30,4.31,4.31
43.03,2.41,-1.90,2.42,-1.89,1.89,2.50,4.30,4.31,4.31
43.46,2.47,-1.84,2.48,-1.84,1.84,2.41,4.31,4.32,4.32
43.90,2.53,-1.79,2.53,-1.79,1.79,2.32,4.32,4.32,4.32
44.33,2.58,-1.74,2.58,-1.74,1.74,2.24,4.33,4.33,4.33
44.78,2.63,-1.70,2.63,-1.70,1.70,2.15,4.33,4.33,4.33
45.23,2.69,-1.64,2.68,-1.65,1.65,2.07,4.34,4.34,4.34
45.68,2.73,-1.61,2.73,-1.61,1.61,1.99,4.34,4.34,4.34
46.13,2.78,-1.56,2.78,-1.56,1.56,1.92,4.35,4.34,4.34
46.60,2.83,-1.52,2.83,-1.52,1.52,1.84,4.35,4.35,4.35
47.06,2.88,-1.47,2.88,-1.47,1.47,1.77,4.36,4.35,4.35
47.53,2.92,-1.43,2.92,-1.43,1.43,1.69,4.36,4.35,4.36
48.01,2.96,-1.39,2.97,-1.39,1.39,1.62,4.35,4.36,4.36
48.49,3.00,-1.36,3.01,-1.35,1.35,1.55,4.35,4.36,4.36
48.97,3.05,-1.31,3.06,-1.30,1.30,1.48,4.36,4.36,4.36
49.46,3.09,-1.27,3.10,-1.26,1.26,1.42,4.35,4.36,4.36
49.96,3.14,-1.22,3.14,-1.22,1.22,1.35,4.36,4.36,4.36
50.46,3.18,-1.18,3.18,-1.18,1.18,1.29,4.36,4.36,4.36
50.96,3.23,-1.13,3.23,-1.13,1.13,1.23,4.37,4.36,4.36
51.47,3.26,-1.10,3.27,-1.09,1.09,1.17,4.35,4.36,4.36
51.99,3.30,-1.05,3.31,-1.05,1.05,1.11,4.35,4.35,4.36
52.51,3.34,-1.01,3.35,-1.01,1.01,1.05,4.35,4.35,4.35
53.03,3.38,-0.96,3.38,-0.96,0.96,0.99,4.35,4.35,4.35
53.56,3.42,-0.92,3.42,-0.92,0.92,0.93,4.35,4.34,4.34
54.10,3.45,-0.88,3.45,-0.88,0.88,0.88,4.33,4.33,4.33
54.64,3.48,-0.84,3.48,-0.84,0.84,0.83,4.32,4.32,4.32
55.18,3.51,-0.80,3.51,-0.80,0.80,0.77,4.31,4.31,4.32
55.74,3.54,-0.76,3.54,-0.76,0.76,0.72,4.30,4.30,4.30
56.29,3.57,-0.72,3.57,-0.72,0.72,0.67,4.30,4.29,4.29
56.86,3.59,-0.69,3.59,-0.68,0.68,0.62,4.28,4.28,4.28
57.42,3.61,-0.65,3.62,-0.65,0.65,0.57,4.26,4.26,4.26
58.00,3.63,-0.62,3.64,-0.61,0.61,0.52,4.25,4.25,4.25
58.58,3.65,-0.58,3.66,-0.58,0.58,0.48,4.23,4.23,4.23
59.16,3.67,-0.54,3.67,-0.54,0.54,0.43,4.22,4.21,4.22
59.76,3.69,-0.50,3.69,-0.51,0.51,0.39,4.20,4.20,4.20
60.35,3.69,-0.48,3.70,-0.48,0.48,0.34,4.17,4.18,4.18
60.96,3.70,-0.45,3.71,-0.45,0.45,0.30,4.15,4.16,4.15
61.57,3.71,-0.42,3.71,-0.42,0.42,0.26,4.14,4.13,4.13
62.18,3.71,-0.39,3.71,-0.39,0.39,0.22,4.11,4.11,4.11
62.80,3.73,-0.35,3.71,-0.37,0.37,0.17,4.10,4.08,4.08
63.43,3.73,-0.32,3.71,-0.34,0.34,0.13,4.07,4.05,4.06
64.07,3.72,-0.31,3.71,-0.31,0.31,0.09,4.04,4.03,4.03
64.71,3.71,-0.29,3.71,-0.29,0.29,0.05,4.00,4.00,4.00
65.35,3.71,-0.26,3.71,-0.26,0.26,0.01,3.97,3.97,3.98
66.01,3.70,-0.24,3.71,-0.23,0.23,-0.02,3.93,3.94,3.95
66.67,3.69,-0.23,3.71,-0.20,0.20,-0.06,3.89,3.91,3.92
67.33,3.69,-0.20,3.72,-0.17,0.17,-0.10,3.86,3.88,3.89
68.01,3.70,-0.16,3.72,-0.13,0.13,-0.14,3.83,3.85,3.86
68.69,3.71,-0.12,3.73,-0.09,0.09,-0.17,3.80,3.82,3.83
69.37,3.73,-0.07,3.74,-0.05,0.05,-0.21,3.78,3.79,3.80
70.07,3.75,-0.02,3.76,-0.01,0.01,-0.25,3.76,3.76,3.77
70.77,3.77,0.04,3.77,0.04,-0.04,-0.29,3.73,3.73,3.74
71.48,3.79,0.09,3.79,0.09,-0.09,-0.32,3.70,3.70,3.71
72.19,3.82,0.14,3.82,0.14,-0.14,-0.36,3.68,3.67,3.68
72.91,3.84,0.19,3.84,0.20,-0.20,-0.40,3.65,3.65,3.65
73.64,3.87,0.25,3.87,0.25,-0.25,-0.44,3.63,3.62,3.62
74.38,3.89,0.30,3.90,0.30,-0.30,-0.48,3.59,3.60,3.59
75.12,3.91,0.35,3.92,0.35,-0.35,-0.51,3.56,3.57,3.57
75.87,3.94,0.40,3.94,0.40,-0.40,-0.55,3.55,3.55,3.54
76.63,3.96,0.45,3.96,0.44,-0.44,-0.59,3.52,3.52,3.52
77.40,3.98,0.49,3.98,0.49,-0.49,-0.63,3.50,3.50,3.49
78.17,4.01,0.54,4.00,0.53,-0.53,-0.67,3.49,3.47,3.47
78.95,4.03,0.59,4.01,0.56,-0.56,-0.71,3.47,3.45,3.45
79.74,4.04,0.62,4.02,0.59,-0.59,-0.76,3.45,3.42,3.43
80.54,4.04,0.64,4.03,0.62,-0.62,-0.80,3.42,3.40,3.41
81.35,4.04,0.66,4.03,0.65,-0.65,-0.84,3.39,3.38,3.39
82.16,4.04,0.67,4.04,0.68,-0.68,-0.89,3.37,3.36,3.37
82.98,4.03,0.68,4.05,0.70,-0.70,-0.93,3.33,3.35,3.35
83.81,4.03,0.70,4.06,0.73,-0.73,-0.98,3.31,3.33,3.34
84.65,4.04,0.72,4.07,0.75,-0.75,-1.03,3.29,3.31,3.32
85.50,4.05,0.75,4.08,0.78,-0.78,-1.07,3.28,3.30,3.31
86.35,4.07,0.78,4.09,0.80,-0.80,-1.12,3.27,3.29,3.29
87.22,4.10,0.82,4.11,0.83,-0.83,-1.17,3.27,3.28,3.28
88.09,4.12,0.85,4.12,0.86,-0.86,-1.22,3.26,3.27,3.27
88.97,4.15,0.89,4.15,0.89,-0.89,-1.28,3.26,3.26,3.26
89.86,4.18,0.93,4.17,0.92,-0.92,-1.33,3.26,3.25,3.25
90.76,4.20,0.96,4.20,0.96,-0.96,-1.38,3.25,3.24,3.25
91.66,4.23,1.00,4.23,0.99,-0.99,-1.44,3.24,3.24,3.24
92.58,4.25,1.02,4.26,1.03,-1.03,-1.49,3.23,3.23,3.23
93.51,4.28,1.06,4.29,1.06,-1.06,-1.55,3.22,3.23,3.22
94.44,4.31,1.10,4.32,1.10,-1.10,-1.61,3.22,3.22,3.22
95.39,4.34,1.13,4.35,1.14,-1.14,-1.67,3.21,3.21,3.21
96.34,4.37,1.17,4.37,1.17,-1.17,-1.73,3.20,3.20,3.20
97.30,4.41,1.22,4.40,1.21,-1.21,-1.79,3.20,3.18,3.19
98.28,4.44,1.27,4.42,1.26,-1.26,-1.85,3.19,3.17,3.18
99.26,4.47,1.31,4.45,1.30,-1.30,-1.91,3.18,3.15,3.16
100.25,4.49,1.34,4.48,1.34,-1.34,-1.97,3.15,3.14,3.15
101.25,4.51,1.38,4.51,1.39,-1.39,-2.03,3.12,3.12,3.13
102.27,4.53,1.42,4.55,1.44,-1.44,-2.10,3.09,3.10,3.11
103.29,4.55,1.46,4.58,1.50,-1.50,-2.16,3.05,3.08,3.09
104.32,4.57,1.50,4.62,1.56,-1.56,-2.22,3.02,3.06,3.07
105.37,4.62,1.58,4.65,1.62,-1.62,-2.28,3.01,3.03,3.05
106.42,4.67,1.66,4.68,1.68,-1.68,-2.34,3.00,3.01,3.02
107.48,4.71,1.72,4.72,1.74,-1.74,-2.40,2.97,2.98,2.99
108.56,4.76,1.81,4.75,1.80,-1.80,-2.46,2.96,2.95,2.96
109.64,4.81,1.89,4.79,1.87,-1.87,-2.52,2.94,2.92,2.93
110.74,4.85,1.96,4.82,1.94,-1.94,-2.57,2.92,2.89,2.89
111.85,4.88,2.03,4.86,2.00,-2.00,-2.62,2.88,2.85,2.86
112.97,4.90,2.08,4.89,2.07,-2.07,-2.67,2.84,2.82,2.82
114.10,4.92,2.14,4.92,2.13,-2.13,-2.72,2.79,2.79,2.79
115.24,4.94,2.19,4.95,2.20,-2.20,-2.76,2.75,2.75,2.75
116.39,4.95,2.24,4.97,2.26,-2.26,-2.80,2.69,2.71,2.71
117.55,4.98,2.31,5.00,2.32,-2.32,-2.84,2.66,2.68,2.68
118.73,5.01,2.37,5.02,2.38,-2.38,-2.87,2.63,2.64,2.64
119.92,5.05,2.45,5.05,2.45,-2.45,-2.90,2.61,2.60,2.61
121.12,5.07,2.50,5.07,2.51,-2.51,-2.92,2.57,2.57,2.57
122.33,5.09,2.55,5.10,2.57,-2.57,-2.94,2.53,2.53,2.54
123.55,5.11,2.61,5.13,2.63,-2.63,-2.96,2.49,2.50,2.51
124.79,5.14,2.66,5.16,2.69,-2.69,-2.97,2.45,2.47,2.48
126.03,5.18,2.73,5.20,2.75,-2.75,-2.97,2.44,2.45,2.45
127.29,5.21,2.79,5.23,2.81,-2.81,-2.97,2.41,2.42,2.42
128.57,5.24,2.84,5.26,2.86,-2.86,-2.97,2.38,2.40,2.40
129.85,5.28,2.91,5.29,2.91,-2.91,-2.96,2.37,2.38,2.37
131.15,5.31,2.96,5.31,2.96,-2.96,-2.95,2.36,2.35,2.35
132.46,5.33,3.00,5.32,3.00,-3.00,-2.93,2.34,2.33,2.33
133.79,5.36,3.06,5.34,3.03,-3.03,-2.91,2.33,2.30,2.31
135.12,5.38,3.10,5.35,3.06,-3.06,-2.88,2.32,2.28,2.29
136.48,5.38,3.12,5.35,3.09,-3.09,-2.86,2.30,2.26,2.27
137.84,5.36,3.12,5.35,3.10,-3.10,-2.82,2.26,2.24,2.24
139.22,5.34,3.12,5.34,3.11,-3.11,-2.79,2.23,2.22,2.22
140.61,5.32,3.12,5.32,3.12,-3.12,-2.75,2.20,2.20,2.20
142.02,5.28,3.10,5.30,3.12,-3.12,-2.71,2.16,2.18,2.18
143.44,5.26,3.10,5.27,3.12,-3.12,-2.67,2.15,2.16,2.16
144.87,5.22,3.09,5.24,3.11,-3.11,-2.63,2.11,2.13,2.14
146.32,5.20,3.09,5.21,3.10,-3.10,-2.59,2.10,2.11,2.12
147.78,5.17,3.08,5.18,3.09,-3.09,-2.54,2.08,2.09,2.09
149.26,5.15,3.08,5.15,3.08,-3.08,-2.50,2.07,2.06,2.07
150.75,5.11,3.07,5.11,3.07,-3.07,-2.45,2.04,2.04,2.05
152.26,5.08,3.06,5.08,3.06,-3.06,-2.40,2.02,2.02,2.03
153.78,5.03,3.03,5.05,3.05,-3.05,-2.36,1.98,2.00,2.00
155.32,4.99,3.02,5.02,3.04,-3.04,-2.31,1.95,1.97,1.98
156.88,4.95,3.00,4.98,3.03,-3.03,-2.27,1.92,1.95,1.95
158.44,4.94,3.01,4.95,3.02,-3.02,-2.22,1.93,1.93,1.93
160.03,4.90,3.00,4.91,3.00,-3.00,-2.18,1.90,1.90,1.91
161.63,4.88,3.00,4.87,2.99,-2.99,-2.14,1.89,1.88,1.88
163.24,4.85,3.00,4.82,2.97,-2.97,-2.09,1.88,1.85,1.86
164.88,4.79,2.96,4.78,2.96,-2.96,-2.05,1.84,1.82,1.83
166.53,4.75,2.95,4.74,2.94,-2.94,-2.01,1.82,1.80,1.81
168.19,4.71,2.93,4.69,2.92,-2.92,-1.98,1.80,1.77,1.78
169.87,4.63,2.88,4.64,2.90,-2.90,-1.94,1.74,1.75,1.75
171.57,4.57,2.85,4.59,2.87,-2.87,-1.90,1.70,1.72,1.72
173.29,4.52,2.83,4.54,2.85,-2.85,-1.87,1.68,1.69,1.69
175.02,4.44,2.78,4.48,2.82,-2.82,-1.84,1.62,1.66,1.66
176.77,4.40,2.77,4.42,2.79,-2.79,-1.81,1.61,1.63,1.63
178.54,4.35,2.76,4.35,2.76,-2.76,-1.78,1.59,1.59,1.60
180.32,4.31,2.75,4.29,2.73,-2.73,-1.75,1.59,1.56,1.57
182.13,4.25,2.72,4.22,2.69,-2.69,-1.72,1.56,1.53,1.53
183.95,4.14,2.64,4.15,2.66,-2.66,-1.70,1.49,1.50,1.50
185.79,4.08,2.62,4.08,2.62,-2.62,-1.67,1.47,1.47,1.47
187.65,4.00,2.57,4.01,2.58,-2.58,-1.65,1.43,1.43,1.43
189.52,3.93,2.53,3.94,2.53,-2.53,-1.63,1.40,1.40,1.40
191.42,3.85,2.49,3.86,2.49,-2.49,-1.61,1.36,1.37,1.37
193.33,3.78,2.45,3.78,2.44,-2.44,-1.59,1.34,1.33,1.33
195.27,3.69,2.39,3.69,2.39,-2.39,-1.57,1.30,1.30,1.30
197.22,3.60,2.34,3.60,2.34,-2.34,-1.56,1.27,1.26,1.26
199.19,3.51,2.28,3.51,2.28,-2.28,-1.54,1.23,1.22,1.23
201.18,3.42,2.23,3.41,2.23,-2.23,-1.53,1.20,1.19,1.19
203.19,3.32,2.16,3.32,2.17,-2.17,-1.51,1.16,1.15,1.16
205.23,3.22,2.10,3.22,2.11,-2.11,-1.50,1.12,1.12,1.12
207.28,3.12,2.04,3.12,2.04,-2.04,-1.49,1.08,1.08,1.09
209.35,3.01,1.96,3.02,1.98,-1.98,-1.48,1.04,1.05,1.05
211.44,2.91,1.90,2.92,1.91,-1.91,-1.47,1.00,1.01,1.01
213.56,2.81,1.84,2.81,1.84,-1.84,-1.46,0.97,0.97,0.97
215.69,2.70,1.77,2.71,1.77,-1.77,-1.44,0.93,0.93,0.94
217.85,2.59,1.69,2.60,1.70,-1.70,-1.43,0.89,0.90,0.90
220.03,2.52,1.66,2.50,1.63,-1.63,-1.42,0.89,0.87,0.87
222.23,2.42,1.59,2.39,1.56,-1.56,-1.41,0.87,0.83,0.83
224.45,2.30,1.50,2.29,1.49,-1.49,-1.40,0.82,0.81,0.80
226.70,2.18,1.41,2.19,1.41,-1.41,-1.39,0.77,0.78,0.78
228.96,2.06,1.31,2.09,1.34,-1.34,-1.38,0.73,0.76,0.75
231.25,1.98,1.26,2.00,1.26,-1.26,-1.37,0.72,0.73,0.73
233.57,1.89,1.18,1.91,1.19,-1.19,-1.36,0.70,0.72,0.71
235.90,1.80,1.11,1.82,1.12,-1.12,-1.34,0.68,0.70,0.69
238.26,1.73,1.05,1.73,1.05,-1.05,-1.33,0.68,0.68,0.68
240.64,1.65,0.98,1.65,0.99,-0.99,-1.31,0.67,0.67,0.67
243.05,1.59,0.93,1.58,0.92,-0.92,-1.29,0.67,0.66,0.66
245.48,1.52,0.87,1.51,0.86,-0.86,-1.27,0.66,0.65,0.66
247.93,1.44,0.79,1.45,0.81,-0.81,-1.25,0.64,0.64,0.65
250.41,1.39,0.74,1.40,0.76,-0.76,-1.23,0.64,0.64,0.65
252.92,1.32,0.67,1.35,0.71,-0.71,-1.21,0.61,0.64,0.65
255.45,1.29,0.64,1.31,0.67,-0.67,-1.19,0.63,0.64,0.65
258.00,1.25,0.60,1.27,0.63,-0.63,-1.16,0.63,0.64,0.65
260.58,1.21,0.56,1.23,0.59,-0.59,-1.13,0.62,0.64,0.65
263.19,1.19,0.54,1.21,0.56,-0.56,-1.11,0.63,0.64,0.65
265.82,1.17,0.52,1.18,0.53,-0.53,-1.08,0.64,0.65,0.65
268.48,1.16,0.51,1.16,0.50,-0.50,-1.05,0.66,0.66,0.66
271.16,1.15,0.49,1.13,0.47,-0.47,-1.01,0.68,0.66,0.66
273.87,1.12,0.46,1.11,0.44,-0.44,-0.98,0.68,0.67,0.67
276.61,1.10,0.43,1.09,0.41,-0.41,-0.95,0.69,0.68,0.68
279.38,1.08,0.40,1.07,0.38,-0.38,-0.91,0.70,0.69,0.69
282.17,1.06,0.37,1.05,0.35,-0.35,-0.87,0.71,0.70,0.70
284.99,1.05,0.35,1.02,0.32,-0.32,-0.84,0.74,0.71,0.71
287.84,1.01,0.29,1.00,0.28,-0.28,-0.80,0.73,0.72,0.72
290.72,0.98,0.25,0.98,0.25,-0.25,-0.76,0.73,0.72,0.73
293.63,0.94,0.20,0.95,0.22,-0.22,-0.72,0.73,0.73,0.74
296.57,0.91,0.16,0.92,0.18,-0.18,-0.68,0.73,0.74,0.75
299.53,0.88,0.12,0.90,0.15,-0.15,-0.64,0.73,0.75,0.76
302.53,0.85,0.08,0.88,0.12,-0.12,-0.60,0.73,0.76,0.77
305.55,0.83,0.06,0.86,0.09,-0.09,-0.56,0.74,0.76,0.78
308.61,0.82,0.04,0.84,0.06,-0.06,-0.52,0.76,0.77,0.78
311.69,0.80,0.02,0.82,0.04,-0.04,-0.48,0.77,0.78,0.79
314.81,0.79,0.00,0.80,0.02,-0.02,-0.44,0.78,0.78,0.79
317.96,0.78,-0.01,0.78,-0.01,0.01,-0.39,0.79,0.79,0.80
321.14,0.77,-0.02,0.76,-0.03,0.03,-0.35,0.80,0.80,0.80
324.35,0.75,-0.05,0.75,-0.05,0.05,-0.31,0.81,0.80,0.80
327.59,0.73,-0.07,0.73,-0.08,0.08,-0.27,0.81,0.81,0.80
330.87,0.71,-0.09,0.70,-0.11,0.11,-0.23,0.82,0.81,0.80
334.18,0.69,-0.11,0.68,-0.13,0.13,-0.18,0.83,0.81,0.80
337.52,0.65,-0.15,0.65,-0.16,0.16,-0.14,0.82,0.81,0.81
340.90,0.63,-0.17,0.61,-0.19,0.19,-0.10,0.83,0.81,0.81
344.30,0.59,-0.22,0.58,-0.23,0.23,-0.05,0.82,0.81,0.81
347.75,0.55,-0.26,0.54,-0.26,0.26,-0.01,0.82,0.80,0.81
351.23,0.50,-0.31,0.50,-0.30,0.30,0.03,0.80,0.80,0.81
354.74,0.46,-0.34,0.46,-0.33,0.33,0.07,0.80,0.80,0.81
358.28,0.40,-0.40,0.43,-0.37,0.37,0.12,0.77,0.79,0.80
361.87,0.36,-0.44,0.39,-0.40,0.40,0.16,0.77,0.79,0.80
365.49,0.32,-0.47,0.35,-0.43,0.43,0.20,0.76,0.78,0.79
369.14,0.29,-0.49,0.31,-0.47,0.47,0.25,0.76,0.78,0.79
372.83,0.27,-0.50,0.28,-0.49,0.49,0.29,0.77,0.77,0.78
376.56,0.24,-0.53,0.24,-0.52,0.52,0.33,0.76,0.76,0.77
380.33,0.22,-0.54,0.21,-0.55,0.55,0.38,0.77,0.75,0.76
384.13,0.19,-0.56,0.18,-0.57,0.57,0.42,0.76,0.75,0.75
387.97,0.15,-0.59,0.15,-0.59,0.59,0.46,0.75,0.74,0.74
391.85,0.12,-0.61,0.12,-0.61,0.61,0.51,0.74,0.73,0.73
395.77,0.08,-0.63,0.09,-0.63,0.63,0.55,0.72,0.72,0.72
399.73,0.05,-0.65,0.06,-0.65,0.65,0.59,0.71,0.71,0.71
403.72,0.02,-0.67,0.03,-0.67,0.67,0.64,0.70,0.70,0.69
407.76,0.00,-0.68,-0.01,-0.69,0.69,0.68,0.69,0.68,0.68
411.84,-0.03,-0.70,-0.04,-0.71,0.71,0.72,0.68,0.67,0.67
415.96,-0.06,-0.72,-0.07,-0.72,0.72,0.76,0.67,0.66,0.66
420.12,-0.09,-0.74,-0.09,-0.74,0.74,0.80,0.65,0.64,0.65
424.32,-0.12,-0.76,-0.12,-0.75,0.75,0.85,0.63,0.63,0.64
428.56,-0.15,-0.78,-0.13,-0.76,0.76,0.88,0.61,0.63,0.63
432.85,-0.17,-0.79,-0.15,-0.77,0.77,0.92,0.60,0.62,0.62
437.18,-0.19,-0.80,-0.16,-0.78,0.78,0.96,0.59,0.61,0.62
441.55,-0.20,-0.81,-0.17,-0.78,0.78,1.00,0.58,0.61,0.61
445.96,-0.20,-0.81,-0.17,-0.78,0.78,1.03,0.59,0.61,0.61
450.42,-0.20,-0.81,-0.18,-0.79,0.79,1.07,0.59,0.61,0.61
454.93,-0.19,-0.80,-0.18,-0.79,0.79,1.10,0.60,0.61,0.61
459.48,-0.18,-0.79,-0.18,-0.79,0.79,1.13,0.61,0.61,0.62
464.07,-0.17,-0.79,-0.18,-0.80,0.80,1.16,0.63,0.61,0.62
468.71,-0.16,-0.78,-0.18,-0.80,0.80,1.18,0.65,0.62,0.62
473.40,-0.17,-0.79,-0.19,-0.81,0.81,1.21,0.64,0.63,0.63
478.13,-0.18,-0.81,-0.19,-0.82,0.82,1.23,0.65,0.63,0.63
482.91,-0.19,-0.82,-0.20,-0.84,0.84,1.25,0.65,0.64,0.63
487.74,-0.20,-0.83,-0.22,-0.86,0.86,1.26,0.66,0.64,0.64
492.62,-0.23,-0.86,-0.24,-0.88,0.88,1.28,0.66,0.64,0.64
497.55,-0.26,-0.90,-0.27,-0.91,0.91,1.29,0.65,0.64,0.64
502.52,-0.29,-0.93,-0.29,-0.94,0.94,1.30,0.65,0.64,0.64
507.55,-0.33,-0.97,-0.33,-0.97,0.97,1.31,0.64,0.64,0.64
512.62,-0.36,-1.00,-0.36,-1.00,1.00,1.31,0.64,0.64,0.65
517.75,-0.39,-1.03,-0.39,-1.03,1.03,1.31,0.64,0.64,0.65
522.93,-0.43,-1.08,-0.41,-1.06,1.06,1.31,0.63,0.64,0.65
528.16,-0.46,-1.11,-0.44,-1.09,1.09,1.31,0.63,0.65,0.66
533.44,-0.48,-1.14,-0.46,-1.11,1.11,1.31,0.64,0.65,0.66
538.77,-0.51,-1.17,-0.48,-1.13,1.13,1.30,0.63,0.65,0.66
544.16,-0.52,-1.18,-0.49,-1.15,1.15,1.29,0.64,0.66,0.67
549.60,-0.53,-1.20,-0.51,-1.17,1.17,1.28,0.64,0.66,0.67
555.10,-0.52,-1.19,-0.51,-1.18,1.18,1.27,0.66,0.67,0.68
560.65,-0.52,-1.20,-0.52,-1.19,1.19,1.26,0.67,0.67,0.68
566.25,-0.51,-1.19,-0.52,-1.20,1.20,1.24,0.69,0.68,0.68
571.92,-0.51,-1.19,-0.52,-1.20,1.20,1.23,0.69,0.68,0.69
577.64,-0.51,-1.20,-0.52,-1.20,1.20,1.21,0.70,0.68,0.69
583.41,-0.51,-1.20,-0.51,-1.20,1.20,1.20,0.70,0.69,0.69
589.25,-0.51,-1.20,-0.51,-1.20,1.20,1.18,0.70,0.69,0.69
595.14,-0.51,-1.20,-0.51,-1.21,1.21,1.16,0.70,0.70,0.70
601.09,-0.51,-1.20,-0.51,-1.21,1.21,1.14,0.70,0.70,0.70
607.10,-0.51,-1.20,-0.51,-1.21,1.21,1.12,0.70,0.70,0.70
613.17,-0.51,-1.21,-0.50,-1.21,1.21,1.10,0.70,0.70,0.70
619.30,-0.51,-1.21,-0.51,-1.21,1.21,1.09,0.71,0.71,0.70
625.50,-0.51,-1.21,-0.51,-1.22,1.22,1.07,0.71,0.71,0.71
631.75,-0.51,-1.22,-0.51,-1.22,1.22,1.05,0.72,0.72,0.71
638.07,-0.51,-1.22,-0.51,-1.23,1.23,1.03,0.72,0.72,0.72
644.45,-0.51,-1.23,-0.51,-1.24,1.24,1.02,0.73,0.73,0.73
650.89,-0.51,-1.24,-0.50,-1.25,1.25,1.00,0.74,0.74,0.74
657.40,-0.51,-1.25,-0.50,-1.25,1.25,0.98,0.75,0.75,0.75
663.98,-0.51,-1.26,-0.51,-1.26,1.26,0.97,0.76,0.76,0.76
670.62,-0.51,-1.27,-0.51,-1.27,1.27,0.95,0.77,0.77,0.77
677.32,-0.51,-1.28,-0.51,-1.28,1.28,0.94,0.77,0.77,0.77
684.10,-0.51,-1.29,-0.51,-1.29,1.29,0.93,0.78,0.78,0.78
690.94,-0.51,-1.29,-0.52,-1.29,1.29,0.91,0.79,0.78,0.79
697.85,-0.51,-1.29,-0.52,-1.30,1.30,0.90,0.79,0.78,0.79
704.83,-0.51,-1.29,-0.52,-1.30,1.30,0.89,0.79,0.78,0.79
711.87,-0.51,-1.29,-0.52,-1.29,1.29,0.88,0.79,0.77,0.78
718.99,-0.52,-1.30,-0.52,-1.29,1.29,0.87,0.77,0.77,0.78
726.18,-0.53,-1.30,-0.51,-1.28,1.28,0.86,0.75,0.76,0.77
733.44,-0.53,-1.29,-0.51,-1.26,1.26,0.85,0.73,0.75,0.76
740.78,-0.52,-1.27,-0.50,-1.24,1.24,0.85,0.72,0.74,0.76
748.19,-0.50,-1.24,-0.48,-1.21,1.21,0.84,0.72,0.73,0.74
755.67,-0.48,-1.21,-0.46,-1.18,1.18,0.84,0.71,0.72,0.73
763.23,-0.46,-1.17,-0.44,-1.15,1.15,0.83,0.69,0.71,0.72
