frequency,raw
20.00,-43.99
20.20,-43.78
20.40,-43.57
20.61,-43.37
20.81,-43.16
21.02,-42.95
21.23,-42.74
21.44,-42.52
21.66,-42.31
21.87,-42.09
22.09,-41.88
22.31,-41.66
22.54,-41.44
22.76,-41.23
22.99,-41.01
23.22,-40.79
23.45,-40.57
23.69,-40.34
23.92,-40.12
24.16,-39.90
24.40,-39.68
24.65,-39.46
24.89,-39.23
25.14,-39.01
25.39,-38.78
25.65,-38.55
25.91,-38.32
26.16,-38.10
26.43,-37.87
26.69,-37.64
26.96,-37.42
27.23,-37.19
27.50,-36.96
27.77,-36.73
28.05,-36.50
28.33,-36.27
28.62,-36.04
28.90,-35.81
29.19,-35.58
29.48,-35.35
29.78,-35.11
30.08,-34.88
30.38,-34.66
30.68,-34.43
30.99,-34.21
31.30,-33.99
31.61,-33.76
31.93,-33.54
32.24,-33.32
32.57,-33.09
32.89,-32.86
33.22,-32.64
33.55,-32.42
33.89,-32.19
34.23,-31.97
34.57,-31.75
34.92,-31.52
35.27,-31.30
35.62,-31.07
35.97,-30.85
36.33,-30.62
36.70,-30.40
37.06,-30.17
37.43,-29.95
37.81,-29.72
38.19,-29.50
38.57,-29.27
38.95,-29.05
39.34,-28.82
39.74,-28.60
40.14,-28.37
40.54,-28.15
40.94,-27.92
41.35,-27.69
41.76,-27.46
42.18,-27.23
42.60,-27.00
43.03,-26.77
43.46,-26.55
43.90,-26.33
44.33,-26.11
44.78,-25.88
45.23,-25.66
45.68,-25.44
46.13,-25.22
46.60,-25.00
47.06,-24.78
47.53,-24.57
48.01,-24.37
48.49,-24.15
48.97,-23.94
49.46,-23.73
49.96,-23.53
50.46,-23.33
50.96,-23.14
51.47,-22.94
51.99,-22.75
52.51,-22.56
53.03,-22.38
53.56,-22.20
54.10,-22.03
54.64,-21.85
55.18,-21.67
55.74,-21.51
56.29,-21.34
56.86,-21.18
57.42,-21.02
58.00,-20.85
58.58,-20.69
59.16,-20.53
59.76,-20.37
60.35,-20.20
60.96,-20.04
61.57,-19.88
62.18,-19.72
62.80,-19.57
63.43,-19.41
64.07,-19.25
64.71,-19.10
65.35,-18.94
66.01,-18.79
66.67,-18.64
67.33,-18.48
68.01,-18.33
68.69,-18.16
69.37,-18.01
70.07,-17.86
70.77,-17.71
71.48,-17.57
72.19,-17.43
72.91,-17.29
73.64,-17.14
74.38,-16.99
75.12,-16.84
75.87,-16.70
76.63,-16.57
77.40,-16.42
78.17,-16.28
78.95,-16.16
79.74,-16.02
80.54,-15.89
81.35,-15.75
82.16,-15.62
82.98,-15.48
83.81,-15.35
84.65,-15.23
85.50,-15.11
86.35,-14.97
87.22,-14.84
88.09,-14.71
88.97,-14.57
89.86,-14.46
90.76,-14.35
91.66,-14.23
92.58,-14.12
93.51,-14.01
94.44,-13.90
95.39,-13.79
96.34,-13.70
97.30,-13.61
98.28,-13.50
99.26,-13.40
100.25,-13.31
101.25,-13.21
102.27,-13.13
103.29,-13.08
104.32,-13.02
105.37,-12.93
106.42,-12.85
107.48,-12.76
108.56,-12.67
109.64,-12.58
110.74,-12.51
111.85,-12.44
112.97,-12.37
114.10,-12.29
115.24,-12.22
116.39,-12.18
117.55,-12.12
118.73,-12.05
119.92,-11.98
121.12,-11.91
122.33,-11.88
123.55,-11.83
124.79,-11.75
126.03,-11.68
127.29,-11.65
128.57,-11.61
129.85,-11.57
131.15,-11.51
132.46,-11.47
133.79,-11.42
135.12,-11.37
136.48,-11.33
137.84,-11.28
139.22,-11.24
140.61,-11.20
142.02,-11.15
143.44,-11.14
144.87,-11.10
146.32,-11.08
147.78,-11.04
149.26,-11.00
150.75,-10.96
152.26,-10.93
153.78,-10.90
155.32,-10.87
156.88,-10.83
158.44,-10.81
160.03,-10.77
161.63,-10.75
163.24,-10.74
164.88,-10.72
166.53,-10.71
168.19,-10.70
169.87,-10.68
171.57,-10.67
173.29,-10.66
175.02,-10.62
176.77,-10.59
178.54,-10.57
180.32,-10.53
182.13,-10.50
183.95,-10.46
185.79,-10.43
187.65,-10.41
189.52,-10.38
191.42,-10.37
193.33,-10.36
195.27,-10.35
197.22,-10.36
199.19,-10.37
201.18,-10.38
203.19,-10.38
205.23,-10.38
207.28,-10.38
209.35,-10.38
211.44,-10.38
213.56,-10.38
215.69,-10.38
217.85,-10.38
220.03,-10.38
222.23,-10.38
224.45,-10.38
226.70,-10.40
228.96,-10.40
231.25,-10.40
233.57,-10.39
235.90,-10.37
238.26,-10.35
240.64,-10.32
243.05,-10.29
245.48,-10.26
247.93,-10.23
250.41,-10.21
252.92,-10.18
255.45,-10.16
258.00,-10.15
260.58,-10.12
263.19,-10.10
265.82,-10.09
268.48,-10.08
271.16,-10.08
273.87,-10.10
276.61,-10.11
279.38,-10.11
282.17,-10.10
284.99,-10.09
287.84,-10.05
290.72,-10.02
293.63,-9.99
296.57,-9.96
299.53,-9.94
302.53,-9.91
305.55,-9.87
308.61,-9.84
311.69,-9.81
314.81,-9.80
317.96,-9.78
321.14,-9.76
324.35,-9.74
327.59,-9.72
330.87,-9.71
334.18,-9.69
337.52,-9.66
340.90,-9.64
344.30,-9.61
347.75,-9.58
351.23,-9.54
354.74,-9.51
358.28,-9.48
361.87,-9.45
365.49,-9.42
369.14,-9.40
372.83,-9.40
376.56,-9.41
380.33,-9.41
384.13,-9.41
387.97,-9.40
391.85,-9.39
395.77,-9.37
399.73,-9.34
403.72,-9.31
407.76,-9.27
411.84,-9.24
415.96,-9.20
420.12,-9.17
424.32,-9.14
428.56,-9.13
432.85,-9.11
437.18,-9.09
441.55,-9.08
445.96,-9.06
450.42,-9.04
454.93,-9.04
459.48,-9.02
464.07,-9.00
468.71,-8.97
473.40,-8.93
478.13,-8.88
482.91,-8.84
487.74,-8.79
492.62,-8.74
497.55,-8.67
502.52,-8.59
507.55,-8.51
512.62,-8.41
517.75,-8.31
522.93,-8.20
528.16,-8.05
533.44,-7.90
538.77,-7.72
544.16,-7.50
549.60,-7.31
555.10,-7.08
560.65,-6.85
566.25,-6.62
571.92,-6.34
577.64,-6.06
583.41,-5.79
589.25,-5.51
595.14,-5.18
601.09,-4.88
607.10,-4.58
613.17,-4.33
619.30,-4.06
625.50,-3.77
631.75,-3.49
638.07,-3.21
644.45,-2.98
650.89,-2.73
657.40,-2.51
663.98,-2.29
670.62,-2.09
677.32,-1.91
684.10,-1.75
690.94,-1.57
697.85,-1.41
704.83,-1.27
711.87,-1.15
718.99,-1.04
726.18,-0.93
733.44,-0.82
740.78,-0.73
748.19,-0.67
755.67,-0.59
763.23,-0.53
770.86,-0.47
778.57,-0.42
786.35,-0.37
794.22,-0.31
802.16,-0.26
810.18,-0.21
818.28,-0.17
826.46,-0.13
834.73,-0.10
843.08,-0.07
851.51,-0.05
860.02,-0.03
868.62,-0.01
877.31,0.01
886.08,0.02
894.94,0.02
903.89,0.02
912.93,0.01
922.06,0.00
931.28,0.00
940.59,0.00
950.00,0.00
959.50,0.00
969.09,0.00
978.78,0.00
988.57,0.00
998.46,0.00
1008.44,0.00
1018.53,0.00
1028.71,0.00
1039.00,0.01
1049.39,0.02
1059.88,0.02
1070.48,0.02
1081.19,0.01
1092.00,-0.01
1102.92,-0.02
1113.95,-0.04
1125.09,-0.06
1136.34,-0.10
1147.70,-0.15
1159.18,-0.20
1170.77,-0.26
1182.48,-0.32
1194.30,-0.39
1206.25,-0.47
1218.31,-0.58
1230.49,-0.70
1242.80,-0.83
1255.22,-0.96
1267.78,-1.10
1280.45,-1.26
1293.26,-1.43
1306.19,-1.61
1319.25,-1.79
1332.45,-1.97
1345.77,-2.16
1359.23,-2.34
1372.82,-2.50
1386.55,-2.66
1400.41,-2.80
1414.42,-2.93
1428.56,-3.04
1442.85,-3.11
1457.28,-3.18
1471.85,-3.23
1486.57,-3.26
1501.43,-3.27
1516.45,-3.25
1531.61,-3.22
1546.93,-3.15
1562.40,-3.08
1578.02,-2.99
1593.80,-2.88
1609.74,-2.78
1625.84,-2.66
1642.10,-2.53
1658.52,-2.39
1675.10,-2.24
1691.85,-2.10
1708.77,-1.92
1725.86,-1.74
1743.12,-1.55
1760.55,-1.33
1778.15,-1.12
1795.94,-0.88
1813.90,-0.62
1832.03,-0.35
1850.36,-0.07
1868.86,0.23
1887.55,0.54
1906.42,0.85
1925.49,1.16
1944.74,1.48
1964.19,1.79
1983.83,2.10
2003.67,2.41
2023.71,2.68
2043.94,2.95
2064.38,3.18
2085.03,3.41
2105.88,3.62
2126.94,3.81
2148.20,3.97
2169.69,4.10
2191.38,4.22
2213.30,4.30
2235.43,4.35
2257.78,4.38
2280.36,4.38
2303.17,4.36
2326.20,4.32
2349.46,4.26
2372.95,4.19
2396.68,4.09
2420.65,3.98
2444.86,3.87
2469.31,3.75
2494.00,3.62
2518.94,3.51
2544.13,3.42
2569.57,3.35
2595.27,3.31
2621.22,3.29
2647.43,3.31
2673.90,3.34
2700.64,3.40
2727.65,3.49
2754.93,3.60
2782.48,3.74
2810.30,3.91
2838.40,4.08
2866.79,4.26
2895.46,4.45
2924.41,4.64
2953.65,4.82
2983.19,5.00
3013.02,5.17
3043.15,5.33
3073.58,5.50
3104.32,5.66
3135.36,5.82
3166.72,5.97
3198.38,6.11
3230.37,6.24
3262.67,6.35
3295.30,6.45
3328.25,6.55
3361.53,6.65
3395.15,6.76
3429.10,6.87
3463.39,6.97
3498.03,7.08
3533.01,7.21
3568.34,7.34
3604.02,7.48
3640.06,7.63
3676.46,7.77
3713.22,7.91
3750.36,8.04
3787.86,8.15
3825.74,8.22
3864.00,8.26
3902.64,8.26
3941.66,8.22
3981.08,8.16
4020.89,8.09
4061.10,8.03
4101.71,7.97
4142.73,7.92
4184.15,7.89
4226.00,7.88
4268.26,7.90
4310.94,7.92
4354.05,7.95
4397.59,7.97
4441.56,7.95
4485.98,7.91
4530.84,7.83
4576.15,7.72
4621.91,7.56
4668.13,7.37
4714.81,7.16
4761.96,6.94
4809.58,6.73
4857.67,6.56
4906.25,6.39
4955.31,6.22
5004.87,6.06
5054.91,5.92
5105.46,5.77
5156.52,5.54
5208.08,5.22
5260.16,4.79
5312.77,4.24
5365.89,3.54
5419.55,2.75
5473.75,1.86
5528.49,0.91
5583.77,-0.08
5639.61,-1.07
5696.00,-2.02
5752.96,-2.93
5810.49,-3.79
5868.60,-4.54
5927.28,-5.21
5986.56,-5.79
6046.42,-6.27
6106.89,-6.64
6167.96,-6.92
6229.64,-7.15
6291.93,-7.35
6354.85,-7.53
6418.40,-7.69
6482.58,-7.82
6547.41,-7.93
6612.88,-8.01
6679.01,-8.08
6745.80,-8.12
6813.26,-8.15
6881.39,-8.18
6950.21,-8.20
7019.71,-8.24
7089.91,-8.27
7160.81,-8.32
7232.41,-8.37
7304.74,-8.42
7377.79,-8.47
7451.56,-8.51
7526.08,-8.55
7601.34,-8.59
7677.35,-8.63
7754.13,-8.68
7831.67,-8.75
7909.98,-8.86
7989.08,-9.04
8068.98,-9.27
8149.67,-9.56
8231.16,-9.93
8313.47,-10.37
8396.61,-10.88
8480.57,-11.45
8565.38,-12.06
8651.03,-12.70
8737.54,-13.35
8824.92,-14.03
8913.17,-14.72
9002.30,-15.43
9092.32,-16.15
9183.25,-16.80
9275.08,-17.31
9367.83,-17.67
9461.51,-17.84
9556.12,-17.81
9651.68,-17.56
9748.20,-17.10
9845.68,-16.46
9944.14,-15.63
10043.58,-14.67
10144.02,-13.61
10245.46,-12.48
10347.91,-11.31
10451.39,-10.16
10555.91,-9.07
10661.46,-8.09
10768.08,-7.26
10875.76,-6.59
10984.52,-6.09
11094.36,-5.68
11205.31,-5.34
11317.36,-5.05
11430.53,-4.79
11544.84,-4.54
11660.29,-4.28
11776.89,-4.03
11894.66,-3.82
12013.60,-3.62
12133.74,-3.48
12255.08,-3.43
12377.63,-3.53
12501.41,-3.78
12626.42,-4.19
12752.68,-4.80
12880.21,-5.61
13009.01,-6.57
13139.10,-7.67
13270.49,-8.86
13403.20,-10.10
13537.23,-11.36
13672.60,-12.62
13809.33,-13.85
13947.42,-15.03
14086.90,-16.13
14227.77,-17.15
14370.04,-18.05
14513.74,-18.84
14658.88,-19.51
14805.47,-20.09
14953.52,-20.61
15103.06,-21.08
15254.09,-21.52
15406.63,-21.95
15560.70,-22.37
15716.30,-22.78
15873.47,-23.15
16032.20,-23.50
16192.52,-23.82
16354.45,-24.11
16517.99,-24.39
16683.17,-24.68
16850.01,-24.99
17018.51,-25.32
17188.69,-25.66
17360.58,-26.01
17534.18,-26.35
17709.53,-26.69
17886.62,-27.03
18065.49,-27.36
18246.14,-27.70
18428.60,-28.04
18612.89,-28.37
18799.02,-28.71
18987.01,-29.05
19176.88,-29.39
19368.65,-29.72
19562.33,-30.06
19757.96,-30.40
19955.54,-30.73
