frequency,raw,error,smoothed,error_smoothed,equalization,parametric_eq,fixed_band_eq,equalized_raw,equalized_smoothed,target
20.00,-18.30,-24.18,-18.30,-24.21,6.00,5.28,2.60,-12.30,-12.30,5.88
20.20,-18.16,-24.08,-18.17,-24.10,6.00,5.31,2.68,-12.16,-12.17,5.92
20.40,-18.03,-23.99,-18.03,-23.99,6.00,5.34,2.76,-12.03,-12.03,5.96
20.61,-17.90,-23.88,-17.89,-23.88,6.00,5.37,2.84,-11.90,-11.89,5.99
20.81,-17.75,-23.78,-17.76,-23.77,6.00,5.40,2.92,-11.75,-11.76,6.03
21.02,-17.62,-23.69,-17.62,-23.66,6.00,5.44,3.00,-11.62,-11.62,6.07
21.23,-17.48,-23.57,-17.48,-23.54,6.00,5.47,3.09,-11.48,-11.48,6.09
21.44,-17.34,-23.45,-17.34,-23.43,6.00,5.50,3.18,-11.34,-11.34,6.11
21.66,-17.20,-23.33,-17.20,-23.31,6.00,5.53,3.28,-11.20,-11.20,6.13
21.87,-17.06,-23.20,-17.06,-23.19,6.00,5.56,3.37,-11.06,-11.06,6.14
22.09,-16.92,-23.08,-16.92,-23.07,6.00,5.59,3.47,-10.92,-10.92,6.16
22.31,-16.78,-22.95,-16.78,-22.94,6.00,5.62,3.57,-10.78,-10.78,6.17
22.54,-16.64,-22.81,-16.64,-22.81,6.00,5.65,3.67,-10.64,-10.64,6.17
22.76,-16.49,-22.68,-16.49,-22.68,6.00,5.67,3.78,-10.49,-10.49,6.18
22.99,-16.35,-22.54,-16.35,-22.55,6.00,5.70,3.89,-10.35,-10.35,6.18
23.22,-16.20,-22.40,-16.21,-22.41,6.00,5.73,4.00,-10.20,-10.21,6.19
23.45,-16.06,-22.27,-16.07,-22.28,6.00,5.76,4.11,-10.06,-10.07,6.20
23.69,-15.93,-22.14,-15.92,-22.14,6.00,5.79,4.23,-9.93,-9.92,6.21
23.92,-15.78,-22.00,-15.78,-22.01,6.00,5.81,4.34,-9.78,-9.78,6.22
24.16,-15.63,-21.87,-15.64,-21.88,6.00,5.84,4.46,-9.63,-9.64,6.24
24.40,-15.49,-21.75,-15.49,-21.74,6.00,5.86,4.59,-9.49,-9.49,6.26
24.65,-15.35,-21.62,-15.35,-21.61,6.00,5.89,4.71,-9.35,-9.35,6.26
24.89,-15.20,-21.47,-15.20,-21.47,6.00,5.91,4.84,-9.20,-9.20,6.27
25.14,-15.06,-21.34,-15.06,-21.34,6.00,5.94,4.96,-9.06,-9.06,6.28
25.39,-14.91,-21.20,-14.92,-21.21,6.00,5.96,5.09,-8.91,-8.92,6.29
25.65,-14.77,-21.08,-14.77,-21.07,6.00,5.99,5.22,-8.77,-8.77,6.31
25.91,-14.63,-20.93,-14.63,-20.94,6.00,6.01,5.35,-8.63,-8.63,6.31
26.16,-14.48,-20.80,-14.48,-20.80,6.00,6.03,5.48,-8.48,-8.48,6.32
26.43,-14.34,-20.66,-14.34,-20.67,6.00,6.06,5.61,-8.34,-8.34,6.33
26.69,-14.19,-20.53,-14.19,-20.53,6.00,6.08,5.74,-8.19,-8.19,6.34
26.96,-14.04,-20.40,-14.05,-20.40,6.00,6.10,5.86,-8.04,-8.05,6.36
27.23,-13.90,-20.27,-13.90,-20.26,6.00,6.12,5.99,-7.90,-7.90,6.37
27.50,-13.75,-20.13,-13.75,-20.12,6.00,6.14,6.11,-7.75,-7.75,6.37
27.77,-13.61,-19.99,-13.61,-19.99,6.00,6.16,6.23,-7.61,-7.61,6.37
28.05,-13.46,-19.86,-13.46,-19.85,6.00,6.18,6.34,-7.46,-7.46,6.39
28.33,-13.32,-19.71,-13.32,-19.72,6.00,6.20,6.45,-7.32,-7.32,6.39
28.62,-13.18,-19.58,-13.18,-19.58,6.00,6.22,6.56,-7.18,-7.18,6.40
28.90,-13.03,-19.44,-13.03,-19.45,6.00,6.23,6.66,-7.03,-7.03,6.41
29.19,-12.89,-19.30,-12.89,-19.31,6.00,6.25,6.75,-6.89,-6.89,6.41
29.48,-12.74,-19.18,-12.75,-19.18,6.00,6.27,6.84,-6.74,-6.75,6.44
29.78,-12.60,-19.04,-12.61,-19.04,6.00,6.28,6.91,-6.60,-6.61,6.44
30.08,-12.47,-18.91,-12.47,-18.91,6.00,6.30,6.98,-6.47,-6.47,6.45
30.38,-12.33,-18.77,-12.33,-18.78,6.00,6.32,7.04,-6.33,-6.33,6.45
30.68,-12.18,-18.65,-12.19,-18.65,6.00,6.33,7.09,-6.18,-6.19,6.46
30.99,-12.05,-18.52,-12.05,-18.52,6.00,6.34,7.14,-6.05,-6.05,6.46
31.30,-11.91,-18.39,-11.92,-18.39,6.00,6.36,7.17,-5.91,-5.92,6.47
31.61,-11.78,-18.26,-11.78,-18.26,6.00,6.37,7.19,-5.78,-5.78,6.48
31.93,-11.65,-18.13,-11.64,-18.14,6.00,6.38,7.20,-5.65,-5.64,6.49
32.24,-11.51,-18.00,-11.51,-18.01,6.00,6.40,7.21,-5.51,-5.51,6.49
32.57,-11.38,-17.89,-11.38,-17.88,6.00,6.41,7.20,-5.38,-5.38,6.51
32.89,-11.24,-17.76,-11.24,-17.76,6.00,6.42,7.19,-5.24,-5.24,6.52
33.22,-11.11,-17.64,-11.11,-17.63,6.00,6.43,7.17,-5.11,-5.11,6.52
33.55,-10.97,-17.50,-10.97,-17.50,6.00,6.44,7.14,-4.97,-4.97,6.53
33.89,-10.83,-17.37,-10.84,-17.38,6.00,6.45,7.11,-4.83,-4.84,6.54
34.23,-10.70,-17.25,-10.71,-17.25,6.00,6.45,7.07,-4.70,-4.71,6.55
34.57,-10.57,-17.13,-10.57,-17.13,6.00,6.46,7.02,-4.57,-4.57,6.56
34.92,-10.43,-16.99,-10.44,-17.00,6.00,6.47,6.97,-4.43,-4.44,6.56
35.27,-10.30,-16.87,-10.31,-16.87,6.00,6.47,6.92,-4.30,-4.31,6.56
35.62,-10.17,-16.75,-10.17,-16.74,6.00,6.48,6.86,-4.17,-4.17,6.57
35.97,-10.04,-16.61,-10.04,-16.61,6.00,6.49,6.80,-4.04,-4.04,6.57
36.33,-9.91,-16.49,-9.90,-16.48,6.00,6.49,6.74,-3.91,-3.90,6.58
36.70,-9.77,-16.35,-9.77,-16.35,6.00,6.49,6.68,-3.77,-3.77,6.58
37.06,-9.64,-16.22,-9.64,-16.22,6.00,6.50,6.61,-3.64,-3.64,6.58
37.43,-9.50,-16.09,-9.50,-16.08,6.00,6.50,6.55,-3.50,-3.50,6.59
37.81,-9.36,-15.95,-9.37,-15.95,6.00,6.50,6.49,-3.36,-3.37,6.59
38.19,-9.22,-15.81,-9.23,-15.81,6.00,6.50,6.43,-3.22,-3.23,6.59
38.57,-9.09,-15.68,-9.10,-15.68,6.00,6.50,6.37,-3.09,-3.10,6.58
38.95,-8.96,-15.54,-8.96,-15.54,6.00,6.50,6.32,-2.96,-2.96,6.58
39.34,-8.82,-15.40,-8.83,-15.41,6.00,6.50,6.26,-2.82,-2.83,6.58
39.74,-8.69,-15.27,-8.69,-15.27,6.00,6.50,6.21,-2.69,-2.69,6.57
40.14,-8.55,-15.13,-8.56,-15.14,6.00,6.50,6.17,-2.55,-2.56,6.58
40.54,-8.42,-15.00,-8.42,-15.00,6.00,6.50,6.12,-2.42,-2.42,6.58
40.94,-8.28,-14.86,-8.28,-14.86,6.00,6.49,6.08,-2.28,-2.28,6.57
41.35,-8.14,-14.71,-8.14,-14.72,6.00,6.49,6.04,-2.14,-2.14,6.57
41.76,-8.01,-14.59,-8.01,-14.58,6.00,6.48,6.01,-2.01,-2.01,6.58
42.18,-7.87,-14.45,-7.87,-14.44,6.00,6.48,5.98,-1.87,-1.87,6.58
42.60,-7.73,-14.31,-7.73,-14.30,6.00,6.47,5.96,-1.73,-1.73,6.58
43.03,-7.59,-14.18,-7.59,-14.16,6.00,6.46,5.94,-1.59,-1.59,6.58
43.46,-7.45,-14.03,-7.45,-14.02,6.00,6.46,5.92,-1.45,-1.45,6.58
43.90,-7.30,-13.87,-7.31,-13.88,6.00,6.45,5.91,-1.30,-1.31,6.56
44.33,-7.16,-13.73,-7.17,-13.74,6.00,6.44,5.90,-1.16,-1.17,6.57
44.78,-7.02,-13.59,-7.03,-13.60,6.00,6.43,5.90,-1.02,-1.03,6.57
45.23,-6.88,-13.44,-6.89,-13.46,6.00,6.42,5.90,-0.88,-0.89,6.56
45.68,-6.75,-13.32,-6.75,-13.33,6.00,6.41,5.91,-0.75,-0.75,6.56
46.13,-6.61,-13.17,-6.62,-13.19,6.00,6.39,5.92,-0.61,-0.62,6.56
46.60,-6.47,-13.05,-6.48,-13.05,6.00,6.38,5.94,-0.47,-0.48,6.57
47.06,-6.33,-12.90,-6.34,-12.91,6.00,6.37,5.96,-0.33,-0.34,6.57
47.53,-6.21,-12.77,-6.21,-12.77,6.00,6.35,5.98,-0.21,-0.21,6.56
48.01,-6.08,-12.66,-6.07,-12.63,6.00,6.34,6.00,-0.08,-0.07,6.58
48.49,-5.94,-12.50,-5.94,-12.49,6.00,6.32,6.04,0.06,0.06,6.56
48.97,-5.80,-12.34,-5.80,-12.34,6.00,6.31,6.07,0.20,0.20,6.54
49.46,-5.66,-12.20,-5.66,-12.20,6.00,6.29,6.11,0.34,0.34,6.53
49.96,-5.52,-12.04,-5.52,-12.05,6.00,6.27,6.15,0.48,0.48,6.52
50.46,-5.38,-11.90,-5.38,-11.90,6.00,6.25,6.19,0.62,0.62,6.52
50.96,-5.24,-11.75,-5.24,-11.75,6.00,6.24,6.24,0.76,0.76,6.51
51.47,-5.10,-11.59,-5.10,-11.60,6.00,6.22,6.28,0.90,0.90,6.48
51.99,-4.95,-11.43,-4.96,-11.44,6.00,6.20,6.33,1.05,1.04,6.48
52.51,-4.81,-11.29,-4.82,-11.28,6.00,6.18,6.38,1.19,1.18,6.48
53.03,-4.67,-11.13,-4.67,-11.13,6.00,6.16,6.43,1.33,1.33,6.46
53.56,-4.52,-10.97,-4.52,-10.96,6.00,6.13,6.48,1.48,1.48,6.45
54.10,-4.37,-10.80,-4.38,-10.81,6.00,6.11,6.53,1.63,1.62,6.43
54.64,-4.23,-10.65,-4.23,-10.65,6.00,6.09,6.58,1.77,1.77,6.42
55.18,-4.08,-10.48,-4.08,-10.48,6.00,6.07,6.62,1.92,1.92,6.40
55.74,-3.94,-10.32,-3.93,-10.32,6.00,6.05,6.66,2.06,2.07,6.38
56.29,-3.79,-10.17,-3.79,-10.16,6.00,6.02,6.70,2.21,2.21,6.38
56.86,-3.63,-9.99,-3.64,-10.00,6.00,6.00,6.74,2.37,2.36,6.35
57.42,-3.48,-9.81,-3.49,-9.83,6.00,5.98,6.77,2.52,2.51,6.33
58.00,-3.33,-9.65,-3.34,-9.66,6.00,5.96,6.79,2.67,2.66,6.32
58.58,-3.18,-9.49,-3.19,-9.50,6.00,5.94,6.81,2.82,2.81,6.31
59.16,-3.04,-9.34,-3.04,-9.33,6.00,5.92,6.82,2.96,2.96,6.29
59.76,-2.89,-9.17,-2.89,-9.16,6.00,5.90,6.82,3.11,3.11,6.28
60.35,-2.74,-9.00,-2.74,-8.99,6.00,5.88,6.81,3.26,3.26,6.26
60.96,-2.60,-8.84,-2.60,-8.82,6.00,5.87,6.80,3.40,3.40,6.23
61.57,-2.45,-8.65,-2.45,-8.65,6.00,5.86,6.77,3.55,3.55,6.20
62.18,-2.31,-8.47,-2.30,-8.47,6.00,5.85,6.74,3.69,3.70,6.16
62.80,-2.16,-8.31,-2.16,-8.30,6.00,5.84,6.70,3.84,3.84,6.15
63.43,-2.01,-8.12,-2.02,-8.14,6.00,5.84,6.64,3.99,3.98,6.11
64.07,-1.86,-7.95,-1.88,-7.96,6.00,5.85,6.58,4.14,4.12,6.08
64.71,-1.72,-7.78,-1.73,-7.79,6.00,5.86,6.50,4.28,4.27,6.05
65.35,-1.59,-7.62,-1.59,-7.62,6.00,5.88,6.42,4.41,4.41,6.03
66.01,-1.45,-7.45,-1.45,-7.46,6.00,5.90,6.33,4.55,4.55,6.00
66.67,-1.31,-7.29,-1.32,-7.29,6.00,5.93,6.23,4.69,4.68,5.98
67.33,-1.18,-7.13,-1.18,-7.12,6.00,5.96,6.12,4.82,4.82,5.95
68.01,-1.05,-6.97,-1.04,-6.96,6.00,5.98,6.01,4.95,4.96,5.92
68.69,-0.91,-6.80,-0.91,-6.79,6.00,5.99,5.88,5.09,5.09,5.89
69.37,-0.77,-6.63,-0.77,-6.63,6.00,5.98,5.76,5.23,5.23,5.86
70.07,-0.64,-6.47,-0.64,-6.47,5.98,5.94,5.62,5.34,5.34,5.83
70.77,-0.50,-6.31,-0.51,-6.31,5.95,5.88,5.48,5.45,5.44,5.80
71.48,-0.37,-6.15,-0.38,-6.15,5.90,5.78,5.34,5.52,5.52,5.78
72.19,-0.24,-5.99,-0.24,-5.99,5.83,5.66,5.20,5.58,5.58,5.75
72.91,-0.11,-5.83,-0.11,-5.84,5.74,5.53,5.05,5.62,5.63,5.72
73.64,0.03,-5.67,0.02,-5.68,5.63,5.38,4.90,5.66,5.65,5.70
74.38,0.15,-5.53,0.15,-5.53,5.51,5.24,4.74,5.66,5.66,5.68
75.12,0.28,-5.38,0.28,-5.37,5.37,5.09,4.59,5.65,5.66,5.66
75.87,0.42,-5.22,0.42,-5.22,5.22,4.95,4.44,5.64,5.64,5.64
76.63,0.55,-5.07,0.55,-5.07,5.07,4.81,4.28,5.62,5.62,5.62
77.40,0.69,-4.92,0.68,-4.92,4.92,4.68,4.13,5.61,5.61,5.60
78.17,0.82,-4.77,0.81,-4.78,4.78,4.55,3.97,5.59,5.59,5.59
78.95,0.95,-4.63,0.95,-4.63,4.63,4.43,3.82,5.58,5.58,5.58
79.74,1.08,-4.49,1.08,-4.48,4.48,4.32,3.66,5.56,5.57,5.57
80.54,1.21,-4.35,1.22,-4.34,4.34,4.20,3.51,5.54,5.55,5.56
81.35,1.35,-4.20,1.35,-4.19,4.19,4.09,3.36,5.54,5.55,5.55
82.16,1.49,-4.05,1.49,-4.05,4.05,3.98,3.21,5.53,5.54,5.54
82.98,1.62,-3.92,1.62,-3.91,3.91,3.88,3.06,5.52,5.53,5.53
83.81,1.77,-3.75,1.76,-3.76,3.76,3.77,2.91,5.53,5.52,5.52
84.65,1.90,-3.61,1.89,-3.62,3.62,3.67,2.76,5.52,5.52,5.51
85.50,2.03,-3.49,2.03,-3.49,3.49,3.56,2.62,5.51,5.51,5.51
86.35,2.17,-3.34,2.16,-3.35,3.35,3.46,2.47,5.52,5.51,5.51
87.22,2.30,-3.21,2.29,-3.22,3.22,3.35,2.33,5.52,5.51,5.51
88.09,2.43,-3.08,2.42,-3.09,3.09,3.25,2.19,5.51,5.51,5.50
88.97,2.56,-2.95,2.55,-2.96,2.96,3.14,2.05,5.51,5.50,5.51
89.86,2.68,-2.83,2.68,-2.83,2.83,3.04,1.91,5.50,5.50,5.51
90.76,2.81,-2.69,2.80,-2.70,2.70,2.93,1.78,5.51,5.50,5.49
91.66,2.93,-2.57,2.93,-2.57,2.57,2.82,1.64,5.50,5.50,5.50
92.58,3.06,-2.43,3.06,-2.44,2.44,2.71,1.51,5.49,5.50,5.49
93.51,3.18,-2.33,3.19,-2.30,2.30,2.60,1.38,5.48,5.50,5.50
94.44,3.30,-2.20,3.32,-2.17,2.17,2.49,1.25,5.47,5.49,5.50
95.39,3.43,-2.07,3.45,-2.04,2.04,2.38,1.12,5.46,5.49,5.50
96.34,3.57,-1.91,3.58,-1.90,1.90,2.27,0.99,5.47,5.48,5.48
97.30,3.70,-1.77,3.70,-1.77,1.77,2.15,0.87,5.47,5.48,5.47
98.28,3.83,-1.64,3.83,-1.64,1.64,2.04,0.74,5.46,5.47,5.46
99.26,3.97,-1.49,3.96,-1.50,1.50,1.92,0.62,5.47,5.46,5.45
100.25,4.11,-1.34,4.08,-1.37,1.37,1.80,0.50,5.47,5.45,5.44
101.25,4.25,-1.19,4.20,-1.23,1.23,1.68,0.38,5.48,5.43,5.44
102.27,4.37,-1.05,4.33,-1.09,1.09,1.56,0.26,5.46,5.42,5.42
103.29,4.43,-0.97,4.45,-0.95,0.95,1.44,0.15,5.38,5.40,5.40
104.32,4.53,-0.86,4.57,-0.81,0.81,1.32,0.03,5.34,5.38,5.39
105.37,4.66,-0.71,4.68,-0.68,0.68,1.20,-0.08,5.33,5.36,5.37
106.42,4.78,-0.56,4.80,-0.54,0.54,1.07,-0.18,5.32,5.34,5.34
107.48,4.90,-0.42,4.91,-0.40,0.40,0.95,-0.29,5.30,5.31,5.32
108.56,5.02,-0.26,5.01,-0.27,0.27,0.82,-0.39,5.29,5.28,5.28
109.64,5.12,-0.13,5.11,-0.14,0.14,0.69,-0.49,5.26,5.25,5.25
110.74,5.22,-0.00,5.21,-0.01,0.01,0.57,-0.59,5.22,5.21,5.22
111.85,5.32,0.13,5.30,0.12,-0.12,0.44,-0.68,5.19,5.18,5.18
112.97,5.42,0.28,5.39,0.25,-0.25,0.31,-0.77,5.16,5.14,5.13
114.10,5.51,0.40,5.48,0.38,-0.38,0.18,-0.86,5.12,5.10,5.11
115.24,5.59,0.53,5.57,0.51,-0.51,0.06,-0.94,5.08,5.06,5.06
116.39,5.64,0.63,5.65,0.63,-0.63,-0.07,-1.02,5.01,5.02,5.01
117.55,5.70,0.73,5.72,0.75,-0.75,-0.20,-1.09,4.95,4.98,4.97
118.73,5.78,0.85,5.80,0.86,-0.86,-0.32,-1.16,4.92,4.94,4.92
119.92,5.85,0.95,5.86,0.97,-0.97,-0.45,-1.22,4.88,4.90,4.90
121.12,5.94,1.09,5.93,1.07,-1.07,-0.57,-1.28,4.86,4.86,4.85
122.33,5.99,1.17,6.00,1.18,-1.18,-0.70,-1.33,4.81,4.82,4.81
123.55,6.04,1.25,6.05,1.27,-1.27,-0.82,-1.38,4.76,4.78,4.79
124.79,6.12,1.36,6.11,1.36,-1.36,-0.94,-1.42,4.75,4.75,4.75
126.03,6.19,1.47,6.16,1.45,-1.45,-1.05,-1.45,4.74,4.71,4.72
127.29,6.22,1.53,6.21,1.53,-1.53,-1.17,-1.49,4.68,4.68,4.68
128.57,6.26,1.62,6.26,1.61,-1.61,-1.28,-1.51,4.64,4.65,4.64
129.85,6.31,1.69,6.30,1.68,-1.68,-1.39,-1.53,4.62,4.62,4.62
131.15,6.36,1.77,6.34,1.75,-1.75,-1.49,-1.55,4.61,4.59,4.58
132.46,6.38,1.82,6.37,1.81,-1.81,-1.60,-1.56,4.57,4.56,4.56
133.79,6.41,1.87,6.39,1.86,-1.86,-1.69,-1.57,4.55,4.53,4.54
135.12,6.42,1.91,6.42,1.91,-1.91,-1.79,-1.57,4.51,4.51,4.51
136.48,6.43,1.94,6.43,1.95,-1.95,-1.88,-1.57,4.48,4.48,4.49
137.84,6.45,1.99,6.45,1.99,-1.99,-1.96,-1.57,4.46,4.46,4.46
139.22,6.46,2.03,6.46,2.02,-2.02,-2.04,-1.56,4.43,4.43,4.43
140.61,6.46,2.06,6.46,2.05,-2.05,-2.11,-1.55,4.41,4.41,4.40
142.02,6.46,2.07,6.47,2.08,-2.08,-2.18,-1.54,4.38,4.39,4.39
143.44,6.46,2.09,6.47,2.10,-2.10,-2.24,-1.52,4.35,4.36,4.37
144.87,6.46,2.11,6.46,2.12,-2.12,-2.30,-1.50,4.33,4.34,4.34
146.32,6.46,2.14,6.46,2.14,-2.14,-2.35,-1.48,4.31,4.32,4.32
147.78,6.46,2.16,6.45,2.16,-2.16,-2.39,-1.46,4.29,4.29,4.30
149.26,6.45,2.17,6.44,2.18,-2.18,-2.43,-1.44,4.27,4.26,4.27
150.75,6.43,2.20,6.43,2.20,-2.20,-2.46,-1.42,4.23,4.23,4.23
152.26,6.42,2.21,6.41,2.21,-2.21,-2.49,-1.40,4.21,4.21,4.21
153.78,6.39,2.21,6.39,2.22,-2.22,-2.51,-1.37,4.17,4.18,4.18
155.32,6.38,2.24,6.37,2.22,-2.22,-2.52,-1.35,4.15,4.15,4.14
156.88,6.35,2.23,6.34,2.23,-2.23,-2.53,-1.33,4.12,4.11,4.12
158.44,6.33,2.24,6.31,2.23,-2.23,-2.53,-1.30,4.10,4.08,4.08
160.03,6.27,2.22,6.27,2.23,-2.23,-2.52,-1.28,4.04,4.05,4.04
161.63,6.24,2.24,6.23,2.22,-2.22,-2.51,-1.25,4.01,4.01,4.00
163.24,6.21,2.24,6.19,2.21,-2.21,-2.49,-1.23,3.99,3.98,3.97
164.88,6.15,2.21,6.14,2.21,-2.21,-2.47,-1.21,3.94,3.94,3.94
166.53,6.10,2.19,6.10,2.19,-2.19,-2.45,-1.19,3.90,3.90,3.90
168.19,6.05,2.18,6.04,2.18,-2.18,-2.42,-1.17,3.87,3.86,3.86
169.87,5.97,2.14,5.99,2.17,-2.17,-2.38,-1.15,3.80,3.82,3.83
171.57,5.92,2.13,5.93,2.15,-2.15,-2.34,-1.13,3.77,3.78,3.79
173.29,5.88,2.14,5.87,2.14,-2.14,-2.30,-1.11,3.74,3.74,3.74
175.02,5.81,2.10,5.81,2.12,-2.12,-2.25,-1.09,3.69,3.69,3.70
176.77,5.75,2.10,5.75,2.10,-2.10,-2.20,-1.08,3.64,3.65,3.65
178.54,5.69,2.08,5.69,2.08,-2.08,-2.15,-1.06,3.60,3.60,3.60
180.32,5.64,2.08,5.62,2.07,-2.07,-2.10,-1.05,3.57,3.56,3.56
182.13,5.58,2.06,5.56,2.05,-2.05,-2.04,-1.04,3.53,3.51,3.51
183.95,5.48,2.02,5.49,2.03,-2.03,-1.98,-1.03,3.45,3.46,3.46
185.79,5.42,2.00,5.42,2.01,-2.01,-1.92,-1.02,3.41,3.41,3.41
187.65,5.35,2.00,5.35,1.99,-1.99,-1.86,-1.01,3.36,3.36,3.35
189.52,5.29,1.98,5.28,1.97,-1.97,-1.79,-1.00,3.32,3.32,3.31
191.42,5.22,1.95,5.21,1.94,-1.94,-1.73,-0.99,3.27,3.27,3.27
193.33,5.13,1.90,5.14,1.92,-1.92,-1.66,-0.98,3.21,3.22,3.22
195.27,5.06,1.88,5.06,1.89,-1.89,-1.59,-0.98,3.17,3.17,3.18
197.22,4.99,1.86,4.98,1.85,-1.85,-1.53,-0.97,3.13,3.13,3.13
199.19,4.92,1.84,4.91,1.82,-1.82,-1.46,-0.96,3.10,3.09,3.08
201.18,4.84,1.80,4.83,1.78,-1.78,-1.39,-0.96,3.05,3.04,3.04
203.19,4.76,1.75,4.75,1.75,-1.75,-1.32,-0.96,3.01,3.00,3.01
205.23,4.68,1.72,4.68,1.71,-1.71,-1.25,-0.95,2.96,2.96,2.96
207.28,4.60,1.66,4.60,1.68,-1.68,-1.19,-0.95,2.92,2.92,2.94
209.35,4.52,1.63,4.52,1.64,-1.64,-1.12,-0.95,2.88,2.89,2.89
211.44,4.44,1.60,4.45,1.59,-1.59,-1.05,-0.94,2.84,2.85,2.84
213.56,4.36,1.54,4.37,1.55,-1.55,-0.98,-0.94,2.81,2.82,2.81
215.69,4.27,1.47,4.29,1.51,-1.51,-0.92,-0.94,2.76,2.78,2.79
217.85,4.20,1.44,4.21,1.46,-1.46,-0.85,-0.93,2.74,2.75,2.76
220.03,4.15,1.43,4.13,1.40,-1.40,-0.78,-0.93,2.74,2.73,2.72
222.23,4.08,1.39,4.05,1.35,-1.35,-0.72,-0.92,2.73,2.70,2.69
224.45,3.99,1.31,3.97,1.29,-1.29,-0.66,-0.91,2.69,2.68,2.67
226.70,3.90,1.24,3.89,1.24,-1.24,-0.59,-0.91,2.66,2.65,2.66
228.96,3.81,1.18,3.81,1.17,-1.17,-0.53,-0.90,2.63,2.64,2.63
231.25,3.73,1.10,3.72,1.10,-1.10,-0.47,-0.89,2.62,2.62,2.62
233.57,3.64,1.03,3.64,1.03,-1.03,-0.41,-0.88,2.60,2.61,2.61
235.90,3.54,0.94,3.55,0.96,-0.96,-0.34,-0.87,2.58,2.60,2.59
238.26,3.48,0.89,3.47,0.88,-0.88,-0.29,-0.85,2.60,2.59,2.59
240.64,3.39,0.81,3.38,0.80,-0.80,-0.23,-0.84,2.59,2.58,2.58
243.05,3.32,0.73,3.29,0.71,-0.71,-0.17,-0.82,2.60,2.58,2.59
245.48,3.22,0.64,3.21,0.62,-0.62,-0.11,-0.80,2.59,2.58,2.58
247.93,3.11,0.52,3.12,0.54,-0.54,-0.05,-0.77,2.57,2.58,2.59
250.41,3.05,0.47,3.04,0.45,-0.45,0.00,-0.75,2.59,2.59,2.58
252.92,2.95,0.35,2.96,0.37,-0.37,0.06,-0.72,2.58,2.60,2.60
255.45,2.88,0.27,2.89,0.28,-0.28,0.11,-0.70,2.59,2.60,2.61
258.00,2.82,0.20,2.81,0.20,-0.20,0.16,-0.66,2.62,2.62,2.62
260.58,2.74,0.11,2.74,0.12,-0.12,0.22,-0.63,2.62,2.63,2.62
263.19,2.67,0.03,2.68,0.04,-0.04,0.27,-0.60,2.63,2.64,2.64
265.82,2.60,-0.05,2.61,-0.04,0.04,0.32,-0.56,2.64,2.65,2.65
268.48,2.55,-0.12,2.55,-0.12,0.12,0.37,-0.52,2.66,2.67,2.67
271.16,2.50,-0.19,2.49,-0.19,0.19,0.42,-0.48,2.69,2.68,2.69
273.87,2.44,-0.26,2.44,-0.26,0.26,0.47,-0.44,2.70,2.70,2.69
276.61,2.40,-0.32,2.39,-0.33,0.33,0.52,-0.39,2.72,2.71,2.72
279.38,2.35,-0.38,2.34,-0.39,0.39,0.56,-0.34,2.74,2.73,2.73
282.17,2.30,-0.45,2.29,-0.45,0.45,0.61,-0.30,2.75,2.74,2.75
284.99,2.26,-0.51,2.24,-0.51,0.51,0.66,-0.25,2.77,2.76,2.76
287.84,2.19,-0.58,2.20,-0.57,0.57,0.70,-0.19,2.76,2.77,2.77
290.72,2.15,-0.64,2.16,-0.63,0.63,0.75,-0.14,2.78,2.79,2.79
293.63,2.11,-0.70,2.12,-0.68,0.68,0.79,-0.09,2.79,2.81,2.80
296.57,2.08,-0.75,2.08,-0.74,0.74,0.84,-0.03,2.82,2.82,2.82
299.53,2.04,-0.79,2.04,-0.79,0.79,0.88,0.02,2.83,2.83,2.83
302.53,2.00,-0.84,2.00,-0.84,0.84,0.92,0.08,2.84,2.85,2.84
305.55,1.97,-0.90,1.96,-0.90,0.90,0.97,0.14,2.86,2.86,2.87
308.61,1.93,-0.95,1.93,-0.94,0.94,1.01,0.20,2.87,2.87,2.87
311.69,1.90,-0.98,1.89,-1.00,1.00,1.05,0.26,2.89,2.88,2.88
314.81,1.86,-1.05,1.85,-1.05,1.05,1.09,0.32,2.90,2.89,2.91
317.96,1.82,-1.09,1.80,-1.10,1.10,1.13,0.38,2.92,2.90,2.91
321.14,1.76,-1.16,1.76,-1.15,1.15,1.18,0.45,2.91,2.91,2.92
324.35,1.71,-1.21,1.71,-1.21,1.21,1.22,0.51,2.92,2.92,2.91
327.59,1.67,-1.27,1.66,-1.27,1.27,1.26,0.58,2.93,2.93,2.93
330.87,1.63,-1.30,1.61,-1.33,1.33,1.30,0.64,2.95,2.93,2.93
334.18,1.58,-1.35,1.55,-1.39,1.39,1.34,0.71,2.96,2.94,2.93
337.52,1.50,-1.44,1.49,-1.45,1.45,1.38,0.77,2.94,2.94,2.94
340.90,1.44,-1.51,1.43,-1.51,1.51,1.42,0.84,2.94,2.94,2.95
344.30,1.36,-1.59,1.37,-1.57,1.57,1.46,0.91,2.92,2.94,2.94
347.75,1.30,-1.65,1.31,-1.63,1.63,1.50,0.98,2.92,2.94,2.94
351.23,1.24,-1.70,1.25,-1.69,1.69,1.54,1.05,2.92,2.94,2.94
354.74,1.20,-1.74,1.19,-1.75,1.75,1.57,1.12,2.94,2.94,2.94
358.28,1.14,-1.79,1.13,-1.80,1.80,1.61,1.19,2.94,2.93,2.93
361.87,1.09,-1.84,1.07,-1.86,1.86,1.65,1.27,2.95,2.93,2.93
365.49,1.02,-1.91,1.01,-1.91,1.91,1.69,1.34,2.93,2.92,2.93
369.14,0.96,-1.96,0.96,-1.96,1.96,1.73,1.42,2.91,2.92,2.92
372.83,0.91,-2.01,0.91,-2.00,2.00,1.77,1.49,2.91,2.91,2.92
376.56,0.86,-2.05,0.87,-2.04,2.04,1.81,1.57,2.89,2.91,2.90
380.33,0.81,-2.10,0.82,-2.07,2.07,1.85,1.64,2.88,2.90,2.90
384.13,0.77,-2.13,0.78,-2.11,2.11,1.88,1.72,2.88,2.89,2.89
387.97,0.73,-2.15,0.74,-2.14,2.14,1.92,1.80,2.87,2.89,2.88
391.85,0.70,-2.17,0.71,-2.17,2.17,1.96,1.88,2.87,2.88,2.87
395.77,0.68,-2.20,0.67,-2.20,2.20,2.00,1.95,2.88,2.87,2.88
399.73,0.66,-2.21,0.64,-2.23,2.23,2.04,2.03,2.89,2.87,2.87
403.72,0.63,-2.23,0.61,-2.26,2.26,2.07,2.11,2.88,2.86,2.86
407.76,0.59,-2.26,0.58,-2.28,2.28,2.11,2.19,2.87,2.86,2.85
411.84,0.55,-2.31,0.55,-2.31,2.31,2.15,2.27,2.85,2.85,2.86
415.96,0.52,-2.33,0.52,-2.33,2.33,2.19,2.35,2.85,2.85,2.85
420.12,0.49,-2.36,0.48,-2.36,2.36,2.22,2.42,2.85,2.84,2.85
424.32,0.46,-2.39,0.45,-2.39,2.39,2.26,2.50,2.84,2.84,2.85
428.56,0.44,-2.40,0.43,-2.41,2.41,2.30,2.58,2.85,2.84,2.83
432.85,0.41,-2.43,0.40,-2.44,2.44,2.34,2.65,2.85,2.84,2.83
437.18,0.38,-2.46,0.37,-2.46,2.46,2.37,2.72,2.84,2.84,2.83
441.55,0.35,-2.50,0.35,-2.49,2.49,2.41,2.79,2.83,2.84,2.84
445.96,0.32,-2.53,0.33,-2.51,2.51,2.45,2.86,2.82,2.84,2.84
450.42,0.29,-2.55,0.32,-2.52,2.52,2.48,2.92,2.81,2.84,2.83
454.93,0.28,-2.57,0.31,-2.54,2.54,2.52,2.99,2.81,2.84,2.84
459.48,0.27,-2.57,0.30,-2.55,2.55,2.56,3.05,2.82,2.85,2.84
464.07,0.27,-2.58,0.28,-2.57,2.57,2.59,3.10,2.83,2.85,2.85
468.71,0.28,-2.58,0.27,-2.58,2.58,2.63,3.15,2.86,2.86,2.86
473.40,0.28,-2.58,0.26,-2.60,2.60,2.66,3.20,2.88,2.86,2.86
478.13,0.28,-2.59,0.25,-2.62,2.62,2.70,3.24,2.89,2.87,2.87
482.91,0.27,-2.60,0.24,-2.64,2.64,2.73,3.28,2.90,2.87,2.87
487.74,0.26,-2.62,0.22,-2.66,2.66,2.77,3.31,2.91,2.88,2.88
492.62,0.23,-2.66,0.20,-2.68,2.68,2.80,3.34,2.91,2.88,2.89
497.55,0.20,-2.69,0.18,-2.71,2.71,2.84,3.36,2.91,2.89,2.89
