frequency,raw,error,smoothed,error_smoothed,equalization,parametric_eq,fixed_band_eq,equalized_raw,equalized_smoothed,target
20.00,-4.93,-7.53,-4.93,-7.53,6.00,6.08,2.70,1.07,1.07,2.60
20.20,-4.89,-7.48,-4.89,-7.48,6.00,6.07,2.78,1.11,1.11,2.59
20.40,-4.85,-7.43,-4.85,-7.44,6.00,6.07,2.86,1.15,1.15,2.58
20.61,-4.81,-7.39,-4.81,-7.39,6.00,6.07,2.94,1.19,1.19,2.58
20.81,-4.77,-7.33,-4.77,-7.34,6.00,6.06,3.02,1.23,1.23,2.56
21.02,-4.73,-7.29,-4.73,-7.29,6.00,6.06,3.11,1.27,1.27,2.56
21.23,-4.68,-7.23,-4.68,-7.24,6.00,6.05,3.20,1.32,1.32,2.55
21.44,-4.64,-7.20,-4.64,-7.19,6.00,6.05,3.29,1.36,1.36,2.56
21.66,-4.60,-7.15,-4.59,-7.14,6.00,6.05,3.38,1.40,1.41,2.55
21.87,-4.55,-7.09,-4.56,-7.10,6.00,6.04,3.48,1.45,1.44,2.54
22.09,-4.53,-7.06,-4.54,-7.07,6.00,6.04,3.58,1.47,1.46,2.53
22.31,-4.53,-7.06,-4.53,-7.05,6.00,6.03,3.68,1.47,1.47,2.53
22.54,-4.53,-7.05,-4.53,-7.05,6.00,6.03,3.79,1.47,1.47,2.52
22.76,-4.53,-7.05,-4.53,-7.04,6.00,6.03,3.89,1.47,1.47,2.52
22.99,-4.53,-7.04,-4.53,-7.04,6.00,6.02,4.00,1.47,1.47,2.51
23.22,-4.52,-7.02,-4.52,-7.03,6.00,6.02,4.12,1.48,1.48,2.50
23.45,-4.52,-7.03,-4.52,-7.02,6.00,6.01,4.23,1.48,1.48,2.51
23.69,-4.51,-7.01,-4.51,-7.01,6.00,6.01,4.35,1.49,1.49,2.50
23.92,-4.50,-7.00,-4.50,-7.00,6.00,6.01,4.47,1.50,1.50,2.50
24.16,-4.47,-6.97,-4.47,-6.97,6.00,6.00,4.59,1.53,1.53,2.50
24.40,-4.43,-6.94,-4.43,-6.94,6.00,6.00,4.71,1.57,1.57,2.51
24.65,-4.39,-6.90,-4.39,-6.90,6.00,6.00,4.84,1.61,1.61,2.51
24.89,-4.35,-6.86,-4.35,-6.87,6.00,5.99,4.97,1.65,1.65,2.51
25.14,-4.33,-6.84,-4.33,-6.85,6.00,5.99,5.10,1.67,1.67,2.51
25.39,-4.33,-6.84,-4.33,-6.84,6.00,5.99,5.23,1.67,1.67,2.51
25.65,-4.33,-6.84,-4.33,-6.85,6.00,5.98,5.36,1.67,1.67,2.51
25.91,-4.33,-6.85,-4.32,-6.84,6.00,5.98,5.49,1.67,1.68,2.52
26.16,-4.30,-6.83,-4.29,-6.82,6.00,5.98,5.62,1.70,1.71,2.53
26.43,-4.24,-6.77,-4.24,-6.77,6.00,5.98,5.75,1.76,1.76,2.53
26.69,-4.19,-6.72,-4.19,-6.72,6.00,5.97,5.88,1.81,1.81,2.53
26.96,-4.14,-6.67,-4.15,-6.67,6.00,5.97,6.01,1.86,1.85,2.53
27.23,-4.13,-6.65,-4.13,-6.66,6.00,5.97,6.14,1.87,1.87,2.52
27.50,-4.13,-6.65,-4.13,-6.65,6.00,5.97,6.26,1.87,1.87,2.52
27.77,-4.13,-6.66,-4.13,-6.66,6.00,5.97,6.38,1.87,1.87,2.53
28.05,-4.13,-6.66,-4.13,-6.66,6.00,5.97,6.50,1.87,1.87,2.53
28.33,-4.13,-6.65,-4.13,-6.66,6.00,5.97,6.61,1.87,1.87,2.52
28.62,-4.13,-6.65,-4.13,-6.66,6.00,5.97,6.71,1.87,1.87,2.52
28.90,-4.13,-6.66,-4.12,-6.64,6.00,5.97,6.81,1.87,1.88,2.53
29.19,-4.09,-6.62,-4.08,-6.61,6.00,5.97,6.90,1.91,1.92,2.53
29.48,-4.03,-6.55,-4.03,-6.56,6.00,5.97,6.98,1.97,1.97,2.52
29.78,-3.97,-6.49,-3.98,-6.50,6.00,5.97,7.05,2.03,2.02,2.52
30.08,-3.93,-6.46,-3.94,-6.46,6.00,5.97,7.11,2.07,2.06,2.53
30.38,-3.93,-6.45,-3.93,-6.45,6.00,5.98,7.17,2.07,2.07,2.52
30.68,-3.93,-6.44,-3.93,-6.44,6.00,5.98,7.20,2.07,2.07,2.51
30.99,-3.93,-6.44,-3.93,-6.43,6.00,5.98,7.24,2.07,2.07,2.51
31.30,-3.93,-6.42,-3.93,-6.43,6.00,5.99,7.25,2.07,2.07,2.49
31.61,-3.93,-6.42,-3.93,-6.42,6.00,5.99,7.27,2.07,2.07,2.49
31.93,-3.93,-6.41,-3.93,-6.41,6.00,6.00,7.26,2.07,2.07,2.48
32.24,-3.93,-6.41,-3.93,-6.41,6.00,6.00,7.25,2.07,2.07,2.48
32.57,-3.93,-6.40,-3.93,-6.40,6.00,6.01,7.23,2.07,2.07,2.47
32.89,-3.93,-6.39,-3.93,-6.39,6.00,6.02,7.19,2.07,2.07,2.46
33.22,-3.91,-6.37,-3.90,-6.37,6.00,6.03,7.15,2.09,2.10,2.46
33.55,-3.87,-6.33,-3.87,-6.33,6.00,6.03,7.10,2.13,2.13,2.46
33.89,-3.83,-6.30,-3.83,-6.29,6.00,6.04,7.04,2.17,2.17,2.47
34.23,-3.80,-6.25,-3.79,-6.25,6.00,6.05,6.98,2.20,2.21,2.45
34.57,-3.76,-6.21,-3.76,-6.21,6.00,6.05,6.90,2.24,2.24,2.45
34.92,-3.73,-6.18,-3.74,-6.19,6.00,6.06,6.82,2.27,2.26,2.45
35.27,-3.72,-6.17,-3.72,-6.17,6.00,6.06,6.74,2.28,2.28,2.45
35.62,-3.72,-6.16,-3.72,-6.16,6.00,6.06,6.66,2.28,2.28,2.44
35.97,-3.72,-6.16,-3.72,-6.16,6.00,6.06,6.57,2.28,2.28,2.44
36.33,-3.72,-6.14,-3.72,-6.14,6.00,6.06,6.48,2.28,2.28,2.42
36.70,-3.72,-6.13,-3.72,-6.13,6.00,6.05,6.38,2.28,2.28,2.41
37.06,-3.72,-6.12,-3.72,-6.11,6.00,6.05,6.29,2.28,2.28,2.40
37.43,-3.72,-6.09,-3.72,-6.10,6.01,6.03,6.19,2.29,2.29,2.37
37.81,-3.72,-6.08,-3.72,-6.08,6.01,6.02,6.10,2.29,2.29,2.36
38.19,-3.72,-6.06,-3.72,-6.06,6.01,6.00,6.01,2.29,2.28,2.34
38.57,-3.72,-6.03,-3.72,-6.03,6.00,5.98,5.92,2.28,2.28,2.31
38.95,-3.72,-6.01,-3.72,-6.00,5.98,5.95,5.83,2.26,2.27,2.29
39.34,-3.71,-5.96,-3.72,-5.97,5.96,5.93,5.74,2.25,2.24,2.25
39.74,-3.71,-5.95,-3.71,-5.94,5.93,5.89,5.65,2.22,2.22,2.24
40.14,-3.69,-5.90,-3.69,-5.90,5.88,5.86,5.57,2.19,2.20,2.21
40.54,-3.66,-5.85,-3.66,-5.85,5.84,5.83,5.49,2.18,2.18,2.19
40.94,-3.62,-5.78,-3.62,-5.78,5.78,5.79,5.41,2.16,2.16,2.16
41.35,-3.58,-5.73,-3.58,-5.72,5.73,5.76,5.34,2.15,2.15,2.15
41.76,-3.54,-5.65,-3.54,-5.66,5.68,5.72,5.27,2.14,2.14,2.11
42.18,-3.52,-5.61,-3.52,-5.62,5.64,5.68,5.20,2.12,2.11,2.09
42.60,-3.52,-5.60,-3.52,-5.59,5.60,5.64,5.14,2.08,2.08,2.08
43.03,-3.52,-5.57,-3.52,-5.57,5.57,5.60,5.08,2.05,2.05,2.05
43.46,-3.52,-5.54,-3.52,-5.55,5.54,5.56,5.02,2.02,2.02,2.02
43.90,-3.52,-5.53,-3.52,-5.52,5.52,5.53,4.97,2.00,2.00,2.01
44.33,-3.52,-5.50,-3.52,-5.50,5.50,5.49,4.92,1.98,1.98,1.98
44.78,-3.52,-5.47,-3.52,-5.48,5.48,5.45,4.88,1.96,1.96,1.95
45.23,-3.52,-5.46,-3.52,-5.45,5.45,5.41,4.84,1.93,1.93,1.94
45.68,-3.52,-5.43,-3.52,-5.43,5.42,5.37,4.80,1.90,1.90,1.91
46.13,-3.52,-5.39,-3.52,-5.39,5.39,5.34,4.77,1.87,1.87,1.87
46.60,-3.52,-5.36,-3.52,-5.36,5.36,5.30,4.74,1.84,1.84,1.84
47.06,-3.52,-5.33,-3.52,-5.33,5.33,5.26,4.71,1.81,1.81,1.81
47.53,-3.52,-5.30,-3.52,-5.29,5.30,5.22,4.69,1.78,1.78,1.78
48.01,-3.52,-5.25,-3.52,-5.25,5.26,5.19,4.67,1.74,1.74,1.73
48.49,-3.52,-5.21,-3.52,-5.21,5.21,5.15,4.65,1.69,1.69,1.69
48.97,-3.52,-5.17,-3.52,-5.17,5.16,5.11,4.64,1.64,1.64,1.65
49.46,-3.52,-5.14,-3.52,-5.13,5.11,5.07,4.63,1.59,1.59,1.62
49.96,-3.52,-5.08,-3.50,-5.07,5.06,5.04,4.62,1.54,1.55,1.56
50.46,-3.47,-5.00,-3.47,-5.00,5.00,5.00,4.61,1.53,1.53,1.53
50.96,-3.42,-4.91,-3.44,-4.93,4.95,4.96,4.61,1.53,1.51,1.49
51.47,-3.42,-4.88,-3.42,-4.87,4.90,4.92,4.61,1.48,1.48,1.46
51.99,-3.42,-4.84,-3.42,-4.84,4.85,4.88,4.61,1.43,1.44,1.42
52.51,-3.42,-4.80,-3.42,-4.81,4.81,4.84,4.61,1.39,1.39,1.38
53.03,-3.42,-4.78,-3.42,-4.77,4.76,4.80,4.61,1.34,1.34,1.36
53.56,-3.42,-4.74,-3.42,-4.74,4.72,4.76,4.61,1.30,1.30,1.31
54.10,-3.42,-4.69,-3.42,-4.70,4.67,4.72,4.62,1.25,1.25,1.27
54.64,-3.42,-4.65,-3.41,-4.64,4.62,4.68,4.62,1.20,1.21,1.23
55.18,-3.40,-4.59,-3.39,-4.58,4.57,4.64,4.62,1.17,1.19,1.19
55.74,-3.35,-4.50,-3.36,-4.51,4.52,4.60,4.63,1.17,1.17,1.15
56.29,-3.32,-4.44,-3.33,-4.45,4.48,4.55,4.63,1.16,1.14,1.12
56.86,-3.32,-4.42,-3.32,-4.41,4.43,4.51,4.63,1.11,1.11,1.10
57.42,-3.32,-4.37,-3.32,-4.38,4.39,4.46,4.63,1.07,1.07,1.05
58.00,-3.32,-4.35,-3.32,-4.35,4.35,4.42,4.62,1.03,1.03,1.03
58.58,-3.32,-4.33,-3.32,-4.33,4.32,4.37,4.62,1.00,1.00,1.01
59.16,-3.32,-4.30,-3.32,-4.30,4.28,4.32,4.61,0.96,0.96,0.98
59.76,-3.32,-4.27,-3.32,-4.26,4.25,4.28,4.59,0.93,0.93,0.95
60.35,-3.32,-4.22,-3.32,-4.22,4.21,4.23,4.58,0.89,0.89,0.90
60.96,-3.32,-4.18,-3.32,-4.17,4.17,4.18,4.56,0.85,0.85,0.85
61.57,-3.32,-4.12,-3.32,-4.12,4.12,4.13,4.54,0.80,0.80,0.80
62.18,-3.32,-4.07,-3.32,-4.07,4.07,4.08,4.51,0.75,0.75,0.75
62.80,-3.32,-4.01,-3.32,-4.02,4.03,4.03,4.48,0.71,0.71,0.69
63.43,-3.32,-3.97,-3.32,-3.97,3.98,3.97,4.44,0.66,0.66,0.65
64.07,-3.32,-3.93,-3.32,-3.93,3.93,3.92,4.40,0.61,0.61,0.61
64.71,-3.32,-3.89,-3.32,-3.89,3.89,3.87,4.36,0.57,0.57,0.57
65.35,-3.32,-3.85,-3.32,-3.85,3.84,3.82,4.31,0.52,0.52,0.53
66.01,-3.32,-3.80,-3.32,-3.81,3.80,3.77,4.26,0.48,0.48,0.48
66.67,-3.32,-3.77,-3.32,-3.76,3.76,3.71,4.21,0.44,0.44,0.45
67.33,-3.32,-3.71,-3.32,-3.72,3.72,3.66,4.15,0.40,0.40,0.39
68.01,-3.32,-3.67,-3.32,-3.67,3.67,3.61,4.09,0.35,0.35,0.35
68.69,-3.32,-3.62,-3.32,-3.63,3.63,3.56,4.03,0.31,0.31,0.30
69.37,-3.32,-3.59,-3.32,-3.58,3.58,3.51,3.96,0.26,0.26,0.27
70.07,-3.32,-3.54,-3.32,-3.54,3.53,3.46,3.90,0.21,0.21,0.22
70.77,-3.32,-3.49,-3.32,-3.49,3.49,3.41,3.83,0.17,0.17,0.17
71.48,-3.32,-3.45,-3.32,-3.44,3.44,3.37,3.76,0.12,0.12,0.13
72.19,-3.32,-3.39,-3.32,-3.39,3.40,3.32,3.68,0.08,0.08,0.07
72.91,-3.32,-3.34,-3.32,-3.35,3.35,3.28,3.61,0.03,0.03,0.02
73.64,-3.32,-3.30,-3.32,-3.30,3.31,3.23,3.54,-0.01,-0.01,-0.02
74.38,-3.32,-3.26,-3.32,-3.26,3.26,3.19,3.47,-0.06,-0.06,-0.06
75.12,-3.32,-3.21,-3.32,-3.22,3.21,3.15,3.39,-0.11,-0.11,-0.11
75.87,-3.32,-3.18,-3.32,-3.18,3.16,3.11,3.32,-0.16,-0.17,-0.14
76.63,-3.32,-3.14,-3.30,-3.12,3.11,3.07,3.25,-0.21,-0.20,-0.18
77.40,-3.28,-3.07,-3.27,-3.06,3.06,3.03,3.17,-0.22,-0.22,-0.21
78.17,-3.22,-2.97,-3.24,-2.99,3.01,2.99,3.10,-0.21,-0.23,-0.25
78.95,-3.22,-2.94,-3.22,-2.94,2.96,2.95,3.03,-0.26,-0.26,-0.28
79.74,-3.22,-2.91,-3.21,-2.90,2.92,2.92,2.96,-0.30,-0.30,-0.31
80.54,-3.22,-2.87,-3.22,-2.88,2.87,2.88,2.89,-0.35,-0.35,-0.35
81.35,-3.22,-2.84,-3.22,-2.84,2.83,2.84,2.83,-0.39,-0.39,-0.38
82.16,-3.22,-2.81,-3.22,-2.81,2.80,2.81,2.76,-0.42,-0.42,-0.41
82.98,-3.22,-2.77,-3.22,-2.78,2.77,2.77,2.70,-0.45,-0.45,-0.45
83.81,-3.22,-2.74,-3.22,-2.74,2.73,2.74,2.64,-0.49,-0.49,-0.48
84.65,-3.22,-2.70,-3.22,-2.69,2.70,2.70,2.58,-0.52,-0.52,-0.52
85.50,-3.22,-2.65,-3.22,-2.66,2.66,2.66,2.52,-0.56,-0.56,-0.57
86.35,-3.22,-2.62,-3.22,-2.62,2.62,2.63,2.46,-0.60,-0.60,-0.60
87.22,-3.22,-2.59,-3.22,-2.58,2.58,2.59,2.41,-0.64,-0.64,-0.63
88.09,-3.22,-2.55,-3.22,-2.55,2.54,2.55,2.35,-0.68,-0.68,-0.67
88.97,-3.22,-2.51,-3.22,-2.51,2.50,2.51,2.30,-0.72,-0.72,-0.71
89.86,-3.22,-2.46,-3.22,-2.46,2.46,2.47,2.25,-0.76,-0.76,-0.76
90.76,-3.22,-2.43,-3.22,-2.42,2.42,2.43,2.20,-0.80,-0.80,-0.79
91.66,-3.21,-2.36,-3.21,-2.37,2.38,2.39,2.16,-0.83,-0.84,-0.85
92.58,-3.21,-2.33,-3.21,-2.33,2.33,2.35,2.11,-0.88,-0.88,-0.88
93.51,-3.21,-2.28,-3.21,-2.28,2.28,2.31,2.07,-0.93,-0.93,-0.93
94.44,-3.21,-2.24,-3.21,-2.24,2.23,2.27,2.03,-0.98,-0.98,-0.97
95.39,-3.22,-2.19,-3.22,-2.19,2.18,2.22,1.99,-1.04,-1.03,-1.03
96.34,-3.22,-2.14,-3.22,-2.14,2.13,2.18,1.95,-1.09,-1.08,-1.08
97.30,-3.22,-2.08,-3.22,-2.08,2.09,2.13,1.91,-1.13,-1.14,-1.14
98.28,-3.23,-2.03,-3.23,-2.03,2.04,2.09,1.87,-1.19,-1.19,-1.20
99.26,-3.25,-1.99,-3.25,-1.99,2.00,2.05,1.84,-1.26,-1.25,-1.26
100.25,-3.27,-1.95,-3.27,-1.95,1.95,2.00,1.81,-1.32,-1.32,-1.32
101.25,-3.29,-1.92,-3.29,-1.91,1.91,1.96,1.78,-1.38,-1.38,-1.37
102.27,-3.30,-1.87,-3.30,-1.87,1.87,1.91,1.74,-1.43,-1.43,-1.43
103.29,-3.31,-1.83,-3.31,-1.83,1.83,1.86,1.71,-1.48,-1.48,-1.48
104.32,-3.33,-1.80,-3.33,-1.80,1.80,1.82,1.69,-1.53,-1.53,-1.53
105.37,-3.35,-1.76,-3.35,-1.76,1.76,1.77,1.66,-1.59,-1.59,-1.59
106.42,-3.38,-1.73,-3.38,-1.73,1.73,1.73,1.63,-1.65,-1.65,-1.65
107.48,-3.40,-1.68,-3.40,-1.70,1.70,1.68,1.60,-1.70,-1.71,-1.72
108.56,-3.43,-1.68,-3.43,-1.67,1.67,1.64,1.58,-1.76,-1.76,-1.75
109.64,-3.45,-1.64,-3.45,-1.63,1.63,1.59,1.55,-1.82,-1.81,-1.81
110.74,-3.46,-1.59,-3.46,-1.60,1.60,1.55,1.53,-1.86,-1.87,-1.87
111.85,-3.48,-1.56,-3.48,-1.56,1.56,1.50,1.50,-1.92,-1.92,-1.92
112.97,-3.49,-1.53,-3.49,-1.53,1.52,1.46,1.48,-1.97,-1.97,-1.96
114.10,-3.50,-1.49,-3.50,-1.49,1.48,1.41,1.45,-2.02,-2.02,-2.01
115.24,-3.50,-1.43,-3.50,-1.44,1.43,1.37,1.43,-2.07,-2.07,-2.07
116.39,-3.50,-1.38,-3.50,-1.38,1.38,1.33,1.40,-2.12,-2.11,-2.12
117.55,-3.49,-1.33,-3.49,-1.33,1.34,1.29,1.38,-2.15,-2.16,-2.16
118.73,-3.49,-1.28,-3.49,-1.28,1.29,1.25,1.35,-2.20,-2.20,-2.21
119.92,-3.48,-1.23,-3.48,-1.24,1.24,1.21,1.32,-2.24,-2.24,-2.25
121.12,-3.48,-1.21,-3.48,-1.20,1.20,1.17,1.30,-2.28,-2.28,-2.27
122.33,-3.47,-1.16,-3.47,-1.16,1.15,1.13,1.27,-2.32,-2.31,-2.31
123.55,-3.46,-1.11,-3.46,-1.12,1.11,1.09,1.24,-2.35,-2.35,-2.35
124.79,-3.45,-1.07,-3.45,-1.07,1.07,1.05,1.21,-2.38,-2.39,-2.38
126.03,-3.45,-1.03,-3.45,-1.02,1.02,1.01,1.18,-2.43,-2.42,-2.42
127.29,-3.44,-0.98,-3.44,-0.98,0.98,0.98,1.15,-2.46,-2.46,-2.46
128.57,-3.43,-0.93,-3.43,-0.93,0.93,0.94,1.12,-2.50,-2.50,-2.50
129.85,-3.43,-0.89,-3.43,-0.88,0.89,0.91,1.09,-2.54,-2.54,-2.54
131.15,-3.42,-0.84,-3.42,-0.84,0.84,0.87,1.06,-2.58,-2.58,-2.58
132.46,-3.42,-0.80,-3.42,-0.80,0.80,0.84,1.02,-2.62,-2.62,-2.62
133.79,-3.41,-0.75,-3.41,-0.76,0.76,0.80,0.99,-2.65,-2.66,-2.66
135.12,-3.41,-0.72,-3.41,-0.72,0.71,0.77,0.95,-2.70,-2.70,-2.69
136.48,-3.41,-0.69,-3.41,-0.68,0.67,0.73,0.92,-2.74,-2.73,-2.72
137.84,-3.40,-0.64,-3.40,-0.64,0.63,0.70,0.88,-2.77,-2.77,-2.76
139.22,-3.40,-0.59,-3.40,-0.60,0.60,0.66,0.85,-2.80,-2.80,-2.81
140.61,-3.40,-0.57,-3.40,-0.56,0.57,0.63,0.81,-2.83,-2.83,-2.83
142.02,-3.40,-0.52,-3.40,-0.52,0.54,0.59,0.77,-2.86,-2.85,-2.88
143.44,-3.40,-0.48,-3.41,-0.50,0.52,0.55,0.73,-2.88,-2.89,-2.92
144.87,-3.43,-0.48,-3.44,-0.49,0.50,0.51,0.69,-2.93,-2.94,-2.95
146.32,-3.48,-0.50,-3.47,-0.49,0.47,0.47,0.65,-3.01,-2.99,-2.98
147.78,-3.50,-0.48,-3.49,-0.48,0.45,0.44,0.61,-3.05,-3.04,-3.02
149.26,-3.50,-0.44,-3.50,-0.45,0.43,0.39,0.57,-3.07,-3.07,-3.06
150.75,-3.50,-0.40,-3.50,-0.41,0.40,0.35,0.53,-3.10,-3.10,-3.10
152.26,-3.50,-0.37,-3.50,-0.37,0.37,0.31,0.49,-3.13,-3.13,-3.13
153.78,-3.50,-0.33,-3.50,-0.33,0.34,0.27,0.45,-3.16,-3.16,-3.17
155.32,-3.50,-0.30,-3.50,-0.30,0.30,0.23,0.41,-3.20,-3.20,-3.20
156.88,-3.50,-0.25,-3.50,-0.26,0.25,0.18,0.37,-3.25,-3.25,-3.25
158.44,-3.50,-0.21,-3.50,-0.21,0.21,0.14,0.33,-3.29,-3.29,-3.29
160.03,-3.50,-0.17,-3.50,-0.17,0.17,0.09,0.29,-3.33,-3.33,-3.33
161.63,-3.50,-0.13,-3.50,-0.12,0.13,0.05,0.25,-3.37,-3.37,-3.37
163.24,-3.50,-0.08,-3.50,-0.08,0.08,0.01,0.20,-3.42,-3.42,-3.42
164.88,-3.50,-0.04,-3.50,-0.04,0.04,-0.04,0.16,-3.46,-3.46,-3.46
166.53,-3.51,0.00,-3.51,0.00,0.00,-0.08,0.12,-3.51,-3.51,-3.51
168.19,-3.52,0.03,-3.52,0.04,-0.04,-0.12,0.08,-3.56,-3.55,-3.55
169.87,-3.52,0.08,-3.52,0.08,-0.08,-0.16,0.04,-3.60,-3.60,-3.60
171.57,-3.53,0.12,-3.53,0.11,-0.11,-0.20,-0.01,-3.64,-3.65,-3.65
173.29,-3.54,0.15,-3.54,0.15,-0.15,-0.24,-0.05,-3.69,-3.69,-3.69
175.02,-3.54,0.19,-3.54,0.19,-0.19,-0.28,-0.09,-3.73,-3.73,-3.73
176.77,-3.54,0.23,-3.54,0.23,-0.23,-0.32,-0.13,-3.77,-3.77,-3.77
178.54,-3.54,0.27,-3.54,0.27,-0.27,-0.36,-0.18,-3.81,-3.81,-3.81
180.32,-3.54,0.32,-3.54,0.31,-0.31,-0.39,-0.22,-3.85,-3.86,-3.86
182.13,-3.54,0.35,-3.54,0.35,-0.36,-0.43,-0.26,-3.90,-3.89,-3.89
183.95,-3.53,0.39,-3.53,0.40,-0.40,-0.46,-0.31,-3.94,-3.93,-3.92
185.79,-3.51,0.45,-3.51,0.45,-0.45,-0.49,-0.35,-3.96,-3.97,-3.96
187.65,-3.50,0.49,-3.50,0.50,-0.50,-0.53,-0.40,-4.00,-4.00,-3.99
189.52,-3.48,0.55,-3.48,0.54,-0.55,-0.55,-0.44,-4.03,-4.03,-4.03
191.42,-3.47,0.58,-3.47,0.59,-0.59,-0.58,-0.48,-4.06,-4.06,-4.05
193.33,-3.46,0.63,-3.45,0.64,-0.62,-0.61,-0.53,-4.09,-4.08,-4.09
195.27,-3.44,0.69,-3.45,0.68,-0.66,-0.64,-0.57,-4.10,-4.11,-4.13
197.22,-3.45,0.72,-3.46,0.70,-0.69,-0.67,-0.62,-4.14,-4.15,-4.17
199.19,-3.50,0.69,-3.48,0.71,-0.72,-0.69,-0.66,-4.22,-4.20,-4.19
201.18,-3.51,0.72,-3.50,0.73,-0.74,-0.71,-0.70,-4.25,-4.24,-4.23
203.19,-3.50,0.76,-3.51,0.75,-0.76,-0.74,-0.75,-4.26,-4.27,-4.26
205.23,-3.50,0.78,-3.50,0.78,-0.78,-0.76,-0.79,-4.28,-4.29,-4.28
207.28,-3.50,0.81,-3.50,0.81,-0.81,-0.78,-0.83,-4.31,-4.31,-4.31
209.35,-3.50,0.84,-3.50,0.83,-0.83,-0.80,-0.88,-4.33,-4.34,-4.34
211.44,-3.51,0.86,-3.51,0.86,-0.86,-0.82,-0.92,-4.37,-4.37,-4.37
213.56,-3.51,0.89,-3.51,0.89,-0.89,-0.84,-0.96,-4.40,-4.40,-4.40
215.69,-3.51,0.92,-3.51,0.91,-0.92,-0.86,-1.00,-4.43,-4.43,-4.43
217.85,-3.52,0.93,-3.52,0.94,-0.94,-0.87,-1.04,-4.46,-4.46,-4.45
220.03,-3.52,0.97,-3.52,0.97,-0.97,-0.89,-1.08,-4.49,-4.49,-4.49
222.23,-3.52,0.99,-3.52,0.99,-0.99,-0.91,-1.11,-4.51,-4.51,-4.51
224.45,-3.52,1.02,-3.52,1.02,-1.02,-0.92,-1.15,-4.54,-4.54,-4.54
226.70,-3.52,1.04,-3.52,1.03,-1.04,-0.93,-1.18,-4.56,-4.56,-4.56
228.96,-3.52,1.05,-3.52,1.05,-1.06,-0.95,-1.22,-4.58,-4.57,-4.57
231.25,-3.51,1.07,-3.51,1.07,-1.07,-0.96,-1.24,-4.58,-4.57,-4.58
233.57,-3.50,1.10,-3.50,1.10,-1.07,-0.97,-1.27,-4.57,-4.57,-4.60
235.90,-3.49,1.12,-3.50,1.10,-1.08,-0.99,-1.30,-4.57,-4.58,-4.61
238.26,-3.51,1.10,-3.52,1.09,-1.09,-1.00,-1.32,-4.60,-4.60,-4.61
240.64,-3.55,1.05,-3.54,1.07,-1.09,-1.01,-1.34,-4.64,-4.63,-4.60
243.05,-3.55,1.06,-3.54,1.07,-1.10,-1.02,-1.36,-4.65,-4.64,-4.61
245.48,-3.53,1.09,-3.53,1.09,-1.11,-1.03,-1.38,-4.64,-4.64,-4.62
247.93,-3.50,1.13,-3.50,1.11,-1.12,-1.04,-1.39,-4.62,-4.62,-4.63
250.41,-3.48,1.13,-3.48,1.14,-1.13,-1.04,-1.41,-4.61,-4.61,-4.61
252.92,-3.46,1.15,-3.46,1.16,-1.15,-1.05,-1.41,-4.61,-4.61,-4.61
255.45,-3.45,1.18,-3.45,1.17,-1.16,-1.06,-1.42,-4.61,-4.61,-4.63
258.00,-3.44,1.19,-3.44,1.19,-1.18,-1.07,-1.42,-4.62,-4.62,-4.63
260.58,-3.44,1.19,-3.44,1.20,-1.19,-1.07,-1.43,-4.63,-4.63,-4.63
263.19,-3.43,1.21,-3.44,1.20,-1.21,-1.08,-1.43,-4.64,-4.64,-4.64
265.82,-3.44,1.21,-3.44,1.21,-1.21,-1.09,-1.42,-4.65,-4.65,-4.65
268.48,-3.44,1.22,-3.44,1.22,-1.22,-1.09,-1.42,-4.66,-4.66,-4.66
271.16,-3.44,1.23,-3.44,1.23,-1.23,-1.10,-1.41,-4.67,-4.68,-4.68
273.87,-3.45,1.23,-3.45,1.24,-1.24,-1.10,-1.40,-4.69,-4.69,-4.68
276.61,-3.45,1.25,-3.45,1.25,-1.25,-1.11,-1.39,-4.70,-4.70,-4.70
279.38,-3.45,1.27,-3.45,1.26,-1.26,-1.11,-1.38,-4.71,-4.71,-4.72
282.17,-3.44,1.27,-3.44,1.27,-1.27,-1.12,-1.36,-4.71,-4.71,-4.71
284.99,-3.44,1.28,-3.44,1.28,-1.28,-1.12,-1.35,-4.72,-4.72,-4.72
287.84,-3.43,1.28,-3.43,1.29,-1.29,-1.12,-1.33,-4.72,-4.72,-4.71
290.72,-3.42,1.31,-3.42,1.30,-1.31,-1.13,-1.32,-4.73,-4.73,-4.73
293.63,-3.41,1.31,-3.41,1.31,-1.32,-1.13,-1.30,-4.73,-4.73,-4.72
296.57,-3.40,1.32,-3.40,1.32,-1.33,-1.13,-1.28,-4.73,-4.73,-4.72
299.53,-3.38,1.34,-3.38,1.33,-1.33,-1.14,-1.27,-4.71,-4.72,-4.72
302.53,-3.37,1.34,-3.36,1.35,-1.34,-1.14,-1.25,-4.71,-4.70,-4.71
305.55,-3.36,1.36,-3.36,1.36,-1.33,-1.14,-1.23,-4.69,-4.69,-4.72
308.61,-3.35,1.36,-3.37,1.34,-1.33,-1.14,-1.21,-4.68,-4.70,-4.71
311.69,-3.40,1.32,-3.39,1.32,-1.32,-1.14,-1.19,-4.72,-4.72,-4.72
314.81,-3.43,1.29,-3.42,1.30,-1.31,-1.14,-1.17,-4.74,-4.73,-4.72
317.96,-3.44,1.29,-3.44,1.28,-1.30,-1.14,-1.16,-4.74,-4.74,-4.73
321.14,-3.44,1.28,-3.44,1.28,-1.29,-1.15,-1.14,-4.73,-4.74,-4.72
324.35,-3.44,1.28,-3.44,1.28,-1.29,-1.15,-1.12,-4.73,-4.73,-4.72
327.59,-3.44,1.28,-3.44,1.28,-1.28,-1.15,-1.11,-4.72,-4.72,-4.72
330.87,-3.44,1.28,-3.44,1.28,-1.28,-1.15,-1.09,-4.72,-4.72,-4.72
334.18,-3.44,1.29,-3.44,1.28,-1.28,-1.15,-1.07,-4.72,-4.72,-4.73
337.52,-3.45,1.27,-3.45,1.28,-1.28,-1.15,-1.06,-4.73,-4.72,-4.72
340.90,-3.45,1.28,-3.45,1.27,-1.27,-1.15,-1.05,-4.72,-4.72,-4.73
344.30,-3.45,1.27,-3.45,1.27,-1.27,-1.15,-1.03,-4.72,-4.72,-4.72
347.75,-3.45,1.26,-3.45,1.27,-1.27,-1.15,-1.02,-4.72,-4.72,-4.71
351.23,-3.45,1.27,-3.45,1.27,-1.27,-1.15,-1.01,-4.72,-4.72,-4.72
354.74,-3.44,1.26,-3.44,1.27,-1.27,-1.15,-1.00,-4.71,-4.71,-4.70
358.28,-3.44,1.27,-3.44,1.27,-1.27,-1.15,-0.99,-4.71,-4.71,-4.71
361.87,-3.43,1.27,-3.43,1.26,-1.27,-1.14,-0.98,-4.70,-4.70,-4.70
365.49,-3.43,1.26,-3.43,1.26,-1.26,-1.14,-0.97,-4.69,-4.69,-4.69
369.14,-3.42,1.26,-3.41,1.27,-1.25,-1.14,-0.96,-4.67,-4.67,-4.68
372.83,-3.41,1.26,-3.41,1.26,-1.24,-1.14,-0.96,-4.65,-4.66,-4.67
376.56,-3.41,1.26,-3.43,1.24,-1.23,-1.14,-0.95,-4.64,-4.66,-4.67
380.33,-3.47,1.21,-3.46,1.22,-1.22,-1.14,-0.95,-4.69,-4.67,-4.68
384.13,-3.49,1.18,-3.48,1.19,-1.21,-1.14,-0.94,-4.70,-4.69,-4.67
387.97,-3.49,1.18,-3.49,1.18,-1.20,-1.14,-0.94,-4.69,-4.69,-4.67
391.85,-3.48,1.19,-3.49,1.19,-1.19,-1.13,-0.93,-4.67,-4.68,-4.67
395.77,-3.48,1.20,-3.48,1.20,-1.19,-1.13,-0.93,-4.67,-4.67,-4.68
399.73,-3.48,1.20,-3.48,1.19,-1.20,-1.13,-0.93,-4.68,-4.69,-4.68
403.72,-3.48,1.19,-3.48,1.20,-1.22,-1.13,-0.93,-4.70,-4.70,-4.67
407.76,-3.48,1.21,-3.46,1.23,-1.24,-1.13,-0.93,-4.72,-4.70,-4.69
411.84,-3.42,1.28,-3.43,1.27,-1.26,-1.13,-0.93,-4.68,-4.69,-4.70
415.96,-3.39,1.31,-3.40,1.30,-1.28,-1.12,-0.93,-4.67,-4.68,-4.70
420.12,-3.39,1.32,-3.39,1.31,-1.29,-1.12,-0.93,-4.68,-4.68,-4.71
424.32,-3.39,1.31,-3.39,1.31,-1.31,-1.12,-0.93,-4.70,-4.69,-4.70
428.56,-3.38,1.30,-3.38,1.31,-1.32,-1.12,-0.94,-4.70,-4.70,-4.68
432.85,-3.36,1.30,-3.36,1.31,-1.32,-1.12,-0.94,-4.68,-4.68,-4.66
437.18,-3.33,1.32,-3.33,1.31,-1.31,-1.12,-0.94,-4.65,-4.64,-4.65
441.55,-3.30,1.31,-3.29,1.32,-1.30,-1.11,-0.95,-4.61,-4.60,-4.61
445.96,-3.25,1.32,-3.26,1.31,-1.29,-1.11,-0.95,-4.54,-4.56,-4.57
450.42,-3.23,1.30,-3.24,1.29,-1.28,-1.11,-0.95,-4.51,-4.52,-4.53
454.93,-3.24,1.24,-3.21,1.27,-1.27,-1.11,-0.96,-4.51,-4.49,-4.48
459.48,-3.18,1.24,-3.18,1.24,-1.26,-1.11,-0.96,-4.44,-4.44,-4.42
464.07,-3.12,1.24,-3.13,1.23,-1.25,-1.10,-0.97,-4.37,-4.38,-4.36
