frequency,raw
20,-21.56
21,-20.79
22,-19.90
23,-19.06
24,-18.26
25,-17.58
26,-16.82
27,-16.23
28,-15.49
29,-14.94
30,-14.35
31,-13.77
32,-13.22
33,-12.69
34,-12.17
35,-11.68
36,-11.20
37,-10.75
38,-10.31
39,-9.89
40,-9.52
41,-9.08
42,-8.70
43,-8.33
44,-7.96
45,-7.70
46,-7.29
47,-6.97
48,-6.65
49,-6.42
50,-6.19
51,-5.80
52,-5.59
53,-5.37
54,-5.16
55,-4.95
56,-4.64
57,-4.54
58,-4.35
59,-4.16
60,-3.97
61,-3.78
62,-3.60
63,-3.42
64,-3.24
65,-3.22
66,-2.92
67,-2.86
68,-2.59
69,-2.52
70,-2.27
71,-2.23
72,-2.07
73,-1.94
74,-1.91
75,-1.62
76,-1.62
77,-1.48
78,-1.33
79,-1.29
80,-1.21
81,-1.07
82,-0.97
83,-0.97
84,-0.97
85,-0.73
86,-0.64
87,-0.64
88,-0.64
89,-0.64
90,-0.53
91,-0.40
92,-0.32
93,-0.32
94,-0.32
95,-0.32
96,-0.28
97,-0.17
98,-0.05
99,0.00
100,0.00
101,0.00
102,0.00
104,0.00
105,0.00
106,0.00
107,0.00
108,0.07
109,0.18
110,0.28
111,0.33
112,0.33
113,0.33
114,0.33
115,0.33
117,0.33
118,0.33
119,0.33
120,0.33
121,0.33
123,0.33
124,0.33
125,0.33
126,0.33
128,0.33
129,0.33
130,0.33
131,0.33
133,0.33
134,0.33
135,0.33
137,0.33
138,0.33
140,0.33
141,0.33
142,0.25
144,0.24
145,0.32
147,0.33
148,0.27
150,0.12
151,0.04
153,0.00
154,0.00
156,0.00
157,0.00
159,0.00
160,0.00
162,0.00
164,0.00
165,0.00
167,0.00
169,0.00
170,0.00
172,0.00
174,-0.10
175,-0.16
177,-0.29
179,-0.32
181,-0.32
183,-0.32
184,-0.32
186,-0.32
188,-0.32
190,-0.32
192,-0.40
194,-0.52
196,-0.63
198,-0.64
200,-0.64
202,-0.64
204,-0.64
206,-0.64
208,-0.67
210,-0.88
212,-0.97
214,-0.97
216,-0.97
218,-0.97
221,-1.02
223,-1.12
225,-1.13
227,-1.16
229,-1.25
232,-1.29
234,-1.29
236,-1.29
239,-1.29
241,-1.35
244,-1.48
246,-1.58
248,-1.62
251,-1.62
253,-1.62
256,-1.62
259,-1.62
261,-1.62
264,-1.62
266,-1.62
269,-1.62
272,-1.62
274,-1.62
277,-1.62
280,-1.62
283,-1.70
286,-1.82
288,-1.90
291,-1.94
294,-1.94
297,-1.94
300,-1.94
303,-1.94
306,-1.94
309,-2.14
312,-2.27
316,-2.27
319,-2.27
322,-2.27
325,-2.29
328,-2.39
332,-2.53
335,-2.59
338,-2.59
342,-2.59
345,-2.69
349,-2.92
352,-2.92
356,-2.92
359,-2.93
363,-3.05
366,-3.14
370,-3.24
374,-3.24
377,-3.24
381,-3.27
385,-3.39
389,-3.51
393,-3.56
397,-3.56
401,-3.56
405,-3.64
409,-3.75
413,-3.86
417,-3.89
421,-3.89
425,-3.89
430,-3.99
434,-4.10
438,-4.20
443,-4.21
447,-4.21
451,-4.21
456,-4.45
460,-4.54
465,-4.54
470,-4.54
474,-4.60
479,-4.72
484,-4.84
489,-4.86
494,-4.86
499,-4.86
504,-4.97
509,-5.08
514,-5.19
519,-5.19
524,-5.25
529,-5.36
535,-5.49
540,-5.51
545,-5.53
551,-5.66
556,-5.76
562,-5.83
568,-5.84
573,-5.94
579,-6.05
585,-6.16
591,-6.16
596,-6.16
602,-6.16
608,-6.16
615,-6.16
621,-6.16
627,-6.16
633,-6.16
639,-6.12
646,-6.00
652,-5.90
659,-5.83
665,-5.83
672,-5.60
679,-5.44
686,-5.30
692,-5.10
699,-4.87
706,-4.67
713,-4.56
721,-4.33
728,-4.12
735,-3.90
742,-3.69
750,-3.50
757,-3.40
765,-3.16
773,-3.00
780,-2.88
788,-2.65
796,-2.42
804,-2.23
812,-2.12
820,-1.92
828,-1.74
837,-1.62
845,-1.51
853,-1.40
862,-1.27
871,-1.04
879,-0.97
888,-0.95
897,-0.83
906,-0.72
915,-0.64
924,-0.64
933,-0.46
943,-0.32
952,-0.32
962,-0.32
971,-0.26
981,-0.15
991,-0.03
1001,0.00
1011,0.00
1021,0.00
1031,0.17
1041,0.33
1052,0.33
1062,0.33
1073,0.33
1084,0.33
1094,0.43
1105,0.55
1116,0.65
1128,0.65
1139,0.65
1150,0.65
1162,0.65
1173,0.74
1185,0.85
1197,0.96
1209,0.98
1221,0.98
1233,0.98
1246,1.09
1258,1.20
1271,1.30
1283,1.30
1296,1.30
1309,1.33
1322,1.44
1335,1.55
1349,1.63
1362,1.63
1376,1.63
1390,1.68
1404,1.79
1418,1.90
1432,1.95
1446,1.95
1461,1.95
1475,2.10
1490,2.27
1505,2.27
1520,2.27
1535,2.27
1550,2.27
1566,2.27
1582,2.33
1597,2.44
1613,2.55
1629,2.60
1646,2.60
1662,2.60
1679,2.60
1696,2.66
1713,2.88
1730,2.92
1747,2.92
1764,2.92
1782,3.02
1800,3.14
1818,3.25
1836,3.25
1854,3.25
1873,3.26
1892,3.38
1911,3.49
1930,3.57
1949,3.57
1969,3.57
1988,3.57
2008,3.57
2028,3.57
2048,3.57
2069,3.57
2090,3.57
2111,3.57
2132,3.57
2153,3.57
2175,3.57
2196,3.54
2218,3.43
2240,3.32
2263,3.25
2285,3.25
2308,3.04
2331,2.92
2355,2.91
2378,2.69
2402,2.53
2426,2.42
2450,2.31
2475,2.11
2500,1.88
2525,1.66
2550,1.53
2575,1.38
2601,1.15
2627,0.93
2653,0.76
2680,0.64
2707,0.41
2734,0.19
2761,-0.02
2789,-0.13
2817,-0.24
2845,-0.39
2873,-0.61
2902,-0.74
2931,-0.85
2960,-0.96
2990,-1.19
3020,-1.35
3050,-1.46
3080,-1.57
3111,-1.69
3142,-1.80
3174,-1.91
3206,-1.94
3238,-2.01
3270,-2.23
3303,-2.27
3336,-2.31
3369,-2.43
3403,-2.54
3437,-2.59
3471,-2.61
3506,-2.84
3541,-2.92
3576,-2.92
3612,-2.92
3648,-3.08
3685,-3.24
3721,-3.24
3759,-3.24
3796,-3.24
3834,-3.24
3873,-3.35
3911,-3.46
3950,-3.56
3990,-3.56
4030,-3.56
4070,-3.54
4111,-3.43
4152,-3.32
4193,-3.24
4235,-3.24
4278,-3.24
4321,-3.14
4364,-2.92
4407,-2.92
4451,-2.79
4496,-2.58
4541,-2.47
4586,-2.36
4632,-2.24
4679,-2.13
4725,-2.02
4773,-1.94
4820,-1.94
4868,-1.75
4917,-1.62
4966,-1.62
5016,-1.62
5066,-1.56
5117,-1.44
5168,-1.33
5220,-1.29
5272,-1.27
5325,-1.16
5378,-1.04
5432,-0.89
5486,-0.67
5541,-0.34
5596,-0.06
5652,0.17
5709,0.39
5766,0.68
5823,0.99
5882,1.10
5940,1.29
6000,1.49
6060,1.60
6120,1.80
6182,2.07
6244,2.41
6306,2.64
6369,2.86
6433,3.10
6497,3.54
6562,3.86
6628,4.09
6694,4.31
6761,4.62
6828,4.92
6897,5.15
6966,5.28
7035,5.39
7106,5.51
7177,5.62
7249,5.73
7321,5.85
7394,6.07
7468,6.17
7543,6.17
7618,6.17
7694,6.17
7771,6.17
7849,6.17
7928,6.07
8007,5.96
8087,5.85
8168,5.53
8250,5.24
8332,5.02
8415,4.68
8499,4.28
8584,3.83
8670,3.38
8757,2.93
8845,2.48
8933,2.03
9022,1.58
9113,1.13
9204,0.68
9296,0.34
9389,-0.06
9483,-0.50
9577,-0.72
9673,-0.88
9770,-1.01
9868,-1.23
9966,-1.29
10066,-1.29
10167,-1.29
10268,-1.29
10371,-1.29
10475,-1.29
10579,-1.29
10685,-1.29
10792,-1.29
10900,-1.29
11009,-1.29
11119,-1.29
11230,-1.29
11343,-1.29
11456,-1.29
11571,-1.29
11686,-1.39
11803,-1.46
11921,-1.46
12040,-1.46
12161,-1.51
12282,-1.62
12405,-1.62
12529,-1.62
12655,-1.64
12781,-1.75
12909,-1.86
13038,-2.01
13168,-2.23
13300,-2.36
13433,-2.48
13567,-2.59
13703,-2.81
13840,-3.03
13978,-3.25
14118,-3.36
14259,-3.54
14402,-3.79
14546,-4.13
14692,-4.47
14838,-4.77
14987,-4.99
15137,-5.22
15288,-5.44
15441,-5.67
15595,-6.00
15751,-6.28
15909,-6.50
16068,-6.73
16229,-6.95
16391,-7.15
16555,-7.27
16720,-7.38
16888,-7.53
17056,-7.75
17227,-7.78
17399,-7.88
17573,-8.10
17749,-8.22
17926,-8.33
18106,-8.44
18287,-8.55
18470,-8.67
18654,-8.80
18841,-9.03
19029,-9.16
19220,-9.28
19412,-9.39
19606,-9.40
19802,-9.40
20000,-9.40
