frequency,raw,error,smoothed,error_smoothed,equalization,parametric_eq,equalized_raw,equalized_smoothed,target
20,1.07,-0.03,1.06,-0.04,0.04,-1.02,1.11,1.10,1.11
21,1.40,0.30,1.41,0.31,-0.31,-1.17,1.09,1.10,1.10
22,1.72,0.62,1.73,0.64,-0.64,-1.35,1.09,1.10,1.10
23,2.02,0.92,2.04,0.94,-0.94,-1.53,1.08,1.10,1.10
24,2.30,1.21,2.32,1.23,-1.23,-1.73,1.07,1.09,1.10
25,2.58,1.49,2.59,1.49,-1.49,-1.93,1.09,1.09,1.09
26,2.84,1.75,2.83,1.74,-1.74,-2.14,1.10,1.09,1.09
27,3.06,1.97,3.05,1.97,-1.97,-2.33,1.10,1.09,1.09
28,3.27,2.19,3.25,2.17,-2.17,-2.50,1.10,1.08,1.08
29,3.46,2.38,3.43,2.36,-2.36,-2.65,1.11,1.08,1.08
30,3.62,2.55,3.59,2.52,-2.52,-2.76,1.10,1.07,1.07
31,3.76,2.69,3.73,2.66,-2.66,-2.83,1.10,1.07,1.07
32,3.86,2.80,3.84,2.78,-2.78,-2.87,1.09,1.06,1.06
33,3.94,2.89,3.93,2.87,-2.87,-2.87,1.07,1.06,1.06
34,4.00,2.95,4.00,2.95,-2.95,-2.85,1.05,1.05,1.05
35,4.04,3.00,4.05,3.01,-3.01,-2.81,1.03,1.04,1.04
36,4.08,3.05,4.09,3.06,-3.06,-2.76,1.03,1.03,1.03
37,4.10,3.08,4.11,3.09,-3.09,-2.71,1.01,1.02,1.03
38,4.12,3.11,4.12,3.11,-3.11,-2.66,1.01,1.01,1.02
39,4.11,3.11,4.12,3.12,-3.12,-2.61,0.99,1.00,1.01
40,4.11,3.12,4.11,3.13,-3.13,-2.57,0.99,0.99,1.00
41,4.10,3.12,4.10,3.13,-3.13,-2.54,0.97,0.98,0.98
42,4.08,3.11,4.09,3.13,-3.13,-2.52,0.96,0.96,0.97
43,4.06,3.10,4.07,3.12,-3.12,-2.51,0.94,0.95,0.96
44,4.04,3.10,4.05,3.12,-3.12,-2.51,0.93,0.94,0.94
45,4.02,3.09,4.03,3.11,-3.11,-2.52,0.91,0.92,0.93
46,4.00,3.09,4.01,3.11,-3.11,-2.54,0.89,0.91,0.91
47,3.98,3.08,4.00,3.10,-3.10,-2.57,0.88,0.89,0.90
48,3.97,3.09,3.98,3.10,-3.10,-2.61,0.87,0.87,0.88
49,3.95,3.09,3.96,3.10,-3.10,-2.65,0.85,0.86,0.86
50,3.94,3.10,3.94,3.10,-3.10,-2.70,0.84,0.84,0.84
51,3.92,3.10,3.92,3.10,-3.10,-2.75,0.82,0.82,0.82
52,3.91,3.11,3.91,3.10,-3.10,-2.81,0.81,0.80,0.80
53,3.89,3.11,3.89,3.11,-3.11,-2.86,0.79,0.78,0.78
54,3.87,3.11,3.86,3.11,-3.11,-2.92,0.76,0.76,0.76
55,3.85,3.12,3.84,3.11,-3.11,-2.97,0.74,0.73,0.74
56,3.83,3.12,3.82,3.11,-3.11,-3.02,0.72,0.71,0.71
57,3.80,3.12,3.80,3.11,-3.11,-3.07,0.69,0.68,0.69
58,3.76,3.10,3.77,3.12,-3.12,-3.11,0.65,0.66,0.66
59,3.73,3.10,3.75,3.12,-3.12,-3.15,0.61,0.63,0.63
60,3.70,3.10,3.72,3.12,-3.12,-3.17,0.59,0.60,0.61
61,3.67,3.10,3.69,3.11,-3.11,-3.20,0.56,0.57,0.58
62,3.64,3.10,3.65,3.11,-3.11,-3.21,0.53,0.54,0.55
63,3.62,3.11,3.62,3.10,-3.10,-3.22,0.52,0.51,0.52
64,3.60,3.12,3.57,3.10,-3.10,-3.22,0.51,0.48,0.48
65,3.56,3.11,3.53,3.09,-3.09,-3.22,0.48,0.44,0.45
66,3.51,3.09,3.48,3.07,-3.07,-3.21,0.44,0.41,0.42
67,3.45,3.07,3.44,3.06,-3.06,-3.20,0.39,0.38,0.39
68,3.39,3.04,3.39,3.04,-3.04,-3.18,0.35,0.35,0.35
69,3.32,3.01,3.34,3.03,-3.03,-3.16,0.29,0.31,0.32
70,3.27,2.99,3.29,3.01,-3.01,-3.14,0.26,0.28,0.28
71,3.21,2.97,3.23,3.00,-3.00,-3.12,0.22,0.24,0.24
72,3.16,2.96,3.18,2.98,-2.98,-3.09,0.18,0.20,0.21
73,3.11,2.94,3.12,2.96,-2.96,-3.07,0.15,0.16,0.17
74,3.08,2.95,3.07,2.95,-2.95,-3.05,0.13,0.12,0.13
75,3.04,2.95,3.02,2.94,-2.94,-3.03,0.10,0.08,0.09
76,2.99,2.94,2.98,2.93,-2.93,-3.01,0.06,0.05,0.05
77,2.92,2.91,2.93,2.92,-2.92,-2.99,0.00,0.01,0.01
78,2.87,2.90,2.89,2.92,-2.92,-2.98,-0.04,-0.03,-0.03
79,2.83,2.90,2.84,2.91,-2.91,-2.97,-0.08,-0.07,-0.07
80,2.79,2.90,2.80,2.91,-2.91,-2.96,-0.11,-0.11,-0.11
81,2.76,2.91,2.75,2.90,-2.90,-2.95,-0.14,-0.15,-0.15
82,2.71,2.90,2.71,2.90,-2.90,-2.95,-0.19,-0.19,-0.19
83,2.67,2.90,2.67,2.90,-2.90,-2.95,-0.23,-0.24,-0.23
84,2.63,2.91,2.62,2.90,-2.90,-2.95,-0.27,-0.28,-0.27
85,2.59,2.91,2.58,2.90,-2.90,-2.96,-0.31,-0.32,-0.32
86,2.53,2.89,2.54,2.90,-2.90,-2.97,-0.37,-0.36,-0.36
87,2.49,2.89,2.50,2.90,-2.90,-2.98,-0.41,-0.40,-0.40
88,2.45,2.89,2.46,2.91,-2.91,-3.00,-0.45,-0.44,-0.44
89,2.42,2.90,2.43,2.91,-2.91,-3.02,-0.49,-0.48,-0.48
90,2.39,2.92,2.39,2.92,-2.92,-3.04,-0.52,-0.53,-0.52
91,2.35,2.92,2.35,2.92,-2.92,-3.07,-0.57,-0.57,-0.56
92,2.32,2.93,2.32,2.93,-2.93,-3.09,-0.60,-0.61,-0.61
93,2.28,2.93,2.29,2.93,-2.93,-3.12,-0.65,-0.64,-0.65
94,2.25,2.94,2.25,2.94,-2.94,-3.15,-0.69,-0.68,-0.69
95,2.21,2.94,2.22,2.94,-2.94,-3.19,-0.73,-0.72,-0.73
96,2.18,2.95,2.18,2.95,-2.95,-3.22,-0.77,-0.77,-0.77
97,2.16,2.97,2.15,2.96,-2.96,-3.26,-0.79,-0.81,-0.81
98,2.12,2.97,2.11,2.96,-2.96,-3.30,-0.84,-0.85,-0.85
99,2.09,2.98,2.07,2.96,-2.96,-3.34,-0.87,-0.90,-0.89
100,2.05,2.98,2.03,2.97,-2.97,-3.38,-0.92,-0.94,-0.92
101,2.00,2.97,1.99,2.97,-2.97,-3.42,-0.97,-0.98,-0.96
102,1.95,2.95,1.96,2.98,-2.98,-3.46,-1.03,-1.02,-1.00
104,1.88,2.96,1.92,2.99,-2.99,-3.55,-1.11,-1.07,-1.08
105,1.85,2.96,1.89,2.99,-2.99,-3.59,-1.14,-1.11,-1.11
106,1.83,2.98,1.86,3.00,-3.00,-3.63,-1.17,-1.14,-1.15
107,1.81,2.99,1.83,3.01,-3.01,-3.67,-1.20,-1.18,-1.18
108,1.80,3.02,1.80,3.02,-3.02,-3.70,-1.21,-1.22,-1.22
109,1.78,3.03,1.77,3.02,-3.02,-3.74,-1.24,-1.25,-1.25
110,1.76,3.05,1.74,3.03,-3.03,-3.77,-1.27,-1.29,-1.29
111,1.73,3.05,1.71,3.04,-3.04,-3.81,-1.31,-1.33,-1.32
112,1.70,3.05,1.68,3.05,-3.05,-3.83,-1.35,-1.36,-1.35
113,1.67,3.06,1.66,3.05,-3.05,-3.86,-1.38,-1.40,-1.38
114,1.64,3.06,1.63,3.06,-3.06,-3.88,-1.42,-1.43,-1.42
115,1.61,3.06,1.60,3.07,-3.07,-3.90,-1.45,-1.47,-1.45
117,1.54,3.05,1.57,3.07,-3.07,-3.93,-1.53,-1.50,-1.51
118,1.50,3.04,1.54,3.07,-3.07,-3.94,-1.57,-1.54,-1.54
119,1.47,3.04,1.51,3.08,-3.08,-3.95,-1.61,-1.57,-1.57
120,1.45,3.05,1.48,3.08,-3.08,-3.95,-1.63,-1.60,-1.59
121,1.44,3.06,1.44,3.08,-3.08,-3.94,-1.64,-1.64,-1.62
123,1.41,3.09,1.40,3.08,-3.08,-3.92,-1.67,-1.68,-1.68
124,1.40,3.10,1.37,3.08,-3.08,-3.90,-1.68,-1.71,-1.70
125,1.37,3.10,1.33,3.07,-3.07,-3.88,-1.70,-1.74,-1.73
126,1.34,3.09,1.30,3.07,-3.07,-3.86,-1.73,-1.77,-1.75
128,1.26,3.06,1.26,3.06,-3.06,-3.79,-1.80,-1.80,-1.80
129,1.21,3.04,1.23,3.05,-3.05,-3.76,-1.84,-1.83,-1.82
130,1.15,3.00,1.19,3.04,-3.04,-3.72,-1.89,-1.85,-1.85
131,1.12,2.99,1.14,3.03,-3.03,-3.67,-1.91,-1.88,-1.87
133,1.06,2.98,1.10,3.01,-3.01,-3.57,-1.95,-1.91,-1.91
134,1.04,2.98,1.05,3.00,-3.00,-3.52,-1.96,-1.95,-1.93
135,1.03,2.99,1.01,2.98,-2.98,-3.46,-1.95,-1.97,-1.96
137,0.98,2.98,0.96,2.96,-2.96,-3.34,-1.98,-2.00,-2.00
138,0.95,2.97,0.91,2.94,-2.94,-3.28,-1.99,-2.03,-2.01
140,0.87,2.92,0.87,2.93,-2.93,-3.15,-2.06,-2.06,-2.05
141,0.83,2.90,0.83,2.91,-2.91,-3.08,-2.08,-2.08,-2.07
142,0.79,2.88,0.79,2.89,-2.89,-3.01,-2.10,-2.10,-2.09
144,0.72,2.84,0.75,2.87,-2.87,-2.87,-2.15,-2.12,-2.12
145,0.68,2.82,0.71,2.85,-2.85,-2.80,-2.17,-2.14,-2.14
147,0.63,2.80,0.66,2.83,-2.83,-2.65,-2.19,-2.17,-2.17
148,0.61,2.80,0.61,2.80,-2.80,-2.58,-2.19,-2.19,-2.18
150,0.57,2.79,0.56,2.77,-2.77,-2.43,-2.20,-2.22,-2.21
151,0.54,2.77,0.51,2.75,-2.75,-2.36,-2.20,-2.24,-2.23
153,0.48,2.74,0.46,2.72,-2.72,-2.21,-2.24,-2.26,-2.25
154,0.43,2.70,0.41,2.69,-2.69,-2.14,-2.26,-2.28,-2.27
156,0.34,2.64,0.36,2.66,-2.66,-1.99,-2.31,-2.30,-2.29
157,0.29,2.60,0.31,2.62,-2.62,-1.92,-2.33,-2.31,-2.31
159,0.21,2.54,0.25,2.59,-2.59,-1.77,-2.38,-2.33,-2.33
160,0.18,2.52,0.20,2.55,-2.55,-1.70,-2.37,-2.35,-2.34
162,0.13,2.50,0.14,2.51,-2.51,-1.56,-2.38,-2.37,-2.36
164,0.08,2.47,0.08,2.47,-2.47,-1.42,-2.39,-2.39,-2.38
165,0.04,2.44,0.02,2.42,-2.42,-1.35,-2.38,-2.40,-2.39
167,-0.02,2.40,-0.04,2.38,-2.38,-1.21,-2.40,-2.42,-2.41
169,-0.10,2.33,-0.11,2.33,-2.33,-1.08,-2.43,-2.44,-2.43
170,-0.14,2.30,-0.17,2.28,-2.28,-1.01,-2.42,-2.45,-2.44
172,-0.24,2.22,-0.24,2.22,-2.22,-0.88,-2.46,-2.47,-2.46
174,-0.33,2.15,-0.31,2.17,-2.17,-0.75,-2.50,-2.48,-2.48
175,-0.37,2.12,-0.38,2.11,-2.11,-0.69,-2.48,-2.49,-2.48
177,-0.46,2.04,-0.46,2.05,-2.05,-0.56,-2.51,-2.51,-2.50
179,-0.56,1.96,-0.53,1.99,-1.99,-0.43,-2.55,-2.52,-2.51
181,-0.65,1.88,-0.61,1.93,-1.93,-0.31,-2.57,-2.53,-2.53
183,-0.73,1.81,-0.69,1.86,-1.86,-0.19,-2.59,-2.55,-2.54
184,-0.77,1.78,-0.77,1.79,-1.79,-0.13,-2.56,-2.56,-2.55
186,-0.84,1.72,-0.85,1.72,-1.72,-0.01,-2.56,-2.57,-2.56
188,-0.91,1.67,-0.94,1.64,-1.64,0.10,-2.55,-2.58,-2.57
190,-0.99,1.60,-1.02,1.57,-1.57,0.22,-2.56,-2.59,-2.58
192,-1.09,1.51,-1.12,1.49,-1.49,0.33,-2.58,-2.60,-2.60
194,-1.19,1.42,-1.21,1.40,-1.40,0.44,-2.59,-2.61,-2.61
196,-1.30,1.32,-1.31,1.32,-1.32,0.55,-2.61,-2.62,-2.62
198,-1.42,1.21,-1.41,1.23,-1.23,0.66,-2.65,-2.63,-2.63
200,-1.53,1.11,-1.51,1.14,-1.14,0.76,-2.66,-2.64,-2.64
202,-1.64,1.01,-1.61,1.04,-1.04,0.87,-2.68,-2.65,-2.64
204,-1.74,0.91,-1.71,0.95,-0.95,0.97,-2.69,-2.66,-2.65
206,-1.84,0.82,-1.82,0.85,-0.85,1.07,-2.69,-2.67,-2.66
208,-1.95,0.72,-1.93,0.75,-0.75,1.16,-2.70,-2.68,-2.67
210,-2.04,0.64,-2.04,0.65,-0.65,1.26,-2.69,-2.68,-2.68
212,-2.15,0.54,-2.15,0.54,-0.54,1.35,-2.69,-2.69,-2.68
214,-2.25,0.44,-2.26,0.44,-0.44,1.45,-2.68,-2.70,-2.69
216,-2.35,0.35,-2.38,0.32,-0.32,1.54,-2.67,-2.70,-2.70
218,-2.45,0.25,-2.50,0.21,-0.21,1.62,-2.66,-2.71,-2.70
221,-2.63,0.08,-2.62,0.09,-0.09,1.75,-2.71,-2.71,-2.71
223,-2.76,-0.04,-2.76,-0.04,0.04,1.83,-2.72,-2.72,-2.72
225,-2.90,-0.18,-2.90,-0.17,0.17,1.91,-2.73,-2.73,-2.72
227,-3.03,-0.30,-3.04,-0.30,0.30,1.98,-2.72,-2.73,-2.73
229,-3.17,-0.43,-3.18,-0.44,0.44,2.05,-2.72,-2.74,-2.73
232,-3.37,-0.63,-3.33,-0.59,0.59,2.15,-2.78,-2.75,-2.74
234,-3.51,-0.76,-3.48,-0.73,0.73,2.22,-2.78,-2.75,-2.74
236,-3.63,-0.88,-3.64,-0.88,0.88,2.28,-2.75,-2.76,-2.75
239,-3.82,-1.06,-3.79,-1.03,1.03,2.37,-2.79,-2.76,-2.76
241,-3.95,-1.19,-3.95,-1.18,1.18,2.42,-2.76,-2.77,-2.76
244,-4.14,-1.37,-4.11,-1.34,1.34,2.49,-2.80,-2.77,-2.77
246,-4.27,-1.50,-4.27,-1.50,1.50,2.54,-2.77,-2.77,-2.77
248,-4.41,-1.64,-4.44,-1.66,1.66,2.58,-2.75,-2.78,-2.77
251,-4.61,-1.83,-4.61,-1.82,1.82,2.64,-2.79,-2.78,-2.78
253,-4.75,-1.97,-4.78,-1.99,1.99,2.68,-2.76,-2.78,-2.78
256,-4.96,-2.17,-4.95,-2.17,2.17,2.73,-2.79,-2.78,-2.79
259,-5.18,-2.39,-5.13,-2.35,2.35,2.77,-2.83,-2.78,-2.79
261,-5.32,-2.53,-5.33,-2.54,2.54,2.80,-2.78,-2.79,-2.79
264,-5.55,-2.75,-5.53,-2.73,2.73,2.83,-2.81,-2.80,-2.80
266,-5.70,-2.90,-5.74,-2.94,2.94,2.85,-2.76,-2.80,-2.80
269,-5.94,-3.14,-5.95,-3.15,3.15,2.88,-2.78,-2.80,-2.80
272,-6.19,-3.38,-6.18,-3.38,3.38,2.91,-2.81,-2.81,-2.81
274,-6.36,-3.55,-6.41,-3.60,3.60,2.92,-2.75,-2.81,-2.81
277,-6.63,-3.82,-6.65,-3.84,3.84,2.94,-2.79,-2.81,-2.81
280,-6.90,-4.08,-6.90,-4.08,4.08,2.96,-2.81,-2.82,-2.81
283,-7.17,-4.35,-7.15,-4.33,4.33,2.98,-2.84,-2.82,-2.82
286,-7.45,-4.63,-7.40,-4.59,4.59,2.99,-2.86,-2.82,-2.82
288,-7.64,-4.82,-7.66,-4.84,4.84,3.00,-2.80,-2.82,-2.82
291,-7.91,-5.08,-7.92,-5.10,5.10,3.01,-2.81,-2.83,-2.82
294,-8.19,-5.36,-8.19,-5.36,5.36,3.03,-2.83,-2.83,-2.83
297,-8.46,-5.63,-8.44,-5.61,5.57,3.04,-2.89,-2.87,-2.83
300,-8.71,-5.88,-8.70,-5.86,5.74,3.06,-2.97,-2.96,-2.83
303,-8.96,-6.13,-8.95,-6.11,5.85,3.07,-3.11,-3.10,-2.83
306,-9.20,-6.36,-9.19,-6.36,5.93,3.08,-3.27,-3.27,-2.83
309,-9.42,-6.58,-9.43,-6.60,5.98,3.10,-3.44,-3.46,-2.84
312,-9.64,-6.80,-9.67,-6.84,6.00,3.12,-3.64,-3.67,-2.84
316,-9.92,-7.08,-9.90,-7.07,6.00,3.14,-3.92,-3.90,-2.84
319,-10.12,-7.28,-10.12,-7.28,6.00,3.16,-4.12,-4.12,-2.84
322,-10.31,-7.46,-10.33,-7.49,6.00,3.19,-4.31,-4.33,-2.84
325,-10.50,-7.65,-10.53,-7.68,6.00,3.21,-4.50,-4.53,-2.85
328,-10.68,-7.83,-10.72,-7.86,6.00,3.23,-4.68,-4.72,-2.85
332,-10.89,-8.04,-10.88,-8.01,6.00,3.27,-4.89,-4.88,-2.85
335,-11.04,-8.19,-11.02,-8.14,6.00,3.30,-5.04,-5.02,-2.85
338,-11.16,-8.31,-11.14,-8.25,6.00,3.33,-5.16,-5.14,-2.85
342,-11.27,-8.42,-11.22,-8.34,6.00,3.38,-5.27,-5.22,-2.85
345,-11.34,-8.48,-11.28,-8.39,6.00,3.41,-5.34,-5.28,-2.85
349,-11.38,-8.52,-11.30,-8.41,6.00,3.46,-5.38,-5.30,-2.85
352,-11.38,-8.52,-11.30,-8.41,6.00,3.50,-5.38,-5.30,-2.86
356,-11.33,-8.47,-11.27,-8.38,6.00,3.56,-5.33,-5.27,-2.86
359,-11.25,-8.39,-11.22,-8.33,6.00,3.60,-5.25,-5.22,-2.86
363,-11.12,-8.26,-11.14,-8.26,6.00,3.66,-5.12,-5.14,-2.86
366,-11.03,-8.17,-11.05,-8.17,6.00,3.71,-5.03,-5.05,-2.86
370,-10.90,-8.04,-10.94,-8.08,6.00,3.78,-4.90,-4.94,-2.86
374,-10.77,-7.91,-10.83,-7.97,6.00,3.84,-4.77,-4.83,-2.86
377,-10.68,-7.82,-10.72,-7.86,6.00,3.90,-4.68,-4.72,-2.86
381,-10.56,-7.69,-10.60,-7.74,6.00,3.97,-4.56,-4.60,-2.86
385,-10.44,-7.57,-10.49,-7.62,6.00,4.04,-4.44,-4.49,-2.86
389,-10.34,-7.47,-10.37,-7.51,6.00,4.12,-4.34,-4.37,-2.87
393,-10.24,-7.37,-10.26,-7.38,6.00,4.19,-4.24,-4.26,-2.87
397,-10.15,-7.28,-10.14,-7.26,6.00,4.27,-4.15,-4.14,-2.87
401,-10.06,-7.19,-10.03,-7.14,6.00,4.35,-4.06,-4.03,-2.87
405,-9.95,-7.08,-9.90,-7.01,6.00,4.43,-3.95,-3.90,-2.87
409,-9.83,-6.96,-9.77,-6.89,6.00,4.51,-3.83,-3.77,-2.87
413,-9.69,-6.82,-9.64,-6.75,6.00,4.59,-3.69,-3.64,-2.87
417,-9.54,-6.67,-9.50,-6.62,6.00,4.67,-3.54,-3.50,-2.87
421,-9.37,-6.50,-9.37,-6.48,6.00,4.74,-3.37,-3.37,-2.87
425,-9.21,-6.33,-9.23,-6.34,6.00,4.82,-3.21,-3.23,-2.87
430,-9.02,-6.14,-9.09,-6.19,5.96,4.91,-3.05,-3.12,-2.87
434,-8.88,-6.00,-8.94,-6.05,5.90,4.98,-2.97,-3.03,-2.88
438,-8.76,-5.88,-8.79,-5.91,5.82,5.05,-2.94,-2.97,-2.88
443,-8.63,-5.75,-8.64,-5.77,5.69,5.13,-2.94,-2.95,-2.87
447,-8.54,-5.67,-8.50,-5.63,5.59,5.20,-2.94,-2.91,-2.87
451,-8.42,-5.55,-8.36,-5.49,5.49,5.25,-2.92,-2.87,-2.87
456,-8.26,-5.39,-8.23,-5.37,5.37,5.32,-2.89,-2.86,-2.86
460,-8.13,-5.27,-8.10,-5.24,5.24,5.37,-2.89,-2.86,-2.86
465,-7.96,-5.11,-7.98,-5.12,5.12,5.42,-2.84,-2.85,-2.85
470,-7.82,-4.98,-7.86,-5.01,5.01,5.46,-2.81,-2.85,-2.84
474,-7.71,-4.88,-7.74,-4.90,4.90,5.49,-2.81,-2.84,-2.83
479,-7.59,-4.77,-7.62,-4.80,4.80,5.52,-2.79,-2.83,-2.82
484,-7.49,-4.68,-7.51,-4.70,4.70,5.53,-2.79,-2.81,-2.81
489,-7.40,-4.60,-7.40,-4.60,4.60,5.54,-2.80,-2.80,-2.79
494,-7.30,-4.52,-7.29,-4.51,4.51,5.54,-2.79,-2.78,-2.78
499,-7.20,-4.43,-7.18,-4.42,4.42,5.52,-2.78,-2.76,-2.76
504,-7.10,-4.35,-7.08,-4.33,4.33,5.50,-2.76,-2.75,-2.75
509,-7.00,-4.27,-6.99,-4.25,4.25,5.47,-2.75,-2.74,-2.73
514,-6.89,-4.17,-6.89,-4.16,4.16,5.43,-2.72,-2.72,-2.71
519,-6.78,-4.08,-6.79,-4.08,4.08,5.38,-2.70,-2.71,-2.70
524,-6.68,-4.00,-6.68,-3.99,3.99,5.33,-2.68,-2.69,-2.68
529,-6.58,-3.92,-6.57,-3.91,3.91,5.26,-2.67,-2.67,-2.66
535,-6.46,-3.82,-6.46,-3.82,3.82,5.18,-2.64,-2.65,-2.64
540,-6.36,-3.74,-6.35,-3.72,3.72,5.10,-2.63,-2.62,-2.62
545,-6.25,-3.65,-6.23,-3.63,3.63,5.02,-2.62,-2.60,-2.60
551,-6.12,-3.55,-6.11,-3.54,3.54,4.91,-2.58,-2.57,-2.57
556,-6.00,-3.45,-5.99,-3.44,3.44,4.82,-2.56,-2.55,-2.55
562,-5.86,-3.34,-5.86,-3.34,3.34,4.71,-2.52,-2.52,-2.52
568,-5.73,-3.24,-5.74,-3.24,3.24,4.59,-2.49,-2.49,-2.49
573,-5.61,-3.15,-5.61,-3.14,3.14,4.49,-2.46,-2.46,-2.46
579,-5.47,-3.04,-5.48,-3.04,3.04,4.36,-2.42,-2.43,-2.43
585,-5.33,-2.93,-5.35,-2.94,2.94,4.24,-2.38,-2.41,-2.40
591,-5.21,-2.84,-5.22,-2.85,2.85,4.11,-2.36,-2.37,-2.37
596,-5.10,-2.76,-5.09,-2.75,2.75,4.01,-2.35,-2.34,-2.34
602,-4.98,-2.67,-4.96,-2.65,2.65,3.88,-2.33,-2.31,-2.31
608,-4.84,-2.56,-4.83,-2.55,2.55,3.75,-2.29,-2.28,-2.28
615,-4.70,-2.45,-4.70,-2.45,2.45,3.61,-2.25,-2.25,-2.25
621,-4.58,-2.36,-4.58,-2.36,2.36,3.48,-2.22,-2.22,-2.22
627,-4.45,-2.26,-4.45,-2.26,2.26,3.36,-2.19,-2.19,-2.18
633,-4.33,-2.18,-4.32,-2.17,2.17,3.24,-2.16,-2.15,-2.15
639,-4.20,-2.08,-4.19,-2.07,2.07,3.12,-2.12,-2.12,-2.12
646,-4.06,-1.97,-4.07,-1.98,1.98,2.98,-2.07,-2.08,-2.09
652,-3.94,-1.89,-3.94,-1.90,1.90,2.87,-2.04,-2.05,-2.05
659,-3.81,-1.79,-3.82,-1.81,1.81,2.73,-2.00,-2.01,-2.02
665,-3.70,-1.71,-3.70,-1.72,1.72,2.62,-1.97,-1.98,-1.98
672,-3.58,-1.63,-3.59,-1.64,1.64,2.50,-1.94,-1.95,-1.95
679,-3.46,-1.55,-3.47,-1.56,1.56,2.37,-1.90,-1.91,-1.91
686,-3.34,-1.46,-3.35,-1.47,1.47,2.25,-1.86,-1.88,-1.87
692,-3.24,-1.40,-3.23,-1.39,1.39,2.15,-1.85,-1.84,-1.84
699,-3.13,-1.33,-3.11,-1.31,1.31,2.03,-1.82,-1.81,-1.80
706,-3.01,-1.25,-2.99,-1.22,1.22,1.92,-1.78,-1.77,-1.76
713,-2.90,-1.18,-2.87,-1.14,1.14,1.81,-1.76,-1.73,-1.72
721,-2.77,-1.09,-2.74,-1.05,1.05,1.68,-1.72,-1.69,-1.68
728,-2.63,-0.99,-2.61,-0.96,0.96,1.58,-1.67,-1.65,-1.64
735,-2.50,-0.90,-2.48,-0.87,0.87,1.47,-1.62,-1.61,-1.60
742,-2.36,-0.79,-2.35,-0.79,0.79,1.37,-1.57,-1.57,-1.56
750,-2.21,-0.68,-2.22,-0.70,0.70,1.26,-1.51,-1.53,-1.52
757,-2.08,-0.59,-2.10,-0.61,0.61,1.16,-1.47,-1.49,-1.48
765,-1.96,-0.51,-1.97,-0.53,0.53,1.06,-1.43,-1.45,-1.45
773,-1.83,-0.42,-1.86,-0.45,0.45,0.95,-1.38,-1.41,-1.41
780,-1.73,-0.36,-1.74,-0.37,0.37,0.86,-1.36,-1.37,-1.37
788,-1.62,-0.28,-1.63,-0.30,0.30,0.76,-1.32,-1.34,-1.34
796,-1.52,-0.22,-1.53,-0.22,0.22,0.66,-1.29,-1.31,-1.30
804,-1.43,-0.16,-1.43,-0.15,0.15,0.57,-1.27,-1.27,-1.27
812,-1.33,-0.09,-1.33,-0.09,0.09,0.47,-1.24,-1.24,-1.24
820,-1.25,-0.04,-1.23,-0.02,0.02,0.38,-1.23,-1.21,-1.20
828,-1.17,0.00,-1.14,0.04,-0.04,0.29,-1.21,-1.18,-1.17
837,-1.07,0.07,-1.04,0.10,-0.10,0.20,-1.17,-1.15,-1.14
845,-0.98,0.13,-0.95,0.16,-0.16,0.11,-1.14,-1.12,-1.11
853,-0.88,0.20,-0.86,0.22,-0.22,0.03,-1.10,-1.08,-1.08
862,-0.77,0.28,-0.77,0.28,-0.28,-0.06,-1.05,-1.05,-1.05
871,-0.66,0.36,-0.69,0.34,-0.34,-0.15,-0.99,-1.02,-1.02
879,-0.59,0.40,-0.60,0.39,-0.39,-0.22,-0.98,-0.99,-0.99
888,-0.51,0.45,-0.53,0.44,-0.44,-0.30,-0.94,-0.96,-0.96
897,-0.44,0.49,-0.45,0.48,-0.48,-0.38,-0.92,-0.93,-0.93
906,-0.37,0.54,-0.38,0.52,-0.52,-0.46,-0.89,-0.90,-0.91
915,-0.32,0.56,-0.32,0.55,-0.55,-0.53,-0.87,-0.87,-0.88
924,-0.27,0.58,-0.27,0.58,-0.58,-0.60,-0.85,-0.85,-0.85
933,-0.23,0.60,-0.22,0.60,-0.60,-0.67,-0.83,-0.82,-0.83
943,-0.18,0.62,-0.17,0.62,-0.62,-0.74,-0.80,-0.79,-0.80
952,-0.14,0.64,-0.14,0.63,-0.63,-0.80,-0.77,-0.77,-0.77
962,-0.11,0.64,-0.11,0.63,-0.63,-0.87,-0.74,-0.74,-0.75
971,-0.08,0.64,-0.08,0.64,-0.64,-0.93,-0.71,-0.72,-0.72
981,-0.04,0.66,-0.06,0.64,-0.64,-0.99,-0.67,-0.69,-0.69
991,-0.02,0.65,-0.04,0.63,-0.63,-1.04,-0.65,-0.67,-0.67
1001,0.00,0.64,-0.02,0.63,-0.63,-1.10,-0.63,-0.65,-0.64
1011,0.02,0.64,0.01,0.63,-0.63,-1.15,-0.61,-0.62,-0.61
1021,0.03,0.62,0.03,0.63,-0.63,-1.20,-0.60,-0.60,-0.59
1031,0.04,0.60,0.06,0.63,-0.63,-1.24,-0.59,-0.57,-0.56
1041,0.06,0.59,0.09,0.63,-0.63,-1.28,-0.57,-0.54,-0.53
1052,0.09,0.60,0.13,0.64,-0.64,-1.33,-0.55,-0.52,-0.50
1062,0.13,0.61,0.17,0.66,-0.66,-1.37,-0.52,-0.49,-0.48
1073,0.19,0.64,0.22,0.67,-0.67,-1.41,-0.48,-0.46,-0.45
1084,0.26,0.68,0.27,0.70,-0.70,-1.45,-0.44,-0.43,-0.42
1094,0.34,0.73,0.33,0.73,-0.73,-1.48,-0.38,-0.40,-0.39
1105,0.41,0.77,0.39,0.76,-0.76,-1.52,-0.35,-0.37,-0.36
1116,0.49,0.82,0.46,0.80,-0.80,-1.55,-0.31,-0.33,-0.33
1128,0.57,0.87,0.54,0.84,-0.84,-1.59,-0.27,-0.30,-0.30
1139,0.64,0.91,0.62,0.89,-0.89,-1.62,-0.25,-0.27,-0.26
1150,0.70,0.93,0.71,0.94,-0.94,-1.65,-0.24,-0.24,-0.23
1162,0.78,0.98,0.79,1.00,-1.00,-1.69,-0.22,-0.21,-0.20
1173,0.86,1.03,0.89,1.06,-1.06,-1.72,-0.20,-0.18,-0.17
1185,0.96,1.10,0.98,1.13,-1.13,-1.75,-0.17,-0.15,-0.14
1197,1.07,1.18,1.09,1.21,-1.21,-1.79,-0.14,-0.12,-0.10
1209,1.19,1.26,1.20,1.29,-1.29,-1.82,-0.10,-0.09,-0.07
1221,1.31,1.35,1.31,1.37,-1.37,-1.86,-0.06,-0.06,-0.04
1233,1.43,1.44,1.44,1.46,-1.46,-1.89,-0.03,-0.02,-0.01
1246,1.56,1.54,1.57,1.56,-1.56,-1.93,0.01,0.01,0.02
1258,1.68,1.63,1.70,1.65,-1.65,-1.97,0.03,0.05,0.06
1271,1.83,1.74,1.84,1.75,-1.75,-2.01,0.08,0.09,0.09
1283,1.97,1.85,1.98,1.84,-1.84,-2.05,0.13,0.13,0.13
1296,2.11,1.95,2.11,1.94,-1.94,-2.09,0.17,0.17,0.16
1309,2.25,2.06,2.24,2.03,-2.03,-2.14,0.22,0.21,0.20
1322,2.38,2.15,2.36,2.11,-2.11,-2.18,0.27,0.24,0.23
1335,2.51,2.24,2.48,2.20,-2.20,-2.23,0.32,0.28,0.27
1349,2.63,2.33,2.59,2.27,-2.27,-2.28,0.36,0.32,0.31
1362,2.72,2.38,2.70,2.34,-2.34,-2.33,0.38,0.35,0.34
1376,2.81,2.43,2.80,2.41,-2.41,-2.39,0.40,0.39,0.38
1390,2.90,2.48,2.89,2.47,-2.47,-2.44,0.43,0.42,0.42
1404,2.98,2.52,2.99,2.53,-2.53,-2.50,0.45,0.45,0.46
1418,3.07,2.57,3.08,2.60,-2.60,-2.56,0.48,0.48,0.50
1432,3.17,2.64,3.17,2.66,-2.66,-2.62,0.51,0.51,0.54
1446,3.26,2.69,3.27,2.73,-2.73,-2.69,0.53,0.54,0.57
1461,3.36,2.75,3.38,2.80,-2.80,-2.75,0.56,0.58,0.61
1475,3.47,2.82,3.50,2.88,-2.88,-2.82,0.59,0.61,0.65
1490,3.60,2.91,3.62,2.97,-2.97,-2.89,0.63,0.65,0.69
1505,3.73,3.00,3.76,3.07,-3.07,-2.96,0.66,0.69,0.73
1520,3.87,3.10,3.91,3.18,-3.18,-3.04,0.70,0.74,0.77
1535,4.04,3.23,4.07,3.29,-3.29,-3.11,0.75,0.78,0.81
1550,4.21,3.35,4.24,3.41,-3.41,-3.19,0.81,0.83,0.86
1566,4.40,3.50,4.41,3.53,-3.53,-3.27,0.87,0.88,0.90
1582,4.60,3.66,4.59,3.66,-3.66,-3.35,0.94,0.93,0.95
1597,4.78,3.79,4.77,3.79,-3.79,-3.43,1.00,0.98,0.99
1613,4.96,3.93,4.94,3.91,-3.91,-3.51,1.05,1.03,1.04
1629,5.13,4.05,5.12,4.04,-4.04,-3.60,1.09,1.08,1.08
1646,5.30,4.17,5.29,4.16,-4.16,-3.68,1.15,1.13,1.13
1662,5.45,4.28,5.45,4.27,-4.27,-3.77,1.18,1.18,1.17
1679,5.61,4.39,5.60,4.37,-4.37,-3.85,1.24,1.23,1.22
1696,5.75,4.48,5.74,4.46,-4.46,-3.93,1.29,1.28,1.27
1713,5.87,4.56,5.87,4.54,-4.54,-4.02,1.33,1.33,1.32
