frequency,raw,error,smoothed,error_smoothed,equalization,parametric_eq,equalized_raw,equalized_smoothed,target
20,2.05,0.30,2.32,0.57,-0.57,0.11,1.47,1.74,1.74
21,2.65,0.90,2.61,0.87,-0.87,0.12,1.78,1.74,1.74
22,3.08,1.34,2.83,1.09,-1.09,0.14,1.99,1.74,1.74
23,3.25,1.51,2.96,1.22,-1.22,0.15,2.03,1.74,1.74
24,3.24,1.50,3.01,1.27,-1.27,0.17,1.96,1.74,1.74
25,3.08,1.34,2.96,1.23,-1.23,0.19,1.85,1.73,1.73
26,2.85,1.12,2.84,1.11,-1.11,0.21,1.74,1.73,1.73
27,2.57,0.84,2.65,0.93,-0.93,0.23,1.64,1.73,1.73
28,2.28,0.55,2.42,0.70,-0.70,0.25,1.58,1.72,1.72
29,2.11,0.39,2.18,0.46,-0.46,0.27,1.65,1.72,1.72
30,1.89,0.17,1.94,0.22,-0.22,0.30,1.66,1.71,1.71
31,1.64,-0.07,1.71,0.00,-0.00,0.33,1.64,1.71,1.71
32,1.48,-0.22,1.51,-0.20,0.20,0.36,1.67,1.70,1.70
33,1.35,-0.35,1.33,-0.37,0.37,0.39,1.72,1.70,1.70
34,1.17,-0.52,1.17,-0.52,0.52,0.43,1.68,1.69,1.69
35,1.06,-0.62,1.04,-0.64,0.64,0.46,1.70,1.68,1.68
36,0.94,-0.74,0.92,-0.75,0.75,0.51,1.69,1.67,1.67
37,0.83,-0.84,0.82,-0.84,0.84,0.55,1.67,1.66,1.66
38,0.71,-0.95,0.73,-0.93,0.93,0.60,1.63,1.65,1.65
39,0.63,-1.02,0.65,-1.00,1.00,0.64,1.62,1.64,1.64
40,0.59,-1.05,0.58,-1.06,1.06,0.70,1.64,1.63,1.63
41,0.50,-1.13,0.51,-1.11,1.11,0.75,1.61,1.62,1.62
42,0.47,-1.14,0.46,-1.15,1.15,0.81,1.62,1.61,1.61
43,0.46,-1.14,0.41,-1.19,1.19,0.87,1.65,1.60,1.60
44,0.39,-1.20,0.36,-1.22,1.22,0.93,1.61,1.58,1.58
45,0.29,-1.28,0.32,-1.25,1.25,0.99,1.53,1.57,1.57
46,0.28,-1.28,0.29,-1.27,1.27,1.06,1.55,1.55,1.55
47,0.23,-1.31,0.25,-1.28,1.28,1.12,1.51,1.54,1.54
48,0.21,-1.31,0.23,-1.30,1.30,1.19,1.50,1.52,1.52
49,0.21,-1.30,0.20,-1.30,1.30,1.25,1.51,1.50,1.50
50,0.21,-1.28,0.17,-1.31,1.31,1.31,1.52,1.48,1.48
51,0.16,-1.31,0.15,-1.31,1.31,1.37,1.47,1.46,1.46
52,0.13,-1.32,0.12,-1.32,1.32,1.42,1.45,1.44,1.44
53,0.09,-1.33,0.09,-1.33,1.33,1.46,1.41,1.42,1.42
54,0.08,-1.32,0.06,-1.33,1.33,1.50,1.41,1.40,1.40
55,0.04,-1.34,0.03,-1.34,1.34,1.53,1.38,1.38,1.38
56,-0.02,-1.37,-0.00,-1.35,1.35,1.55,1.33,1.35,1.35
57,-0.02,-1.35,-0.04,-1.37,1.37,1.57,1.34,1.33,1.33
58,-0.09,-1.39,-0.08,-1.38,1.38,1.58,1.28,1.30,1.30
59,-0.12,-1.40,-0.11,-1.38,1.38,1.57,1.26,1.27,1.27
60,-0.12,-1.37,-0.14,-1.39,1.39,1.56,1.27,1.24,1.24
61,-0.12,-1.34,-0.18,-1.39,1.39,1.55,1.27,1.22,1.22
62,-0.20,-1.39,-0.20,-1.39,1.39,1.52,1.18,1.19,1.19
63,-0.27,-1.43,-0.22,-1.38,1.38,1.49,1.10,1.16,1.16
64,-0.28,-1.41,-0.23,-1.36,1.36,1.46,1.08,1.12,1.12
65,-0.25,-1.34,-0.24,-1.33,1.33,1.42,1.08,1.09,1.09
66,-0.24,-1.30,-0.24,-1.30,1.30,1.37,1.06,1.06,1.06
67,-0.20,-1.23,-0.24,-1.27,1.27,1.33,1.06,1.02,1.02
68,-0.20,-1.19,-0.24,-1.23,1.23,1.28,1.02,0.99,0.99
69,-0.23,-1.19,-0.23,-1.19,1.19,1.23,0.95,0.95,0.95
70,-0.26,-1.18,-0.23,-1.15,1.15,1.19,0.88,0.92,0.92
71,-0.22,-1.10,-0.22,-1.11,1.11,1.14,0.88,0.88,0.88
72,-0.19,-1.04,-0.23,-1.07,1.07,1.09,0.88,0.84,0.84
73,-0.23,-1.04,-0.23,-1.03,1.03,1.04,0.80,0.81,0.81
74,-0.22,-0.99,-0.23,-1.00,1.00,0.99,0.78,0.77,0.77
75,-0.24,-0.97,-0.24,-0.97,0.97,0.95,0.72,0.73,0.73
76,-0.22,-0.91,-0.24,-0.93,0.93,0.90,0.71,0.69,0.69
77,-0.26,-0.91,-0.24,-0.90,0.90,0.86,0.63,0.65,0.65
78,-0.27,-0.88,-0.25,-0.86,0.86,0.81,0.59,0.61,0.61
79,-0.27,-0.84,-0.25,-0.82,0.82,0.77,0.55,0.57,0.57
80,-0.23,-0.76,-0.25,-0.78,0.78,0.73,0.55,0.53,0.53
81,-0.22,-0.71,-0.25,-0.74,0.74,0.69,0.52,0.49,0.49
82,-0.22,-0.67,-0.25,-0.70,0.70,0.65,0.48,0.45,0.45
83,-0.24,-0.65,-0.25,-0.66,0.66,0.62,0.41,0.41,0.41
84,-0.27,-0.64,-0.25,-0.61,0.61,0.58,0.34,0.36,0.36
85,-0.28,-0.61,-0.24,-0.57,0.57,0.54,0.28,0.32,0.32
86,-0.23,-0.51,-0.24,-0.52,0.52,0.51,0.29,0.28,0.28
87,-0.24,-0.48,-0.23,-0.47,0.47,0.48,0.23,0.24,0.24
88,-0.24,-0.44,-0.23,-0.42,0.42,0.44,0.18,0.20,0.20
89,-0.21,-0.37,-0.22,-0.38,0.38,0.41,0.17,0.16,0.16
90,-0.16,-0.28,-0.22,-0.34,0.34,0.38,0.17,0.12,0.12
91,-0.20,-0.28,-0.22,-0.30,0.30,0.35,0.10,0.07,0.07
92,-0.24,-0.28,-0.23,-0.27,0.27,0.32,0.02,0.03,0.03
93,-0.26,-0.26,-0.24,-0.24,0.24,0.29,-0.03,-0.01,-0.01
94,-0.24,-0.19,-0.26,-0.21,0.21,0.26,-0.03,-0.05,-0.05
95,-0.26,-0.17,-0.27,-0.18,0.18,0.23,-0.08,-0.09,-0.09
96,-0.30,-0.17,-0.28,-0.15,0.15,0.20,-0.15,-0.13,-0.13
97,-0.33,-0.16,-0.29,-0.12,0.12,0.17,-0.21,-0.17,-0.17
98,-0.26,-0.05,-0.29,-0.08,0.08,0.15,-0.18,-0.21,-0.21
99,-0.27,-0.03,-0.29,-0.04,0.04,0.12,-0.23,-0.25,-0.25
100,-0.30,-0.02,-0.29,0.00,-0.00,0.09,-0.31,-0.29,-0.29
101,-0.30,0.02,-0.28,0.05,-0.05,0.06,-0.36,-0.33,-0.32
102,-0.27,0.09,-0.27,0.11,-0.11,0.03,-0.38,-0.38,-0.36
104,-0.23,0.20,-0.26,0.16,-0.16,-0.03,-0.39,-0.42,-0.44
105,-0.25,0.22,-0.25,0.22,-0.22,-0.07,-0.47,-0.46,-0.47
106,-0.23,0.28,-0.24,0.27,-0.27,-0.10,-0.50,-0.50,-0.51
107,-0.22,0.32,-0.23,0.31,-0.31,-0.13,-0.54,-0.54,-0.54
108,-0.21,0.37,-0.22,0.36,-0.36,-0.16,-0.57,-0.58,-0.58
109,-0.22,0.39,-0.22,0.40,-0.40,-0.20,-0.62,-0.61,-0.61
110,-0.21,0.43,-0.21,0.44,-0.44,-0.23,-0.65,-0.65,-0.65
111,-0.19,0.49,-0.21,0.47,-0.47,-0.27,-0.67,-0.68,-0.68
112,-0.19,0.52,-0.21,0.51,-0.51,-0.31,-0.70,-0.72,-0.71
113,-0.22,0.52,-0.20,0.55,-0.55,-0.34,-0.77,-0.75,-0.75
114,-0.23,0.54,-0.20,0.58,-0.58,-0.38,-0.82,-0.78,-0.78
115,-0.19,0.62,-0.20,0.62,-0.62,-0.42,-0.82,-0.82,-0.81
117,-0.19,0.68,-0.19,0.66,-0.66,-0.51,-0.86,-0.85,-0.87
118,-0.20,0.70,-0.19,0.70,-0.70,-0.55,-0.90,-0.89,-0.90
119,-0.15,0.77,-0.19,0.74,-0.74,-0.60,-0.89,-0.93,-0.93
120,-0.15,0.80,-0.19,0.77,-0.77,-0.64,-0.92,-0.96,-0.96
121,-0.19,0.79,-0.19,0.80,-0.80,-0.69,-0.99,-0.99,-0.98
123,-0.23,0.80,-0.20,0.83,-0.83,-0.78,-1.06,-1.03,-1.04
124,-0.23,0.83,-0.21,0.85,-0.85,-0.83,-1.09,-1.06,-1.06
125,-0.21,0.88,-0.21,0.88,-0.88,-0.87,-1.09,-1.09,-1.09
126,-0.20,0.91,-0.22,0.90,-0.90,-0.92,-1.10,-1.12,-1.11
128,-0.23,0.93,-0.23,0.92,-0.92,-1.00,-1.16,-1.15,-1.16
129,-0.24,0.94,-0.24,0.95,-0.95,-1.04,-1.19,-1.18,-1.19
130,-0.24,0.97,-0.24,0.97,-0.97,-1.08,-1.21,-1.21,-1.21
131,-0.23,1.00,-0.25,0.99,-0.99,-1.11,-1.22,-1.24,-1.23
133,-0.25,1.02,-0.26,1.01,-1.01,-1.17,-1.26,-1.27,-1.27
134,-0.29,1.00,-0.27,1.02,-1.02,-1.19,-1.32,-1.30,-1.30
135,-0.29,1.02,-0.28,1.04,-1.04,-1.20,-1.33,-1.32,-1.32
137,-0.29,1.06,-0.29,1.06,-1.06,-1.22,-1.35,-1.35,-1.36
138,-0.31,1.06,-0.31,1.07,-1.07,-1.23,-1.38,-1.38,-1.38
140,-0.30,1.11,-0.32,1.08,-1.08,-1.22,-1.39,-1.40,-1.41
141,-0.33,1.10,-0.34,1.09,-1.09,-1.21,-1.43,-1.43,-1.43
142,-0.35,1.10,-0.35,1.10,-1.10,-1.19,-1.46,-1.45,-1.45
144,-0.35,1.13,-0.37,1.11,-1.11,-1.16,-1.47,-1.48,-1.48
145,-0.39,1.11,-0.38,1.12,-1.12,-1.14,-1.51,-1.50,-1.50
147,-0.41,1.12,-0.40,1.13,-1.13,-1.09,-1.54,-1.53,-1.53
148,-0.43,1.11,-0.41,1.13,-1.13,-1.06,-1.57,-1.55,-1.55
150,-0.43,1.14,-0.43,1.14,-1.14,-1.01,-1.57,-1.57,-1.57
151,-0.45,1.14,-0.45,1.14,-1.14,-0.98,-1.60,-1.59,-1.59
153,-0.44,1.17,-0.47,1.14,-1.14,-0.93,-1.59,-1.61,-1.62
154,-0.47,1.16,-0.49,1.14,-1.14,-0.90,-1.61,-1.63,-1.63
156,-0.51,1.14,-0.52,1.13,-1.13,-0.85,-1.64,-1.65,-1.65
157,-0.55,1.11,-0.55,1.12,-1.12,-0.83,-1.67,-1.67,-1.67
159,-0.59,1.10,-0.58,1.10,-1.10,-0.79,-1.70,-1.69,-1.69
160,-0.63,1.07,-0.62,1.08,-1.08,-0.77,-1.72,-1.71,-1.70
162,-0.67,1.05,-0.66,1.06,-1.06,-0.73,-1.74,-1.72,-1.72
164,-0.71,1.03,-0.71,1.04,-1.04,-0.69,-1.75,-1.74,-1.75
165,-0.74,1.01,-0.75,1.01,-1.01,-0.68,-1.75,-1.76,-1.76
167,-0.78,0.99,-0.80,0.97,-0.97,-0.65,-1.76,-1.77,-1.78
169,-0.84,0.95,-0.85,0.94,-0.94,-0.62,-1.78,-1.79,-1.79
170,-0.88,0.92,-0.91,0.90,-0.90,-0.61,-1.78,-1.81,-1.80
172,-0.96,0.86,-0.96,0.86,-0.86,-0.59,-1.82,-1.82,-1.82
174,-1.06,0.77,-1.02,0.81,-0.81,-0.57,-1.88,-1.83,-1.84
175,-1.10,0.74,-1.08,0.77,-0.77,-0.56,-1.87,-1.85,-1.85
177,-1.14,0.72,-1.14,0.72,-0.72,-0.55,-1.86,-1.86,-1.86
179,-1.17,0.70,-1.20,0.67,-0.67,-0.53,-1.84,-1.87,-1.88
181,-1.25,0.64,-1.27,0.62,-0.62,-0.52,-1.87,-1.89,-1.89
183,-1.35,0.55,-1.34,0.56,-0.56,-0.51,-1.92,-1.90,-1.90
184,-1.40,0.51,-1.40,0.51,-0.51,-0.51,-1.91,-1.91,-1.91
186,-1.48,0.44,-1.48,0.45,-0.45,-0.50,-1.93,-1.92,-1.92
188,-1.54,0.39,-1.55,0.38,-0.38,-0.49,-1.93,-1.93,-1.93
190,-1.59,0.35,-1.63,0.32,-0.32,-0.49,-1.91,-1.95,-1.95
192,-1.73,0.22,-1.71,0.25,-0.25,-0.49,-1.98,-1.96,-1.96
194,-1.79,0.17,-1.79,0.18,-0.18,-0.48,-1.97,-1.97,-1.97
196,-1.86,0.11,-1.87,0.11,-0.11,-0.48,-1.97,-1.98,-1.98
198,-1.93,0.05,-1.95,0.04,-0.04,-0.48,-1.97,-1.99,-1.99
200,-2.02,-0.03,-2.02,-0.02,0.02,-0.48,-2.00,-2.00,-2.00
202,-2.06,-0.06,-2.09,-0.08,0.08,-0.48,-1.98,-2.01,-2.01
204,-2.17,-0.16,-2.15,-0.13,0.13,-0.48,-2.04,-2.01,-2.01
206,-2.22,-0.20,-2.20,-0.18,0.18,-0.49,-2.04,-2.02,-2.02
208,-2.25,-0.22,-2.24,-0.21,0.21,-0.49,-2.04,-2.03,-2.03
210,-2.27,-0.24,-2.27,-0.24,0.24,-0.49,-2.04,-2.04,-2.04
212,-2.28,-0.24,-2.29,-0.25,0.25,-0.50,-2.03,-2.04,-2.04
214,-2.30,-0.25,-2.31,-0.25,0.25,-0.50,-2.05,-2.05,-2.05
216,-2.31,-0.26,-2.31,-0.25,0.25,-0.51,-2.06,-2.06,-2.06
218,-2.33,-0.27,-2.30,-0.24,0.24,-0.51,-2.10,-2.06,-2.06
221,-2.29,-0.22,-2.29,-0.22,0.22,-0.52,-2.07,-2.07,-2.07
223,-2.25,-0.17,-2.27,-0.20,0.20,-0.53,-2.06,-2.08,-2.08
225,-2.22,-0.14,-2.25,-0.17,0.17,-0.53,-2.05,-2.08,-2.08
227,-2.22,-0.13,-2.23,-0.14,0.14,-0.54,-2.08,-2.09,-2.09
229,-2.20,-0.11,-2.20,-0.11,0.11,-0.55,-2.09,-2.10,-2.09
232,-2.19,-0.09,-2.18,-0.07,0.07,-0.56,-2.12,-2.10,-2.10
234,-2.15,-0.05,-2.14,-0.04,0.04,-0.57,-2.11,-2.11,-2.11
236,-2.10,0.01,-2.11,-0.00,0.00,-0.58,-2.10,-2.11,-2.11
239,-2.09,0.02,-2.08,0.04,-0.04,-0.59,-2.13,-2.12,-2.12
241,-2.05,0.07,-2.04,0.08,-0.08,-0.60,-2.13,-2.12,-2.12
244,-1.96,0.16,-2.00,0.12,-0.12,-0.61,-2.09,-2.13,-2.13
246,-1.96,0.17,-1.96,0.17,-0.17,-0.62,-2.13,-2.13,-2.13
248,-1.94,0.19,-1.92,0.21,-0.21,-0.63,-2.15,-2.13,-2.13
251,-1.86,0.28,-1.88,0.25,-0.25,-0.65,-2.12,-2.14,-2.14
253,-1.83,0.31,-1.84,0.30,-0.30,-0.66,-2.13,-2.14,-2.14
256,-1.82,0.32,-1.80,0.34,-0.34,-0.68,-2.17,-2.15,-2.15
259,-1.77,0.38,-1.76,0.39,-0.39,-0.69,-2.17,-2.15,-2.15
261,-1.68,0.47,-1.71,0.44,-0.44,-0.71,-2.12,-2.15,-2.15
264,-1.68,0.47,-1.67,0.49,-0.49,-0.72,-2.17,-2.16,-2.16
266,-1.65,0.51,-1.62,0.54,-0.54,-0.74,-2.20,-2.16,-2.16
269,-1.53,0.63,-1.57,0.60,-0.60,-0.76,-2.13,-2.16,-2.16
272,-1.51,0.65,-1.52,0.65,-0.65,-0.78,-2.16,-2.17,-2.17
274,-1.47,0.70,-1.47,0.70,-0.70,-0.79,-2.17,-2.17,-2.17
277,-1.41,0.76,-1.42,0.75,-0.75,-0.81,-2.16,-2.17,-2.17
280,-1.34,0.83,-1.37,0.80,-0.80,-0.83,-2.14,-2.18,-2.18
283,-1.32,0.85,-1.33,0.85,-0.85,-0.85,-2.17,-2.18,-2.18
286,-1.32,0.86,-1.28,0.90,-0.90,-0.87,-2.22,-2.18,-2.18
288,-1.24,0.94,-1.23,0.95,-0.95,-0.89,-2.20,-2.18,-2.18
291,-1.18,1.00,-1.18,1.00,-1.00,-0.91,-2.19,-2.19,-2.18
294,-1.12,1.06,-1.13,1.06,-1.06,-0.94,-2.18,-2.19,-2.19
297,-1.08,1.11,-1.08,1.11,-1.11,-0.96,-2.19,-2.19,-2.19
300,-1.04,1.15,-1.04,1.15,-1.15,-0.98,-2.20,-2.19,-2.19
303,-0.97,1.22,-1.00,1.20,-1.20,-1.01,-2.17,-2.19,-2.19
306,-0.96,1.23,-0.96,1.24,-1.24,-1.04,-2.20,-2.20,-2.20
309,-0.90,1.29,-0.92,1.27,-1.27,-1.06,-2.18,-2.20,-2.20
312,-0.90,1.30,-0.90,1.30,-1.30,-1.09,-2.21,-2.20,-2.20
316,-0.85,1.35,-0.87,1.33,-1.33,-1.12,-2.18,-2.20,-2.20
319,-0.83,1.37,-0.85,1.36,-1.36,-1.15,-2.19,-2.20,-2.20
322,-0.83,1.37,-0.82,1.38,-1.38,-1.18,-2.22,-2.20,-2.20
325,-0.83,1.37,-0.80,1.41,-1.41,-1.21,-2.24,-2.21,-2.21
328,-0.78,1.42,-0.77,1.44,-1.44,-1.24,-2.22,-2.21,-2.21
332,-0.73,1.48,-0.74,1.47,-1.47,-1.28,-2.21,-2.21,-2.21
335,-0.69,1.52,-0.70,1.51,-1.51,-1.31,-2.20,-2.21,-2.21
338,-0.65,1.56,-0.67,1.55,-1.55,-1.34,-2.20,-2.21,-2.21
342,-0.61,1.60,-0.63,1.59,-1.59,-1.39,-2.20,-2.21,-2.21
345,-0.61,1.60,-0.59,1.63,-1.63,-1.42,-2.24,-2.21,-2.21
349,-0.54,1.67,-0.55,1.67,-1.67,-1.46,-2.21,-2.22,-2.22
352,-0.47,1.74,-0.51,1.71,-1.71,-1.50,-2.18,-2.22,-2.22
356,-0.48,1.73,-0.46,1.76,-1.76,-1.54,-2.24,-2.22,-2.22
359,-0.44,1.78,-0.42,1.80,-1.80,-1.58,-2.25,-2.22,-2.22
363,-0.35,1.87,-0.37,1.85,-1.85,-1.63,-2.21,-2.22,-2.22
366,-0.31,1.91,-0.32,1.90,-1.90,-1.66,-2.22,-2.22,-2.22
370,-0.27,1.95,-0.26,1.96,-1.96,-1.71,-2.23,-2.22,-2.22
374,-0.21,2.01,-0.21,2.01,-2.01,-1.76,-2.23,-2.22,-2.22
377,-0.15,2.07,-0.16,2.07,-2.07,-1.80,-2.22,-2.23,-2.23
381,-0.12,2.10,-0.11,2.12,-2.12,-1.85,-2.25,-2.23,-2.23
385,-0.03,2.20,-0.05,2.17,-2.17,-1.90,-2.21,-2.23,-2.23
389,0.02,2.25,-0.01,2.22,-2.22,-1.96,-2.21,-2.23,-2.23
393,0.02,2.25,0.04,2.27,-2.27,-2.01,-2.26,-2.23,-2.23
397,0.10,2.33,0.08,2.32,-2.32,-2.06,-2.22,-2.23,-2.23
401,0.13,2.36,0.12,2.36,-2.36,-2.12,-2.23,-2.23,-2.23
405,0.17,2.40,0.16,2.40,-2.40,-2.18,-2.23,-2.24,-2.24
409,0.21,2.44,0.20,2.44,-2.44,-2.23,-2.23,-2.24,-2.24
413,0.24,2.47,0.24,2.48,-2.48,-2.29,-2.24,-2.24,-2.24
417,0.25,2.48,0.28,2.52,-2.52,-2.35,-2.27,-2.24,-2.24
421,0.33,2.56,0.32,2.56,-2.56,-2.40,-2.23,-2.24,-2.24
425,0.37,2.60,0.36,2.60,-2.60,-2.46,-2.23,-2.24,-2.24
430,0.39,2.62,0.40,2.64,-2.64,-2.53,-2.25,-2.24,-2.24
434,0.45,2.68,0.44,2.68,-2.68,-2.59,-2.23,-2.23,-2.23
438,0.50,2.73,0.49,2.72,-2.72,-2.65,-2.22,-2.23,-2.23
443,0.56,2.79,0.53,2.76,-2.76,-2.72,-2.20,-2.23,-2.23
447,0.57,2.79,0.57,2.80,-2.80,-2.77,-2.23,-2.23,-2.23
451,0.57,2.79,0.62,2.84,-2.84,-2.83,-2.27,-2.22,-2.22
456,0.69,2.90,0.66,2.88,-2.88,-2.90,-2.19,-2.22,-2.22
460,0.72,2.93,0.71,2.92,-2.92,-2.95,-2.20,-2.21,-2.21
465,0.77,2.97,0.76,2.96,-2.96,-3.02,-2.19,-2.20,-2.20
470,0.82,3.01,0.81,3.00,-3.00,-3.09,-2.19,-2.20,-2.20
474,0.84,3.02,0.86,3.04,-3.04,-3.14,-2.21,-2.19,-2.19
479,0.87,3.04,0.91,3.08,-3.08,-3.20,-2.22,-2.18,-2.18
484,0.99,3.15,0.96,3.12,-3.12,-3.26,-2.13,-2.17,-2.17
489,1.02,3.17,1.01,3.16,-3.16,-3.32,-2.14,-2.15,-2.15
494,1.07,3.21,1.06,3.20,-3.20,-3.37,-2.13,-2.14,-2.14
499,1.12,3.24,1.11,3.23,-3.23,-3.43,-2.12,-2.13,-2.13
504,1.13,3.24,1.15,3.27,-3.27,-3.47,-2.14,-2.11,-2.11
509,1.17,3.26,1.20,3.30,-3.30,-3.52,-2.13,-2.09,-2.09
514,1.28,3.35,1.25,3.33,-3.33,-3.56,-2.05,-2.08,-2.08
519,1.33,3.39,1.30,3.36,-3.36,-3.60,-2.03,-2.06,-2.06
524,1.35,3.39,1.34,3.38,-3.38,-3.63,-2.03,-2.04,-2.04
529,1.37,3.39,1.39,3.41,-3.41,-3.66,-2.04,-2.02,-2.02
535,1.42,3.41,1.43,3.43,-3.43,-3.69,-2.01,-2.00,-2.00
540,1.49,3.46,1.47,3.45,-3.45,-3.71,-1.96,-1.97,-1.97
545,1.51,3.46,1.51,3.47,-3.47,-3.73,-1.96,-1.95,-1.95
551,1.56,3.48,1.55,3.48,-3.48,-3.74,-1.92,-1.93,-1.93
556,1.59,3.49,1.59,3.50,-3.50,-3.75,-1.91,-1.90,-1.90
562,1.65,3.52,1.63,3.51,-3.51,-3.75,-1.86,-1.88,-1.88
568,1.67,3.52,1.67,3.52,-3.52,-3.75,-1.85,-1.85,-1.85
573,1.70,3.52,1.70,3.53,-3.53,-3.74,-1.83,-1.82,-1.82
579,1.74,3.53,1.74,3.53,-3.53,-3.72,-1.80,-1.79,-1.79
585,1.77,3.53,1.77,3.54,-3.54,-3.70,-1.77,-1.77,-1.77
591,1.80,3.53,1.80,3.54,-3.54,-3.68,-1.74,-1.74,-1.74
596,1.84,3.54,1.84,3.54,-3.54,-3.65,-1.71,-1.71,-1.71
602,1.87,3.54,1.87,3.54,-3.54,-3.62,-1.67,-1.68,-1.68
608,1.90,3.54,1.89,3.54,-3.54,-3.58,-1.64,-1.64,-1.64
615,1.93,3.54,1.92,3.53,-3.53,-3.53,-1.60,-1.61,-1.61
621,1.96,3.54,1.94,3.52,-3.52,-3.49,-1.56,-1.58,-1.58
627,1.95,3.49,1.96,3.50,-3.50,-3.44,-1.56,-1.55,-1.55
633,1.94,3.45,1.97,3.49,-3.49,-3.38,-1.55,-1.51,-1.51
639,1.98,3.46,1.99,3.47,-3.47,-3.33,-1.49,-1.48,-1.48
646,2.01,3.45,2.00,3.44,-3.44,-3.26,-1.44,-1.45,-1.45
652,2.05,3.46,2.01,3.42,-3.42,-3.20,-1.37,-1.41,-1.41
659,2.02,3.39,2.01,3.38,-3.38,-3.13,-1.37,-1.37,-1.37
665,1.97,3.31,2.01,3.35,-3.35,-3.07,-1.38,-1.34,-1.34
672,2.01,3.31,2.01,3.31,-3.31,-3.00,-1.30,-1.30,-1.30
679,2.03,3.29,2.00,3.26,-3.26,-2.92,-1.24,-1.27,-1.27
686,1.97,3.20,1.98,3.21,-3.21,-2.85,-1.25,-1.23,-1.23
692,1.98,3.17,1.97,3.16,-3.16,-2.79,-1.18,-1.19,-1.19
699,1.97,3.12,1.95,3.10,-3.10,-2.71,-1.14,-1.15,-1.15
706,1.92,3.03,1.93,3.04,-3.04,-2.64,-1.13,-1.12,-1.12
713,1.89,2.96,1.91,2.98,-2.98,-2.56,-1.10,-1.08,-1.08
721,1.91,2.95,1.88,2.92,-2.92,-2.48,-1.01,-1.04,-1.04
728,1.81,2.81,1.86,2.86,-2.86,-2.40,-1.05,-1.00,-1.00
735,1.85,2.81,1.83,2.80,-2.80,-2.33,-0.95,-0.96,-0.96
742,1.81,2.73,1.80,2.73,-2.73,-2.26,-0.92,-0.93,-0.93
750,1.77,2.66,1.78,2.66,-2.66,-2.18,-0.90,-0.89,-0.89
757,1.75,2.60,1.74,2.59,-2.59,-2.11,-0.85,-0.85,-0.85
765,1.72,2.53,1.70,2.52,-2.52,-2.03,-0.80,-0.81,-0.81
773,1.66,2.43,1.66,2.44,-2.44,-1.95,-0.78,-0.78,-0.78
780,1.62,2.36,1.61,2.35,-2.35,-1.88,-0.73,-0.74,-0.74
788,1.54,2.24,1.55,2.25,-2.25,-1.81,-0.72,-0.71,-0.71
796,1.50,2.17,1.48,2.15,-2.15,-1.74,-0.65,-0.67,-0.67
804,1.44,2.07,1.41,2.05,-2.05,-1.66,-0.61,-0.64,-0.64
812,1.33,1.93,1.33,1.94,-1.94,-1.59,-0.61,-0.60,-0.60
820,1.23,1.80,1.25,1.82,-1.82,-1.52,-0.60,-0.57,-0.57
828,1.18,1.71,1.17,1.71,-1.71,-1.46,-0.53,-0.54,-0.54
837,1.09,1.59,1.09,1.60,-1.60,-1.38,-0.51,-0.50,-0.50
845,1.01,1.48,1.01,1.49,-1.49,-1.32,-0.48,-0.47,-0.47
853,0.94,1.38,0.94,1.38,-1.38,-1.26,-0.44,-0.44,-0.44
862,0.86,1.27,0.86,1.27,-1.27,-1.19,-0.41,-0.41,-0.41
871,0.79,1.17,0.78,1.16,-1.16,-1.12,-0.38,-0.38,-0.38
879,0.70,1.05,0.70,1.06,-1.06,-1.06,-0.36,-0.35,-0.35
888,0.64,0.96,0.63,0.95,-0.95,-0.99,-0.32,-0.32,-0.32
897,0.57,0.86,0.55,0.85,-0.85,-0.93,-0.28,-0.30,-0.30
906,0.49,0.76,0.48,0.75,-0.75,-0.86,-0.26,-0.27,-0.27
915,0.41,0.65,0.41,0.65,-0.65,-0.80,-0.24,-0.24,-0.24
924,0.34,0.55,0.34,0.56,-0.56,-0.74,-0.22,-0.21,-0.21
933,0.30,0.48,0.28,0.47,-0.47,-0.68,-0.17,-0.19,-0.19
943,0.18,0.34,0.23,0.39,-0.39,-0.62,-0.21,-0.16,-0.16
952,0.18,0.31,0.18,0.32,-0.32,-0.56,-0.14,-0.13,-0.13
962,0.13,0.23,0.14,0.24,-0.24,-0.49,-0.12,-0.11,-0.11
971,0.09,0.17,0.10,0.18,-0.18,-0.44,-0.09,-0.08,-0.08
981,0.08,0.13,0.06,0.11,-0.11,-0.37,-0.03,-0.05,-0.05
991,0.03,0.05,0.01,0.04,-0.04,-0.31,-0.01,-0.03,-0.03
1001,-0.00,-0.00,-0.04,-0.04,0.04,-0.25,0.03,0.00,0.00
1011,-0.09,-0.12,-0.09,-0.12,0.12,-0.19,0.02,0.03,0.03
1021,-0.13,-0.19,-0.15,-0.20,0.20,-0.13,0.07,0.05,0.05
1031,-0.21,-0.30,-0.22,-0.30,0.30,-0.07,0.08,0.08,0.08
1041,-0.29,-0.40,-0.28,-0.39,0.39,-0.01,0.10,0.11,0.11
1052,-0.36,-0.50,-0.35,-0.49,0.49,0.06,0.13,0.14,0.14
1062,-0.42,-0.59,-0.42,-0.59,0.59,0.11,0.17,0.17,0.17
1073,-0.52,-0.72,-0.49,-0.69,0.69,0.18,0.17,0.19,0.19
1084,-0.57,-0.80,-0.56,-0.78,0.78,0.24,0.21,0.22,0.22
1094,-0.60,-0.86,-0.63,-0.88,0.88,0.30,0.28,0.25,0.25
1105,-0.67,-0.96,-0.69,-0.97,0.97,0.37,0.30,0.28,0.28
1116,-0.75,-1.07,-0.75,-1.06,1.06,0.44,0.31,0.31,0.31
1128,-0.81,-1.16,-0.81,-1.15,1.15,0.51,0.34,0.34,0.34
1139,-0.84,-1.22,-0.86,-1.24,1.24,0.57,0.39,0.37,0.37
1150,-0.92,-1.33,-0.91,-1.32,1.32,0.64,0.40,0.40,0.40
1162,-0.95,-1.39,-0.96,-1.40,1.40,0.72,0.44,0.44,0.44
1173,-1.04,-1.51,-1.00,-1.47,1.47,0.78,0.43,0.47,0.47
1185,-1.04,-1.54,-1.04,-1.54,1.54,0.86,0.49,0.50,0.50
1197,-1.07,-1.61,-1.07,-1.60,1.60,0.94,0.53,0.53,0.53
1209,-1.08,-1.65,-1.09,-1.66,1.66,1.02,0.57,0.56,0.56
1221,-1.11,-1.71,-1.12,-1.71,1.71,1.10,0.60,0.60,0.60
1233,-1.12,-1.75,-1.14,-1.77,1.77,1.18,0.64,0.63,0.63
1246,-1.16,-1.83,-1.16,-1.82,1.82,1.26,0.66,0.66,0.66
1258,-1.17,-1.87,-1.18,-1.88,1.88,1.35,0.70,0.70,0.70
1271,-1.19,-1.93,-1.20,-1.93,1.93,1.44,0.74,0.73,0.73
1283,-1.21,-1.98,-1.22,-1.99,1.99,1.53,0.78,0.77,0.77
1296,-1.24,-2.05,-1.25,-2.05,2.05,1.63,0.81,0.80,0.80
1309,-1.29,-2.13,-1.27,-2.11,2.11,1.72,0.81,0.84,0.84
1322,-1.27,-2.15,-1.29,-2.17,2.17,1.83,0.89,0.87,0.87
1335,-1.34,-2.25,-1.31,-2.22,2.22,1.93,0.88,0.91,0.91
1349,-1.33,-2.28,-1.34,-2.28,2.28,2.04,0.95,0.95,0.95
1362,-1.37,-2.36,-1.36,-2.34,2.34,2.15,0.97,0.98,0.98
1376,-1.38,-2.40,-1.38,-2.40,2.40,2.27,1.02,1.02,1.02
1390,-1.42,-2.48,-1.41,-2.46,2.46,2.40,1.04,1.06,1.06
1404,-1.44,-2.54,-1.45,-2.54,2.54,2.52,1.10,1.10,1.10
1418,-1.49,-2.63,-1.50,-2.63,2.63,2.65,1.14,1.13,1.13
1432,-1.55,-2.73,-1.57,-2.74,2.74,2.79,1.19,1.17,1.17
1446,-1.57,-2.79,-1.65,-2.86,2.86,2.92,1.29,1.21,1.21
1461,-1.65,-2.90,-1.75,-3.00,3.00,3.08,1.35,1.25,1.25
1475,-1.75,-3.04,-1.85,-3.14,3.14,3.22,1.39,1.29,1.29
1490,-1.93,-3.27,-1.94,-3.28,3.28,3.38,1.34,1.33,1.33
1505,-2.12,-3.50,-2.02,-3.39,3.39,3.54,1.27,1.37,1.37
1520,-2.24,-3.66,-2.07,-3.48,3.48,3.70,1.24,1.41,1.41
1535,-2.28,-3.74,-2.09,-3.55,3.55,3.87,1.26,1.46,1.46
1550,-2.24,-3.74,-2.09,-3.59,3.59,4.04,1.34,1.50,1.50
1566,-2.08,-3.62,-2.07,-3.61,3.61,4.22,1.53,1.54,1.54
1582,-1.97,-3.56,-2.06,-3.65,3.65,4.40,1.67,1.58,1.58
1597,-1.94,-3.57,-2.08,-3.71,3.71,4.58,1.76,1.63,1.63
1613,-1.98,-3.65,-2.14,-3.81,3.81,4.76,1.82,1.67,1.67
1629,-2.17,-3.89,-2.25,-3.97,3.97,4.94,1.79,1.71,1.71
1646,-2.41,-4.17,-2.43,-4.19,4.19,5.13,1.78,1.76,1.76
1662,-2.68,-4.49,-2.68,-4.48,4.48,5.31,1.80,1.80,1.80
1679,-3.03,-4.88,-2.99,-4.84,4.84,5.49,1.80,1.85,1.85
1696,-3.43,-5.33,-3.36,-5.25,5.16,5.66,1.72,1.80,1.90
1713,-3.85,-5.80,-3.79,-5.73,5.43,5.83,1.58,1.64,1.94
1730,-4.25,-6.24,-4.27,-6.26,5.66,5.98,1.41,1.39,1.99
