frequency,raw,smoothed,error,error_smoothed,equalization,parametric_eq,fixed_band_eq,equalized_raw,equalized_smoothed,target
20.00,11.66,11.66,3.96,3.96,-3.96,-2.88,-1.57,7.70,7.70,7.71
20.20,11.66,11.66,3.96,3.95,-3.95,-2.88,-1.61,7.71,7.71,7.71
20.40,11.65,11.65,3.95,3.95,-3.94,-2.88,-1.66,7.71,7.71,7.71
20.61,11.64,11.64,3.94,3.94,-3.94,-2.88,-1.71,7.71,7.71,7.70
20.81,11.63,11.63,3.93,3.93,-3.93,-2.88,-1.76,7.70,7.70,7.70
21.02,11.62,11.62,3.92,3.92,-3.92,-2.88,-1.81,7.70,7.70,7.70
21.23,11.61,11.61,3.91,3.91,-3.91,-2.88,-1.87,7.70,7.70,7.70
21.44,11.60,11.60,3.90,3.90,-3.90,-2.88,-1.92,7.70,7.70,7.70
21.66,11.59,11.59,3.89,3.89,-3.89,-2.88,-1.98,7.70,7.70,7.70
21.87,11.58,11.58,3.88,3.88,-3.88,-2.88,-2.04,7.70,7.70,7.70
22.09,11.57,11.57,3.87,3.87,-3.87,-2.88,-2.10,7.70,7.70,7.70
22.31,11.56,11.56,3.86,3.86,-3.86,-2.87,-2.16,7.70,7.70,7.70
22.54,11.55,11.55,3.85,3.86,-3.85,-2.87,-2.22,7.70,7.70,7.70
22.76,11.54,11.54,3.85,3.85,-3.84,-2.87,-2.29,7.70,7.70,7.70
22.99,11.53,11.53,3.84,3.83,-3.83,-2.87,-2.35,7.70,7.70,7.70
23.22,11.51,11.52,3.82,3.82,-3.82,-2.87,-2.42,7.69,7.70,7.69
23.45,11.50,11.50,3.81,3.81,-3.81,-2.87,-2.49,7.69,7.69,7.69
23.69,11.49,11.49,3.80,3.80,-3.80,-2.87,-2.56,7.70,7.69,7.69
23.92,11.47,11.47,3.78,3.78,-3.79,-2.87,-2.64,7.69,7.69,7.69
24.16,11.46,11.46,3.77,3.77,-3.78,-2.87,-2.71,7.68,7.68,7.69
24.40,11.45,11.45,3.76,3.76,-3.77,-2.86,-2.78,7.68,7.68,7.69
24.65,11.45,11.45,3.76,3.76,-3.76,-2.86,-2.86,7.69,7.69,7.69
24.89,11.44,11.45,3.76,3.76,-3.76,-2.86,-2.94,7.69,7.69,7.69
25.14,11.44,11.44,3.76,3.75,-3.75,-2.86,-3.01,7.69,7.69,7.69
25.39,11.43,11.43,3.75,3.75,-3.74,-2.86,-3.09,7.69,7.69,7.68
25.65,11.41,11.42,3.73,3.73,-3.73,-2.86,-3.17,7.69,7.69,7.68
25.91,11.40,11.40,3.72,3.72,-3.72,-2.86,-3.24,7.69,7.68,7.68
26.16,11.38,11.38,3.70,3.70,-3.71,-2.85,-3.32,7.67,7.67,7.68
26.43,11.36,11.37,3.69,3.69,-3.70,-2.85,-3.40,7.66,7.66,7.68
26.69,11.35,11.35,3.68,3.68,-3.70,-2.85,-3.47,7.65,7.66,7.68
26.96,11.35,11.35,3.68,3.68,-3.70,-2.85,-3.55,7.66,7.66,7.67
27.23,11.35,11.36,3.68,3.68,-3.69,-2.85,-3.62,7.66,7.67,7.67
27.50,11.36,11.36,3.69,3.69,-3.68,-2.85,-3.69,7.68,7.68,7.67
27.77,11.36,11.36,3.69,3.69,-3.67,-2.84,-3.76,7.70,7.69,7.67
28.05,11.34,11.34,3.68,3.67,-3.64,-2.84,-3.82,7.70,7.70,7.67
28.33,11.30,11.30,3.64,3.64,-3.61,-2.84,-3.88,7.70,7.70,7.66
28.62,11.25,11.25,3.59,3.59,-3.57,-2.84,-3.94,7.68,7.68,7.66
28.90,11.18,11.18,3.52,3.52,-3.53,-2.84,-3.99,7.65,7.65,7.66
29.19,11.12,11.12,3.46,3.47,-3.50,-2.83,-4.04,7.63,7.63,7.66
29.48,11.07,11.08,3.42,3.42,-3.47,-2.83,-4.08,7.60,7.61,7.66
29.78,11.06,11.06,3.41,3.41,-3.45,-2.83,-4.12,7.61,7.61,7.65
30.08,11.06,11.07,3.41,3.42,-3.44,-2.83,-4.15,7.63,7.63,7.65
30.38,11.08,11.08,3.43,3.43,-3.43,-2.83,-4.18,7.65,7.65,7.65
30.68,11.10,11.10,3.46,3.45,-3.43,-2.82,-4.20,7.67,7.67,7.64
30.99,11.10,11.10,3.46,3.46,-3.43,-2.82,-4.21,7.68,7.68,7.64
31.30,11.09,11.09,3.45,3.45,-3.42,-2.82,-4.22,7.67,7.67,7.64
31.61,11.05,11.05,3.42,3.42,-3.41,-2.81,-4.22,7.65,7.65,7.64
31.93,11.01,11.01,3.38,3.38,-3.39,-2.81,-4.21,7.63,7.63,7.63
32.24,10.97,10.97,3.34,3.35,-3.36,-2.81,-4.20,7.61,7.61,7.63
32.57,10.94,10.94,3.32,3.32,-3.34,-2.80,-4.18,7.61,7.61,7.63
32.89,10.92,10.92,3.30,3.30,-3.31,-2.80,-4.16,7.61,7.61,7.62
33.22,10.90,10.90,3.28,3.28,-3.28,-2.80,-4.13,7.62,7.62,7.62
33.55,10.88,10.88,3.27,3.26,-3.26,-2.79,-4.09,7.62,7.62,7.61
33.89,10.85,10.86,3.24,3.25,-3.25,-2.79,-4.05,7.61,7.61,7.61
34.23,10.83,10.83,3.23,3.23,-3.23,-2.79,-4.01,7.60,7.60,7.61
34.57,10.81,10.81,3.21,3.21,-3.21,-2.78,-3.96,7.60,7.60,7.60
34.92,10.79,10.79,3.20,3.20,-3.19,-2.78,-3.91,7.60,7.60,7.60
35.27,10.77,10.77,3.18,3.18,-3.17,-2.78,-3.85,7.60,7.60,7.59
35.62,10.74,10.74,3.16,3.16,-3.15,-2.77,-3.79,7.60,7.60,7.59
35.97,10.71,10.71,3.13,3.13,-3.12,-2.77,-3.73,7.59,7.59,7.58
36.33,10.67,10.67,3.10,3.10,-3.10,-2.76,-3.67,7.57,7.57,7.58
36.70,10.63,10.63,3.06,3.06,-3.07,-2.76,-3.60,7.56,7.56,7.57
37.06,10.60,10.60,3.04,3.04,-3.05,-2.75,-3.54,7.56,7.56,7.57
37.43,10.57,10.57,3.01,3.01,-3.02,-2.75,-3.47,7.55,7.55,7.56
37.81,10.55,10.55,3.00,3.00,-3.00,-2.74,-3.40,7.56,7.55,7.55
38.19,10.52,10.52,2.98,2.98,-2.97,-2.73,-3.34,7.55,7.55,7.55
38.57,10.49,10.49,2.95,2.95,-2.95,-2.73,-3.27,7.55,7.55,7.54
38.95,10.46,10.46,2.93,2.92,-2.92,-2.72,-3.20,7.54,7.54,7.53
39.34,10.42,10.42,2.90,2.90,-2.90,-2.72,-3.14,7.53,7.53,7.53
39.74,10.38,10.39,2.86,2.87,-2.87,-2.71,-3.07,7.51,7.52,7.52
40.14,10.35,10.35,2.84,2.84,-2.84,-2.70,-3.01,7.51,7.51,7.51
40.54,10.31,10.32,2.81,2.81,-2.81,-2.70,-2.95,7.50,7.50,7.50
40.94,10.28,10.28,2.79,2.78,-2.78,-2.69,-2.89,7.50,7.50,7.50
41.35,10.24,10.24,2.75,2.75,-2.75,-2.68,-2.83,7.49,7.49,7.49
41.76,10.20,10.21,2.72,2.73,-2.73,-2.67,-2.77,7.47,7.48,7.48
42.18,10.17,10.17,2.70,2.70,-2.70,-2.66,-2.71,7.47,7.47,7.47
42.60,10.13,10.14,2.67,2.68,-2.68,-2.66,-2.66,7.46,7.46,7.46
43.03,10.10,10.10,2.65,2.65,-2.65,-2.65,-2.61,7.45,7.45,7.45
43.46,10.07,10.07,2.63,2.63,-2.63,-2.64,-2.56,7.44,7.44,7.44
43.90,10.03,10.04,2.60,2.61,-2.61,-2.63,-2.51,7.43,7.43,7.43
44.33,10.00,10.00,2.58,2.58,-2.59,-2.62,-2.46,7.42,7.42,7.42
44.78,9.97,9.97,2.56,2.56,-2.57,-2.61,-2.42,7.41,7.41,7.41
45.23,9.94,9.94,2.55,2.55,-2.55,-2.59,-2.37,7.40,7.40,7.40
45.68,9.91,9.91,2.53,2.53,-2.53,-2.58,-2.33,7.39,7.38,7.38
46.13,9.87,9.88,2.50,2.50,-2.50,-2.57,-2.29,7.37,7.37,7.37
46.60,9.84,9.84,2.48,2.48,-2.48,-2.56,-2.26,7.37,7.36,7.36
47.06,9.80,9.80,2.46,2.46,-2.45,-2.55,-2.22,7.35,7.35,7.35
47.53,9.76,9.76,2.43,2.43,-2.42,-2.53,-2.19,7.34,7.34,7.33
48.01,9.71,9.71,2.39,2.40,-2.39,-2.52,-2.15,7.32,7.32,7.32
48.49,9.66,9.66,2.36,2.36,-2.36,-2.50,-2.12,7.30,7.30,7.30
48.97,9.61,9.61,2.32,2.32,-2.33,-2.49,-2.09,7.28,7.28,7.29
49.46,9.56,9.57,2.29,2.30,-2.30,-2.47,-2.07,7.26,7.27,7.27
49.96,9.53,9.53,2.28,2.27,-2.28,-2.46,-2.04,7.26,7.25,7.26
50.46,9.49,9.49,2.25,2.25,-2.25,-2.44,-2.02,7.24,7.24,7.24
50.96,9.45,9.45,2.23,2.23,-2.23,-2.42,-2.00,7.22,7.22,7.22
51.47,9.40,9.41,2.20,2.20,-2.21,-2.40,-1.97,7.20,7.20,7.20
51.99,9.36,9.37,2.18,2.18,-2.19,-2.38,-1.95,7.18,7.18,7.18
52.51,9.33,9.33,2.17,2.17,-2.17,-2.36,-1.94,7.17,7.17,7.16
53.03,9.30,9.30,2.16,2.15,-2.14,-2.34,-1.92,7.16,7.15,7.14
53.56,9.25,9.25,2.13,2.13,-2.12,-2.32,-1.90,7.13,7.13,7.12
54.10,9.20,9.20,2.10,2.10,-2.10,-2.30,-1.89,7.11,7.10,7.10
54.64,9.14,9.15,2.06,2.07,-2.07,-2.28,-1.87,7.07,7.08,7.08
55.18,9.10,9.10,2.04,2.05,-2.04,-2.25,-1.86,7.06,7.06,7.06
55.74,9.06,9.05,2.03,2.02,-2.01,-2.23,-1.84,7.05,7.04,7.03
56.29,9.00,9.00,1.99,1.99,-1.99,-2.20,-1.83,7.02,7.01,7.01
56.86,8.93,8.94,1.95,1.95,-1.96,-2.18,-1.82,6.97,6.98,6.99
57.42,8.88,8.88,1.92,1.92,-1.93,-2.15,-1.80,6.95,6.95,6.96
58.00,8.83,8.84,1.90,1.90,-1.91,-2.12,-1.79,6.92,6.93,6.93
58.58,8.79,8.79,1.89,1.88,-1.88,-2.09,-1.78,6.91,6.91,6.91
59.16,8.75,8.75,1.87,1.87,-1.86,-2.06,-1.77,6.89,6.88,6.88
59.76,8.69,8.70,1.84,1.85,-1.84,-2.03,-1.76,6.85,6.86,6.85
60.35,8.64,8.64,1.82,1.82,-1.82,-2.00,-1.75,6.82,6.82,6.82
60.96,8.58,8.59,1.79,1.80,-1.80,-1.97,-1.74,6.79,6.79,6.79
61.57,8.53,8.53,1.77,1.77,-1.78,-1.94,-1.72,6.76,6.76,6.76
62.18,8.48,8.48,1.76,1.75,-1.75,-1.91,-1.71,6.73,6.72,6.73
62.80,8.42,8.42,1.73,1.73,-1.73,-1.88,-1.70,6.69,6.69,6.69
63.43,8.37,8.37,1.71,1.71,-1.71,-1.85,-1.69,6.66,6.66,6.66
64.07,8.31,8.32,1.69,1.69,-1.69,-1.82,-1.68,6.62,6.62,6.62
64.71,8.26,8.26,1.68,1.68,-1.68,-1.79,-1.66,6.59,6.59,6.59
65.35,8.21,8.21,1.66,1.66,-1.66,-1.76,-1.65,6.55,6.55,6.55
66.01,8.15,8.16,1.64,1.64,-1.64,-1.73,-1.64,6.51,6.51,6.51
66.67,8.10,8.10,1.63,1.63,-1.63,-1.70,-1.63,6.48,6.47,6.47
67.33,8.04,8.04,1.61,1.61,-1.61,-1.67,-1.61,6.43,6.43,6.43
68.01,7.98,7.99,1.59,1.59,-1.60,-1.64,-1.60,6.38,6.39,6.39
68.69,7.93,7.93,1.58,1.58,-1.59,-1.62,-1.59,6.35,6.35,6.35
69.37,7.88,7.88,1.58,1.58,-1.57,-1.60,-1.58,6.31,6.31,6.31
70.07,7.83,7.83,1.57,1.57,-1.56,-1.58,-1.57,6.27,6.27,6.26
70.77,7.77,7.77,1.56,1.55,-1.55,-1.56,-1.55,6.22,6.22,6.22
71.48,7.70,7.71,1.53,1.54,-1.54,-1.54,-1.54,6.17,6.17,6.17
72.19,7.64,7.65,1.52,1.52,-1.53,-1.52,-1.53,6.12,6.12,6.12
72.91,7.59,7.59,1.52,1.51,-1.52,-1.51,-1.52,6.08,6.07,6.08
73.64,7.53,7.53,1.51,1.50,-1.51,-1.50,-1.51,6.03,6.03,6.03
74.38,7.47,7.47,1.50,1.50,-1.50,-1.49,-1.50,5.98,5.98,5.98
75.12,7.41,7.42,1.49,1.49,-1.49,-1.48,-1.49,5.92,5.93,5.92
75.87,7.36,7.36,1.49,1.49,-1.49,-1.48,-1.48,5.88,5.87,5.87
76.63,7.30,7.30,1.48,1.48,-1.48,-1.47,-1.48,5.82,5.82,5.82
77.40,7.24,7.25,1.48,1.48,-1.48,-1.47,-1.47,5.76,5.76,5.76
78.17,7.19,7.19,1.48,1.48,-1.48,-1.47,-1.46,5.71,5.71,5.71
78.95,7.13,7.13,1.48,1.48,-1.48,-1.47,-1.46,5.65,5.65,5.65
79.74,7.08,7.08,1.49,1.48,-1.48,-1.47,-1.45,5.60,5.60,5.60
80.54,7.02,7.02,1.48,1.49,-1.49,-1.48,-1.45,5.54,5.54,5.54
81.35,6.97,6.97,1.49,1.49,-1.49,-1.48,-1.45,5.48,5.48,5.48
82.16,6.91,6.91,1.49,1.49,-1.49,-1.49,-1.45,5.42,5.42,5.42
82.98,6.85,6.86,1.49,1.50,-1.50,-1.49,-1.45,5.35,5.36,5.36
83.81,6.80,6.80,1.51,1.50,-1.50,-1.50,-1.45,5.30,5.30,5.30
84.65,6.74,6.74,1.51,1.51,-1.51,-1.50,-1.45,5.24,5.24,5.23
85.50,6.68,6.68,1.51,1.51,-1.51,-1.51,-1.45,5.17,5.17,5.17
86.35,6.62,6.62,1.52,1.51,-1.52,-1.52,-1.46,5.11,5.10,5.10
87.22,6.55,6.56,1.51,1.52,-1.52,-1.52,-1.46,5.03,5.04,5.04
88.09,6.49,6.50,1.52,1.52,-1.53,-1.53,-1.47,4.97,4.97,4.97
88.97,6.44,6.44,1.54,1.53,-1.53,-1.54,-1.48,4.91,4.91,4.91
89.86,6.38,6.38,1.54,1.54,-1.54,-1.54,-1.49,4.85,4.84,4.84
90.76,6.31,6.32,1.54,1.54,-1.54,-1.55,-1.50,4.77,4.77,4.77
91.66,6.25,6.25,1.55,1.55,-1.55,-1.56,-1.51,4.70,4.70,4.70
92.58,6.18,6.19,1.55,1.55,-1.55,-1.56,-1.52,4.63,4.63,4.63
93.51,6.12,6.12,1.56,1.56,-1.56,-1.57,-1.53,4.56,4.56,4.56
94.44,6.06,6.06,1.57,1.56,-1.57,-1.57,-1.55,4.50,4.49,4.49
95.39,5.99,6.00,1.57,1.57,-1.57,-1.58,-1.56,4.42,4.42,4.42
96.34,5.93,5.93,1.58,1.58,-1.58,-1.59,-1.58,4.35,4.35,4.35
97.30,5.87,5.87,1.59,1.59,-1.59,-1.59,-1.60,4.29,4.28,4.28
98.28,5.80,5.80,1.59,1.59,-1.59,-1.60,-1.61,4.21,4.21,4.21
99.26,5.73,5.74,1.60,1.60,-1.60,-1.60,-1.63,4.13,4.14,4.14
100.25,5.67,5.67,1.61,1.61,-1.61,-1.61,-1.65,4.06,4.06,4.06
101.25,5.61,5.61,1.62,1.62,-1.62,-1.62,-1.67,3.99,3.99,3.99
102.27,5.54,5.55,1.62,1.63,-1.63,-1.63,-1.69,3.92,3.92,3.92
103.29,5.48,5.48,1.64,1.64,-1.64,-1.63,-1.71,3.85,3.85,3.85
104.32,5.42,5.42,1.65,1.65,-1.65,-1.64,-1.73,3.78,3.77,3.77
105.37,5.35,5.36,1.65,1.66,-1.66,-1.65,-1.75,3.70,3.70,3.70
106.42,5.29,5.29,1.67,1.67,-1.67,-1.66,-1.77,3.62,3.62,3.63
107.48,5.23,5.23,1.68,1.68,-1.68,-1.67,-1.79,3.55,3.55,3.55
108.56,5.17,5.17,1.69,1.69,-1.69,-1.69,-1.81,3.48,3.48,3.48
109.64,5.11,5.11,1.70,1.70,-1.70,-1.70,-1.83,3.41,3.41,3.41
110.74,5.05,5.05,1.72,1.71,-1.72,-1.71,-1.85,3.34,3.33,3.33
111.85,4.98,4.99,1.72,1.73,-1.73,-1.72,-1.86,3.25,3.26,3.26
112.97,4.93,4.93,1.74,1.74,-1.74,-1.74,-1.88,3.19,3.19,3.19
114.10,4.87,4.87,1.75,1.75,-1.75,-1.75,-1.90,3.12,3.12,3.12
115.24,4.81,4.81,1.76,1.77,-1.76,-1.76,-1.91,3.05,3.05,3.05
116.39,4.75,4.75,1.78,1.77,-1.77,-1.78,-1.92,2.98,2.98,2.98
117.55,4.68,4.69,1.78,1.78,-1.78,-1.79,-1.93,2.90,2.91,2.91
118.73,4.62,4.62,1.79,1.78,-1.79,-1.80,-1.94,2.84,2.83,2.84
119.92,4.55,4.56,1.79,1.79,-1.79,-1.81,-1.95,2.76,2.76,2.77
121.12,4.49,4.50,1.79,1.80,-1.80,-1.82,-1.96,2.69,2.70,2.70
122.33,4.44,4.44,1.81,1.81,-1.80,-1.82,-1.96,2.64,2.63,2.63
123.55,4.37,4.37,1.81,1.81,-1.81,-1.82,-1.96,2.56,2.57,2.56
124.79,4.31,4.31,1.82,1.82,-1.81,-1.82,-1.96,2.50,2.50,2.50
126.03,4.24,4.24,1.81,1.81,-1.82,-1.82,-1.96,2.43,2.43,2.43
127.29,4.18,4.18,1.82,1.82,-1.82,-1.81,-1.95,2.37,2.36,2.36
128.57,4.11,4.12,1.81,1.82,-1.82,-1.80,-1.94,2.30,2.30,2.30
129.85,4.05,4.05,1.82,1.81,-1.81,-1.79,-1.93,2.24,2.24,2.24
131.15,3.98,3.98,1.81,1.81,-1.81,-1.78,-1.92,2.17,2.17,2.17
132.46,3.91,3.92,1.80,1.81,-1.81,-1.77,-1.91,2.11,2.11,2.11
133.79,3.85,3.85,1.80,1.80,-1.80,-1.76,-1.89,2.05,2.05,2.05
135.12,3.78,3.78,1.79,1.79,-1.79,-1.74,-1.87,1.99,1.99,1.99
136.48,3.71,3.72,1.78,1.79,-1.79,-1.73,-1.85,1.93,1.93,1.93
137.84,3.65,3.65,1.78,1.78,-1.78,-1.72,-1.83,1.88,1.87,1.87
139.22,3.58,3.58,1.77,1.77,-1.77,-1.71,-1.81,1.81,1.81,1.81
140.61,3.51,3.52,1.76,1.76,-1.76,-1.70,-1.79,1.75,1.76,1.76
142.02,3.45,3.45,1.75,1.75,-1.75,-1.70,-1.77,1.70,1.70,1.70
143.44,3.38,3.38,1.74,1.74,-1.74,-1.69,-1.74,1.64,1.65,1.65
144.87,3.32,3.32,1.73,1.73,-1.73,-1.69,-1.72,1.59,1.59,1.59
146.32,3.26,3.26,1.72,1.72,-1.72,-1.69,-1.69,1.54,1.54,1.54
147.78,3.20,3.21,1.71,1.72,-1.72,-1.69,-1.67,1.49,1.49,1.49
149.26,3.15,3.15,1.71,1.71,-1.72,-1.69,-1.64,1.44,1.43,1.44
150.75,3.10,3.10,1.71,1.71,-1.72,-1.70,-1.61,1.38,1.38,1.39
152.26,3.05,3.06,1.71,1.72,-1.72,-1.71,-1.59,1.33,1.33,1.34
153.78,3.02,3.02,1.73,1.73,-1.73,-1.72,-1.56,1.29,1.29,1.29
155.32,2.99,2.99,1.75,1.75,-1.75,-1.73,-1.54,1.25,1.25,1.25
156.88,2.96,2.96,1.76,1.76,-1.76,-1.74,-1.51,1.20,1.20,1.20
158.44,2.93,2.93,1.78,1.77,-1.77,-1.75,-1.49,1.16,1.16,1.16
160.03,2.89,2.90,1.78,1.79,-1.78,-1.77,-1.47,1.11,1.11,1.11
161.63,2.86,2.86,1.80,1.80,-1.79,-1.78,-1.44,1.07,1.07,1.06
163.24,2.82,2.82,1.80,1.80,-1.80,-1.80,-1.42,1.02,1.02,1.02
164.88,2.78,2.78,1.80,1.80,-1.80,-1.81,-1.40,0.98,0.98,0.98
166.53,2.73,2.74,1.79,1.80,-1.80,-1.83,-1.38,0.94,0.94,0.94
168.19,2.69,2.69,1.79,1.79,-1.79,-1.84,-1.36,0.90,0.90,0.90
169.87,2.64,2.64,1.78,1.78,-1.78,-1.86,-1.34,0.86,0.86,0.86
171.57,2.59,2.59,1.77,1.77,-1.77,-1.87,-1.32,0.83,0.83,0.83
173.29,2.54,2.54,1.75,1.75,-1.75,-1.88,-1.31,0.79,0.79,0.79
175.02,2.48,2.49,1.73,1.73,-1.73,-1.88,-1.29,0.75,0.76,0.76
176.77,2.43,2.43,1.71,1.71,-1.71,-1.89,-1.28,0.72,0.72,0.72
178.54,2.38,2.38,1.69,1.69,-1.69,-1.89,-1.26,0.69,0.69,0.69
180.32,2.32,2.33,1.66,1.67,-1.67,-1.89,-1.25,0.66,0.66,0.66
182.13,2.27,2.27,1.64,1.64,-1.64,-1.88,-1.24,0.63,0.63,0.63
183.95,2.21,2.21,1.61,1.62,-1.62,-1.88,-1.23,0.59,0.60,0.60
185.79,2.16,2.16,1.59,1.59,-1.59,-1.86,-1.22,0.57,0.57,0.57
187.65,2.11,2.11,1.57,1.57,-1.57,-1.85,-1.21,0.54,0.54,0.54
189.52,2.06,2.06,1.55,1.55,-1.54,-1.83,-1.20,0.52,0.52,0.51
191.42,2.00,2.01,1.52,1.52,-1.52,-1.80,-1.19,0.49,0.49,0.49
193.33,1.95,1.95,1.49,1.49,-1.49,-1.78,-1.19,0.46,0.46,0.46
195.27,1.90,1.90,1.47,1.46,-1.47,-1.75,-1.18,0.44,0.43,0.44
197.22,1.85,1.85,1.44,1.44,-1.44,-1.71,-1.18,0.41,0.41,0.41
199.19,1.80,1.81,1.41,1.42,-1.43,-1.68,-1.17,0.38,0.38,0.39
201.18,1.77,1.77,1.41,1.40,-1.41,-1.64,-1.17,0.36,0.36,0.36
203.19,1.73,1.74,1.39,1.39,-1.40,-1.60,-1.17,0.33,0.34,0.34
205.23,1.71,1.71,1.39,1.39,-1.39,-1.55,-1.16,0.32,0.32,0.32
207.28,1.68,1.68,1.38,1.38,-1.38,-1.51,-1.16,0.30,0.30,0.30
209.35,1.66,1.66,1.38,1.38,-1.37,-1.46,-1.16,0.29,0.29,0.28
211.44,1.63,1.63,1.37,1.37,-1.36,-1.42,-1.16,0.27,0.27,0.26
213.56,1.60,1.60,1.36,1.36,-1.35,-1.37,-1.16,0.25,0.25,0.24
215.69,1.56,1.56,1.34,1.34,-1.33,-1.32,-1.15,0.23,0.23,0.22
217.85,1.52,1.52,1.32,1.31,-1.31,-1.27,-1.15,0.21,0.21,0.21
220.03,1.47,1.48,1.28,1.29,-1.29,-1.23,-1.15,0.19,0.19,0.19
222.23,1.43,1.43,1.26,1.26,-1.26,-1.18,-1.15,0.17,0.17,0.17
224.45,1.38,1.38,1.23,1.23,-1.23,-1.13,-1.14,0.15,0.15,0.16
226.70,1.34,1.34,1.20,1.20,-1.20,-1.09,-1.14,0.14,0.14,0.14
228.96,1.29,1.29,1.17,1.17,-1.17,-1.04,-1.14,0.12,0.12,0.13
231.25,1.25,1.25,1.14,1.14,-1.14,-1.00,-1.13,0.11,0.11,0.11
233.57,1.20,1.21,1.10,1.11,-1.11,-0.95,-1.12,0.09,0.09,0.10
235.90,1.16,1.16,1.09,1.08,-1.08,-0.91,-1.12,0.08,0.08,0.07
238.26,1.12,1.12,1.06,1.06,-1.05,-0.87,-1.11,0.07,0.06,0.06
240.64,1.07,1.08,1.02,1.03,-1.03,-0.83,-1.10,0.05,0.05,0.05
243.05,1.03,1.03,1.00,1.00,-1.00,-0.79,-1.09,0.04,0.04,0.04
245.48,0.99,0.99,0.97,0.97,-0.97,-0.76,-1.07,0.03,0.02,0.02
247.93,0.95,0.95,0.94,0.94,-0.94,-0.72,-1.06,0.02,0.01,0.01
250.41,0.90,0.91,0.90,0.90,-0.90,-0.68,-1.05,-0.00,0.00,0.00
252.92,0.86,0.86,0.87,0.87,-0.87,-0.65,-1.03,-0.01,-0.01,-0.01
255.45,0.82,0.82,0.84,0.84,-0.84,-0.62,-1.01,-0.02,-0.02,-0.02
258.00,0.78,0.78,0.81,0.81,-0.81,-0.58,-0.99,-0.03,-0.03,-0.03
260.58,0.74,0.74,0.78,0.78,-0.78,-0.55,-0.97,-0.04,-0.04,-0.04
263.19,0.70,0.70,0.75,0.75,-0.75,-0.52,-0.95,-0.05,-0.05,-0.05
265.82,0.66,0.66,0.72,0.72,-0.72,-0.49,-0.93,-0.06,-0.06,-0.06
268.48,0.62,0.62,0.69,0.69,-0.69,-0.47,-0.90,-0.07,-0.07,-0.06
271.16,0.59,0.59,0.66,0.66,-0.66,-0.44,-0.87,-0.07,-0.07,-0.07
273.87,0.55,0.55,0.63,0.63,-0.63,-0.41,-0.85,-0.08,-0.08,-0.08
276.61,0.52,0.52,0.61,0.61,-0.61,-0.39,-0.82,-0.08,-0.09,-0.09
279.38,0.48,0.48,0.58,0.58,-0.58,-0.36,-0.79,-0.09,-0.09,-0.10
282.17,0.45,0.45,0.55,0.55,-0.55,-0.34,-0.76,-0.09,-0.10,-0.10
284.99,0.41,0.41,0.51,0.51,-0.51,-0.31,-0.73,-0.10,-0.10,-0.10
287.84,0.38,0.38,0.48,0.48,-0.48,-0.29,-0.69,-0.10,-0.10,-0.10
290.72,0.34,0.35,0.44,0.45,-0.45,-0.27,-0.66,-0.11,-0.10,-0.10
293.63,0.31,0.31,0.42,0.42,-0.42,-0.25,-0.63,-0.10,-0.10,-0.11
296.57,0.28,0.28,0.39,0.38,-0.38,-0.23,-0.59,-0.10,-0.10,-0.10
299.53,0.24,0.25,0.34,0.35,-0.35,-0.21,-0.56,-0.11,-0.10,-0.10
302.53,0.21,0.21,0.32,0.32,-0.32,-0.19,-0.52,-0.11,-0.10,-0.11
305.55,0.18,0.18,0.28,0.28,-0.29,-0.17,-0.49,-0.10,-0.11,-0.10
308.61,0.15,0.15,0.26,0.26,-0.26,-0.15,-0.45,-0.10,-0.10,-0.11
311.69,0.12,0.12,0.22,0.22,-0.23,-0.13,-0.42,-0.10,-0.10,-0.10
314.81,0.09,0.09,0.20,0.20,-0.20,-0.11,-0.38,-0.10,-0.10,-0.11
317.96,0.06,0.06,0.16,0.17,-0.17,-0.09,-0.35,-0.10,-0.10,-0.10
321.14,0.04,0.04,0.15,0.14,-0.14,-0.07,-0.31,-0.10,-0.10,-0.11
324.35,0.01,0.01,0.11,0.11,-0.11,-0.06,-0.27,-0.10,-0.10,-0.10
327.59,-0.01,-0.01,0.09,0.09,-0.09,-0.04,-0.24,-0.10,-0.10,-0.09
330.87,-0.04,-0.03,0.06,0.06,-0.06,-0.02,-0.20,-0.10,-0.10,-0.10
334.18,-0.06,-0.05,0.03,0.04,-0.04,-0.00,-0.16,-0.10,-0.10,-0.09
337.52,-0.07,-0.07,0.03,0.02,-0.02,0.01,-0.12,-0.09,-0.09,-0.09
340.90,-0.09,-0.09,0.00,0.00,-0.00,0.03,-0.09,-0.09,-0.09,-0.09
344.30,-0.10,-0.10,-0.02,-0.01,0.02,0.05,-0.05,-0.08,-0.08,-0.08
347.75,-0.11,-0.11,-0.03,-0.03,0.03,0.06,-0.01,-0.08,-0.08,-0.08
351.23,-0.12,-0.12,-0.04,-0.05,0.05,0.08,0.02,-0.07,-0.07,-0.08
354.74,-0.14,-0.13,-0.08,-0.07,0.07,0.09,0.06,-0.07,-0.06,-0.06
358.28,-0.15,-0.15,-0.08,-0.09,0.09,0.11,0.10,-0.06,-0.06,-0.06
361.87,-0.17,-0.17,-0.11,-0.11,0.11,0.13,0.14,-0.06,-0.06,-0.06
365.49,-0.19,-0.18,-0.14,-0.13,0.13,0.14,0.17,-0.05,-0.05,-0.05
369.14,-0.20,-0.20,-0.15,-0.16,0.16,0.16,0.21,-0.04,-0.05,-0.05
372.83,-0.22,-0.22,-0.18,-0.18,0.18,0.17,0.25,-0.04,-0.04,-0.04
376.56,-0.25,-0.24,-0.21,-0.21,0.20,0.19,0.29,-0.04,-0.04,-0.04
380.33,-0.27,-0.26,-0.24,-0.23,0.23,0.21,0.32,-0.04,-0.03,-0.03
384.13,-0.28,-0.28,-0.25,-0.25,0.26,0.22,0.36,-0.02,-0.03,-0.03
387.97,-0.30,-0.30,-0.27,-0.28,0.28,0.24,0.40,-0.02,-0.02,-0.02
391.85,-0.32,-0.32,-0.31,-0.30,0.31,0.25,0.43,-0.01,-0.01,-0.01
395.77,-0.34,-0.34,-0.33,-0.33,0.33,0.27,0.47,-0.01,-0.01,-0.01
399.73,-0.36,-0.36,-0.36,-0.36,0.35,0.29,0.51,-0.00,-0.00,-0.00
403.72,-0.38,-0.37,-0.39,-0.38,0.38,0.30,0.55,-0.00,0.00,0.01
407.76,-0.39,-0.39,-0.39,-0.40,0.40,0.32,0.58,0.01,0.01,0.01
411.84,-0.41,-0.41,-0.42,-0.42,0.42,0.34,0.62,0.02,0.02,0.01
415.96,-0.43,-0.42,-0.45,-0.44,0.45,0.35,0.65,0.02,0.02,0.02
420.12,-0.44,-0.44,-0.46,-0.47,0.47,0.37,0.69,0.03,0.02,0.02
424.32,-0.46,-0.46,-0.49,-0.49,0.49,0.39,0.73,0.03,0.03,0.03
428.56,-0.48,-0.47,-0.52,-0.51,0.51,0.41,0.76,0.03,0.03,0.04
432.85,-0.49,-0.49,-0.53,-0.53,0.53,0.42,0.79,0.04,0.04,0.05
437.18,-0.50,-0.50,-0.54,-0.55,0.55,0.44,0.83,0.05,0.05,0.04
441.55,-0.51,-0.51,-0.56,-0.57,0.57,0.46,0.86,0.06,0.06,0.05
445.96,-0.53,-0.52,-0.59,-0.59,0.59,0.48,0.89,0.06,0.07,0.06
450.42,-0.54,-0.54,-0.62,-0.62,0.61,0.50,0.92,0.07,0.07,0.08
454.93,-0.55,-0.55,-0.64,-0.64,0.63,0.52,0.95,0.08,0.08,0.09
459.48,-0.56,-0.56,-0.66,-0.65,0.65,0.54,0.97,0.09,0.09,0.10
464.07,-0.57,-0.57,-0.66,-0.67,0.67,0.56,1.00,0.10,0.10,0.10
468.71,-0.58,-0.58,-0.68,-0.68,0.69,0.58,1.02,0.11,0.11,0.11
473.40,-0.59,-0.59,-0.70,-0.70,0.70,0.60,1.04,0.12,0.12,0.11
478.13,-0.60,-0.60,-0.72,-0.72,0.72,0.62,1.07,0.13,0.13,0.12
482.91,-0.61,-0.61,-0.74,-0.74,0.74,0.64,1.08,0.13,0.13,0.13
487.74,-0.62,-0.62,-0.76,-0.76,0.76,0.66,1.10,0.15,0.14,0.14
492.62,-0.64,-0.63,-0.79,-0.78,0.79,0.68,1.12,0.15,0.15,0.15
497.55,-0.65,-0.65,-0.81,-0.81,0.81,0.71,1.13,0.16,0.16,0.16
502.52,-0.66,-0.66,-0.83,-0.83,0.83,0.73,1.14,0.17,0.17,0.17
507.55,-0.67,-0.67,-0.86,-0.86,0.86,0.75,1.15,0.19,0.18,0.19
512.62,-0.69,-0.68,-0.89,-0.88,0.88,0.78,1.16,0.19,0.19,0.20
517.75,-0.70,-0.70,-0.90,-0.91,0.90,0.80,1.16,0.20,0.20,0.21
