frequency,raw,error,smoothed,error_smoothed,equalization,parametric_eq,equalized_raw,equalized_smoothed,target
20.00,0.33,-2.80,0.33,-2.80,2.80,0.81,3.13,3.13,3.13
20.20,0.38,-2.76,0.38,-2.75,2.75,0.84,3.13,3.14,3.14
20.40,0.44,-2.71,0.44,-2.71,2.71,0.86,3.15,3.15,3.15
20.61,0.49,-2.67,0.49,-2.67,2.67,0.89,3.16,3.16,3.16
20.81,0.54,-2.63,0.54,-2.63,2.63,0.92,3.17,3.17,3.17
21.02,0.59,-2.59,0.59,-2.58,2.58,0.95,3.17,3.18,3.18
21.23,0.65,-2.54,0.65,-2.54,2.54,0.98,3.19,3.19,3.19
21.44,0.70,-2.50,0.70,-2.50,2.50,1.01,3.20,3.20,3.20
21.66,0.75,-2.46,0.75,-2.46,2.46,1.04,3.21,3.21,3.21
21.87,0.80,-2.42,0.80,-2.42,2.42,1.07,3.22,3.22,3.22
22.09,0.85,-2.38,0.85,-2.38,2.38,1.10,3.23,3.23,3.23
22.31,0.90,-2.34,0.90,-2.34,2.34,1.14,3.24,3.24,3.24
22.54,0.95,-2.30,0.95,-2.30,2.30,1.17,3.25,3.25,3.25
22.76,1.01,-2.25,1.00,-2.26,2.26,1.21,3.27,3.26,3.26
22.99,1.06,-2.21,1.05,-2.22,2.22,1.24,3.28,3.27,3.27
23.22,1.10,-2.19,1.10,-2.18,2.18,1.28,3.28,3.29,3.29
23.45,1.15,-2.15,1.15,-2.15,2.15,1.32,3.30,3.30,3.30
23.69,1.20,-2.11,1.20,-2.11,2.11,1.35,3.31,3.31,3.31
23.92,1.24,-2.08,1.25,-2.07,2.07,1.39,3.31,3.32,3.32
24.16,1.29,-2.04,1.30,-2.04,2.04,1.43,3.33,3.33,3.33
24.40,1.34,-2.00,1.34,-2.00,2.00,1.47,3.34,3.34,3.34
24.65,1.39,-1.96,1.39,-1.96,1.96,1.51,3.35,3.35,3.35
24.89,1.44,-1.92,1.44,-1.93,1.93,1.55,3.37,3.36,3.36
25.14,1.48,-1.89,1.48,-1.89,1.89,1.60,3.37,3.37,3.37
25.39,1.53,-1.85,1.53,-1.86,1.86,1.64,3.39,3.38,3.39
25.65,1.57,-1.83,1.57,-1.83,1.83,1.68,3.39,3.39,3.40
25.91,1.61,-1.80,1.61,-1.79,1.79,1.72,3.40,3.41,3.41
26.16,1.66,-1.76,1.66,-1.76,1.76,1.76,3.42,3.42,3.42
26.43,1.70,-1.73,1.70,-1.73,1.73,1.80,3.43,3.43,3.43
26.69,1.74,-1.70,1.74,-1.70,1.70,1.84,3.44,3.44,3.44
26.96,1.78,-1.67,1.78,-1.66,1.66,1.88,3.44,3.45,3.45
27.23,1.82,-1.64,1.82,-1.63,1.63,1.91,3.45,3.46,3.46
27.50,1.86,-1.61,1.86,-1.61,1.61,1.95,3.47,3.47,3.47
27.77,1.90,-1.58,1.90,-1.58,1.58,1.98,3.48,3.48,3.48
28.05,1.94,-1.55,1.94,-1.55,1.55,2.01,3.49,3.49,3.49
28.33,1.97,-1.53,1.98,-1.52,1.52,2.04,3.49,3.50,3.50
28.62,2.01,-1.50,2.01,-1.50,1.50,2.07,3.51,3.51,3.51
28.90,2.05,-1.47,2.05,-1.47,1.47,2.09,3.52,3.52,3.52
29.19,2.08,-1.45,2.08,-1.45,1.45,2.12,3.53,3.53,3.53
29.48,2.11,-1.43,2.11,-1.43,1.43,2.13,3.54,3.54,3.54
29.78,2.15,-1.40,2.14,-1.41,1.41,2.15,3.56,3.55,3.55
30.08,2.18,-1.38,2.17,-1.39,1.39,2.16,3.57,3.56,3.56
30.38,2.20,-1.37,2.20,-1.37,1.37,2.17,3.57,3.57,3.57
30.68,2.22,-1.36,2.22,-1.36,1.36,2.18,3.58,3.58,3.58
30.99,2.25,-1.34,2.25,-1.34,1.34,2.18,3.59,3.59,3.59
31.30,2.27,-1.33,2.27,-1.33,1.33,2.18,3.60,3.60,3.60
31.61,2.29,-1.32,2.29,-1.32,1.32,2.17,3.61,3.61,3.61
31.93,2.31,-1.31,2.32,-1.30,1.30,2.16,3.61,3.62,3.62
32.24,2.33,-1.30,2.34,-1.29,1.29,2.15,3.62,3.63,3.63
32.57,2.35,-1.29,2.35,-1.28,1.28,2.13,3.63,3.64,3.64
32.89,2.37,-1.28,2.37,-1.28,1.28,2.11,3.65,3.65,3.65
33.22,2.39,-1.27,2.39,-1.27,1.27,2.09,3.66,3.66,3.66
33.55,2.40,-1.27,2.40,-1.26,1.26,2.06,3.66,3.67,3.67
33.89,2.42,-1.26,2.42,-1.26,1.26,2.03,3.68,3.67,3.68
34.23,2.43,-1.25,2.43,-1.26,1.26,2.00,3.69,3.68,3.68
34.57,2.44,-1.25,2.43,-1.26,1.26,1.96,3.70,3.69,3.69
34.92,2.45,-1.25,2.44,-1.26,1.26,1.93,3.71,3.70,3.70
35.27,2.45,-1.26,2.45,-1.26,1.26,1.89,3.71,3.71,3.71
35.62,2.45,-1.27,2.45,-1.27,1.27,1.85,3.72,3.71,3.72
35.97,2.45,-1.27,2.45,-1.27,1.27,1.80,3.72,3.72,3.72
36.33,2.44,-1.29,2.45,-1.28,1.28,1.76,3.72,3.73,3.73
36.70,2.44,-1.30,2.44,-1.29,1.29,1.72,3.73,3.74,3.74
37.06,2.43,-1.31,2.44,-1.31,1.31,1.67,3.74,3.74,3.74
37.43,2.43,-1.32,2.43,-1.32,1.32,1.62,3.75,3.75,3.75
37.81,2.42,-1.34,2.42,-1.34,1.34,1.58,3.76,3.76,3.76
38.19,2.41,-1.35,2.41,-1.35,1.35,1.53,3.76,3.76,3.76
38.57,2.40,-1.37,2.40,-1.37,1.37,1.48,3.77,3.77,3.77
38.95,2.39,-1.39,2.38,-1.39,1.39,1.44,3.78,3.77,3.78
39.34,2.37,-1.41,2.37,-1.41,1.41,1.39,3.78,3.78,3.78
39.74,2.35,-1.44,2.35,-1.43,1.43,1.34,3.78,3.78,3.79
40.14,2.32,-1.47,2.33,-1.46,1.46,1.30,3.78,3.79,3.79
40.54,2.31,-1.49,2.31,-1.48,1.48,1.25,3.79,3.79,3.80
40.94,2.29,-1.51,2.29,-1.51,1.51,1.20,3.80,3.80,3.80
41.35,2.27,-1.53,2.27,-1.53,1.53,1.16,3.80,3.80,3.80
41.76,2.25,-1.56,2.25,-1.56,1.56,1.11,3.81,3.81,3.81
42.18,2.23,-1.58,2.22,-1.59,1.59,1.07,3.82,3.81,3.81
42.60,2.20,-1.62,2.20,-1.62,1.62,1.03,3.82,3.82,3.82
43.03,2.18,-1.64,2.17,-1.65,1.65,0.98,3.83,3.82,3.82
43.46,2.15,-1.68,2.14,-1.68,1.68,0.94,3.83,3.83,3.83
43.90,2.13,-1.70,2.11,-1.72,1.72,0.90,3.85,3.83,3.83
44.33,2.10,-1.74,2.08,-1.75,1.75,0.86,3.85,3.83,3.84
44.78,2.07,-1.77,2.06,-1.78,1.78,0.82,3.85,3.84,3.84
45.23,2.03,-1.81,2.03,-1.81,1.81,0.78,3.84,3.84,3.84
45.68,2.00,-1.85,2.00,-1.84,1.84,0.74,3.84,3.84,3.85
46.13,1.97,-1.88,1.98,-1.86,1.86,0.71,3.83,3.85,3.85
46.60,1.96,-1.90,1.97,-1.88,1.88,0.67,3.84,3.85,3.86
47.06,1.94,-1.92,1.96,-1.90,1.90,0.64,3.84,3.85,3.86
47.53,1.93,-1.93,1.95,-1.91,1.91,0.60,3.84,3.86,3.86
48.01,1.93,-1.94,1.95,-1.91,1.91,0.57,3.84,3.86,3.87
48.49,1.95,-1.92,1.95,-1.91,1.91,0.53,3.86,3.86,3.87
48.97,1.97,-1.90,1.96,-1.90,1.90,0.50,3.87,3.86,3.87
49.46,1.99,-1.88,1.98,-1.88,1.88,0.46,3.87,3.86,3.87
49.96,2.02,-1.85,2.01,-1.85,1.85,0.43,3.87,3.87,3.87
50.46,2.05,-1.82,2.05,-1.82,1.82,0.40,3.87,3.87,3.87
50.96,2.09,-1.78,2.09,-1.78,1.78,0.37,3.87,3.87,3.87
51.47,2.13,-1.74,2.14,-1.73,1.73,0.34,3.86,3.86,3.87
51.99,2.18,-1.68,2.19,-1.67,1.67,0.31,3.85,3.86,3.86
52.51,2.24,-1.62,2.25,-1.61,1.61,0.27,3.85,3.86,3.86
53.03,2.30,-1.55,2.32,-1.54,1.54,0.24,3.84,3.85,3.85
53.56,2.39,-1.46,2.39,-1.46,1.46,0.21,3.85,3.84,3.85
54.10,2.47,-1.37,2.46,-1.37,1.37,0.18,3.84,3.84,3.84
54.64,2.55,-1.28,2.54,-1.28,1.28,0.15,3.83,3.83,3.83
55.18,2.63,-1.19,2.63,-1.19,1.19,0.12,3.82,3.82,3.82
55.74,2.72,-1.09,2.72,-1.08,1.08,0.09,3.80,3.81,3.81
56.29,2.81,-0.99,2.82,-0.98,0.98,0.05,3.79,3.80,3.80
56.86,2.91,-0.88,2.92,-0.87,0.87,0.02,3.78,3.78,3.79
57.42,3.01,-0.76,3.01,-0.76,0.76,-0.01,3.77,3.77,3.77
58.00,3.11,-0.65,3.11,-0.64,0.64,-0.04,3.75,3.76,3.76
58.58,3.21,-0.53,3.21,-0.53,0.53,-0.08,3.74,3.74,3.74
59.16,3.32,-0.40,3.31,-0.41,0.41,-0.11,3.73,3.72,3.72
59.76,3.42,-0.29,3.41,-0.30,0.30,-0.15,3.72,3.70,3.70
60.35,3.52,-0.16,3.50,-0.18,0.18,-0.19,3.70,3.68,3.68
60.96,3.61,-0.05,3.60,-0.07,0.07,-0.22,3.68,3.66,3.66
61.57,3.70,0.06,3.68,0.05,-0.05,-0.26,3.65,3.64,3.64
62.18,3.78,0.16,3.77,0.16,-0.16,-0.30,3.62,3.62,3.62
62.80,3.86,0.27,3.86,0.27,-0.27,-0.34,3.59,3.59,3.59
63.43,3.95,0.38,3.94,0.38,-0.38,-0.38,3.57,3.56,3.57
64.07,4.03,0.49,4.02,0.48,-0.48,-0.42,3.55,3.54,3.54
64.71,4.10,0.59,4.10,0.59,-0.59,-0.47,3.51,3.51,3.51
65.35,4.17,0.69,4.18,0.70,-0.70,-0.51,3.47,3.48,3.48
66.01,4.25,0.79,4.26,0.81,-0.81,-0.56,3.44,3.45,3.46
66.67,4.33,0.90,4.34,0.92,-0.92,-0.61,3.41,3.42,3.43
67.33,4.41,1.01,4.42,1.03,-1.03,-0.66,3.38,3.39,3.40
68.01,4.49,1.12,4.51,1.14,-1.14,-0.71,3.35,3.36,3.37
68.69,4.59,1.25,4.59,1.26,-1.26,-0.76,3.33,3.33,3.34
69.37,4.68,1.37,4.68,1.38,-1.38,-0.81,3.30,3.30,3.31
70.07,4.77,1.49,4.77,1.50,-1.50,-0.86,3.27,3.27,3.28
70.77,4.86,1.61,4.86,1.62,-1.62,-0.92,3.24,3.24,3.25
71.48,4.95,1.73,4.96,1.75,-1.75,-0.98,3.20,3.21,3.22
72.19,5.05,1.86,5.06,1.87,-1.87,-1.03,3.18,3.18,3.19
72.91,5.16,2.00,5.16,2.00,-2.00,-1.09,3.16,3.16,3.16
73.64,5.25,2.12,5.26,2.13,-2.13,-1.15,3.12,3.13,3.13
74.38,5.35,2.25,5.36,2.25,-2.25,-1.22,3.09,3.10,3.10
75.12,5.44,2.36,5.46,2.38,-2.38,-1.28,3.06,3.08,3.08
75.87,5.55,2.50,5.55,2.50,-2.50,-1.35,3.05,3.05,3.05
76.63,5.65,2.63,5.65,2.62,-2.62,-1.41,3.03,3.02,3.03
77.40,5.75,2.75,5.74,2.74,-2.74,-1.48,3.01,3.00,3.00
78.17,5.85,2.87,5.83,2.86,-2.86,-1.55,2.99,2.98,2.98
78.95,5.94,2.98,5.92,2.97,-2.97,-1.62,2.97,2.95,2.96
79.74,6.02,3.09,6.00,3.07,-3.07,-1.70,2.95,2.93,2.93
80.54,6.09,3.18,6.08,3.17,-3.17,-1.77,2.92,2.91,2.91
81.35,6.16,3.26,6.16,3.27,-3.27,-1.85,2.89,2.89,2.90
82.16,6.23,3.35,6.23,3.36,-3.36,-1.93,2.87,2.87,2.88
82.98,6.29,3.43,6.30,3.44,-3.44,-2.01,2.85,2.86,2.86
83.81,6.36,3.52,6.36,3.52,-3.52,-2.09,2.84,2.84,2.84
84.65,6.41,3.58,6.42,3.59,-3.59,-2.17,2.82,2.83,2.83
85.50,6.46,3.64,6.48,3.66,-3.66,-2.26,2.80,2.81,2.81
86.35,6.52,3.72,6.53,3.72,-3.72,-2.34,2.80,2.80,2.80
87.22,6.57,3.78,6.57,3.78,-3.78,-2.43,2.79,2.79,2.79
88.09,6.62,3.84,6.61,3.83,-3.83,-2.53,2.79,2.78,2.78
88.97,6.67,3.90,6.65,3.88,-3.88,-2.62,2.79,2.77,2.77
89.86,6.70,3.94,6.69,3.92,-3.92,-2.71,2.78,2.76,2.76
90.76,6.73,3.98,6.72,3.96,-3.96,-2.81,2.77,2.75,2.75
91.66,6.76,4.01,6.74,4.00,-4.00,-2.91,2.76,2.75,2.75
92.58,6.78,4.04,6.77,4.03,-4.03,-3.01,2.75,2.74,2.74
93.51,6.79,4.06,6.79,4.06,-4.06,-3.12,2.73,2.73,2.73
94.44,6.79,4.06,6.81,4.08,-4.08,-3.22,2.71,2.72,2.73
95.39,6.81,4.09,6.82,4.11,-4.11,-3.33,2.70,2.71,2.72
96.34,6.83,4.12,6.84,4.14,-4.14,-3.43,2.69,2.70,2.71
97.30,6.85,4.15,6.85,4.17,-4.17,-3.54,2.68,2.69,2.70
98.28,6.87,4.18,6.87,4.20,-4.20,-3.66,2.67,2.67,2.69
99.26,6.88,4.21,6.89,4.23,-4.23,-3.77,2.65,2.65,2.67
100.25,6.90,4.24,6.91,4.27,-4.27,-3.88,2.63,2.64,2.66
101.25,6.93,4.29,6.94,4.31,-4.31,-3.99,2.62,2.62,2.64
102.27,6.95,4.33,6.97,4.36,-4.36,-4.11,2.59,2.60,2.62
103.29,6.97,4.37,7.00,4.41,-4.41,-4.22,2.56,2.59,2.60
104.32,6.99,4.41,7.03,4.46,-4.46,-4.33,2.53,2.56,2.58
105.37,7.03,4.48,7.06,4.51,-4.51,-4.45,2.52,2.54,2.55
106.42,7.07,4.54,7.08,4.56,-4.56,-4.56,2.51,2.52,2.53
107.48,7.11,4.61,7.10,4.61,-4.61,-4.67,2.50,2.49,2.50
108.56,7.15,4.68,7.12,4.66,-4.66,-4.78,2.49,2.46,2.47
109.64,7.17,4.74,7.13,4.70,-4.70,-4.88,2.47,2.43,2.43
110.74,7.19,4.79,7.14,4.74,-4.74,-4.98,2.45,2.40,2.40
111.85,7.18,4.81,7.14,4.77,-4.77,-5.08,2.41,2.36,2.37
112.97,7.16,4.83,7.13,4.80,-4.80,-5.17,2.36,2.33,2.33
114.10,7.13,4.84,7.11,4.82,-4.82,-5.26,2.31,2.29,2.29
115.24,7.09,4.83,7.09,4.84,-4.84,-5.34,2.25,2.26,2.26
116.39,7.06,4.84,7.07,4.85,-4.85,-5.42,2.21,2.22,2.22
117.55,7.03,4.84,7.04,4.86,-4.86,-5.49,2.17,2.18,2.19
118.73,7.00,4.85,7.01,4.87,-4.87,-5.55,2.13,2.14,2.15
119.92,6.95,4.84,6.98,4.88,-4.88,-5.60,2.07,2.10,2.11
121.12,6.92,4.84,6.95,4.88,-4.88,-5.65,2.04,2.07,2.08
122.33,6.90,4.85,6.92,4.89,-4.89,-5.68,2.01,2.04,2.05
123.55,6.88,4.86,6.90,4.90,-4.90,-5.71,1.98,2.01,2.02
124.79,6.86,4.87,6.88,4.90,-4.90,-5.73,1.96,1.98,1.99
126.03,6.85,4.89,6.86,4.91,-4.91,-5.74,1.94,1.95,1.96
127.29,6.84,4.91,6.85,4.92,-4.92,-5.73,1.92,1.93,1.93
128.57,6.82,4.91,6.83,4.93,-4.93,-5.72,1.89,1.90,1.91
129.85,6.82,4.94,6.81,4.93,-4.93,-5.70,1.89,1.88,1.88
131.15,6.81,4.95,6.79,4.93,-4.93,-5.68,1.88,1.86,1.86
132.46,6.80,4.96,6.77,4.93,-4.93,-5.64,1.87,1.84,1.84
133.79,6.78,4.96,6.74,4.93,-4.93,-5.59,1.85,1.82,1.82
135.12,6.73,4.93,6.71,4.92,-4.92,-5.54,1.81,1.79,1.79
136.48,6.69,4.92,6.68,4.91,-4.91,-5.49,1.78,1.77,1.77
137.84,6.64,4.89,6.64,4.89,-4.89,-5.42,1.75,1.75,1.75
139.22,6.60,4.87,6.59,4.87,-4.87,-5.35,1.73,1.73,1.73
140.61,6.55,4.84,6.55,4.84,-4.84,-5.28,1.71,1.70,1.71
142.02,6.48,4.79,6.50,4.81,-4.81,-5.20,1.67,1.68,1.69
143.44,6.44,4.77,6.45,4.78,-4.78,-5.12,1.66,1.66,1.67
144.87,6.36,4.71,6.39,4.75,-4.75,-5.04,1.61,1.64,1.65
146.32,6.32,4.70,6.33,4.72,-4.72,-4.96,1.60,1.62,1.62
147.78,6.26,4.66,6.27,4.68,-4.68,-4.87,1.58,1.59,1.60
149.26,6.22,4.64,6.22,4.64,-4.64,-4.78,1.58,1.57,1.58
150.75,6.15,4.59,6.16,4.61,-4.61,-4.69,1.54,1.55,1.56
152.26,6.11,4.58,6.10,4.57,-4.57,-4.60,1.54,1.53,1.53
153.78,6.05,4.54,6.04,4.53,-4.53,-4.52,1.52,1.51,1.51
155.32,5.99,4.50,5.97,4.49,-4.49,-4.43,1.50,1.48,1.49
156.88,5.91,4.45,5.91,4.45,-4.45,-4.34,1.46,1.46,1.46
158.44,5.84,4.40,5.84,4.40,-4.40,-4.26,1.44,1.44,1.44
160.03,5.76,4.35,5.77,4.36,-4.36,-4.18,1.40,1.41,1.41
161.63,5.71,4.32,5.70,4.32,-4.32,-4.09,1.39,1.39,1.39
163.24,5.65,4.29,5.63,4.27,-4.27,-4.02,1.38,1.36,1.36
164.88,5.55,4.21,5.56,4.22,-4.22,-3.94,1.33,1.34,1.34
166.53,5.48,4.17,5.48,4.18,-4.18,-3.86,1.30,1.31,1.31
168.19,5.41,4.12,5.41,4.13,-4.13,-3.79,1.28,1.28,1.29
169.87,5.31,4.05,5.33,4.08,-4.08,-3.72,1.23,1.25,1.26
171.57,5.25,4.02,5.25,4.03,-4.03,-3.65,1.22,1.23,1.23
173.29,5.18,3.98,5.17,3.98,-3.98,-3.59,1.20,1.20,1.20
175.02,5.07,3.90,5.09,3.92,-3.92,-3.53,1.15,1.17,1.17
176.77,5.01,3.87,5.01,3.87,-3.87,-3.47,1.14,1.14,1.14
178.54,4.94,3.83,4.92,3.82,-3.82,-3.41,1.12,1.10,1.11
180.32,4.86,3.79,4.83,3.76,-3.76,-3.35,1.10,1.07,1.07
182.13,4.77,3.73,4.74,3.70,-3.70,-3.30,1.07,1.04,1.04
183.95,4.64,3.63,4.65,3.65,-3.65,-3.25,0.99,1.01,1.01
185.79,4.56,3.58,4.56,3.59,-3.59,-3.21,0.97,0.97,0.98
187.65,4.46,3.52,4.47,3.53,-3.53,-3.16,0.93,0.94,0.94
189.52,4.36,3.45,4.38,3.47,-3.47,-3.12,0.89,0.91,0.91
191.42,4.27,3.40,4.28,3.41,-3.41,-3.08,0.86,0.87,0.87
193.33,4.17,3.33,4.18,3.34,-3.34,-3.05,0.83,0.84,0.84
195.27,4.08,3.27,4.09,3.28,-3.28,-3.01,0.80,0.80,0.81
197.22,4.00,3.23,3.99,3.22,-3.22,-2.98,0.78,0.77,0.77
199.19,3.90,3.16,3.89,3.16,-3.16,-2.95,0.74,0.73,0.74
201.18,3.80,3.10,3.79,3.09,-3.09,-2.92,0.71,0.70,0.70
203.19,3.70,3.03,3.69,3.03,-3.03,-2.89,0.67,0.66,0.67
205.23,3.60,2.97,3.60,2.97,-2.97,-2.87,0.63,0.63,0.63
207.28,3.50,2.90,3.50,2.90,-2.90,-2.85,0.60,0.59,0.60
209.35,3.40,2.84,3.40,2.84,-2.84,-2.83,0.56,0.56,0.56
211.44,3.30,2.78,3.30,2.78,-2.78,-2.81,0.52,0.52,0.52
213.56,3.20,2.72,3.20,2.71,-2.71,-2.79,0.49,0.48,0.48
215.69,3.10,2.65,3.10,2.65,-2.65,-2.77,0.45,0.44,0.45
217.85,3.00,2.59,3.00,2.59,-2.59,-2.75,0.41,0.41,0.41
220.03,2.92,2.55,2.90,2.53,-2.53,-2.74,0.39,0.37,0.37
222.23,2.83,2.49,2.81,2.47,-2.47,-2.72,0.36,0.34,0.34
224.45,2.73,2.42,2.73,2.42,-2.42,-2.71,0.31,0.31,0.31
226.70,2.63,2.35,2.65,2.37,-2.37,-2.70,0.26,0.28,0.28
228.96,2.55,2.29,2.58,2.32,-2.32,-2.68,0.23,0.26,0.26
231.25,2.50,2.26,2.51,2.28,-2.28,-2.67,0.22,0.23,0.24
233.57,2.44,2.22,2.46,2.24,-2.24,-2.66,0.20,0.21,0.22
235.90,2.38,2.18,2.41,2.21,-2.21,-2.64,0.17,0.20,0.20
238.26,2.36,2.17,2.37,2.18,-2.18,-2.63,0.18,0.18,0.19
240.64,2.33,2.15,2.34,2.16,-2.16,-2.61,0.17,0.17,0.18
243.05,2.31,2.14,2.31,2.15,-2.15,-2.60,0.16,0.16,0.17
245.48,2.29,2.12,2.29,2.13,-2.13,-2.58,0.16,0.16,0.17
247.93,2.28,2.12,2.28,2.13,-2.13,-2.57,0.15,0.16,0.16
250.41,2.27,2.11,2.28,2.12,-2.12,-2.55,0.15,0.16,0.16
252.92,2.27,2.11,2.27,2.12,-2.12,-2.53,0.15,0.16,0.16
255.45,2.28,2.12,2.27,2.12,-2.12,-2.52,0.16,0.16,0.16
258.00,2.29,2.13,2.27,2.12,-2.12,-2.50,0.17,0.16,0.16
260.58,2.29,2.13,2.27,2.11,-2.11,-2.48,0.18,0.16,0.16
263.19,2.29,2.13,2.28,2.11,-2.11,-2.46,0.18,0.16,0.16
265.82,2.29,2.13,2.28,2.11,-2.11,-2.44,0.18,0.17,0.16
268.48,2.29,2.12,2.28,2.11,-2.11,-2.42,0.18,0.17,0.17
271.16,2.29,2.12,2.28,2.10,-2.10,-2.40,0.19,0.18,0.17
273.87,2.29,2.11,2.27,2.09,-2.09,-2.37,0.20,0.18,0.18
276.61,2.28,2.10,2.27,2.09,-2.09,-2.35,0.19,0.19,0.18
279.38,2.27,2.08,2.27,2.08,-2.08,-2.33,0.19,0.19,0.19
282.17,2.27,2.07,2.28,2.07,-2.07,-2.31,0.20,0.20,0.20
284.99,2.27,2.06,2.28,2.07,-2.07,-2.29,0.20,0.21,0.21
287.84,2.29,2.06,2.29,2.07,-2.07,-2.27,0.22,0.22,0.23
290.72,2.30,2.06,2.30,2.07,-2.07,-2.25,0.23,0.23,0.24
293.63,2.31,2.06,2.32,2.08,-2.08,-2.23,0.23,0.24,0.25
296.57,2.33,2.07,2.34,2.10,-2.10,-2.21,0.23,0.25,0.26
299.53,2.36,2.09,2.37,2.12,-2.12,-2.19,0.24,0.25,0.27
302.53,2.39,2.11,2.41,2.14,-2.14,-2.17,0.25,0.26,0.28
305.55,2.44,2.15,2.45,2.17,-2.17,-2.15,0.27,0.27,0.29
308.61,2.49,2.20,2.49,2.21,-2.21,-2.14,0.28,0.28,0.29
311.69,2.54,2.24,2.54,2.26,-2.26,-2.12,0.28,0.29,0.30
314.81,2.59,2.29,2.60,2.30,-2.30,-2.11,0.29,0.29,0.30
317.96,2.64,2.34,2.65,2.36,-2.36,-2.09,0.28,0.30,0.30
321.14,2.70,2.39,2.71,2.41,-2.41,-2.08,0.29,0.30,0.31
324.35,2.77,2.46,2.78,2.47,-2.47,-2.07,0.30,0.31,0.31
327.59,2.85,2.54,2.84,2.53,-2.53,-2.06,0.32,0.31,0.31
330.87,2.91,2.60,2.90,2.59,-2.59,-2.06,0.32,0.31,0.31
334.18,2.97,2.66,2.96,2.64,-2.64,-2.05,0.33,0.31,0.31
337.52,3.02,2.71,3.02,2.70,-2.70,-2.05,0.32,0.32,0.31
340.90,3.07,2.75,3.07,2.75,-2.75,-2.05,0.32,0.32,0.32
344.30,3.12,2.80,3.12,2.80,-2.80,-2.04,0.32,0.32,0.32
347.75,3.16,2.84,3.17,2.85,-2.85,-2.04,0.31,0.32,0.32
351.23,3.21,2.89,3.20,2.88,-2.88,-2.05,0.33,0.32,0.32
354.74,3.24,2.92,3.23,2.91,-2.91,-2.05,0.33,0.32,0.32
358.28,3.27,2.96,3.25,2.94,-2.94,-2.06,0.33,0.31,0.31
361.87,3.28,2.97,3.26,2.96,-2.96,-2.06,0.32,0.31,0.31
365.49,3.29,2.99,3.27,2.97,-2.97,-2.07,0.32,0.30,0.30
369.14,3.29,3.00,3.27,2.97,-2.97,-2.08,0.32,0.29,0.29
372.83,3.28,2.99,3.26,2.97,-2.97,-2.09,0.31,0.29,0.29
376.56,3.24,2.96,3.24,2.96,-2.96,-2.10,0.28,0.28,0.28
380.33,3.20,2.93,3.22,2.95,-2.95,-2.12,0.25,0.27,0.27
384.13,3.17,2.91,3.19,2.93,-2.93,-2.13,0.24,0.25,0.26
387.97,3.15,2.90,3.16,2.91,-2.91,-2.15,0.24,0.24,0.25
391.85,3.12,2.88,3.12,2.89,-2.89,-2.17,0.23,0.23,0.24
395.77,3.08,2.85,3.08,2.86,-2.86,-2.19,0.22,0.22,0.23
399.73,3.04,2.83,3.04,2.83,-2.83,-2.21,0.21,0.21,0.21
403.72,3.00,2.80,3.00,2.80,-2.80,-2.23,0.19,0.20,0.20
407.76,2.95,2.76,2.96,2.77,-2.77,-2.25,0.18,0.19,0.19
411.84,2.90,2.72,2.92,2.74,-2.74,-2.27,0.16,0.18,0.18
415.96,2.86,2.69,2.87,2.71,-2.71,-2.29,0.15,0.16,0.17
420.12,2.83,2.67,2.83,2.68,-2.68,-2.31,0.15,0.16,0.16
424.32,2.80,2.65,2.79,2.64,-2.64,-2.33,0.16,0.15,0.15
428.56,2.76,2.62,2.75,2.61,-2.61,-2.35,0.15,0.14,0.14
432.85,2.72,2.59,2.70,2.57,-2.57,-2.38,0.15,0.13,0.13
437.18,2.67,2.54,2.66,2.53,-2.53,-2.40,0.14,0.13,0.13
441.55,2.62,2.50,2.62,2.49,-2.49,-2.42,0.13,0.13,0.12
445.96,2.57,2.45,2.58,2.45,-2.45,-2.44,0.12,0.13,0.12
450.42,2.51,2.39,2.54,2.41,-2.41,-2.45,0.10,0.12,0.12
454.93,2.48,2.36,2.50,2.37,-2.37,-2.47,0.11,0.12,0.12
459.48,2.44,2.32,2.45,2.33,-2.33,-2.48,0.11,0.12,0.12
464.07,2.42,2.29,2.41,2.29,-2.29,-2.50,0.13,0.12,0.13
468.71,2.39,2.26,2.37,2.25,-2.25,-2.51,0.14,0.12,0.13
473.40,2.35,2.21,2.33,2.21,-2.21,-2.51,0.14,0.12,0.14
478.13,2.31,2.17,2.30,2.17,-2.17,-2.52,0.14,0.13,0.14
482.91,2.26,2.12,2.26,2.13,-2.13,-2.52,0.13,0.13,0.14
487.74,2.22,2.08,2.23,2.09,-2.09,-2.52,0.13,0.14,0.14
492.62,2.18,2.03,2.20,2.06,-2.06,-2.52,0.12,0.14,0.15
497.55,2.15,2.00,2.17,2.02,-2.02,-2.51,0.13,0.15,0.15
502.52,2.12,1.97,2.14,1.99,-1.99,-2.50,0.13,0.15,0.15
507.55,2.10,1.95,2.10,1.95,-1.95,-2.49,0.15,0.15,0.15
512.62,2.09,1.94,2.07,1.92,-1.92,-2.47,0.17,0.15,0.15
517.75,2.06,1.90,2.04,1.88,-1.88,-2.45,0.18,0.16,0.16
522.93,2.02,1.86,2.01,1.85,-1.85,-2.43,0.17,0.16,0.16
528.16,1.99,1.83,1.98,1.81,-1.81,-2.41,0.18,0.17,0.16
533.44,1.95,1.78,1.95,1.77,-1.77,-2.38,0.18,0.17,0.17
538.77,1.91,1.74,1.91,1.73,-1.73,-2.35,0.18,0.18,0.17
544.16,1.88,1.70,1.88,1.70,-1.70,-2.32,0.18,0.18,0.18
549.60,1.85,1.67,1.84,1.66,-1.66,-2.29,0.19,0.18,0.18
555.10,1.82,1.64,1.81,1.63,-1.63,-2.25,0.19,0.18,0.18
560.65,1.80,1.61,1.77,1.59,-1.59,-2.22,0.21,0.18,0.19
566.25,1.76,1.57,1.74,1.56,-1.56,-2.18,0.20,0.18,0.19
571.92,1.72,1.52,1.72,1.54,-1.54,-2.14,0.18,0.18,0.20
577.64,1.68,1.48,1.70,1.52,-1.52,-2.10,0.16,0.18,0.20
583.41,1.66,1.46,1.69,1.51,-1.51,-2.06,0.15,0.18,0.20
589.25,1.64,1.44,1.68,1.50,-1.50,-2.01,0.14,0.18,0.20
595.14,1.64,1.44,1.68,1.50,-1.50,-1.97,0.14,0.19,0.20
601.09,1.65,1.44,1.69,1.50,-1.50,-1.93,0.15,0.19,0.21
607.10,1.68,1.47,1.70,1.51,-1.51,-1.88,0.17,0.19,0.21
613.17,1.71,1.50,1.72,1.53,-1.53,-1.84,0.18,0.20,0.21
619.30,1.75,1.54,1.75,1.55,-1.55,-1.80,0.20,0.20,0.21
625.50,1.79,1.58,1.78,1.57,-1.57,-1.76,0.22,0.21,0.21
631.75,1.83,1.61,1.81,1.59,-1.59,-1.71,0.24,0.22,0.22
638.07,1.87,1.64,1.84,1.61,-1.61,-1.67,0.26,0.23,0.23
644.45,1.89,1.66,1.88,1.63,-1.63,-1.63,0.26,0.24,0.23
650.89,1.92,1.68,1.91,1.65,-1.65,-1.59,0.27,0.25,0.24
657.40,1.95,1.70,1.93,1.67,-1.67,-1.55,0.28,0.26,0.25
663.98,1.97,1.71,1.96,1.69,-1.69,-1.51,0.28,0.27,0.26
670.62,1.99,1.72,1.97,1.70,-1.70,-1.48,0.29,0.27,0.27
677.32,1.99,1.71,1.99,1.71,-1.71,-1.44,0.28,0.28,0.28
684.10,1.99,1.70,2.00,1.72,-1.72,-1.40,0.27,0.28,0.29
690.94,1.99,1.70,2.00,1.72,-1.72,-1.37,0.27,0.28,0.29
697.85,1.99,1.69,2.00,1.72,-1.72,-1.33,0.27,0.28,0.30
704.83,1.99,1.70,2.00,1.72,-1.72,-1.30,0.27,0.28,0.29
711.87,1.99,1.70,2.00,1.72,-1.72,-1.27,0.27,0.28,0.29
718.99,1.98,1.69,1.99,1.71,-1.71,-1.24,0.27,0.28,0.29
726.18,1.97,1.69,1.98,1.70,-1.70,-1.21,0.27,0.27,0.28
733.44,1.96,1.69,1.96,1.69,-1.69,-1.18,0.27,0.27,0.27
740.78,1.94,1.68,1.94,1.68,-1.68,-1.15,0.26,0.26,0.26
748.19,1.92,1.67,1.91,1.66,-1.66,-1.13,0.26,0.25,0.25
755.67,1.89,1.65,1.87,1.63,-1.63,-1.10,0.26,0.24,0.24
763.23,1.85,1.63,1.83,1.60,-1.60,-1.08,0.25,0.23,0.22
770.86,1.80,1.59,1.78,1.56,-1.56,-1.05,0.24,0.22,0.21
778.57,1.73,1.54,1.72,1.52,-1.52,-1.03,0.21,0.20,0.19
786.35,1.66,1.48,1.65,1.47,-1.47,-1.01,0.19,0.19,0.18
794.22,1.59,1.43,1.58,1.41,-1.41,-0.99,0.18,0.17,0.16
