frequency,raw,smoothed,error,error_smoothed,equalization,parametric_eq,fixed_band_eq,equalized_raw,equalized_smoothed,target
20.00,-8.29,-8.29,-14.59,-14.59,6.00,5.54,2.75,-2.29,-2.29,6.30
20.20,-8.21,-8.22,-14.51,-14.51,6.00,5.54,2.83,-2.21,-2.22,6.30
20.40,-8.13,-8.14,-14.43,-14.44,6.00,5.54,2.91,-2.13,-2.14,6.30
20.61,-8.07,-8.06,-14.36,-14.36,6.00,5.54,2.99,-2.07,-2.06,6.29
20.81,-7.98,-7.99,-14.28,-14.28,6.00,5.54,3.07,-1.98,-1.99,6.29
21.02,-7.90,-7.90,-14.20,-14.19,6.00,5.54,3.16,-1.90,-1.90,6.29
21.23,-7.82,-7.82,-14.10,-14.10,6.00,5.54,3.25,-1.82,-1.82,6.27
21.44,-7.73,-7.74,-14.00,-14.00,6.00,5.54,3.35,-1.73,-1.74,6.26
21.66,-7.66,-7.65,-13.90,-13.90,6.00,5.54,3.44,-1.66,-1.65,6.24
21.87,-7.57,-7.57,-13.79,-13.80,6.00,5.54,3.54,-1.57,-1.57,6.22
22.09,-7.48,-7.49,-13.69,-13.69,6.00,5.55,3.64,-1.48,-1.49,6.21
22.31,-7.40,-7.40,-13.58,-13.58,6.00,5.55,3.74,-1.40,-1.40,6.18
22.54,-7.32,-7.31,-13.48,-13.48,6.00,5.55,3.85,-1.32,-1.31,6.16
22.76,-7.22,-7.23,-13.36,-13.36,6.00,5.55,3.96,-1.22,-1.23,6.14
22.99,-7.14,-7.14,-13.25,-13.25,6.00,5.55,4.07,-1.14,-1.14,6.11
23.22,-7.05,-7.05,-13.13,-13.14,6.00,5.55,4.19,-1.05,-1.05,6.08
23.45,-6.96,-6.97,-13.02,-13.03,6.00,5.55,4.30,-0.96,-0.97,6.06
23.69,-6.88,-6.87,-12.92,-12.92,6.00,5.55,4.42,-0.88,-0.87,6.05
23.92,-6.78,-6.78,-12.81,-12.81,6.00,5.55,4.54,-0.78,-0.78,6.03
24.16,-6.69,-6.70,-12.71,-12.71,6.00,5.56,4.67,-0.69,-0.70,6.01
24.40,-6.60,-6.60,-12.60,-12.60,6.00,5.56,4.79,-0.60,-0.60,5.99
24.65,-6.52,-6.51,-12.49,-12.49,6.00,5.56,4.92,-0.52,-0.51,5.97
24.89,-6.41,-6.42,-12.36,-12.37,6.00,5.56,5.05,-0.41,-0.42,5.95
25.14,-6.32,-6.32,-12.26,-12.26,6.00,5.56,5.18,-0.32,-0.32,5.94
25.39,-6.23,-6.23,-12.15,-12.15,6.00,5.57,5.31,-0.23,-0.23,5.92
25.65,-6.14,-6.14,-12.04,-12.04,6.00,5.57,5.45,-0.14,-0.14,5.91
25.91,-6.05,-6.04,-11.92,-11.93,6.00,5.57,5.58,-0.05,-0.04,5.88
26.16,-5.94,-5.95,-11.81,-11.81,6.00,5.58,5.72,0.06,0.05,5.87
26.43,-5.86,-5.85,-11.71,-11.70,6.00,5.58,5.85,0.14,0.15,5.86
26.69,-5.75,-5.76,-11.59,-11.59,6.00,5.58,5.98,0.25,0.24,5.83
26.96,-5.67,-5.66,-11.49,-11.49,6.00,5.59,6.11,0.33,0.34,5.82
27.23,-5.57,-5.57,-11.38,-11.38,6.00,5.59,6.24,0.43,0.43,5.81
27.50,-5.48,-5.47,-11.28,-11.27,6.00,5.59,6.37,0.52,0.53,5.80
27.77,-5.37,-5.37,-11.15,-11.16,6.00,5.60,6.49,0.63,0.63,5.78
28.05,-5.27,-5.28,-11.04,-11.04,6.00,5.61,6.61,0.73,0.72,5.77
28.33,-5.18,-5.18,-10.93,-10.93,6.00,5.61,6.72,0.82,0.82,5.75
28.62,-5.09,-5.08,-10.82,-10.82,6.00,5.62,6.82,0.91,0.92,5.73
28.90,-4.98,-4.99,-10.71,-10.71,6.00,5.62,6.92,1.02,1.01,5.72
29.19,-4.89,-4.89,-10.60,-10.60,6.00,5.63,7.01,1.11,1.11,5.70
29.48,-4.79,-4.80,-10.49,-10.50,6.00,5.64,7.10,1.21,1.20,5.70
29.78,-4.71,-4.70,-10.39,-10.39,6.00,5.65,7.17,1.29,1.30,5.69
30.08,-4.61,-4.60,-10.28,-10.28,6.00,5.66,7.23,1.39,1.40,5.68
30.38,-4.51,-4.51,-10.16,-10.17,6.00,5.67,7.29,1.49,1.49,5.65
30.68,-4.41,-4.42,-10.06,-10.05,6.00,5.68,7.33,1.59,1.58,5.64
30.99,-4.33,-4.32,-9.95,-9.95,6.00,5.69,7.37,1.67,1.68,5.62
31.30,-4.24,-4.24,-9.84,-9.85,6.00,5.71,7.38,1.76,1.76,5.61
31.61,-4.14,-4.15,-9.74,-9.74,6.00,5.72,7.40,1.86,1.85,5.60
31.93,-4.07,-4.06,-9.64,-9.63,6.00,5.74,7.39,1.93,1.94,5.57
32.24,-3.98,-3.98,-9.52,-9.53,6.00,5.75,7.38,2.02,2.02,5.54
32.57,-3.90,-3.90,-9.42,-9.43,6.00,5.77,7.36,2.10,2.10,5.53
32.89,-3.81,-3.81,-9.33,-9.32,6.00,5.79,7.33,2.19,2.19,5.52
33.22,-3.73,-3.73,-9.22,-9.22,6.00,5.82,7.29,2.27,2.27,5.48
33.55,-3.64,-3.65,-9.11,-9.12,6.00,5.84,7.24,2.36,2.35,5.47
33.89,-3.56,-3.56,-9.01,-9.01,6.00,5.87,7.18,2.44,2.44,5.45
34.23,-3.49,-3.48,-8.91,-8.91,6.00,5.90,7.12,2.51,2.52,5.42
34.57,-3.40,-3.41,-8.81,-8.81,6.00,5.93,7.04,2.60,2.59,5.40
34.92,-3.33,-3.33,-8.70,-8.71,6.00,5.96,6.97,2.67,2.67,5.38
35.27,-3.25,-3.24,-8.61,-8.60,6.00,5.99,6.88,2.75,2.76,5.36
35.62,-3.17,-3.17,-8.51,-8.51,6.00,6.03,6.80,2.83,2.83,5.34
35.97,-3.08,-3.09,-8.40,-8.41,6.00,6.07,6.71,2.92,2.91,5.32
36.33,-3.01,-3.01,-8.32,-8.31,6.00,6.11,6.62,2.99,2.99,5.30
36.70,-2.94,-2.93,-8.22,-8.21,6.00,6.15,6.53,3.06,3.07,5.28
37.06,-2.85,-2.86,-8.11,-8.12,6.00,6.19,6.44,3.15,3.14,5.26
37.43,-2.78,-2.78,-8.03,-8.02,6.00,6.23,6.34,3.22,3.22,5.24
37.81,-2.70,-2.71,-7.92,-7.92,6.00,6.27,6.25,3.30,3.29,5.22
38.19,-2.64,-2.63,-7.83,-7.83,6.00,6.31,6.16,3.36,3.37,5.19
38.57,-2.55,-2.56,-7.73,-7.73,6.00,6.34,6.07,3.45,3.44,5.18
38.95,-2.48,-2.48,-7.64,-7.64,6.00,6.37,5.98,3.52,3.52,5.15
39.34,-2.41,-2.41,-7.54,-7.54,6.00,6.39,5.90,3.59,3.59,5.13
39.74,-2.35,-2.34,-7.45,-7.45,6.00,6.41,5.81,3.65,3.66,5.10
40.14,-2.28,-2.28,-7.37,-7.37,6.00,6.41,5.73,3.72,3.72,5.10
40.54,-2.21,-2.21,-7.28,-7.28,6.00,6.41,5.65,3.79,3.79,5.07
40.94,-2.13,-2.13,-7.19,-7.19,6.00,6.40,5.58,3.87,3.87,5.06
41.35,-2.06,-2.06,-7.09,-7.10,6.00,6.37,5.51,3.94,3.94,5.03
41.76,-1.99,-1.99,-7.02,-7.01,6.00,6.34,5.44,4.01,4.01,5.02
42.18,-1.92,-1.93,-6.93,-6.93,6.00,6.30,5.37,4.08,4.07,5.01
42.60,-1.86,-1.86,-6.84,-6.85,6.00,6.26,5.31,4.14,4.14,4.98
43.03,-1.79,-1.80,-6.77,-6.76,6.00,6.20,5.26,4.21,4.20,4.97
43.46,-1.73,-1.74,-6.68,-6.68,6.00,6.15,5.20,4.27,4.26,4.95
43.90,-1.68,-1.67,-6.59,-6.60,6.00,6.09,5.16,4.32,4.33,4.92
44.33,-1.61,-1.61,-6.52,-6.52,6.00,6.03,5.11,4.39,4.39,4.90
44.78,-1.55,-1.55,-6.44,-6.43,6.01,5.97,5.07,4.45,4.45,4.88
45.23,-1.50,-1.49,-6.35,-6.35,6.01,5.90,5.03,4.52,4.52,4.86
45.68,-1.43,-1.43,-6.27,-6.27,6.01,5.84,5.00,4.58,4.58,4.84
46.13,-1.37,-1.38,-6.19,-6.19,6.01,5.78,4.97,4.64,4.64,4.82
46.60,-1.32,-1.32,-6.12,-6.12,6.00,5.72,4.94,4.68,4.68,4.81
47.06,-1.26,-1.26,-6.05,-6.05,5.97,5.67,4.92,4.71,4.71,4.79
47.53,-1.20,-1.21,-5.97,-5.98,5.94,5.61,4.90,4.73,4.73,4.77
48.01,-1.15,-1.16,-5.91,-5.91,5.89,5.56,4.89,4.73,4.73,4.76
48.49,-1.10,-1.10,-5.83,-5.83,5.83,5.51,4.87,4.73,4.73,4.73
48.97,-1.05,-1.05,-5.75,-5.75,5.76,5.46,4.86,4.71,4.71,4.70
49.46,-1.00,-1.00,-5.67,-5.67,5.69,5.41,4.86,4.69,4.68,4.66
49.96,-0.95,-0.95,-5.59,-5.60,5.61,5.36,4.85,4.66,4.66,4.63
50.46,-0.90,-0.90,-5.54,-5.53,5.53,5.31,4.85,4.63,4.63,4.63
50.96,-0.85,-0.86,-5.46,-5.46,5.46,5.27,4.85,4.60,4.60,4.61
51.47,-0.80,-0.81,-5.38,-5.39,5.39,5.23,4.86,4.58,4.58,4.58
51.99,-0.76,-0.76,-5.32,-5.32,5.32,5.18,4.86,4.55,4.56,4.55
52.51,-0.72,-0.72,-5.25,-5.25,5.25,5.14,4.87,4.54,4.54,4.54
53.03,-0.67,-0.68,-5.19,-5.19,5.19,5.10,4.88,4.51,4.51,4.51
53.56,-0.63,-0.63,-5.12,-5.12,5.12,5.06,4.88,4.49,4.49,4.49
54.10,-0.59,-0.59,-5.06,-5.06,5.05,5.02,4.89,4.46,4.46,4.46
54.64,-0.55,-0.55,-4.99,-4.99,4.99,4.98,4.90,4.44,4.44,4.44
55.18,-0.51,-0.51,-4.92,-4.92,4.93,4.94,4.91,4.41,4.41,4.41
55.74,-0.47,-0.47,-4.86,-4.86,4.86,4.90,4.91,4.39,4.39,4.38
56.29,-0.43,-0.44,-4.80,-4.80,4.80,4.86,4.92,4.37,4.36,4.37
56.86,-0.40,-0.40,-4.74,-4.74,4.74,4.82,4.92,4.34,4.34,4.34
57.42,-0.37,-0.37,-4.68,-4.68,4.68,4.78,4.92,4.31,4.31,4.31
58.00,-0.33,-0.34,-4.62,-4.62,4.63,4.74,4.92,4.29,4.29,4.29
58.58,-0.30,-0.31,-4.56,-4.57,4.57,4.71,4.92,4.26,4.26,4.26
59.16,-0.27,-0.27,-4.51,-4.51,4.51,4.67,4.91,4.24,4.24,4.24
59.76,-0.24,-0.24,-4.46,-4.46,4.46,4.62,4.90,4.21,4.22,4.22
60.35,-0.21,-0.21,-4.40,-4.41,4.40,4.58,4.89,4.19,4.19,4.19
60.96,-0.18,-0.19,-4.36,-4.35,4.35,4.54,4.87,4.16,4.16,4.17
61.57,-0.16,-0.16,-4.30,-4.30,4.29,4.50,4.85,4.13,4.13,4.13
62.18,-0.14,-0.14,-4.24,-4.24,4.24,4.46,4.82,4.10,4.10,4.10
62.80,-0.11,-0.12,-4.19,-4.19,4.19,4.42,4.79,4.08,4.07,4.07
63.43,-0.09,-0.10,-4.13,-4.14,4.14,4.37,4.75,4.05,4.05,4.04
64.07,-0.07,-0.07,-4.09,-4.09,4.09,4.33,4.71,4.02,4.02,4.01
64.71,-0.05,-0.05,-4.05,-4.05,4.05,4.28,4.67,3.99,3.99,4.00
65.35,-0.03,-0.04,-4.00,-4.00,4.00,4.24,4.62,3.97,3.97,3.97
66.01,-0.01,-0.02,-3.96,-3.96,3.96,4.19,4.57,3.95,3.95,3.95
66.67,-0.00,-0.00,-3.93,-3.92,3.92,4.15,4.51,3.92,3.92,3.92
67.33,0.02,0.01,-3.89,-3.89,3.88,4.10,4.45,3.90,3.90,3.90
68.01,0.03,0.03,-3.85,-3.84,3.84,4.05,4.38,3.87,3.87,3.87
68.69,0.05,0.04,-3.80,-3.80,3.81,4.00,4.32,3.85,3.85,3.85
69.37,0.06,0.05,-3.76,-3.77,3.77,3.95,4.25,3.82,3.82,3.82
70.07,0.07,0.07,-3.73,-3.73,3.73,3.90,4.18,3.79,3.80,3.79
70.77,0.08,0.08,-3.70,-3.69,3.69,3.85,4.10,3.77,3.77,3.77
71.48,0.09,0.08,-3.65,-3.66,3.65,3.80,4.03,3.74,3.74,3.74
72.19,0.10,0.09,-3.62,-3.61,3.61,3.75,3.95,3.71,3.71,3.71
72.91,0.10,0.10,-3.58,-3.58,3.58,3.70,3.87,3.67,3.67,3.68
73.64,0.11,0.10,-3.53,-3.54,3.54,3.65,3.79,3.64,3.64,3.64
74.38,0.11,0.11,-3.51,-3.50,3.50,3.60,3.71,3.60,3.61,3.61
75.12,0.12,0.11,-3.45,-3.46,3.46,3.54,3.63,3.57,3.57,3.56
75.87,0.12,0.11,-3.42,-3.42,3.42,3.49,3.56,3.54,3.53,3.53
76.63,0.12,0.12,-3.39,-3.38,3.38,3.44,3.48,3.50,3.50,3.50
77.40,0.12,0.12,-3.35,-3.34,3.34,3.38,3.40,3.46,3.46,3.46
78.17,0.12,0.12,-3.29,-3.31,3.30,3.33,3.32,3.42,3.42,3.41
78.95,0.12,0.12,-3.27,-3.27,3.26,3.27,3.24,3.38,3.38,3.39
79.74,0.12,0.12,-3.23,-3.23,3.22,3.22,3.17,3.34,3.34,3.34
80.54,0.12,0.11,-3.18,-3.19,3.18,3.17,3.10,3.30,3.30,3.30
81.35,0.12,0.11,-3.14,-3.14,3.14,3.11,3.02,3.26,3.26,3.25
82.16,0.11,0.11,-3.10,-3.10,3.10,3.06,2.95,3.21,3.21,3.21
82.98,0.11,0.10,-3.07,-3.06,3.06,3.01,2.88,3.17,3.17,3.17
83.81,0.10,0.10,-3.02,-3.02,3.02,2.95,2.82,3.12,3.12,3.12
84.65,0.09,0.09,-2.98,-2.98,2.98,2.90,2.75,3.07,3.07,3.07
85.50,0.09,0.08,-2.94,-2.94,2.94,2.85,2.68,3.03,3.03,3.03
86.35,0.08,0.07,-2.90,-2.90,2.91,2.80,2.62,2.98,2.98,2.98
87.22,0.07,0.07,-2.87,-2.87,2.87,2.75,2.56,2.93,2.93,2.93
88.09,0.06,0.06,-2.82,-2.83,2.83,2.70,2.50,2.88,2.88,2.88
88.97,0.05,0.05,-2.79,-2.79,2.79,2.65,2.45,2.83,2.83,2.84
89.86,0.04,0.04,-2.75,-2.75,2.75,2.60,2.39,2.78,2.78,2.79
90.76,0.03,0.03,-2.70,-2.71,2.71,2.55,2.34,2.73,2.73,2.73
91.66,0.02,0.02,-2.67,-2.66,2.67,2.51,2.29,2.68,2.68,2.68
92.58,0.01,0.01,-2.61,-2.62,2.63,2.46,2.24,2.63,2.63,2.62
93.51,-0.00,-0.00,-2.59,-2.59,2.58,2.41,2.19,2.58,2.58,2.59
94.44,-0.01,-0.02,-2.55,-2.54,2.54,2.37,2.14,2.53,2.53,2.53
95.39,-0.02,-0.03,-2.50,-2.50,2.50,2.33,2.10,2.47,2.47,2.48
96.34,-0.04,-0.04,-2.46,-2.46,2.46,2.28,2.05,2.41,2.42,2.41
97.30,-0.05,-0.05,-2.41,-2.41,2.41,2.24,2.01,2.36,2.36,2.36
98.28,-0.06,-0.07,-2.37,-2.37,2.37,2.20,1.97,2.30,2.30,2.30
99.26,-0.08,-0.08,-2.32,-2.32,2.32,2.16,1.93,2.24,2.24,2.24
100.25,-0.09,-0.10,-2.28,-2.28,2.28,2.12,1.90,2.18,2.18,2.18
101.25,-0.11,-0.11,-2.24,-2.23,2.23,2.08,1.86,2.12,2.12,2.12
102.27,-0.12,-0.13,-2.18,-2.19,2.19,2.04,1.83,2.06,2.06,2.06
103.29,-0.14,-0.14,-2.14,-2.14,2.14,2.01,1.79,2.00,2.00,1.99
104.32,-0.15,-0.16,-2.09,-2.09,2.09,1.97,1.76,1.94,1.94,1.94
105.37,-0.17,-0.17,-2.05,-2.05,2.05,1.93,1.73,1.87,1.88,1.88
106.42,-0.18,-0.19,-2.00,-2.00,2.00,1.90,1.70,1.82,1.81,1.81
107.48,-0.20,-0.20,-1.95,-1.95,1.95,1.86,1.67,1.75,1.75,1.75
108.56,-0.22,-0.22,-1.91,-1.90,1.90,1.83,1.65,1.68,1.68,1.68
109.64,-0.23,-0.24,-1.85,-1.86,1.86,1.79,1.62,1.62,1.62,1.61
110.74,-0.25,-0.25,-1.81,-1.81,1.81,1.76,1.59,1.55,1.55,1.56
111.85,-0.27,-0.27,-1.77,-1.76,1.76,1.73,1.57,1.48,1.49,1.49
112.97,-0.28,-0.29,-1.69,-1.71,1.71,1.69,1.55,1.42,1.42,1.41
114.10,-0.30,-0.30,-1.66,-1.65,1.65,1.66,1.52,1.35,1.35,1.35
115.24,-0.32,-0.32,-1.61,-1.60,1.60,1.63,1.50,1.28,1.28,1.29
116.39,-0.33,-0.34,-1.55,-1.56,1.56,1.60,1.48,1.22,1.22,1.21
117.55,-0.35,-0.35,-1.50,-1.50,1.51,1.57,1.45,1.15,1.15,1.15
118.73,-0.37,-0.37,-1.46,-1.46,1.46,1.54,1.43,1.09,1.09,1.09
119.92,-0.38,-0.39,-1.42,-1.42,1.42,1.51,1.41,1.03,1.03,1.03
121.12,-0.40,-0.41,-1.37,-1.37,1.38,1.48,1.39,0.97,0.97,0.97
122.33,-0.42,-0.42,-1.33,-1.33,1.33,1.45,1.37,0.91,0.91,0.91
123.55,-0.44,-0.44,-1.30,-1.30,1.29,1.42,1.35,0.85,0.85,0.86
124.79,-0.46,-0.46,-1.26,-1.26,1.25,1.39,1.33,0.79,0.79,0.79
126.03,-0.47,-0.48,-1.22,-1.22,1.21,1.36,1.31,0.74,0.74,0.74
127.29,-0.49,-0.50,-1.18,-1.18,1.17,1.33,1.29,0.68,0.68,0.68
128.57,-0.51,-0.51,-1.13,-1.14,1.14,1.31,1.27,0.62,0.62,0.61
129.85,-0.53,-0.53,-1.10,-1.10,1.10,1.28,1.25,0.57,0.57,0.57
131.15,-0.54,-0.55,-1.06,-1.06,1.07,1.25,1.23,0.52,0.52,0.52
132.46,-0.56,-0.57,-1.02,-1.03,1.03,1.23,1.22,0.47,0.47,0.46
133.79,-0.58,-0.58,-1.01,-1.00,1.00,1.20,1.20,0.42,0.42,0.42
135.12,-0.60,-0.60,-0.97,-0.98,0.97,1.18,1.18,0.37,0.37,0.37
136.48,-0.61,-0.62,-0.95,-0.95,0.95,1.15,1.16,0.33,0.33,0.33
137.84,-0.63,-0.63,-0.93,-0.92,0.92,1.13,1.14,0.29,0.29,0.30
139.22,-0.64,-0.65,-0.89,-0.90,0.90,1.11,1.12,0.26,0.25,0.24
140.61,-0.66,-0.66,-0.87,-0.88,0.88,1.08,1.11,0.22,0.22,0.20
142.02,-0.67,-0.68,-0.86,-0.86,0.86,1.06,1.09,0.19,0.19,0.19
143.44,-0.69,-0.69,-0.85,-0.85,0.84,1.04,1.07,0.15,0.15,0.16
144.87,-0.70,-0.71,-0.82,-0.83,0.83,1.02,1.06,0.12,0.12,0.12
146.32,-0.72,-0.72,-0.81,-0.82,0.81,1.00,1.04,0.09,0.09,0.09
147.78,-0.73,-0.74,-0.80,-0.80,0.80,0.98,1.02,0.07,0.06,0.07
149.26,-0.75,-0.75,-0.80,-0.79,0.79,0.96,1.01,0.03,0.04,0.04
150.75,-0.76,-0.76,-0.77,-0.77,0.77,0.94,0.99,0.01,0.01,0.00
152.26,-0.77,-0.78,-0.75,-0.75,0.76,0.92,0.98,-0.02,-0.02,-0.02
153.78,-0.78,-0.79,-0.74,-0.74,0.74,0.90,0.97,-0.04,-0.05,-0.05
155.32,-0.80,-0.80,-0.73,-0.73,0.73,0.88,0.95,-0.08,-0.07,-0.07
156.88,-0.81,-0.81,-0.72,-0.72,0.71,0.87,0.94,-0.10,-0.10,-0.10
158.44,-0.82,-0.83,-0.70,-0.70,0.69,0.85,0.93,-0.13,-0.13,-0.13
160.03,-0.83,-0.83,-0.67,-0.67,0.68,0.83,0.91,-0.16,-0.16,-0.16
161.63,-0.84,-0.84,-0.65,-0.66,0.66,0.82,0.90,-0.19,-0.19,-0.19
163.24,-0.85,-0.85,-0.64,-0.64,0.64,0.81,0.89,-0.21,-0.21,-0.21
164.88,-0.86,-0.86,-0.63,-0.63,0.62,0.79,0.88,-0.24,-0.24,-0.23
166.53,-0.87,-0.87,-0.61,-0.61,0.61,0.78,0.87,-0.27,-0.27,-0.26
168.19,-0.88,-0.88,-0.58,-0.59,0.59,0.77,0.86,-0.30,-0.29,-0.30
169.87,-0.89,-0.90,-0.57,-0.57,0.57,0.75,0.85,-0.32,-0.32,-0.33
171.57,-0.91,-0.91,-0.56,-0.56,0.56,0.74,0.84,-0.35,-0.35,-0.36
173.29,-0.93,-0.93,-0.55,-0.55,0.55,0.73,0.83,-0.39,-0.39,-0.38
175.02,-0.95,-0.96,-0.54,-0.54,0.54,0.72,0.83,-0.42,-0.42,-0.42
176.77,-0.98,-0.98,-0.52,-0.53,0.53,0.71,0.82,-0.46,-0.46,-0.46
178.54,-1.01,-1.01,-0.52,-0.52,0.52,0.70,0.81,-0.49,-0.49,-0.50
180.32,-1.04,-1.04,-0.52,-0.51,0.52,0.69,0.81,-0.53,-0.53,-0.53
182.13,-1.07,-1.08,-0.51,-0.51,0.51,0.69,0.80,-0.56,-0.56,-0.56
183.95,-1.11,-1.11,-0.51,-0.51,0.51,0.68,0.80,-0.60,-0.60,-0.60
185.79,-1.15,-1.15,-0.52,-0.51,0.51,0.67,0.79,-0.64,-0.64,-0.63
187.65,-1.18,-1.19,-0.51,-0.51,0.51,0.66,0.79,-0.67,-0.67,-0.68
189.52,-1.21,-1.22,-0.51,-0.51,0.51,0.66,0.79,-0.70,-0.70,-0.71
191.42,-1.24,-1.25,-0.51,-0.51,0.51,0.65,0.78,-0.74,-0.74,-0.73
193.33,-1.27,-1.27,-0.52,-0.52,0.51,0.65,0.78,-0.77,-0.77,-0.75
195.27,-1.29,-1.30,-0.51,-0.51,0.50,0.65,0.78,-0.79,-0.79,-0.78
197.22,-1.31,-1.31,-0.50,-0.50,0.50,0.64,0.78,-0.82,-0.82,-0.81
199.19,-1.33,-1.34,-0.48,-0.49,0.49,0.64,0.78,-0.84,-0.84,-0.86
201.18,-1.35,-1.36,-0.48,-0.48,0.49,0.64,0.78,-0.86,-0.87,-0.87
203.19,-1.38,-1.38,-0.50,-0.49,0.49,0.63,0.78,-0.89,-0.89,-0.89
205.23,-1.40,-1.41,-0.49,-0.50,0.50,0.63,0.78,-0.91,-0.91,-0.92
207.28,-1.43,-1.44,-0.51,-0.51,0.51,0.63,0.78,-0.93,-0.93,-0.92
209.35,-1.47,-1.47,-0.52,-0.52,0.52,0.63,0.78,-0.95,-0.95,-0.95
211.44,-1.51,-1.51,-0.54,-0.54,0.55,0.63,0.78,-0.97,-0.97,-0.98
213.56,-1.55,-1.56,-0.56,-0.57,0.57,0.63,0.78,-0.98,-0.99,-0.99
215.69,-1.60,-1.60,-0.61,-0.60,0.60,0.63,0.78,-1.00,-1.00,-1.00
217.85,-1.64,-1.65,-0.64,-0.63,0.63,0.63,0.79,-1.01,-1.02,-1.01
220.03,-1.69,-1.69,-0.66,-0.67,0.66,0.64,0.79,-1.03,-1.03,-1.03
222.23,-1.73,-1.73,-0.69,-0.70,0.70,0.64,0.79,-1.04,-1.04,-1.04
224.45,-1.77,-1.77,-0.74,-0.73,0.73,0.64,0.80,-1.04,-1.04,-1.03
226.70,-1.80,-1.81,-0.76,-0.76,0.76,0.64,0.80,-1.04,-1.04,-1.05
228.96,-1.83,-1.84,-0.79,-0.80,0.79,0.65,0.80,-1.04,-1.04,-1.05
231.25,-1.86,-1.86,-0.83,-0.83,0.82,0.65,0.81,-1.04,-1.04,-1.04
233.57,-1.88,-1.88,-0.86,-0.85,0.85,0.66,0.81,-1.04,-1.04,-1.03
235.90,-1.90,-1.90,-0.88,-0.88,0.88,0.66,0.82,-1.03,-1.03,-1.03
238.26,-1.91,-1.92,-0.89,-0.90,0.90,0.67,0.82,-1.01,-1.02,-1.03
240.64,-1.93,-1.93,-0.93,-0.92,0.93,0.67,0.83,-1.01,-1.00,-1.00
243.05,-1.94,-1.95,-0.95,-0.95,0.95,0.68,0.83,-0.99,-0.99,-0.99
245.48,-1.95,-1.96,-0.98,-0.98,0.98,0.68,0.84,-0.98,-0.98,-0.97
247.93,-1.96,-1.96,-1.00,-1.00,1.00,0.69,0.84,-0.96,-0.96,-0.96
250.41,-1.96,-1.97,-1.02,-1.03,1.03,0.70,0.85,-0.93,-0.94,-0.95
252.92,-1.97,-1.97,-1.06,-1.05,1.05,0.71,0.85,-0.92,-0.92,-0.92
255.45,-1.97,-1.98,-1.08,-1.08,1.08,0.72,0.86,-0.90,-0.90,-0.89
258.00,-1.97,-1.98,-1.10,-1.10,1.10,0.72,0.86,-0.88,-0.88,-0.87
260.58,-1.97,-1.97,-1.12,-1.12,1.12,0.73,0.87,-0.85,-0.85,-0.86
263.19,-1.96,-1.97,-1.13,-1.13,1.14,0.74,0.88,-0.83,-0.83,-0.83
265.82,-1.95,-1.96,-1.15,-1.15,1.15,0.75,0.88,-0.80,-0.80,-0.81
268.48,-1.94,-1.95,-1.16,-1.16,1.17,0.76,0.89,-0.78,-0.78,-0.79
271.16,-1.93,-1.93,-1.18,-1.18,1.17,0.77,0.90,-0.76,-0.76,-0.75
273.87,-1.91,-1.91,-1.18,-1.18,1.17,0.78,0.91,-0.74,-0.74,-0.74
276.61,-1.88,-1.88,-1.18,-1.18,1.17,0.80,0.92,-0.72,-0.72,-0.70
279.38,-1.84,-1.85,-1.16,-1.16,1.15,0.81,0.92,-0.69,-0.69,-0.69
282.17,-1.80,-1.80,-1.14,-1.14,1.13,0.82,0.93,-0.67,-0.67,-0.66
284.99,-1.75,-1.75,-1.12,-1.11,1.11,0.83,0.94,-0.65,-0.64,-0.64
287.84,-1.69,-1.70,-1.08,-1.09,1.08,0.85,0.95,-0.62,-0.62,-0.61
290.72,-1.63,-1.63,-1.06,-1.05,1.05,0.86,0.96,-0.59,-0.59,-0.58
293.63,-1.57,-1.57,-1.01,-1.02,1.02,0.87,0.97,-0.56,-0.55,-0.56
296.57,-1.51,-1.52,-0.99,-0.99,1.00,0.89,0.99,-0.52,-0.52,-0.53
299.53,-1.47,-1.47,-0.97,-0.97,0.98,0.90,1.00,-0.49,-0.49,-0.50
302.53,-1.43,-1.43,-0.96,-0.97,0.98,0.92,1.01,-0.46,-0.45,-0.47
305.55,-1.40,-1.41,-0.98,-0.97,0.99,0.93,1.03,-0.42,-0.42,-0.43
308.61,-1.39,-1.39,-0.99,-1.00,1.00,0.95,1.04,-0.39,-0.39,-0.40
311.69,-1.39,-1.39,-1.03,-1.03,1.03,0.96,1.06,-0.36,-0.36,-0.36
314.81,-1.40,-1.41,-1.08,-1.07,1.07,0.98,1.07,-0.33,-0.33,-0.33
317.96,-1.42,-1.42,-1.12,-1.12,1.12,1.00,1.09,-0.31,-0.30,-0.30
321.14,-1.44,-1.44,-1.17,-1.17,1.17,1.01,1.11,-0.28,-0.28,-0.27
324.35,-1.46,-1.47,-1.22,-1.22,1.22,1.03,1.12,-0.25,-0.25,-0.25
327.59,-1.49,-1.49,-1.28,-1.28,1.27,1.05,1.14,-0.22,-0.22,-0.21
330.87,-1.51,-1.51,-1.33,-1.33,1.32,1.07,1.16,-0.19,-0.19,-0.18
334.18,-1.53,-1.54,-1.37,-1.37,1.37,1.09,1.19,-0.16,-0.16,-0.17
337.52,-1.55,-1.55,-1.42,-1.42,1.42,1.10,1.21,-0.14,-0.14,-0.14
340.90,-1.57,-1.58,-1.46,-1.46,1.46,1.12,1.23,-0.11,-0.11,-0.11
344.30,-1.59,-1.60,-1.50,-1.51,1.50,1.14,1.26,-0.09,-0.09,-0.09
347.75,-1.61,-1.61,-1.55,-1.54,1.54,1.16,1.28,-0.08,-0.07,-0.07
351.23,-1.62,-1.63,-1.58,-1.58,1.57,1.18,1.31,-0.05,-0.05,-0.05
354.74,-1.63,-1.64,-1.60,-1.60,1.61,1.20,1.33,-0.03,-0.03,-0.03
358.28,-1.64,-1.65,-1.63,-1.63,1.64,1.23,1.36,-0.01,-0.01,-0.01
361.87,-1.65,-1.65,-1.66,-1.66,1.66,1.25,1.39,0.01,0.01,0.01
365.49,-1.66,-1.66,-1.70,-1.69,1.69,1.27,1.42,0.02,0.03,0.03
369.14,-1.66,-1.67,-1.71,-1.71,1.71,1.29,1.45,0.05,0.04,0.04
372.83,-1.67,-1.67,-1.73,-1.73,1.73,1.31,1.49,0.06,0.06,0.06
376.56,-1.67,-1.67,-1.75,-1.75,1.76,1.34,1.52,0.08,0.08,0.08
380.33,-1.67,-1.68,-1.78,-1.78,1.78,1.36,1.55,0.10,0.10,0.11
384.13,-1.67,-1.68,-1.80,-1.80,1.80,1.38,1.59,0.12,0.12,0.12
387.97,-1.67,-1.67,-1.82,-1.82,1.82,1.41,1.62,0.14,0.14,0.14
391.85,-1.67,-1.67,-1.84,-1.84,1.84,1.43,1.66,0.16,0.16,0.16
395.77,-1.66,-1.67,-1.85,-1.86,1.85,1.45,1.70,0.19,0.18,0.19
399.73,-1.66,-1.66,-1.87,-1.87,1.87,1.48,1.73,0.20,0.21,0.21
403.72,-1.65,-1.65,-1.88,-1.88,1.88,1.50,1.77,0.23,0.23,0.23
407.76,-1.64,-1.65,-1.89,-1.89,1.90,1.53,1.81,0.25,0.25,0.25
411.84,-1.63,-1.63,-1.91,-1.90,1.91,1.55,1.85,0.27,0.27,0.27
415.96,-1.62,-1.62,-1.92,-1.92,1.92,1.58,1.89,0.29,0.29,0.29
420.12,-1.61,-1.62,-1.93,-1.93,1.93,1.60,1.92,0.31,0.31,0.31
424.32,-1.60,-1.60,-1.95,-1.94,1.94,1.63,1.96,0.33,0.34,0.34
428.56,-1.59,-1.59,-1.95,-1.95,1.95,1.66,2.00,0.35,0.36,0.36
432.85,-1.57,-1.58,-1.95,-1.96,1.96,1.68,2.04,0.38,0.38,0.38
437.18,-1.56,-1.56,-1.97,-1.97,1.97,1.71,2.07,0.41,0.41,0.41
441.55,-1.54,-1.55,-1.98,-1.98,1.98,1.74,2.11,0.44,0.44,0.44
445.96,-1.53,-1.54,-1.99,-1.99,2.00,1.76,2.15,0.46,0.46,0.46
450.42,-1.52,-1.52,-2.00,-2.01,2.01,1.79,2.18,0.48,0.49,0.48
454.93,-1.51,-1.51,-2.03,-2.02,2.02,1.82,2.21,0.51,0.51,0.51
459.48,-1.50,-1.50,-2.04,-2.04,2.04,1.84,2.24,0.54,0.54,0.53
464.07,-1.49,-1.50,-2.06,-2.06,2.06,1.87,2.27,0.56,0.56,0.56
468.71,-1.48,-1.48,-2.09,-2.08,2.08,1.90,2.30,0.59,0.59,0.60
473.40,-1.47,-1.47,-2.10,-2.10,2.09,1.93,2.32,0.62,0.62,0.62
478.13,-1.45,-1.46,-2.11,-2.11,2.11,1.95,2.34,0.65,0.65,0.65
482.91,-1.44,-1.44,-2.12,-2.12,2.13,1.98,2.36,0.68,0.68,0.68
487.74,-1.43,-1.43,-2.14,-2.14,2.14,2.01,2.38,0.71,0.71,0.71
