frequency,raw,error,smoothed,error_smoothed,equalization,equalized_raw,equalized_smoothed,target
20,-5.554543597722712,-9.675164348330625,-5.515585820841643,-9.636224816019899,5.999999999999999,0.4454564022772871,0.48441417915835583,4.120620750607913
21,-4.887745874888994,-9.039981019598326,-4.915946115852113,-9.068170636365721,6.0,1.112254125111006,1.0840538841478873,4.152235144709332
22,-4.295813482892021,-8.476261962915517,-4.339987481627736,-8.520413899988851,5.999999999999998,1.7041865171079769,1.6600125183722625,4.180448480023496
23,-3.7106576412175394,-7.915916991539078,-3.787709918168512,-7.992954606889287,6.0,2.2893423587824606,2.212290081831488,4.205259350321538
24,-3.457975893612105,-7.684641990066341,-3.2591134254744363,-7.485792757067017,6.000000000000002,2.5420241063878968,2.7408865745255655,4.2266660964542355
25,-2.6734931349914106,-6.918159909897208,-2.7537881816776646,-6.998526882412039,6.000000000000002,3.326506865008591,3.246211818322337,4.244666774905798
26,-2.290278679271604,-6.549537803321865,-2.272518440469653,-6.531936846711115,5.912342251126763,3.6220635718551586,3.6398238106571097,4.259259124050261
27,-1.8129316531412267,-6.083441126851769,-1.815693824494578,-6.08640392222406,5.732700580183334,3.919768927042107,3.917006755688756,4.270509473710542
28,-1.3149648736066912,-5.59332651419264,-1.3833966570429432,-5.661990958231902,5.471827797531893,4.1568629239252015,4.08843114048895,4.278361640585948
29,-0.9111617367496629,-5.193948428261375,-0.9751440320596763,-5.258180052951046,5.1694903481241905,4.258328611374528,4.1943463160645145,4.282786691511712
30,-0.6117115257959914,-4.895449214456786,-0.5895583038522784,-4.873541758490044,4.846806196906172,4.235094671110181,4.2572478930538935,4.2837376886607945
31,-0.28420473366854904,-4.565351600543428,-0.22473191804481885,-4.506096944884737,4.506096944884738,4.221892211216189,4.281365026839919,4.281146866874879
32,0.09669210562807663,-4.178232175898388,0.12149413022843517,-4.1535954027381745,4.153595402738175,4.250287508366252,4.275089532966611,4.274924281526465
33,0.4361938491485001,-3.828764771259694,0.4511487986654095,-3.8138991697196243,3.8138991697196234,4.250093018868124,4.265047968385033,4.264958620408194
34,0.7744190428337875,-3.4767130131012505,0.7658253043965288,-3.485291999971536,3.485291999971536,4.259711042805323,4.251117304368065,4.251132055935038
35,1.0477712328246995,-3.1855433284334365,1.066622825322726,-3.1665439544848795,3.1665439544848786,4.2143151873095785,4.233166779807604,4.233314561258136
36,1.4500700833994122,-2.7613050341039127,1.3542129527690694,-2.8568533874071687,2.856853387407169,4.3069234708065816,4.211066340176238,4.211375117503325
37,1.618355348505279,-2.566836856431543,1.6289961679715863,-2.5557011843914603,2.5557011843914603,4.174056532896739,4.184697352363047,4.185192204936822
38,1.8352538616461656,-2.319412589493278,1.8912454038887934,-2.2627200688769675,2.2627200688769675,4.097973930523133,4.153965472765761,4.154666451139444
39,2.1410518412401207,-1.9786832486056443,2.1411689677986088,-1.9776464288857465,1.9776464288857465,4.118698270125867,4.118815396684355,4.119735089845765
40,2.391016905450022,-1.6893708564694414,2.3789142166449597,-1.7003329149539659,1.7003329149539663,4.091349820403988,4.079247131598926,4.0803877619194635
41,2.516305280302869,-1.5203796317381943,2.6045537797306917,-1.430779420498335,1.430779420498335,3.947084700801204,4.035333200229027,4.036684912041063
42,2.918018418553437,-1.0707570094001495,2.818107271939513,-1.1691287307150013,1.169128730715002,4.087147149268439,3.987236002654515,3.9887754279535863
43,2.9701378813412016,-0.9667760040381848,3.019620045386999,-0.9156043550976156,0.9156043550976157,3.8857422364388174,3.9352244004846146,3.9369138853793864
44,3.32573966668378,-0.555736436133579,3.2092762251104476,-0.6704122316675007,0.6704122316675007,3.9961518983512807,3.8796884567779486,3.881476102817359
45,3.3797064944723174,-0.4432653460267528,3.3875020064487638,-0.4336492001795072,0.4336492001795071,3.8133556946518246,3.821151206628271,3.8229718404990702
46,3.46822104732608,-0.2938323877982878,3.5550170274653627,-0.205259311253911,0.20525931125391095,3.673480358579991,3.7602763387192737,3.762053435124368
47,3.6321690362444836,-0.06735015248252241,3.7128160796298566,0.014945332484408092,-0.014945332484408094,3.6172237037600756,3.6978707471454486,3.699519188727006
48,3.9541473038197448,0.3178365705160995,3.86209233785095,0.22721127303878047,-0.22721127303878047,3.7269360307809642,3.6348810648121694,3.6363107333036453
49,4.065012612063811,0.49150907089718343,4.00412687916765,0.4317433691434172,-0.43174336914341715,3.6332692429203934,3.572383510024233,3.573503541166627
50,4.108384320791741,0.5960941663826604,4.140165403352409,0.6285987429656006,-0.6285987429656005,3.4797855778261404,3.5115666603868085,3.5122901544090803
51,4.2661620381457706,0.8122059995423077,4.271291743775283,0.8175846423679988,-0.8175846423679987,3.4485773957777717,3.453707101407284,3.453956038603463
52,4.3560613835848825,0.9562130321064348,4.398302575249565,0.9981643094879797,-0.9981643094879795,3.357897074096903,3.4001382657615853,3.3998483514784477
53,4.514653856803746,1.1633155411684402,4.5215942844668096,1.169381120506524,-1.1693811205065243,3.345272736297222,3.3522131639602852,3.351338315635306
54,4.636488961959022,1.326710693974949,4.641087037786603,1.3298249514750984,-1.3298249514750984,3.3066640104839236,3.3112620863115048,3.309778267984073
55,4.76903559568541,1.4925807488228244,4.756221154287985,1.477674447634873,-1.4776744476348735,3.2913611480505365,3.2785467066531115,3.2764548468625856
56,4.869610301489584,1.6170702148760565,4.86605517442945,1.6108428567449429,-1.6108428567449435,3.258767444744641,3.2552123176845065,3.2525400866135277
57,4.970185008098016,1.7311425742750632,4.96946837266656,1.72722821755214,-1.7272282175521394,3.242956790545877,3.2422401551144207,3.239042433822953
58,5.070759722414428,1.8339998717920993,5.065432493191865,1.8250305874194572,-1.8250305874194572,3.2457291349949706,3.2404019057724076,3.2367598506223283
59,5.160278337843125,1.9140411220645017,5.1532854655803115,1.9030669352318785,-1.9030669352318785,3.2572114026112464,3.250218530348433,3.2462372157786232
60,5.262631416220996,1.9949012513689564,5.232928140444316,1.961002683374188,-1.961002683374188,3.301628732846808,3.271925457070128,3.26773016485204
61,5.2719092858342265,1.9707319629833613,5.3048795019220325,1.999433484738659,-1.9994334847386592,3.2724758010955672,3.3054460171833733,3.301177322850865
62,5.372484079154956,2.0263014934582535,5.37016377706475,2.019789075129133,-2.0197890751291325,3.352695004025824,3.3503747019356176,3.346182585696703
63,5.473058831045039,2.0710501211618735,5.43005266225622,2.0240812265402384,-2.024081226540239,3.4489776045048,3.4059714357159816,3.4020087098831655
64,5.473058747156781,2.0054757549914872,5.485730835389346,2.014563236465944,-2.0145632364659445,3.4584955106908364,3.471167598923402,3.4675829921652936
65,5.4730584407726965,1.9315431540340073,5.537977803397421,1.993393783772438,-1.9933937837724371,3.479664657000259,3.544584019624984,3.541515286738689
66,5.573632548770876,1.9515045046427604,5.58695739245291,1.9623967800424664,-1.9623967800424669,3.6112357687284087,3.624560612410443,3.6221280441281154
67,5.672390787467432,1.9648932932442236,5.632178199661528,1.922981395575366,-1.9229813955753654,3.7494093918920663,3.7091968040861625,3.707497494223208
68,5.6753300148767964,1.8798254487422028,5.672640939030019,1.8762395614050724,-1.8762395614050722,3.7990904534717242,3.7964013776249472,3.7955045661345936
69,5.674204831204508,1.7903111617782241,5.7071354214845265,1.823185504230127,-1.823185504230127,3.8510193269743813,3.8839499172543994,3.8838936694262842
70,5.7747800921961225,1.8044430112184506,5.734608104244192,1.7650604291531682,-1.7650604291531682,4.009719663042954,3.9695476750910235,3.970337080977672
71,5.7747827045833215,1.7222802939951674,5.7545032639818,1.7036078415064262,-1.7036078415064266,4.0711748630768945,4.050895422475373,4.052502410588154
72,5.774788236403799,1.6466677648354935,5.766991161450299,1.6412354536389615,-1.6412354536389615,4.133552782764838,4.125755707811338,4.128120471568305
73,5.774796999651966,1.5797461317531836,5.773030774916492,1.5810138537202536,-1.5810138537202536,4.193783145931713,4.192016921196238,4.195050867898782
74,5.774808140101923,1.5234654127428442,5.774261824196019,1.5265091515457685,-1.5265091515457687,4.248298988556154,4.24775267265025,4.251342727359079
75,5.74730909334777,1.4520208404223993,5.772765106892445,1.4814908887790135,-1.4814908887790135,4.265818204568756,4.291274218113431,4.295288252925371
76,5.77482457885904,1.4493574606810222,5.770758344960636,1.4495843329397755,-1.4495843329397757,4.3252402459192645,4.32117401202086,4.325467118178018
77,5.774817748666633,1.4340375729249821,5.770301473102611,1.4339425491775757,-1.433942549177576,4.340875199489057,4.336358923925035,4.340780175741651
78,5.7747899780741685,1.434318522673169,5.773073000098657,1.43700080611341,-1.4370008061134094,4.337789171960759,4.336072193985248,4.3404714554009995
79,5.774733401569169,1.4505954297218748,5.780253659430035,1.4603499286111905,-1.4603499286111916,4.314383472957978,4.319903730818844,4.3241379718472945
80,5.774643948512225,1.4829165374540692,5.792523536541486,1.5047347623714178,-1.5047347623714182,4.269909186140807,4.2877887741700675,4.291727411058156
81,5.774525391188356,1.531001101472988,5.810152201833876,1.5701569810343363,-1.5701569810343363,4.20436841015402,4.23999522079954,4.243524289715368
82,5.874968350912289,1.6948426941131958,5.833143016440037,1.6560428592517686,-1.6560428592517689,4.218925491660521,4.177100157188268,4.180125656799094
83,5.874854924658076,1.772447117163157,5.861384245429106,1.7614277127401277,-1.7614277127401279,4.113427211917949,4.099956532688978,4.102407807494919
84,5.874808262281904,1.863322473311281,5.894761722824338,1.8851100431998913,-1.8851100431998915,3.989698219082012,4.009651679624446,4.011485788970623
85,5.950158157448947,2.0414904737504105,5.933200582827296,2.025739973920763,-2.025739973920763,3.9244181835281844,3.907460608906533,3.908667683698537
86,5.975749640888844,2.1803438872286276,5.97662466748685,2.1818263869615047,-2.1818263869615047,3.793923253927339,3.7947982805253453,3.795405753660216
87,5.976299170288301,2.303052650906175,6.024846720179161,2.3516712676258367,-2.3516712676258367,3.624627902662464,3.6731754525533242,3.673246519382126
88,6.077732762698537,2.533951023843333,6.077425677464708,2.5332644134029594,-2.5332644134029594,3.544468349295578,3.544161264061749,3.543781738855204
89,6.1794759887171615,2.770873932878256,6.133542958847094,2.7241908664512495,-2.7241908664512495,3.455285122265912,3.409352092395845,3.4086020558389056
90,6.180889946252707,2.9116351243778844,6.191951221431491,2.921609801140563,-2.9216098011405625,3.2592801451121445,3.270341420290929,3.2692548218748225
91,6.182402209052787,3.0551949276466916,6.251033644529928,3.122351968394547,-3.1223519683945464,3.060050240658241,3.1286816761353813,3.1272072814060956
92,6.366790796208588,3.3829748302389526,6.308982011504799,3.3231527363760143,-3.323152736376014,3.043638059832574,2.9858292751287854,2.9838159659696353
93,6.385808843425817,3.54550605074359,6.364064989552183,3.5209945240237426,-3.520994524023743,2.864814319402074,2.8430704655284402,2.8403027926822273
94,6.385795732547597,3.688057708605853,6.4149246046079735,3.7134872582046947,-3.7134872582046947,2.672308474342902,2.701437346403279,2.697738023941744
95,6.473889134831008,3.9168591982335847,6.460820790176756,3.899184520018787,-3.899184520018787,2.5747046148122212,2.561636270157969,2.5570299365974236
96,6.521089637074637,4.102168853550699,6.501750609504077,4.077732380684688,-4.0777323806846875,2.44335725638995,2.4240182288193894,2.4189207835239386
97,6.5766629021635925,4.292674483938453,6.538399757587621,4.249782902513892,-4.249782902513891,2.3268799996497016,2.2886168550737302,2.2839884182251398
98,6.568307006574048,4.415654207423904,6.571929684336141,4.416667337470816,-4.416667337470815,2.1516396691032327,2.1552623468653263,2.152652799150144
99,6.556952130565812,4.531765634619296,6.60364986733517,4.5798969881153635,-4.579896988115363,1.9770551424504497,2.023752879219807,2.0251864959465165
100,6.622681974315017,4.720953692163142,6.634656876894361,4.740618152155627,-4.740618152155627,1.88206382215939,1.894038724738734,1.9017282821518755
101,6.625646856847269,4.843347945023929,6.665530604505093,4.899170392217712,-4.899170392217712,1.726476464629557,1.7663602122873803,1.7822989118233408
102,6.7061079735049605,5.039289740670671,6.696162822800895,5.05487563147709,-5.054875631477088,1.651232342027872,1.6412871913238067,1.6668182328342898
104,6.784391877543258,5.291233625751513,6.725761709880902,5.2061264545090475,-5.206126454509048,1.5782654230342095,1.5196352553718535,1.493158251791745
105,6.760592422879701,5.3756540526511785,6.753038352932963,5.3507641096846985,-5.350764109684698,1.4098283131950033,1.4022742432482653,1.3849383702285227
106,6.736075280027743,5.45595552042134,6.776543126519062,5.486660038526244,-5.486660038526243,1.2494152415014996,1.289883087992819,1.2801197596064027
107,6.789176114679887,5.610786480027217,6.795084801495628,5.6123578122965005,-5.612357812296501,1.1768183023833858,1.1827269891991268,1.1783896346526697
108,6.8050314663646025,5.725615013051385,6.808137799172786,5.727608893094802,-5.727608893094803,1.0774225732698,1.0805289060779835,1.0794164533132178
109,6.86793371648159,5.885070554466414,6.816130366030593,5.833652020963591,-5.8336520209635925,1.0342816955179979,0.9824783450670003,0.9828631620151764
110,6.848915303466687,5.960516471966686,6.820518752211976,5.93314196525698,-5.933141965256978,0.9157733382097089,0.8873767869549978,0.8883988315000004
111,6.832978265507742,6.037269628905605,6.823597211113253,6.029720687935093,-6.029720687935094,0.8032575775726478,0.7938765231781586,0.7957086366021369
112,6.8204897946636445,6.115987613459326,6.828067272539505,6.127324517071267,-6.127324517071269,0.6931652775923753,0.7007427554682355,0.7045021812043191
113,6.811613787519255,6.197093586265611,6.83647206904949,6.229405925096844,-6.229405925096842,0.582207862422413,0.6070661439526486,0.6145202012536437
114,6.8063101667648525,6.280770469445972,6.850658777323285,6.3382846463225,-6.338284646322502,0.46802552044235046,0.512374131000783,0.5255396973188802
115,6.804350776550316,6.3669732189658585,6.871434529453822,6.45480923790771,-6.454809237907713,0.34954153864260284,0.41662529154610883,0.43737755758445696
117,6.9059250570283846,6.610745036625738,6.898518783584074,6.57841083650108,-6.578410836501077,0.3275142205273074,0.32010794708299706,0.2951800204026471
118,6.973005876709883,6.763606925600453,6.930787685299485,6.707498186847517,-6.707498186847517,0.26550768986236584,0.223289498451968,0.20939895110942963
119,7.015314638295183,6.891126636368034,6.966697615945245,6.840028416792564,-6.840028416792561,0.1752862215026223,0.12666919915268426,0.12418800192714885
120,7.021993064815277,6.982467977733338,7.004714455215932,6.974039713499484,-6.974039713499482,0.04795335131579481,0.03067474171645035,0.0395250870819388
121,7.029457948835918,7.074031806269878,7.043590541625344,7.107971562430364,-7.107971562430365,-0.0785136135944473,-0.06438102080502173,-0.04457385743395981
123,7.037249845999633,7.212706901070508,7.082415255962512,7.240707087599409,-7.240707087599407,-0.20345724159977419,-0.15829183163689553,-0.17545705507087472
124,7.1209877826535575,7.377929490262819,7.120475471388956,7.371398247772026,-7.371398247772027,-0.25041046511846954,-0.2509227763830708,-0.2569417076092615
125,7.153070644667071,7.490689998294755,7.157045065400871,7.499219650742329,-7.4992196507423285,-0.3461490060752572,-0.34217458534145795,-0.3376193536276837
126,7.160136206887692,7.577509035179756,7.191240173345424,7.623204328025762,-7.623204328025761,-0.4630681211380683,-0.4319641546803368,-0.4173728282920637
128,7.267299444206603,7.804195486532399,7.222025631813029,7.742248684067313,-7.742248684067315,-0.47494923986071225,-0.5202230522542859,-0.5368960423257965
129,7.273409034849312,7.886509241583066,7.248370198690692,7.855273932840457,-7.8552739328404595,-0.5818648979911476,-0.6069037341497676,-0.6131002067337539
130,7.279063443298707,7.96705348209926,7.269471894467513,7.96145149533551,-7.96145149533551,-0.6823880520368029,-0.691979600867997,-0.6879900388005535
131,7.2842852348725655,8.04572232290928,7.28494863513183,8.060379418093673,-8.060379418093673,-0.7760941832211072,-0.775430782961843,-0.7614370880367138
133,7.2890771815005495,8.156851445465737,7.294921856462235,8.152140217537422,-8.152140217537424,-0.8630630360368743,-0.8572183610751889,-0.8677742639651878
134,7.293414456460087,8.230191975885031,7.29998699873059,8.237245852692041,-8.237245852692041,-0.9438313962319542,-0.9372588539614508,-0.9367775194249435
135,7.297247803886329,8.301296783273155,7.301123376087862,8.316536356529191,-8.316536356529191,-1.0192885526428626,-1.0154129804413294,-1.0040489793868261
137,7.300515625066843,8.399783700515824,7.299613733294668,8.39111062335343,-8.391110623353429,-1.0905949982865861,-1.0914968900587612,-1.0992680754489812
138,7.303161305804127,8.464939337742148,7.297013134193085,8.462326791391758,-8.46232679139176,-1.159165485587633,-1.1653136571986753,-1.161778031938021
140,7.30515139459785,8.554101225078615,7.295148304651637,8.53184132718285,-8.53184132718285,-1.2266899325849998,-1.2366930225312123,-1.2489498304807656
141,7.306490493957133,8.613200215803174,7.296077844395672,8.601601057353243,-8.601601057353244,-1.2951105633961113,-1.3055232129575725,-1.3067097218460408
142,7.3072297671863655,8.669848421531045,7.301932045578937,8.673694377767326,-8.673694377767326,-1.3664646105809606,-1.3717623321883892,-1.3626186543446788
144,7.3074674428231585,8.746790817850556,7.314588378016451,8.750014596586867,-8.750014596586865,-1.442547153763707,-1.4354262185704147,-1.4393233750273977
145,7.30734122261854,8.797995027208183,7.335209009886218,8.831768940964576,-8.831768940964574,-1.5244277183460344,-1.4965599310783562,-1.4906538045896425
147,7.307013740942103,8.867256895332952,7.363739791930717,8.91894602568481,-8.91894602568481,-1.611932284742708,-1.5552062337540935,-1.5602431543908493
148,7.3066530273751376,8.913830391798616,7.39851660812784,9.009900762655697,-9.009900762655695,-1.7032477352805575,-1.6113841545278547,-1.6071773644234773
150,7.5075597424112,9.177643679705726,7.436128286113748,9.101213022990331,-9.10121302299033,-1.5936532805791295,-1.6650847368765813,-1.6700839372945269
151,7.507547109196309,9.220298946738623,7.471644217245505,9.1879266619893,-9.1879266619893,-1.6803795527929912,-1.7162824447437952,-1.7127518375423154
153,7.507817413886388,9.277129619525216,7.499240100329189,9.264193749334105,-9.264193749334105,-1.756376335447717,-1.7649536490049158,-1.769312205638828
154,7.5083490592610085,9.316089672117409,7.513162663842833,9.324254032040681,-9.32425403204068,-1.8159049727796708,-1.8110913681978467,-1.8077406128564002
156,7.509038024913877,9.367194722189687,7.508880426383808,9.363588913021061,-9.363588913021061,-1.8545508881071848,-1.8547084866372536,-1.8581566972758106
157,7.509699538451057,9.401952636150632,7.484190880407374,9.380018906650076,-9.380018906650074,-1.8703193681990165,-1.8958280262427003,-1.8922530976995748
159,7.51008133057196,9.446676175248935,7.440017789422296,9.374483265362251,-9.374483265362251,-1.8644019347902914,-1.9344654759399553,-1.9365948446769763
160,7.5098895002345785,9.476062803293676,7.380658146879152,9.351270034784237,-9.351270034784237,-1.8413805345496588,-1.9706118879050853,-1.9661733030590969
162,7.317182447989997,9.3216075472065,7.313338625691233,9.317564742375243,-9.317564742375245,-2.000382294385248,-2.004226116684012,-2.0044250992165047
164,7.192174103456121,9.231370516004255,7.247104140955667,9.28234464762842,-9.28234464762842,-2.0901705441722997,-2.0352405066727535,-2.039196412548133
