frequency,raw,error,smoothed,error_smoothed,equalization,equalized_raw,equalized_smoothed,target
20,-3.685299812607549,-3.7017789750017376,-3.665716651486403,-3.682181438010863,3.6821814380108617,-0.003118374596687179,0.01646478652445893,0.016479162394188673
21,-3.3220862107644873,-3.3397322972337853,-3.3337918715131396,-3.351439589129358,3.351439589129357,0.02935337836486962,0.017647717616217307,0.017646086469297995
22,-2.973745215133698,-2.992507786126269,-3.0171251051658103,-3.035898733166227,3.0358987331662264,0.06215351803252833,0.018773628000416043,0.01876257099257117
23,-2.7314787856836262,-2.751305995418768,-2.7157163524444154,-2.7355588701214706,2.7355588701214706,0.004080084437844356,0.019842517677055138,0.01982720973514196
24,-2.4641873126522738,-2.4850256562000603,-2.4295656133489523,-2.450419999995085,2.4504199999950846,-0.013767312657189112,0.020854386646132372,0.020838343547786575
25,-2.1431005597144748,-2.16489458862919,-2.159621002307979,-2.181432302359822,2.1814323023598226,0.03833174264534778,0.021811300051843396,0.02179402891471538
26,-1.864290757277288,-1.886982761487265,-1.9047766474821506,-1.9274880183753558,1.9274880183753558,0.06319726109806778,0.022711370893205185,0.022692004209976968
27,-1.6506217940898642,-1.6741559416368674,-1.6639964818126602,-1.687548888623926,1.687548888623926,0.036927094534061844,0.023552406811265802,0.023534147547003226
28,-1.4675391809531773,-1.49185265592111,-1.4358269560519308,-1.4601575268900229,1.4601575268900224,-0.00738165406315483,0.024330570838091647,0.02431347496793279
29,-1.2291012749753776,-1.2541259943201521,-1.2185790942780008,-1.2436193043141373,1.2436193043141373,0.014518029338759675,0.025040210036136434,0.02502471934477457
30,-1.0299640507644892,-1.0556253042354524,-1.010915473098483,-1.0365900170988467,1.0365900170988467,0.006625966334357525,0.02567454400036362,0.025661253470963263
31,-0.8082939327019097,-0.8345089922620826,-0.8118329765871388,-0.8380584054894108,0.8380584054894107,0.02976447278750094,0.026225428902271863,0.026215059560172893
32,-0.6331514115396203,-0.6598282204817555,-0.6208548884092495,-0.6475385986025266,0.6475385986025266,0.014387187062906315,0.026683710193277088,0.0266768089421352
33,-0.39344451770759675,-0.4204805830812342,-0.43803641721756403,-0.4650758960443183,0.46507589604431826,0.07163137833672151,0.027039478826754226,0.027036065373637452
34,-0.30372178605902783,-0.33100417205123095,-0.26383229476126324,-0.29111456938073677,0.2911145693807367,-0.012607216678291122,0.027282274619473468,0.027282385992203118
35,-0.0853517660775129,-0.11275655837214967,-0.09895362380986567,-0.12635502501194057,0.1263550250119406,0.0410032589344277,0.027401401202074932,0.02740479229463677
36,0.02735571627471449,-3.661103918047026e-05,0.05584618975963215,0.028460009992788318,-0.02846000999278831,-0.0011042937180738219,0.027386179766843842,0.02739232731389496
37,0.22720220795880502,0.199967856353005,0.19997773437808752,0.17275153560087003,-0.17275153560087,0.05445067235793502,0.02722619877721752,0.02723435160580001
38,0.3571897501922244,0.33026897237722125,0.3331875533994312,0.3062760198972038,-0.30627601989720393,0.05091373029502044,0.026911533502227247,0.026920777815003127
39,0.4348065055211841,0.40836428739202285,0.4556766642800485,0.4292437639627861,-0.4292437639627861,0.005562741558398032,0.02643290031726242,0.026442218129161255
40,0.6219948610824002,0.5962048314881978,0.5681310068119463,0.5423492596036056,-0.5423492596036055,0.07964560147879474,0.02578174720834081,0.0257900295942024
41,0.6245971471449467,0.5996407591377324,0.6716557718202889,0.6467055104283352,-0.6467055104283351,-0.022108363283388388,0.024950261391953776,0.024956388007214336
42,0.778773752843076,0.7548395672792148,0.7676179240810661,0.7436866350573736,-0.7436866350573739,0.03508711778570217,0.023931289023692237,0.023934185563861288
43,0.8175935980732876,0.7948767405520731,0.8574255664337593,0.8347073988204268,-0.8347073988204269,-0.017113800747139307,0.02271816761333245,0.02271685752121444
44,0.9938909833167349,0.9725928582647236,0.9422990889788663,0.9209946159307241,-0.920994615930724,0.07289636738601091,0.021304473048142314,0.02129812505201123
45,1.0336203112560773,1.0139486495459162,1.023099999095498,1.0034163090852253,-1.003416309085225,0.030204002170852284,0.019683690010273036,0.019671661710161104
46,1.0061153947888268,0.9882847029622766,1.1002755006754144,1.0824266833606146,-1.0824266833606144,-0.0763112885717876,0.017848817314799925,0.017830691826550282
47,1.2448160688894974,1.2290485392733048,1.1739438527384676,1.1581519298445364,-1.1581519298445366,0.08666413904496073,0.015791922893930943,0.015767529616192544
48,1.202365388743396,1.1888922973571576,1.2440958258924861,1.2305921598122493,-1.2305921598122493,-0.028226771068853296,0.013503666080236787,0.013473091386238423
49,1.32121070768987,1.3102743155112302,1.3108387962468817,1.2998659898990383,-1.2998659898990381,0.021344717790831913,0.010972806347843589,0.010936392178639842
50,1.4383739757958771,1.4302299268909653,1.3745828565766818,1.3663971379172553,-1.366397137917255,0.07197683787862208,0.008185718659426744,0.008144048904911827
51,1.3999261356900612,1.3948463248163572,1.436080000599544,1.4309540651368033,-1.430954065136803,-0.03102792944674171,0.005125935462741094,0.005079810873704016
52,1.5211206971082472,1.5193965593917642,1.49627868474051,1.494504950464724,-1.4945049504647239,0.026615746643523286,0.0017737342757861985,0.001724137716482943
53,1.517415721759207,1.5193618793936217,1.556029188870221,1.5579234009968084,-1.557923400996809,-0.04050767923760201,-0.001894212126588135,-0.0019461576344146359
54,1.6088074043439913,1.614765591601592,1.6157397345931312,1.621644843229856,-1.621644843229856,-0.01283743888586475,-0.005905108636724776,-0.005958187257600667
55,1.6257060861780401,1.6360492621025637,1.6751094013227832,1.6853996241839089,-1.6853996241839089,-0.05969353800586874,-0.010290222861125686,-0.010343175924523607
56,1.7269449331503106,1.7420814840487988,1.73303798527278,1.7481229602771347,-1.748122960277135,-0.021178027126824484,-0.015084975004355128,-0.015136550898488199
57,1.8277026960128095,1.848080626617262,1.7877446011448264,1.808073530361289,-1.8080735303612885,0.019629165651521063,-0.02032892921646212,-0.020377930604452477
58,1.8277767458712764,1.85388775885137,1.8370477826680904,1.8631134696014973,-1.8631134696014973,-0.0353367237302209,-0.02606568693340683,-0.026111012980093662
59,1.910221164686801,1.942604532777442,1.8787085465270166,1.9110512329653697,-1.9110512329653697,-0.0008300682785686853,-0.03234268643835314,-0.03238336809064091
60,1.9301362120524383,1.9693823550033973,1.9107383615571727,1.9499492777382472,-1.9499492777382474,-0.019813065685809095,-0.03921091618107475,-0.03924614295095896
61,1.9298414917995412,1.97659518126164,1.9316226303097817,1.9783471824667078,-1.978347182466708,-0.04850569066716681,-0.04672455215692639,-0.04675368946209879
62,1.9297194540247897,1.984682582467105,1.9404764704374982,1.99541700218623,-1.99541700218623,-0.06569754816144036,-0.054940531748731924,-0.05496312844231532
63,1.9284567100005567,1.9923905741007806,1.9371921265138052,2.001110204314629,-2.001110204314629,-0.0726534943140722,-0.0639180778008237,-0.06393386410022384
64,1.926068401768256,1.999795465627631,1.9226275034272953,1.99634569068576,-1.9963456906857606,-0.07027728891750451,-0.07371818725846535,-0.073727063859375
65,1.923201328450771,2.007606446675269,1.898823699834402,1.9832267985514658,-1.983226798551465,-0.060025470100694145,-0.0844030987170632,-0.08440511822449803
66,1.926108201942096,2.0221392963772287,1.869160153460264,1.9651959055183028,-1.9651959055183033,-0.03908770357620717,-0.09603575205803927,-0.09603109443513258
67,1.872324706203042,1.9809929022845776,1.8383090943439597,1.9469883461859556,-1.9469883461859554,-0.07466363998291348,-0.10867925184199567,-0.10866819608153566
68,1.823126961804,1.9455062006243946,1.8118746681678037,1.9342710131786984,-1.9342710131786987,-0.11114405137469863,-0.12239634501089491,-0.12237923882039459
69,1.7292067275475282,1.866432877506704,1.79569946197177,1.9329483835825996,-1.9329483835825996,-0.20374165603507133,-0.13724892161082947,-0.1372261499591758
70,1.7396096851391507,1.8928791822883164,1.7949556061010483,1.948253149415392,-1.948253149415392,-0.20864346427624136,-0.15329754331434375,-0.1532694971491657
71,1.7530873224444574,1.9236553713466662,1.8132485812721315,1.983849580966007,-1.9838495809660075,-0.23076225852155008,-0.170600999693876,-0.17056804890220878
72,1.8734065571843863,2.0625849244621617,1.8519934527187665,2.0412093429785454,-2.041209342978545,-0.16780278579415864,-0.18921589025977847,-0.18917836727777537
73,1.873912310009363,2.083066741015063,1.9102532199527102,2.1194494548994722,-2.119449454899472,-0.2455371448901087,-0.20919623494676154,-0.20915443100569986
74,1.9378722115017302,2.168419497118485,1.9850819440109728,2.215675063207264,-2.2156750632072644,-0.2778028517055342,-0.23059311919629155,-0.2305472856167552
75,2.119005042419084,2.3724097583388097,2.072251185828174,2.3257055681966743,-2.3257055681966743,-0.20670052577759046,-0.2534543823685005,-0.2534047159197259
76,2.2212163118323653,2.49898724725711,2.1671236973718275,2.44494804719928,-2.4449480471992815,-0.22373173536691615,-0.27782434982745396,-0.2777709354247446
77,2.329594033084224,2.6332803201541615,2.2654155752622573,2.5691591486830028,-2.5691591486830028,-0.2395651155987788,-0.3037435734207454,-0.3036862870699375
78,2.308993398865682,2.6401803486990145,2.3636591602013644,2.6949076536300005,-2.6949076536300005,-0.3859142547643186,-0.33124849342863616,-0.33118694983333263
79,2.425905746023016,2.7862103924735244,2.4593066239046375,2.819677551511555,-2.819677551511557,-0.39377180548854085,-0.36037092760691936,-0.3603046464505084
80,2.536203222427922,2.927269570866592,2.5505422407202256,2.941679642989995,-2.941679642989995,-0.40547642056207334,-0.39113740226976956,-0.3910663484386703
81,2.626591543809452,3.050085519675327,2.635952537030388,3.0595211087783127,-3.059521108778313,-0.43292956496886115,-0.4235685717479254,-0.4234939758658749
82,2.7936693750060018,3.2512734657189726,2.7142178539756046,3.171897041879407,-3.171897041879408,-0.37822766687340614,-0.45767918790380335,-0.4576040907129708
83,2.796395950916955,3.289803535087847,2.783946072115924,3.277425155001527,-3.277425155001528,-0.48102920408457317,-0.49347908288560394,-0.49340758417089203
84,2.797889002555624,3.32879836227681,2.8436974557465895,3.3746726164000282,-3.3746726164000287,-0.5767836138444049,-0.5309751606534392,-0.530909359721186
85,2.8786479906872704,3.448756005986217,2.892179064141474,3.462352442182249,-3.4623524421822496,-0.5837044514949792,-0.5701733780407756,-0.5701080152989464
86,2.956721681516884,3.567717210701508,2.9285388617974,3.5396173911164133,-3.5396173911164137,-0.5828957095995295,-0.6110785293190135,-0.6109955291846236
87,2.970214580594392,3.623771536073194,2.9526689115513367,3.606358156944612,-3.6063581569446126,-0.6361435763502206,-0.6536892453932759,-0.6535569554788019
88,2.98068591381392,3.6784560498726298,2.9654296575890973,3.6634166301527107,-3.6634166301527107,-0.6827307163387908,-0.6979869725636134,-0.6977701360587099
89,2.9912713705239105,3.73487680730781,2.9687276323611735,3.7126487644741477,-3.712648764474148,-0.7213773939502377,-0.7439211321129746,-0.7436054367838993
90,2.998554706301806,3.7895802227060162,2.9654119605694262,3.7568091804695687,-3.7568091804695687,-0.7582544741677628,-0.7913972199001424,-0.7910255164042104
91,2.9308428833853553,3.7708280205066136,2.9589954826200704,3.7992735630241126,-3.7992735630241126,-0.8684306796387573,-0.8402780804040422,-0.8399851371212583
92,2.9202097614700424,3.810640787529599,2.9532464205635165,3.8436544190220467,-3.8436544190220463,-0.9234446575520039,-0.8904079984585298,-0.8904310260595567
93,2.934515758975947,3.8768175559808933,2.951726432118794,3.893388971055912,-3.893388971055912,-0.9588732120799648,-0.941662538937118,-0.9423017970049461
94,2.950862601215083,3.9463905428657586,2.9573617916210537,3.9513767666262947,-3.951376766626295,-1.0005141654112122,-0.9940149750052414,-0.9955279416506757
95,2.9685374029473985,4.018569302180533,2.972121532241614,4.019718529248347,-4.019718529248347,-1.051181126300948,-1.0475969970067327,-1.0500318992331348
96,2.98625873958555,4.091986952398995,2.996844976240145,4.099568721989481,-4.09956872198948,-1.1133099824039303,-1.1027237457493353,-1.1057282128134447
97,3.002339146240538,4.164862925779097,3.0312247898673625,4.191081758071929,-4.191081758071928,-1.1887426118313904,-1.1598569682045659,-1.1625237795385592
98,3.102027079868254,4.322345280837259,3.07392388797751,4.293421144527933,-4.293421144527933,-1.1913940646596792,-1.2194972565504232,-1.2203182009690048
99,3.1239845103918937,4.402988748360958,3.1227916762452312,4.404814649791844,-4.404814649791844,-1.2808301393999506,-1.282022973546613,-1.2790042379690636
100,3.127685487229071,4.466153859938559,3.1751448517109786,4.522664612259701,-4.522664612259702,-1.3949791250306314,-1.3475197605487237,-1.338468372709488
101,3.228259363900301,4.62685084193995,3.228082607683108,4.643741224243911,-4.643741224243911,-1.41548186034361,-1.415658616560803,-1.3985914780396493
102,3.326815125703364,4.786064717576516,3.278808081716408,4.764482122204069,-4.764482122204068,-1.4376669965007043,-1.4856740404876603,-1.459249591873152
104,3.324685326698378,4.906964743209766,3.324924510044318,4.881390726796862,-4.881390726796862,-1.5567054000984846,-1.5564662167525443,-1.5822794165113887
105,3.3707661236041515,5.014467787452292,3.3646711658798747,4.991482221741139,-4.991482221741139,-1.6207160981369872,-1.626811055861264,-1.6437016638481405
106,3.4260684872178873,5.131213223218892,3.3970687340780232,5.092692193373544,-5.092692193373543,-1.6666237061556561,-1.6956234592955202,-1.7051447360010048
107,3.4297038258058947,5.196181382513669,3.4219588817889006,5.1841562668491035,-5.184156266849104,-1.7544524410432096,-1.7621973850602037,-1.7664775567077742
108,3.434772890683358,5.262343101923317,3.4399433511343194,5.2662937282407025,-5.266293728240702,-1.8315208375573437,-1.8263503771063823,-1.8275702112399594
109,3.440389675370529,5.328684736196713,3.4522443839861476,5.340673727779956,-5.340673727779957,-1.900284052409428,-1.8884293437938093,-1.888295060826184
110,3.4458891640383373,5.39441701742494,3.4605136958784217,5.40969177962486,-5.409691779624859,-1.963802615586522,-1.9491780837464376,-1.9485278533866035
111,3.451034779286536,5.459183588069003,3.466611552527464,5.476121253588766,-5.476121253588766,-2.02508647430223,-2.009509701061302,-2.008148808782467
112,3.5424605043645956,5.609504160340068,3.472368351870833,5.542622371312506,-5.542622371312507,-2.000161866947911,-2.070254019441674,-2.067043655975472
113,3.4617964411245645,5.586901040562923,3.479339795281696,5.611292606618122,-5.611292606618121,-2.1494961654935563,-2.131952811336425,-2.125104599438359
114,3.465651618920645,5.647882811852465,3.4885789036659967,5.6833334450034165,-5.6833334450034165,-2.2176818260827713,-2.19475454133742,-2.1822311929318197
115,3.4702051482736844,5.708536248669509,3.5004677081648428,5.758892124480857,-5.758892124480859,-2.2886869762071744,-2.258424416316016,-2.2383311003958246
117,3.4740914455955476,5.8221248878914285,3.5146632015351797,5.837111761439094,-5.8371117614390915,-2.363020315843544,-2.3224485599039117,-2.3480334422958804
118,3.540673504609775,5.941387311184759,3.5302003891205045,5.916386310106557,-5.916386310106555,-2.37571280549678,-2.3861859209860503,-2.400713806574984
119,3.579682017456086,6.031779935793982,3.545755070303332,5.994770340815098,-5.994770340815098,-2.415088323359012,-2.449015270511766,-2.452097918337896
120,3.581098690689757,6.083236303722966,3.560010989452885,6.070447994213619,-6.070447994213618,-2.489349303523861,-2.5104370047607327,-2.5021376130332094
121,3.5822124768761987,6.133006717275145,3.572024140935283,6.142137683654914,-6.142137683654914,-2.5599252067787153,-2.570113542719631,-2.5507942403989463
123,3.583264494366753,6.2287013413347125,3.5814584854518534,6.209315549598966,-6.209315549598966,-2.6260510552322125,-2.627857064147112,-2.6454368469679594
124,3.5843666993789096,6.2743086852823255,3.5885982558328124,6.272187515218995,-6.272187515218997,-2.6878208158400874,-2.6835892593861845,-2.689941985903416
125,3.585593921053135,6.318587161251358,3.5941175456314625,6.331417391895603,-6.331417391895602,-2.7458234708424674,-2.73729984626414,-2.7329932401982227
126,3.5870937746732072,6.361685511170851,3.5986817723069033,6.387702504875266,-6.387702504875264,-2.800608730202057,-2.789020732568361,-2.774591736497644
128,3.59762883719942,6.453197947607921,3.602529862868207,6.441347692160885,-6.441347692160888,-2.8437188549614683,-2.838817829292681,-2.8555691104085015
129,3.5918492505806174,6.4848360638122955,3.6052073824209856,6.491997879431885,-6.491997879431886,-2.9001486288512686,-2.8867904970109004,-2.8929868132316785
130,3.5954075016504223,6.524413070983673,3.605575028903209,6.538640046956521,-6.538640046956524,-2.9432325453061017,-2.933065018053315,-2.9290055693332513
131,3.599629771909202,6.563282166445145,3.602116675128655,6.579890919269706,-6.579890919269707,-2.980261147360505,-2.9777742441410524,-2.9636523945359423
133,3.6041951881455336,6.635604701529806,3.5934533696737674,6.614479737259171,-6.614479737259172,-3.0102845491136385,-3.0210263675854048,-3.031409513384272
134,3.6087551631012036,6.6709465180766845,3.578881650625389,6.6417565135833225,-6.6417565135833225,-3.033001350482119,-3.0628748629579334,-3.062191354975481
135,3.6130763167387268,6.704800416600666,3.5587339250771572,6.662037701214647,-6.662037701214648,-3.048961384475921,-3.1033037761374906,-3.091724099861939
137,3.575212245622115,6.725006710960017,3.534416571236874,6.676653244321738,-6.676653244321737,-3.101440998699622,-3.142236673084863,-3.149794465337902
138,3.4586383434799943,6.63447348109975,3.5080963870166775,6.687663485880973,-6.687663485880973,-3.229025142400979,-3.179567098864296,-3.1758351376197558
140,3.422926813094918,6.65021578315491,3.482132471904149,6.6973309913560675,-6.6973309913560675,-3.2744041782611495,-3.2151985194519184,-3.227288970059992
141,3.425563934458167,6.675701870890458,3.4584372796401235,6.707514777273715,-6.7075147772737145,-3.2819508428155473,-3.249077497633591,-3.2501379364322904
142,3.4271754698770316,6.699160529230731,3.4379632989745597,6.719170748273742,-6.7191707482737435,-3.291995278396712,-3.281207449299184,-3.2719850593537
144,3.4275304264287065,6.743039284719368,3.4204499206726275,6.7320895923209445,-6.732089592320944,-3.304559165892237,-3.311639671648316,-3.3155088582906616
145,3.426793490066053,6.761358144676534,3.4044615992789065,6.744910149619537,-6.744910149619537,-3.318116659553484,-3.3404485503406307,-3.3345646546104812
147,3.4098437380812867,6.782652639454266,3.3876530808385583,6.755357107836144,-6.755357107836142,-3.345513369754855,-3.3677040269975835,-3.3728089013729794
148,3.343875158597532,6.733227954391327,3.367151335177054,6.760605430647185,-6.760605430647185,-3.4167302720496533,-3.3934540954701315,-3.389352795793795
150,3.324788801997767,6.747643729132065,3.3399597898709343,6.757683927007154,-6.757683927007154,-3.4328951250093866,-3.4177241371362195,-3.4228549271342974
151,3.326765592323544,6.763909917356302,3.3033471629405864,6.743878428286069,-6.74387842828607,-3.4171128359625262,-3.440531265345484,-3.437144325032758
153,3.2812272212613025,6.74763061144599,3.255236765028012,6.71714161792929,-6.717141617929289,-3.4359143966679864,-3.461904852901277,-3.466403390184687
154,3.1827991699842904,6.66147039014315,3.19462159052222,6.676523803745633,-6.676523803745631,-3.493724633761341,-3.481902213223411,-3.47867122015886
156,3.1363685214937815,6.640511547216162,3.121983118653139,6.622594640958946,-6.622594640958947,-3.486226119465165,-3.5006115223058076,-3.504143025722381
157,3.0947302389256066,6.609327727717027,3.0396127291236303,6.557753227206847,-6.557753227206845,-3.4630229882812387,-3.518140498083215,-3.5145974887914195
