frequency,raw
20.00,4.26
20.20,4.28
20.40,4.30
20.61,4.32
20.81,4.34
21.02,4.36
21.23,4.41
21.44,4.46
21.66,4.51
21.87,4.56
22.09,4.61
22.31,4.64
22.54,4.68
22.76,4.72
22.99,4.76
23.22,4.79
23.45,4.83
23.69,4.86
23.92,4.90
24.16,4.93
24.40,4.97
24.65,5.01
24.89,5.04
25.14,5.08
25.39,5.12
25.65,5.16
25.91,5.20
26.16,5.22
26.43,5.24
26.69,5.25
26.96,5.27
27.23,5.28
27.50,5.30
27.77,5.32
28.05,5.33
28.33,5.36
28.62,5.38
28.90,5.40
29.19,5.42
29.48,5.43
29.78,5.45
30.08,5.46
30.38,5.44
30.68,5.43
30.99,5.41
31.30,5.41
31.61,5.41
31.93,5.41
32.24,5.41
32.57,5.40
32.89,5.39
33.22,5.39
33.55,5.40
33.89,5.41
34.23,5.41
34.57,5.41
34.92,5.41
35.27,5.43
35.62,5.45
35.97,5.47
36.33,5.48
36.70,5.49
37.06,5.50
37.43,5.50
37.81,5.50
38.19,5.50
38.57,5.50
38.95,5.50
39.34,5.50
39.74,5.50
40.14,5.50
40.54,5.50
40.94,5.50
41.35,5.49
41.76,5.47
42.18,5.45
42.60,5.44
43.03,5.43
43.46,5.44
43.90,5.46
44.33,5.47
44.78,5.49
45.23,5.50
45.68,5.50
46.13,5.50
46.60,5.50
47.06,5.50
47.53,5.50
48.01,5.50
48.49,5.50
48.97,5.50
49.46,5.50
49.96,5.50
50.46,5.50
50.96,5.50
51.47,5.50
51.99,5.50
52.51,5.50
53.03,5.50
53.56,5.50
54.10,5.50
54.64,5.50
55.18,5.49
55.74,5.48
56.29,5.46
56.86,5.44
57.42,5.42
58.00,5.40
58.58,5.38
59.16,5.35
59.76,5.33
60.35,5.32
60.96,5.32
61.57,5.29
62.18,5.27
62.80,5.25
63.43,5.22
64.07,5.18
64.71,5.14
65.35,5.11
66.01,5.06
66.67,5.01
67.33,4.97
68.01,4.92
68.69,4.86
69.37,4.80
70.07,4.74
70.77,4.68
71.48,4.63
72.19,4.58
72.91,4.56
73.64,4.53
74.38,4.49
75.12,4.44
75.87,4.37
76.63,4.35
77.40,4.34
78.17,4.35
78.95,4.38
79.74,4.38
80.54,4.38
81.35,4.39
82.16,4.41
82.98,4.45
83.81,4.50
84.65,4.54
85.50,4.60
86.35,4.67
87.22,4.74
88.09,4.80
88.97,4.88
89.86,4.93
90.76,5.02
91.66,5.09
92.58,5.17
93.51,5.24
94.44,5.29
95.39,5.34
96.34,5.37
97.30,5.42
98.28,5.49
99.26,5.57
100.25,5.63
101.25,5.68
102.27,5.73
103.29,5.77
104.32,5.81
105.37,5.84
106.42,5.88
107.48,5.94
108.56,6.00
109.64,6.05
110.74,6.06
111.85,6.06
112.97,6.04
114.10,6.06
115.24,6.06
116.39,6.06
117.55,6.06
118.73,6.04
119.92,6.01
121.12,5.97
122.33,5.94
123.55,5.92
124.79,5.89
126.03,5.86
127.29,5.83
128.57,5.79
129.85,5.75
131.15,5.66
132.46,5.59
133.79,5.53
135.12,5.48
136.48,5.44
137.84,5.40
139.22,5.35
140.61,5.30
142.02,5.23
143.44,5.17
144.87,5.12
146.32,5.04
147.78,4.95
149.26,4.85
150.75,4.72
152.26,4.61
153.78,4.51
155.32,4.41
156.88,4.33
158.44,4.25
160.03,4.19
161.63,4.12
163.24,4.04
164.88,3.88
166.53,3.77
168.19,3.66
169.87,3.58
171.57,3.48
173.29,3.39
175.02,3.27
176.77,3.15
178.54,3.01
180.32,2.89
182.13,2.78
183.95,2.66
185.79,2.55
187.65,2.44
189.52,2.31
191.42,2.18
193.33,2.05
195.27,1.91
197.22,1.76
199.19,1.61
201.18,1.46
203.19,1.32
205.23,1.18
207.28,1.04
209.35,0.91
211.44,0.79
213.56,0.64
215.69,0.50
217.85,0.36
220.03,0.21
222.23,0.05
224.45,-0.09
226.70,-0.25
228.96,-0.37
231.25,-0.51
233.57,-0.63
235.90,-0.78
238.26,-0.91
240.64,-1.02
243.05,-1.14
245.48,-1.25
247.93,-1.36
250.41,-1.48
252.92,-1.62
255.45,-1.71
258.00,-1.78
260.58,-1.82
263.19,-1.87
265.82,-1.91
268.48,-1.94
271.16,-1.98
273.87,-2.01
276.61,-1.98
279.38,-1.96
282.17,-1.96
284.99,-1.94
287.84,-1.91
290.72,-1.91
293.63,-1.91
296.57,-1.95
299.53,-1.96
302.53,-1.96
305.55,-1.96
308.61,-1.93
311.69,-1.91
314.81,-1.89
317.96,-1.87
321.14,-1.87
324.35,-1.85
327.59,-1.82
330.87,-1.82
334.18,-1.82
337.52,-1.82
340.90,-1.82
344.30,-1.82
347.75,-1.82
351.23,-1.82
354.74,-1.82
358.28,-1.82
361.87,-1.82
365.49,-1.82
369.14,-1.82
372.83,-1.82
376.56,-1.82
380.33,-1.82
384.13,-1.82
387.97,-1.82
391.85,-1.82
395.77,-1.82
399.73,-1.81
403.72,-1.78
407.76,-1.77
411.84,-1.77
415.96,-1.77
420.12,-1.75
424.32,-1.71
428.56,-1.67
432.85,-1.64
437.18,-1.63
441.55,-1.60
445.96,-1.59
450.42,-1.55
454.93,-1.51
459.48,-1.46
464.07,-1.44
468.71,-1.41
473.40,-1.40
478.13,-1.36
482.91,-1.34
487.74,-1.32
492.62,-1.27
497.55,-1.25
502.52,-1.22
507.55,-1.17
512.62,-1.12
517.75,-1.06
522.93,-1.03
528.16,-0.99
533.44,-0.96
538.77,-0.93
544.16,-0.90
549.60,-0.84
555.10,-0.78
560.65,-0.74
566.25,-0.71
571.92,-0.66
577.64,-0.63
583.41,-0.59
589.25,-0.54
595.14,-0.48
601.09,-0.44
607.10,-0.40
613.17,-0.37
619.30,-0.34
625.50,-0.31
631.75,-0.28
638.07,-0.26
644.45,-0.24
650.89,-0.21
657.40,-0.19
663.98,-0.17
670.62,-0.16
677.32,-0.16
684.10,-0.15
690.94,-0.14
697.85,-0.11
704.83,-0.09
711.87,-0.09
718.99,-0.09
726.18,-0.09
733.44,-0.09
740.78,-0.09
748.19,-0.09
755.67,-0.08
763.23,-0.06
770.86,-0.05
778.57,-0.05
786.35,-0.03
794.22,-0.00
802.16,0.00
810.18,0.00
818.28,0.00
826.46,0.00
834.73,0.00
843.08,0.00
851.51,0.00
860.02,0.00
868.62,0.00
877.31,0.00
886.08,0.00
894.94,0.00
903.89,0.00
912.93,0.00
922.06,0.00
931.28,0.00
940.59,0.00
950.00,0.00
959.50,0.00
969.09,0.00
978.78,0.00
988.57,0.00
998.46,0.00
1008.44,0.01
1018.53,0.04
1028.71,0.08
1039.00,0.11
1049.39,0.14
1059.88,0.14
1070.48,0.18
1081.19,0.19
1092.00,0.19
1102.92,0.19
1113.95,0.20
1125.09,0.25
1136.34,0.28
1147.70,0.32
1159.18,0.33
1170.77,0.33
1182.48,0.33
1194.30,0.33
1206.25,0.36
1218.31,0.37
1230.49,0.37
1242.80,0.39
1255.22,0.42
1267.78,0.42
1280.45,0.42
1293.26,0.42
1306.19,0.42
1319.25,0.44
1332.45,0.46
1345.77,0.47
1359.23,0.49
1372.82,0.51
1386.55,0.51
1400.41,0.52
1414.42,0.57
1428.56,0.60
1442.85,0.64
1457.28,0.65
1471.85,0.65
1486.57,0.65
1501.43,0.65
1516.45,0.65
1531.61,0.65
1546.93,0.65
1562.40,0.65
1578.02,0.65
1593.80,0.64
1609.74,0.59
1625.84,0.55
1642.10,0.50
1658.52,0.47
1675.10,0.43
1691.85,0.39
1708.77,0.37
1725.86,0.36
1743.12,0.34
1760.55,0.33
1778.15,0.33
1795.94,0.33
1813.90,0.38
1832.03,0.44
1850.36,0.50
1868.86,0.57
1887.55,0.66
1906.42,0.73
1925.49,0.80
1944.74,0.84
1964.19,0.84
1983.83,0.84
2003.67,0.84
2023.71,0.84
2043.94,0.84
2064.38,0.84
2085.03,0.84
2105.88,0.85
2126.94,0.88
2148.20,0.91
2169.69,0.95
2191.38,0.98
2213.30,1.00
2235.43,1.00
2257.78,0.99
2280.36,0.98
2303.17,0.98
2326.20,0.95
2349.46,0.92
2372.95,0.85
2396.68,0.78
2420.65,0.70
2444.86,0.63
2469.31,0.58
2494.00,0.52
2518.94,0.52
2544.13,0.56
2569.57,0.59
2595.27,0.63
2621.22,0.68
2647.43,0.71
2673.90,0.78
2700.64,0.87
2727.65,0.97
2754.93,1.09
2782.48,1.21
2810.30,1.36
2838.40,1.51
2866.79,1.68
2895.46,1.88
2924.41,2.08
2953.65,2.31
2983.19,2.53
3013.02,2.80
3043.15,3.05
3073.58,3.30
3104.32,3.56
3135.36,3.82
3166.72,4.09
3198.38,4.35
3230.37,4.59
3262.67,4.82
3295.30,5.04
3328.25,5.23
3361.53,5.39
3395.15,5.54
3429.10,5.67
3463.39,5.78
3498.03,5.89
3533.01,5.98
3568.34,6.03
3604.02,6.09
3640.06,6.12
3676.46,6.15
3713.22,6.16
3750.36,6.16
3787.86,6.16
3825.74,6.16
3864.00,6.14
3902.64,6.12
3941.66,6.09
3981.08,6.06
4020.89,6.04
4061.10,6.00
4101.71,5.94
4142.73,5.87
4184.15,5.76
4226.00,5.61
4268.26,5.46
4310.94,5.26
4354.05,5.04
4397.59,4.83
4441.56,4.58
4485.98,4.36
4530.84,4.17
4576.15,4.00
4621.91,3.87
4668.13,3.73
4714.81,3.60
4761.96,3.47
4809.58,3.35
4857.67,3.24
4906.25,3.12
4955.31,2.99
5004.87,2.87
5054.91,2.75
5105.46,2.60
5156.52,2.42
5208.08,2.20
5260.16,1.94
5312.77,1.61
5365.89,1.27
5419.55,0.80
5473.75,0.28
5528.49,-0.26
5583.77,-0.80
5639.61,-1.33
5696.00,-1.77
5752.96,-2.12
5810.49,-2.40
5868.60,-2.58
5927.28,-2.68
5986.56,-2.60
6046.42,-2.44
6106.89,-2.17
6167.96,-1.83
6229.64,-1.40
6291.93,-0.93
6354.85,-0.43
6418.40,0.08
6482.58,0.55
6547.41,0.98
6612.88,1.38
6679.01,1.77
6745.80,2.15
6813.26,2.52
6881.39,2.89
6950.21,3.26
7019.71,3.59
7089.91,3.85
7160.81,4.11
7232.41,4.29
7304.74,4.43
7377.79,4.50
7451.56,4.46
7526.08,4.38
7601.34,4.27
7677.35,4.16
7754.13,4.05
7831.67,3.96
7909.98,3.89
7989.08,3.82
8068.98,3.74
8149.67,3.61
8231.16,3.47
8313.47,3.31
8396.61,3.13
8480.57,2.96
8565.38,2.79
8651.03,2.59
8737.54,2.41
8824.92,2.14
8913.17,1.74
9002.30,1.34
9092.32,0.69
9183.25,-0.18
9275.08,-1.15
9367.83,-2.30
9461.51,-3.51
9556.12,-4.65
9651.68,-5.57
9748.20,-6.28
9845.68,-6.72
9944.14,-6.82
10043.58,-6.14
10144.02,-5.33
10245.46,-4.19
10347.91,-2.90
10451.39,-1.80
10555.91,-0.94
10661.46,-0.39
10768.08,0.02
10875.76,0.17
10984.52,0.09
11094.36,-0.12
11205.31,-0.47
11317.36,-1.02
11430.53,-1.65
11544.84,-2.34
11660.29,-3.08
11776.89,-3.79
11894.66,-4.37
12013.60,-4.86
12133.74,-5.28
12255.08,-5.65
12377.63,-6.02
12501.41,-6.45
12626.42,-6.98
12752.68,-7.70
12880.21,-8.66
13009.01,-9.94
13139.10,-11.54
13270.49,-13.41
13403.20,-15.33
13537.23,-16.76
13672.60,-17.84
13809.33,-18.54
13947.42,-18.67
14086.90,-18.66
14227.77,-18.61
14370.04,-18.41
14513.74,-18.25
14658.88,-17.94
14805.47,-17.62
14953.52,-17.26
15103.06,-16.80
15254.09,-16.24
15406.63,-15.57
15560.70,-14.78
15716.30,-13.95
15873.47,-13.12
16032.20,-12.40
16192.52,-11.78
16354.45,-11.32
16517.99,-10.99
16683.17,-10.79
16850.01,-10.75
17018.51,-10.91
17188.69,-11.25
17360.58,-11.79
17534.18,-12.60
17709.53,-13.61
17886.62,-14.71
18065.49,-15.83
18246.14,-16.79
18428.60,-17.46
18612.89,-17.96
18799.02,-18.27
18987.01,-18.43
19176.88,-18.54
19368.65,-18.60
19562.33,-18.65
19757.96,-18.69
19955.54,-18.74
