frequency,raw
20.00,6.04
20.20,6.22
20.40,6.40
20.61,6.58
20.81,6.76
21.02,6.94
21.23,7.15
21.44,7.36
21.66,7.56
21.87,7.77
22.09,7.88
22.31,7.85
22.54,7.82
22.76,7.79
22.99,7.76
23.22,7.56
23.45,7.35
23.69,7.14
23.92,6.93
24.16,6.75
24.40,6.59
24.65,6.44
24.89,6.28
25.14,6.15
25.39,6.05
25.65,5.95
25.91,5.85
26.16,5.74
26.43,5.64
26.69,5.54
26.96,5.44
27.23,5.37
27.50,5.31
27.77,5.25
28.05,5.20
28.33,5.22
28.62,5.23
28.90,5.25
29.19,5.30
29.48,5.37
29.78,5.44
30.08,5.52
30.38,5.63
30.68,5.74
30.99,5.86
31.30,6.04
31.61,6.23
31.93,6.42
32.24,6.65
32.57,6.91
32.89,7.16
33.22,7.33
33.55,7.47
33.89,7.61
34.23,7.59
34.57,7.48
34.92,7.38
35.27,7.17
35.62,6.93
35.97,6.69
36.33,6.47
36.70,6.26
37.06,6.07
37.43,5.93
37.81,5.80
38.19,5.68
38.57,5.59
38.95,5.50
39.34,5.45
39.74,5.40
40.14,5.38
40.54,5.40
40.94,5.42
41.35,5.49
41.76,5.57
42.18,5.69
42.60,5.86
43.03,6.04
43.46,6.33
43.90,6.61
44.33,6.92
44.78,7.23
45.23,7.51
45.68,7.77
46.13,8.01
46.60,8.17
47.06,8.32
47.53,8.37
48.01,8.43
48.49,8.44
48.97,8.45
49.46,8.44
49.96,8.43
50.46,8.41
50.96,8.38
51.47,8.33
51.99,8.27
52.51,8.22
53.03,8.17
53.56,8.16
54.10,8.15
54.64,8.16
55.18,8.16
55.74,8.16
56.29,8.14
56.86,8.09
57.42,8.03
58.00,7.97
58.58,7.91
59.16,7.85
59.76,7.81
60.35,7.78
60.96,7.75
61.57,7.73
62.18,7.70
62.80,7.68
63.43,7.65
64.07,7.62
64.71,7.58
65.35,7.53
66.01,7.47
66.67,7.40
67.33,7.32
68.01,7.23
68.69,7.13
69.37,7.04
70.07,6.95
70.77,6.86
71.48,6.78
72.19,6.70
72.91,6.63
73.64,6.54
74.38,6.45
75.12,6.34
75.87,6.23
76.63,6.11
77.40,5.98
78.17,5.84
78.95,5.71
79.74,5.57
80.54,5.42
81.35,5.26
82.16,5.08
82.98,4.90
83.81,4.71
84.65,4.53
85.50,4.33
86.35,4.11
87.22,3.90
88.09,3.69
88.97,3.48
89.86,3.28
90.76,3.08
91.66,2.87
92.58,2.68
93.51,2.47
94.44,2.27
95.39,2.06
96.34,1.85
97.30,1.63
98.28,1.41
99.26,1.19
100.25,0.96
101.25,0.75
102.27,0.54
103.29,0.35
104.32,0.16
105.37,-0.04
106.42,-0.24
107.48,-0.45
108.56,-0.66
109.64,-0.87
110.74,-1.08
111.85,-1.28
112.97,-1.47
114.10,-1.67
115.24,-1.86
116.39,-2.06
117.55,-2.25
118.73,-2.46
119.92,-2.67
121.12,-2.87
122.33,-3.06
123.55,-3.24
124.79,-3.41
126.03,-3.57
127.29,-3.71
128.57,-3.85
129.85,-3.98
131.15,-4.09
132.46,-4.21
133.79,-4.33
135.12,-4.46
136.48,-4.58
137.84,-4.69
139.22,-4.79
140.61,-4.89
142.02,-4.99
143.44,-5.08
144.87,-5.15
146.32,-5.23
147.78,-5.30
149.26,-5.36
150.75,-5.42
152.26,-5.46
153.78,-5.51
155.32,-5.57
156.88,-5.63
158.44,-5.68
160.03,-5.73
161.63,-5.79
163.24,-5.83
164.88,-5.88
166.53,-5.92
168.19,-5.95
169.87,-5.98
171.57,-6.00
173.29,-6.01
175.02,-6.02
176.77,-6.04
178.54,-6.06
180.32,-6.07
182.13,-6.09
183.95,-6.11
185.79,-6.12
187.65,-6.11
189.52,-6.11
191.42,-6.09
193.33,-6.07
195.27,-6.04
197.22,-6.02
199.19,-6.00
201.18,-5.99
203.19,-5.98
205.23,-5.96
207.28,-5.94
209.35,-5.92
211.44,-5.90
213.56,-5.87
215.69,-5.85
217.85,-5.86
220.03,-5.85
222.23,-5.84
224.45,-5.83
226.70,-5.81
228.96,-5.78
231.25,-5.74
233.57,-5.71
235.90,-5.68
238.26,-5.65
240.64,-5.62
243.05,-5.58
245.48,-5.55
247.93,-5.52
250.41,-5.48
252.92,-5.45
255.45,-5.41
258.00,-5.37
260.58,-5.33
263.19,-5.28
265.82,-5.24
268.48,-5.20
271.16,-5.15
273.87,-5.11
276.61,-5.07
279.38,-5.02
282.17,-4.98
284.99,-4.94
287.84,-4.89
290.72,-4.84
293.63,-4.80
296.57,-4.75
299.53,-4.70
302.53,-4.65
305.55,-4.59
308.61,-4.54
311.69,-4.49
314.81,-4.43
317.96,-4.38
321.14,-4.32
324.35,-4.27
327.59,-4.22
330.87,-4.16
334.18,-4.11
337.52,-4.06
340.90,-4.01
344.30,-3.96
347.75,-3.91
351.23,-3.85
354.74,-3.81
358.28,-3.75
361.87,-3.70
365.49,-3.66
369.14,-3.60
372.83,-3.55
376.56,-3.51
380.33,-3.47
384.13,-3.42
387.97,-3.38
391.85,-3.34
395.77,-3.30
399.73,-3.26
403.72,-3.22
407.76,-3.18
411.84,-3.14
415.96,-3.11
420.12,-3.08
424.32,-3.05
428.56,-3.02
432.85,-3.00
437.18,-2.97
441.55,-2.94
445.96,-2.91
450.42,-2.87
454.93,-2.85
459.48,-2.82
464.07,-2.80
468.71,-2.76
473.40,-2.73
478.13,-2.71
482.91,-2.68
487.74,-2.66
492.62,-2.64
497.55,-2.62
502.52,-2.60
507.55,-2.59
512.62,-2.59
517.75,-2.59
522.93,-2.60
528.16,-2.60
533.44,-2.59
538.77,-2.58
544.16,-2.56
549.60,-2.54
555.10,-2.52
560.65,-2.50
566.25,-2.50
571.92,-2.49
577.64,-2.49
583.41,-2.49
589.25,-2.48
595.14,-2.48
601.09,-2.47
607.10,-2.46
613.17,-2.47
619.30,-2.48
625.50,-2.50
631.75,-2.52
638.07,-2.53
644.45,-2.54
650.89,-2.54
657.40,-2.52
663.98,-2.51
670.62,-2.50
677.32,-2.50
684.10,-2.51
690.94,-2.52
697.85,-2.53
704.83,-2.52
711.87,-2.51
718.99,-2.49
726.18,-2.47
733.44,-2.44
740.78,-2.42
748.19,-2.39
755.67,-2.37
763.23,-2.34
770.86,-2.29
778.57,-2.23
786.35,-2.16
794.22,-2.06
802.16,-1.96
810.18,-1.85
818.28,-1.74
826.46,-1.63
834.73,-1.52
843.08,-1.41
851.51,-1.30
860.02,-1.19
868.62,-1.10
877.31,-1.00
886.08,-0.91
894.94,-0.83
903.89,-0.74
912.93,-0.67
922.06,-0.60
931.28,-0.52
940.59,-0.45
950.00,-0.38
959.50,-0.29
969.09,-0.21
978.78,-0.15
988.57,-0.08
998.46,-0.01
1008.44,0.05
1018.53,0.12
1028.71,0.19
1039.00,0.26
1049.39,0.36
1059.88,0.46
1070.48,0.56
1081.19,0.69
1092.00,0.80
1102.92,0.93
1113.95,1.05
1125.09,1.17
1136.34,1.28
1147.70,1.39
1159.18,1.48
1170.77,1.57
1182.48,1.65
1194.30,1.73
1206.25,1.81
1218.31,1.88
1230.49,1.94
1242.80,2.01
1255.22,2.08
1267.78,2.16
1280.45,2.24
1293.26,2.30
1306.19,2.35
1319.25,2.38
1332.45,2.41
1345.77,2.42
1359.23,2.44
1372.82,2.47
1386.55,2.50
1400.41,2.54
1414.42,2.57
1428.56,2.60
1442.85,2.62
1457.28,2.63
1471.85,2.63
1486.57,2.63
1501.43,2.65
1516.45,2.67
1531.61,2.71
1546.93,2.76
1562.40,2.81
1578.02,2.85
1593.80,2.90
1609.74,2.94
1625.84,3.00
1642.10,3.06
1658.52,3.13
1675.10,3.21
1691.85,3.31
1708.77,3.41
1725.86,3.52
1743.12,3.67
1760.55,3.82
1778.15,3.98
1795.94,4.16
1813.90,4.35
1832.03,4.54
1850.36,4.75
1868.86,4.97
1887.55,5.21
1906.42,5.46
1925.49,5.72
1944.74,5.99
1964.19,6.26
1983.83,6.55
2003.67,6.85
2023.71,7.15
2043.94,7.47
2064.38,7.79
2085.03,8.11
2105.88,8.42
2126.94,8.71
2148.20,9.00
2169.69,9.25
2191.38,9.48
2213.30,9.70
2235.43,9.89
2257.78,10.06
2280.36,10.22
2303.17,10.33
2326.20,10.41
2349.46,10.44
2372.95,10.42
2396.68,10.39
2420.65,10.33
2444.86,10.24
2469.31,10.15
2494.00,10.05
2518.94,9.95
2544.13,9.85
2569.57,9.74
2595.27,9.63
2621.22,9.49
2647.43,9.34
2673.90,9.18
2700.64,9.01
2727.65,8.83
2754.93,8.67
2782.48,8.50
2810.30,8.37
2838.40,8.26
2866.79,8.16
2895.46,8.11
2924.41,8.07
2953.65,8.04
2983.19,8.03
3013.02,8.02
3043.15,8.03
3073.58,8.04
3104.32,8.06
3135.36,8.09
3166.72,8.11
3198.38,8.14
3230.37,8.16
3262.67,8.17
3295.30,8.19
3328.25,8.21
3361.53,8.22
3395.15,8.24
3429.10,8.24
3463.39,8.25
3498.03,8.25
3533.01,8.23
3568.34,8.21
3604.02,8.15
3640.06,8.09
3676.46,8.01
3713.22,7.94
3750.36,7.85
3787.86,7.77
3825.74,7.68
3864.00,7.61
3902.64,7.53
3941.66,7.45
3981.08,7.36
4020.89,7.24
4061.10,7.12
4101.71,6.99
4142.73,6.85
4184.15,6.70
4226.00,6.57
4268.26,6.44
4310.94,6.32
4354.05,6.21
4397.59,6.13
4441.56,6.07
4485.98,6.02
4530.84,5.97
4576.15,5.91
4621.91,5.85
4668.13,5.74
4714.81,5.61
4761.96,5.46
4809.58,5.24
4857.67,4.98
4906.25,4.69
4955.31,4.35
5004.87,3.99
5054.91,3.63
5105.46,3.26
5156.52,2.94
5208.08,2.65
5260.16,2.37
5312.77,2.14
5365.89,1.94
5419.55,1.76
5473.75,1.62
5528.49,1.50
5583.77,1.41
5639.61,1.35
5696.00,1.33
5752.96,1.31
5810.49,1.30
5868.60,1.31
5927.28,1.32
5986.56,1.31
6046.42,1.29
6106.89,1.25
6167.96,1.18
6229.64,1.04
6291.93,0.84
6354.85,0.56
6418.40,0.22
6482.58,-0.16
6547.41,-0.57
6612.88,-1.00
6679.01,-1.44
6745.80,-1.89
6813.26,-2.32
6881.39,-2.72
6950.21,-3.09
7019.71,-3.40
7089.91,-3.66
7160.81,-3.85
7232.41,-3.98
7304.74,-4.06
7377.79,-4.10
7451.56,-4.13
7526.08,-4.13
7601.34,-4.10
7677.35,-4.04
7754.13,-3.93
7831.67,-3.79
7909.98,-3.64
7989.08,-3.45
8068.98,-3.21
8149.67,-2.91
8231.16,-2.55
8313.47,-2.03
8396.61,-1.39
8480.57,-0.65
8565.38,0.16
8651.03,1.02
8737.54,1.92
8824.92,2.91
8913.17,4.04
9002.30,5.09
9092.32,6.20
9183.25,7.26
9275.08,8.12
9367.83,8.73
9461.51,8.98
9556.12,8.96
9651.68,8.75
9748.20,8.33
9845.68,7.78
9944.14,7.17
10043.58,6.49
10144.02,5.82
10245.46,5.19
10347.91,4.56
10451.39,3.96
10555.91,3.44
10661.46,3.01
10768.08,2.61
10875.76,2.20
10984.52,1.79
11094.36,1.37
11205.31,0.91
11317.36,0.52
11430.53,0.30
11544.84,-0.41
11660.29,-1.61
11776.89,-2.39
11894.66,-3.29
12013.60,-4.33
12133.74,-5.24
12255.08,-6.51
12377.63,-7.90
12501.41,-9.26
12626.42,-10.53
12752.68,-11.62
12880.21,-12.56
13009.01,-13.16
13139.10,-13.51
13270.49,-13.63
13403.20,-13.34
13537.23,-12.86
13672.60,-12.27
13809.33,-11.69
13947.42,-11.08
14086.90,-10.47
14227.77,-9.89
14370.04,-9.34
14513.74,-8.78
14658.88,-8.23
14805.47,-7.69
14953.52,-7.17
15103.06,-6.69
15254.09,-6.34
15406.63,-6.18
15560.70,-6.17
15716.30,-6.33
15873.47,-6.61
16032.20,-6.90
16192.52,-7.18
16354.45,-7.31
16517.99,-7.28
16683.17,-7.08
16850.01,-6.67
17018.51,-6.17
17188.69,-5.66
17360.58,-5.28
17534.18,-5.04
17709.53,-4.93
17886.62,-4.96
18065.49,-5.03
18246.14,-5.10
18428.60,-5.09
18612.89,-4.96
18799.02,-4.97
18987.01,-5.43
19176.88,-7.37
19368.65,-10.44
19562.33,-14.51
19757.96,-19.96
19955.54,-26.02
