frequency,raw
20.00,-5.41
20.20,-5.40
20.40,-5.37
20.61,-5.33
20.81,-5.28
21.02,-5.24
21.23,-5.20
21.44,-5.17
21.66,-5.12
21.87,-5.08
22.09,-5.05
22.31,-5.01
22.54,-4.97
22.76,-4.93
22.99,-4.89
23.22,-4.85
23.45,-4.82
23.69,-4.79
23.92,-4.73
24.16,-4.70
24.40,-4.66
24.65,-4.62
24.89,-4.58
25.14,-4.54
25.39,-4.50
25.65,-4.47
25.91,-4.44
26.16,-4.41
26.43,-4.37
26.69,-4.33
26.96,-4.29
27.23,-4.28
27.50,-4.24
27.77,-4.20
28.05,-4.17
28.33,-4.14
28.62,-4.10
28.90,-4.07
29.19,-4.04
29.48,-4.00
29.78,-3.96
30.08,-3.95
30.38,-3.91
30.68,-3.86
30.99,-3.85
31.30,-3.82
31.61,-3.77
31.93,-3.75
32.24,-3.73
32.57,-3.68
32.89,-3.67
33.22,-3.63
33.55,-3.59
33.89,-3.57
34.23,-3.54
34.57,-3.49
34.92,-3.48
35.27,-3.45
35.62,-3.42
35.97,-3.40
36.33,-3.36
36.70,-3.35
37.06,-3.31
37.43,-3.31
37.81,-3.26
38.19,-3.26
38.57,-3.22
38.95,-3.21
39.34,-3.18
39.74,-3.17
40.14,-3.12
40.54,-3.12
40.94,-3.08
41.35,-3.07
41.76,-3.06
42.18,-3.03
42.60,-3.03
43.03,-2.99
43.46,-2.98
43.90,-2.97
44.33,-2.93
44.78,-2.93
45.23,-2.89
45.68,-2.89
46.13,-2.84
46.60,-2.84
47.06,-2.82
47.53,-2.79
48.01,-2.79
48.49,-2.75
48.97,-2.75
49.46,-2.70
49.96,-2.70
50.46,-2.68
50.96,-2.65
51.47,-2.65
51.99,-2.61
52.51,-2.61
53.03,-2.57
53.56,-2.56
54.10,-2.55
54.64,-2.51
55.18,-2.51
55.74,-2.47
56.29,-2.47
56.86,-2.45
57.42,-2.42
58.00,-2.42
58.58,-2.38
59.16,-2.37
59.76,-2.35
60.35,-2.33
60.96,-2.33
61.57,-2.28
62.18,-2.28
62.80,-2.28
63.43,-2.24
64.07,-2.24
64.71,-2.24
65.35,-2.19
66.01,-2.19
66.67,-2.19
67.33,-2.16
68.01,-2.14
68.69,-2.14
69.37,-2.14
70.07,-2.10
70.77,-2.10
71.48,-2.10
72.19,-2.10
72.91,-2.08
73.64,-2.05
74.38,-2.05
75.12,-2.05
75.87,-2.05
76.63,-2.05
77.40,-2.00
78.17,-2.00
78.95,-2.00
79.74,-2.00
80.54,-2.00
81.35,-2.00
82.16,-1.96
82.98,-1.96
83.81,-1.96
84.65,-1.96
85.50,-1.96
86.35,-1.96
87.22,-1.93
88.09,-1.91
88.97,-1.91
89.86,-1.91
90.76,-1.91
91.66,-1.91
92.58,-1.91
93.51,-1.91
94.44,-1.91
95.39,-1.89
96.34,-1.89
97.30,-1.86
98.28,-1.86
99.26,-1.86
100.25,-1.86
101.25,-1.86
102.27,-1.86
103.29,-1.86
104.32,-1.86
105.37,-1.86
106.42,-1.86
107.48,-1.86
108.56,-1.86
109.64,-1.86
110.74,-1.86
111.85,-1.86
112.97,-1.86
114.10,-1.86
115.24,-1.86
116.39,-1.86
117.55,-1.86
118.73,-1.86
119.92,-1.86
121.12,-1.86
122.33,-1.86
123.55,-1.86
124.79,-1.86
126.03,-1.86
127.29,-1.86
128.57,-1.86
129.85,-1.86
131.15,-1.86
132.46,-1.86
133.79,-1.86
135.12,-1.89
136.48,-1.91
137.84,-1.91
139.22,-1.91
140.61,-1.91
142.02,-1.91
143.44,-1.91
144.87,-1.91
146.32,-1.91
147.78,-1.93
149.26,-1.96
150.75,-1.96
152.26,-1.96
153.78,-1.96
155.32,-1.96
156.88,-1.98
158.44,-2.00
160.03,-2.00
161.63,-2.00
163.24,-2.00
164.88,-2.00
166.53,-2.01
168.19,-2.05
169.87,-2.05
171.57,-2.05
173.29,-2.05
175.02,-2.05
176.77,-2.08
178.54,-2.10
180.32,-2.10
182.13,-2.10
183.95,-2.10
185.79,-2.11
187.65,-2.14
189.52,-2.14
191.42,-2.14
193.33,-2.14
195.27,-2.14
197.22,-2.14
199.19,-2.19
201.18,-2.19
203.19,-2.19
205.23,-2.19
207.28,-2.19
209.35,-2.24
211.44,-2.24
213.56,-2.24
215.69,-2.24
217.85,-2.26
220.03,-2.28
222.23,-2.28
224.45,-2.28
226.70,-2.29
228.96,-2.33
231.25,-2.33
233.57,-2.33
235.90,-2.33
238.26,-2.37
240.64,-2.37
243.05,-2.37
245.48,-2.37
247.93,-2.42
250.41,-2.42
252.92,-2.42
255.45,-2.42
258.00,-2.47
260.58,-2.47
263.19,-2.47
265.82,-2.47
268.48,-2.47
271.16,-2.51
273.87,-2.51
276.61,-2.51
279.38,-2.51
282.17,-2.51
284.99,-2.56
287.84,-2.56
290.72,-2.56
293.63,-2.56
296.57,-2.57
299.53,-2.61
302.53,-2.61
305.55,-2.61
308.61,-2.61
311.69,-2.61
314.81,-2.65
317.96,-2.65
321.14,-2.65
324.35,-2.65
327.59,-2.65
330.87,-2.68
334.18,-2.70
337.52,-2.70
340.90,-2.70
344.30,-2.70
347.75,-2.72
351.23,-2.75
354.74,-2.75
358.28,-2.75
361.87,-2.75
365.49,-2.75
369.14,-2.75
372.83,-2.75
376.56,-2.77
380.33,-2.79
384.13,-2.79
387.97,-2.79
391.85,-2.79
395.77,-2.79
399.73,-2.79
403.72,-2.79
407.76,-2.79
411.84,-2.79
415.96,-2.79
420.12,-2.79
424.32,-2.79
428.56,-2.79
432.85,-2.79
437.18,-2.79
441.55,-2.79
445.96,-2.79
450.42,-2.77
454.93,-2.77
459.48,-2.75
464.07,-2.75
468.71,-2.75
473.40,-2.75
478.13,-2.75
482.91,-2.75
487.74,-2.75
492.62,-2.70
497.55,-2.70
502.52,-2.70
507.55,-2.70
512.62,-2.65
517.75,-2.65
522.93,-2.65
528.16,-2.65
533.44,-2.61
538.77,-2.61
544.16,-2.61
549.60,-2.56
555.10,-2.56
560.65,-2.56
566.25,-2.54
571.92,-2.51
577.64,-2.51
583.41,-2.48
589.25,-2.47
595.14,-2.47
601.09,-2.42
607.10,-2.42
613.17,-2.37
619.30,-2.37
625.50,-2.33
631.75,-2.33
638.07,-2.28
644.45,-2.24
650.89,-2.23
657.40,-2.19
663.98,-2.15
670.62,-2.12
677.32,-2.09
684.10,-2.05
690.94,-2.02
697.85,-1.98
704.83,-1.94
711.87,-1.91
718.99,-1.86
726.18,-1.82
733.44,-1.79
740.78,-1.74
748.19,-1.70
755.67,-1.65
763.23,-1.60
770.86,-1.56
778.57,-1.51
786.35,-1.46
794.22,-1.40
802.16,-1.35
810.18,-1.31
818.28,-1.24
826.46,-1.19
834.73,-1.14
843.08,-1.09
851.51,-1.04
860.02,-0.97
868.62,-0.91
877.31,-0.85
886.08,-0.79
894.94,-0.73
903.89,-0.68
912.93,-0.63
922.06,-0.58
931.28,-0.51
940.59,-0.44
950.00,-0.38
959.50,-0.30
969.09,-0.23
978.78,-0.17
988.57,-0.09
998.46,-0.01
1008.44,0.07
1018.53,0.15
1028.71,0.22
1039.00,0.32
1049.39,0.38
1059.88,0.48
1070.48,0.55
1081.19,0.63
1092.00,0.72
1102.92,0.79
1113.95,0.87
1125.09,0.94
1136.34,1.02
1147.70,1.10
1159.18,1.15
1170.77,1.23
1182.48,1.29
1194.30,1.36
1206.25,1.44
1218.31,1.52
1230.49,1.57
1242.80,1.65
1255.22,1.70
1267.78,1.76
1280.45,1.79
1293.26,1.84
1306.19,1.87
1319.25,1.91
1332.45,1.91
1345.77,1.95
1359.23,1.95
1372.82,1.95
1386.55,1.91
1400.41,1.91
1414.42,1.86
1428.56,1.82
1442.85,1.79
1457.28,1.73
1471.85,1.67
1486.57,1.61
1501.43,1.55
1516.45,1.48
1531.61,1.42
1546.93,1.37
1562.40,1.30
1578.02,1.21
1593.80,1.15
1609.74,1.04
1625.84,0.98
1642.10,0.87
1658.52,0.78
1675.10,0.70
1691.85,0.61
1708.77,0.54
1725.86,0.49
1743.12,0.43
1760.55,0.40
1778.15,0.37
1795.94,0.37
1813.90,0.37
1832.03,0.37
1850.36,0.37
1868.86,0.37
1887.55,0.37
1906.42,0.37
1925.49,0.40
1944.74,0.44
1964.19,0.50
1983.83,0.55
2003.67,0.65
2023.71,0.74
2043.94,0.87
2064.38,1.02
2085.03,1.18
2105.88,1.37
2126.94,1.56
2148.20,1.75
2169.69,1.99
2191.38,2.24
2213.30,2.51
2235.43,2.77
2257.78,3.05
2280.36,3.35
2303.17,3.65
2326.20,3.96
2349.46,4.24
2372.95,4.57
2396.68,4.85
2420.65,5.15
2444.86,5.43
2469.31,5.68
2494.00,5.96
2518.94,6.19
2544.13,6.40
2569.57,6.60
2595.27,6.78
2621.22,6.94
2647.43,7.07
2673.90,7.16
2700.64,7.24
2727.65,7.29
2754.93,7.31
2782.48,7.31
2810.30,7.27
2838.40,7.20
2866.79,7.12
2895.46,7.06
2924.41,6.95
2953.65,6.86
2983.19,6.78
3013.02,6.69
3043.15,6.61
3073.58,6.54
3104.32,6.48
3135.36,6.40
3166.72,6.34
3198.38,6.25
3230.37,6.16
3262.67,6.05
3295.30,5.90
3328.25,5.76
3361.53,5.56
3395.15,5.35
3429.10,5.09
3463.39,4.86
3498.03,4.61
3533.01,4.39
3568.34,4.23
3604.02,4.10
3640.06,4.05
3676.46,4.12
3713.22,4.24
3750.36,4.43
3787.86,4.66
3825.74,4.89
3864.00,5.11
3902.64,5.30
3941.66,5.46
3981.08,5.57
4020.89,5.61
4061.10,5.57
4101.71,5.49
4142.73,5.38
4184.15,5.23
4226.00,5.06
4268.26,4.87
4310.94,4.67
4354.05,4.45
4397.59,4.26
4441.56,4.04
4485.98,3.85
4530.84,3.68
4576.15,3.50
4621.91,3.34
4668.13,3.19
4714.81,3.06
4761.96,2.97
4809.58,2.89
4857.67,2.82
4906.25,2.77
4955.31,2.75
5004.87,2.71
5054.91,2.70
5105.46,2.71
5156.52,2.77
5208.08,2.87
5260.16,3.02
5312.77,3.25
5365.89,3.54
5419.55,3.88
5473.75,4.28
5528.49,4.69
5583.77,5.12
5639.61,5.48
5696.00,5.77
5752.96,5.97
5810.49,6.11
5868.60,5.99
5927.28,5.78
5986.56,5.42
6046.42,4.96
6106.89,4.38
6167.96,3.75
6229.64,3.07
6291.93,2.38
6354.85,1.70
6418.40,1.11
6482.58,0.56
6547.41,0.09
6612.88,-0.31
6679.01,-0.65
6745.80,-0.94
6813.26,-1.21
6881.39,-1.44
6950.21,-1.65
7019.71,-1.84
7089.91,-2.03
7160.81,-2.25
7232.41,-2.45
7304.74,-2.69
7377.79,-2.93
7451.56,-3.21
7526.08,-3.48
7601.34,-3.74
7677.35,-3.95
7754.13,-4.13
7831.67,-4.21
7909.98,-4.20
7989.08,-4.10
8068.98,-4.01
8149.67,-3.87
8231.16,-3.75
8313.47,-3.68
8396.61,-3.71
8480.57,-3.82
8565.38,-4.02
8651.03,-4.35
8737.54,-4.77
8824.92,-5.30
8913.17,-5.95
9002.30,-6.64
9092.32,-7.42
9183.25,-8.16
9275.08,-8.88
9367.83,-9.52
9461.51,-10.05
9556.12,-10.49
9651.68,-10.78
9748.20,-10.93
9845.68,-10.72
9944.14,-10.38
10043.58,-9.93
10144.02,-9.35
10245.46,-8.73
10347.91,-8.06
10451.39,-7.46
10555.91,-6.94
10661.46,-6.49
10768.08,-6.13
10875.76,-5.86
10984.52,-5.58
11094.36,-5.34
11205.31,-5.10
11317.36,-4.88
11430.53,-4.70
11544.84,-4.59
11660.29,-4.71
11776.89,-5.03
11894.66,-5.50
12013.60,-6.14
12133.74,-6.93
12255.08,-7.82
12377.63,-8.71
12501.41,-9.58
12626.42,-10.37
12752.68,-11.02
12880.21,-11.53
13009.01,-11.93
13139.10,-12.21
13270.49,-12.41
13403.20,-12.53
13537.23,-12.57
13672.60,-12.53
13809.33,-12.43
13947.42,-12.23
14086.90,-12.01
14227.77,-11.72
14370.04,-11.43
14513.74,-11.14
14658.88,-10.82
14805.47,-10.56
14953.52,-10.28
15103.06,-10.00
15254.09,-9.74
15406.63,-9.46
15560.70,-9.16
15716.30,-8.85
15873.47,-8.57
16032.20,-8.30
16192.52,-8.05
16354.45,-7.86
16517.99,-7.70
16683.17,-7.63
16850.01,-7.59
17018.51,-7.66
17188.69,-7.80
17360.58,-7.98
17534.18,-8.21
17709.53,-8.48
17886.62,-8.73
18065.49,-9.00
18246.14,-9.24
18428.60,-9.48
18612.89,-9.70
18799.02,-9.91
18987.01,-10.15
19176.88,-10.37
19368.65,-10.55
19562.33,-10.76
19757.96,-10.92
19955.54,-11.00
