frequency,raw,error,smoothed,error_smoothed,equalization,parametric_eq,equalized_raw,equalized_smoothed,target
20,10.60,8.86,10.60,8.86,-8.86,-8.32,1.74,1.74,1.74
21,10.71,8.97,10.70,8.95,-8.95,-8.71,1.76,1.74,1.74
22,10.78,9.04,10.78,9.04,-9.04,-9.02,1.75,1.74,1.74
23,10.82,9.08,10.85,9.11,-9.11,-9.25,1.71,1.74,1.74
24,10.89,9.16,10.90,9.17,-9.17,-9.40,1.72,1.74,1.74
25,10.91,9.18,10.95,9.22,-9.22,-9.47,1.69,1.73,1.73
26,11.00,9.27,10.99,9.26,-9.26,-9.49,1.74,1.73,1.73
27,10.99,9.27,11.01,9.29,-9.29,-9.44,1.71,1.73,1.73
28,11.03,9.31,11.02,9.30,-9.30,-9.36,1.74,1.72,1.72
29,11.03,9.31,11.00,9.28,-9.28,-9.24,1.75,1.72,1.72
30,10.99,9.28,10.96,9.25,-9.25,-9.10,1.74,1.71,1.71
31,10.92,9.21,10.90,9.19,-9.19,-8.95,1.73,1.71,1.71
32,10.86,9.16,10.82,9.12,-9.12,-8.80,1.75,1.70,1.70
33,10.72,9.03,10.71,9.02,-9.02,-8.64,1.71,1.70,1.70
34,10.57,8.88,10.59,8.90,-8.90,-8.48,1.67,1.69,1.69
35,10.44,8.76,10.46,8.78,-8.78,-8.34,1.66,1.68,1.68
36,10.29,8.62,10.32,8.65,-8.65,-8.20,1.64,1.67,1.67
37,10.18,8.52,10.18,8.52,-8.52,-8.06,1.67,1.66,1.66
38,10.03,8.38,10.04,8.39,-8.39,-7.94,1.65,1.65,1.65
39,9.88,8.24,9.90,8.26,-8.26,-7.83,1.62,1.64,1.64
40,9.75,8.12,9.77,8.14,-8.14,-7.73,1.61,1.63,1.63
41,9.66,8.04,9.64,8.02,-8.02,-7.65,1.64,1.62,1.62
42,9.52,7.91,9.52,7.91,-7.91,-7.57,1.61,1.61,1.61
43,9.40,7.80,9.39,7.80,-7.80,-7.50,1.60,1.60,1.60
44,9.28,7.70,9.27,7.69,-7.69,-7.45,1.59,1.58,1.58
45,9.16,7.59,9.15,7.58,-7.58,-7.40,1.58,1.57,1.57
46,9.02,7.47,9.03,7.48,-7.48,-7.36,1.54,1.55,1.55
47,8.92,7.38,8.92,7.38,-7.38,-7.33,1.54,1.54,1.54
48,8.82,7.30,8.80,7.28,-7.28,-7.32,1.54,1.52,1.52
49,8.67,7.17,8.70,7.19,-7.19,-7.30,1.48,1.50,1.50
50,8.59,7.11,8.60,7.11,-7.11,-7.30,1.48,1.48,1.48
51,8.51,7.05,8.51,7.04,-7.04,-7.31,1.47,1.46,1.46
52,8.44,7.00,8.42,6.98,-6.98,-7.32,1.46,1.44,1.44
53,8.36,6.94,8.36,6.93,-6.93,-7.33,1.43,1.42,1.42
54,8.29,6.89,8.30,6.90,-6.90,-7.36,1.39,1.40,1.40
55,8.21,6.84,8.26,6.88,-6.88,-7.39,1.33,1.38,1.38
56,8.21,6.86,8.23,6.88,-6.88,-7.43,1.33,1.35,1.35
57,8.25,6.93,8.22,6.89,-6.89,-7.47,1.36,1.33,1.33
58,8.22,6.92,8.22,6.92,-6.92,-7.52,1.30,1.30,1.30
59,8.25,6.98,8.24,6.97,-6.97,-7.57,1.29,1.27,1.27
60,8.26,7.02,8.27,7.03,-7.03,-7.63,1.23,1.24,1.24
61,8.29,7.08,8.32,7.11,-7.11,-7.69,1.19,1.22,1.22
62,8.36,7.18,8.38,7.20,-7.20,-7.76,1.16,1.19,1.19
63,8.43,7.28,8.46,7.30,-7.30,-7.83,1.13,1.16,1.16
64,8.58,7.46,8.54,7.42,-7.42,-7.90,1.16,1.12,1.12
65,8.66,7.57,8.64,7.55,-7.55,-7.98,1.12,1.09,1.09
66,8.75,7.69,8.74,7.68,-7.68,-8.06,1.07,1.06,1.06
67,8.82,7.80,8.84,7.82,-7.82,-8.15,1.01,1.02,1.02
68,8.94,7.95,8.95,7.96,-7.96,-8.24,0.99,0.99,0.99
69,9.07,8.12,9.06,8.10,-8.10,-8.33,0.97,0.95,0.95
70,9.16,8.24,9.17,8.25,-8.25,-8.42,0.91,0.92,0.92
71,9.30,8.42,9.28,8.40,-8.40,-8.52,0.90,0.88,0.88
72,9.37,8.53,9.40,8.56,-8.56,-8.62,0.82,0.84,0.84
73,9.52,8.72,9.52,8.71,-8.71,-8.73,0.81,0.81,0.81
74,9.65,8.88,9.64,8.88,-8.88,-8.83,0.78,0.77,0.77
75,9.74,9.01,9.77,9.04,-9.04,-8.94,0.70,0.73,0.73
76,9.91,9.22,9.89,9.20,-9.20,-9.05,0.71,0.69,0.69
77,10.04,9.39,10.02,9.37,-9.37,-9.16,0.68,0.65,0.65
78,10.14,9.53,10.14,9.53,-9.53,-9.27,0.61,0.61,0.61
79,10.25,9.68,10.27,9.70,-9.70,-9.39,0.56,0.57,0.57
80,10.38,9.85,10.39,9.86,-9.86,-9.51,0.52,0.53,0.53
81,10.50,10.01,10.51,10.02,-10.02,-9.62,0.48,0.49,0.49
82,10.65,10.20,10.63,10.19,-10.19,-9.74,0.46,0.45,0.45
83,10.75,10.35,10.75,10.35,-10.35,-9.86,0.40,0.41,0.41
84,10.86,10.50,10.87,10.51,-10.51,-9.98,0.36,0.36,0.36
85,10.96,10.64,10.98,10.66,-10.66,-10.10,0.30,0.32,0.32
86,11.11,10.83,11.09,10.81,-10.81,-10.23,0.30,0.28,0.28
87,11.21,10.97,11.19,10.95,-10.95,-10.35,0.26,0.24,0.24
88,11.29,11.09,11.29,11.09,-11.09,-10.47,0.21,0.20,0.20
89,11.37,11.22,11.37,11.22,-11.22,-10.59,0.16,0.16,0.16
90,11.44,11.33,11.45,11.34,-11.34,-10.72,0.10,0.12,0.12
91,11.52,11.45,11.53,11.45,-11.45,-10.84,0.07,0.07,0.07
92,11.58,11.55,11.59,11.56,-11.56,-10.96,0.02,0.03,0.03
93,11.68,11.69,11.66,11.66,-11.66,-11.08,0.02,-0.01,-0.01
94,11.70,11.75,11.71,11.76,-11.76,-11.20,-0.06,-0.05,-0.05
95,11.77,11.86,11.76,11.85,-11.85,-11.32,-0.08,-0.09,-0.09
96,11.79,11.92,11.81,11.93,-11.93,-11.43,-0.14,-0.13,-0.13
97,11.84,12.01,11.84,12.01,-12.01,-11.55,-0.17,-0.17,-0.17
98,11.90,12.11,11.88,12.09,-12.09,-11.66,-0.18,-0.21,-0.21
99,11.88,12.13,11.91,12.16,-12.16,-11.77,-0.27,-0.25,-0.25
100,11.94,12.23,11.93,12.22,-12.22,-11.88,-0.28,-0.29,-0.29
101,11.95,12.28,11.95,12.29,-12.29,-11.98,-0.33,-0.33,-0.32
102,11.95,12.31,11.97,12.34,-12.34,-12.08,-0.39,-0.38,-0.36
104,11.96,12.40,11.98,12.40,-12.40,-12.27,-0.43,-0.42,-0.44
105,11.99,12.46,11.98,12.44,-12.44,-12.36,-0.45,-0.46,-0.47
106,12.00,12.51,11.98,12.48,-12.48,-12.45,-0.48,-0.50,-0.51
107,11.99,12.54,11.98,12.52,-12.52,-12.53,-0.53,-0.54,-0.54
108,11.96,12.54,11.97,12.54,-12.54,-12.60,-0.58,-0.58,-0.58
109,11.92,12.54,11.95,12.56,-12.56,-12.68,-0.64,-0.61,-0.61
110,11.93,12.58,11.93,12.58,-12.58,-12.74,-0.64,-0.65,-0.65
111,11.90,12.58,11.90,12.58,-12.58,-12.80,-0.68,-0.68,-0.68
112,11.87,12.59,11.87,12.59,-12.59,-12.86,-0.71,-0.72,-0.71
113,11.84,12.59,11.84,12.59,-12.59,-12.91,-0.74,-0.75,-0.75
114,11.80,12.58,11.80,12.58,-12.58,-12.95,-0.78,-0.78,-0.78
115,11.77,12.58,11.75,12.57,-12.57,-12.99,-0.80,-0.82,-0.81
117,11.69,12.56,11.70,12.56,-12.56,-13.05,-0.87,-0.85,-0.87
118,11.65,12.55,11.65,12.54,-12.54,-13.07,-0.89,-0.89,-0.90
119,11.59,12.52,11.60,12.53,-12.53,-13.08,-0.93,-0.93,-0.93
120,11.54,12.50,11.54,12.50,-12.50,-13.09,-0.96,-0.96,-0.96
121,11.47,12.45,11.49,12.48,-12.48,-13.09,-1.01,-0.99,-0.98
123,11.43,12.47,11.43,12.46,-12.46,-13.08,-1.02,-1.03,-1.04
124,11.38,12.44,11.37,12.43,-12.43,-13.06,-1.04,-1.06,-1.06
125,11.31,12.40,11.30,12.40,-12.40,-13.04,-1.08,-1.09,-1.09
126,11.24,12.36,11.24,12.36,-12.36,-13.02,-1.12,-1.12,-1.11
128,11.14,12.30,11.17,12.32,-12.32,-12.95,-1.18,-1.15,-1.16
129,11.10,12.29,11.10,12.28,-12.28,-12.91,-1.18,-1.18,-1.19
130,11.04,12.25,11.02,12.24,-12.24,-12.87,-1.19,-1.21,-1.21
131,10.96,12.19,10.95,12.19,-12.19,-12.82,-1.23,-1.24,-1.23
133,10.83,12.11,10.87,12.14,-12.14,-12.71,-1.30,-1.27,-1.27
134,10.79,12.09,10.79,12.08,-12.08,-12.66,-1.29,-1.30,-1.30
135,10.73,12.05,10.70,12.03,-12.03,-12.59,-1.29,-1.32,-1.32
137,10.60,11.96,10.62,11.97,-11.97,-12.46,-1.37,-1.35,-1.36
138,10.52,11.90,10.53,11.91,-11.91,-12.39,-1.38,-1.38,-1.38
140,10.45,11.86,10.44,11.84,-11.84,-12.25,-1.39,-1.40,-1.41
141,10.33,11.76,10.35,11.78,-11.78,-12.18,-1.45,-1.43,-1.43
142,10.26,11.71,10.26,11.71,-11.71,-12.10,-1.45,-1.45,-1.45
144,10.18,11.66,10.17,11.65,-11.65,-11.94,-1.47,-1.48,-1.48
145,10.03,11.53,10.08,11.58,-11.58,-11.87,-1.55,-1.50,-1.50
147,9.98,11.51,9.98,11.51,-11.51,-11.71,-1.52,-1.53,-1.53
148,9.94,11.49,9.88,11.43,-11.43,-11.63,-1.49,-1.55,-1.55
150,9.76,11.34,9.78,11.35,-11.35,-11.46,-1.59,-1.57,-1.57
151,9.70,11.29,9.68,11.27,-11.27,-11.38,-1.57,-1.59,-1.59
153,9.54,11.16,9.57,11.19,-11.19,-11.22,-1.64,-1.61,-1.62
154,9.48,11.11,9.47,11.10,-11.10,-11.14,-1.62,-1.63,-1.63
156,9.34,11.00,9.36,11.01,-11.01,-10.99,-1.67,-1.65,-1.65
157,9.26,10.93,9.25,10.92,-10.92,-10.91,-1.66,-1.67,-1.67
159,9.14,10.83,9.14,10.83,-10.83,-10.75,-1.69,-1.69,-1.69
160,9.03,10.73,9.04,10.75,-10.75,-10.68,-1.71,-1.71,-1.70
162,8.93,10.66,8.93,10.66,-10.66,-10.53,-1.73,-1.72,-1.72
164,8.81,10.56,8.83,10.57,-10.57,-10.39,-1.76,-1.74,-1.75
165,8.74,10.50,8.73,10.49,-10.49,-10.32,-1.74,-1.76,-1.76
167,8.60,10.38,8.62,10.40,-10.40,-10.19,-1.80,-1.77,-1.78
169,8.54,10.34,8.52,10.31,-10.31,-10.06,-1.77,-1.79,-1.79
170,8.42,10.22,8.41,10.21,-10.21,-10.00,-1.79,-1.81,-1.80
172,8.32,10.14,8.30,10.12,-10.12,-9.89,-1.80,-1.82,-1.82
174,8.13,9.97,8.18,10.02,-10.02,-9.78,-1.89,-1.83,-1.84
175,8.10,9.95,8.07,9.92,-9.92,-9.72,-1.81,-1.85,-1.85
177,7.94,9.80,7.95,9.81,-9.81,-9.62,-1.87,-1.86,-1.86
179,7.84,9.72,7.83,9.70,-9.70,-9.53,-1.86,-1.87,-1.88
181,7.68,9.57,7.71,9.60,-9.60,-9.44,-1.91,-1.89,-1.89
183,7.56,9.47,7.59,9.49,-9.49,-9.35,-1.92,-1.90,-1.90
184,7.49,9.40,7.46,9.38,-9.38,-9.31,-1.88,-1.91,-1.91
186,7.30,9.22,7.34,9.26,-9.26,-9.23,-1.96,-1.92,-1.92
188,7.26,9.20,7.21,9.15,-9.15,-9.14,-1.89,-1.93,-1.93
190,7.07,9.02,7.08,9.03,-9.03,-9.05,-1.96,-1.95,-1.95
192,6.95,8.91,6.95,8.90,-8.90,-8.96,-1.95,-1.96,-1.96
194,6.83,8.80,6.81,8.78,-8.78,-8.85,-1.94,-1.97,-1.97
196,6.66,8.64,6.67,8.64,-8.64,-8.74,-1.98,-1.98,-1.98
198,6.51,8.50,6.52,8.51,-8.51,-8.62,-2.00,-1.99,-1.99
200,6.38,8.38,6.38,8.37,-8.37,-8.49,-1.99,-2.00,-2.00
202,6.22,8.23,6.23,8.24,-8.24,-8.34,-2.02,-2.01,-2.01
204,6.07,8.09,6.09,8.10,-8.10,-8.19,-2.03,-2.01,-2.01
206,5.93,7.95,5.95,7.97,-7.97,-8.04,-2.04,-2.02,-2.02
208,5.81,7.84,5.80,7.83,-7.83,-7.88,-2.02,-2.03,-2.03
210,5.66,7.70,5.66,7.69,-7.69,-7.72,-2.03,-2.04,-2.04
212,5.53,7.58,5.51,7.56,-7.56,-7.56,-2.02,-2.04,-2.04
214,5.37,7.42,5.36,7.41,-7.41,-7.40,-2.04,-2.05,-2.05
216,5.21,7.27,5.21,7.27,-7.27,-7.25,-2.06,-2.06,-2.06
218,5.07,7.14,5.06,7.12,-7.12,-7.10,-2.05,-2.06,-2.06
221,4.90,6.97,4.91,6.98,-6.98,-6.88,-2.08,-2.07,-2.07
223,4.74,6.82,4.76,6.83,-6.83,-6.74,-2.09,-2.08,-2.08
225,4.59,6.68,4.61,6.69,-6.69,-6.60,-2.10,-2.08,-2.08
227,4.47,6.56,4.46,6.55,-6.55,-6.47,-2.08,-2.09,-2.09
229,4.32,6.42,4.32,6.42,-6.42,-6.35,-2.09,-2.10,-2.09
232,4.13,6.23,4.18,6.28,-6.28,-6.17,-2.15,-2.10,-2.10
234,4.07,6.18,4.05,6.15,-6.15,-6.05,-2.08,-2.11,-2.11
236,3.95,6.06,3.92,6.03,-6.03,-5.94,-2.08,-2.11,-2.11
239,3.77,5.89,3.79,5.90,-5.90,-5.77,-2.13,-2.12,-2.12
241,3.67,5.79,3.66,5.78,-5.78,-5.67,-2.11,-2.12,-2.12
244,3.50,5.63,3.53,5.65,-5.65,-5.52,-2.15,-2.13,-2.13
246,3.39,5.52,3.40,5.53,-5.53,-5.42,-2.14,-2.13,-2.13
248,3.29,5.43,3.27,5.40,-5.40,-5.33,-2.11,-2.13,-2.13
251,3.12,5.26,3.14,5.28,-5.28,-5.19,-2.16,-2.14,-2.14
253,3.02,5.16,3.01,5.15,-5.15,-5.10,-2.13,-2.14,-2.14
256,2.88,5.03,2.88,5.03,-5.03,-4.97,-2.15,-2.15,-2.15
259,2.74,4.89,2.75,4.90,-4.90,-4.84,-2.16,-2.15,-2.15
261,2.63,4.79,2.62,4.78,-4.78,-4.76,-2.15,-2.15,-2.15
264,2.48,4.64,2.50,4.65,-4.65,-4.63,-2.17,-2.16,-2.16
266,2.37,4.53,2.37,4.53,-4.53,-4.55,-2.15,-2.16,-2.16
269,2.22,4.39,2.24,4.40,-4.40,-4.43,-2.18,-2.16,-2.16
272,2.09,4.26,2.10,4.27,-4.27,-4.31,-2.18,-2.17,-2.17
274,2.00,4.17,1.97,4.14,-4.14,-4.23,-2.13,-2.17,-2.17
277,1.84,4.01,1.83,4.00,-4.00,-4.12,-2.16,-2.17,-2.17
280,1.71,3.89,1.69,3.86,-3.86,-4.00,-2.15,-2.18,-2.18
283,1.54,3.72,1.55,3.73,-3.73,-3.88,-2.18,-2.18,-2.18
286,1.37,3.55,1.41,3.59,-3.59,-3.76,-2.22,-2.18,-2.18
288,1.26,3.44,1.27,3.45,-3.45,-3.68,-2.19,-2.18,-2.18
291,1.10,3.29,1.13,3.32,-3.32,-3.56,-2.21,-2.19,-2.18
294,1.01,3.20,1.00,3.18,-3.18,-3.43,-2.17,-2.19,-2.19
297,0.88,3.07,0.86,3.05,-3.05,-3.31,-2.17,-2.19,-2.19
300,0.73,2.92,0.73,2.92,-2.92,-3.18,-2.19,-2.19,-2.19
303,0.60,2.80,0.59,2.79,-2.79,-3.04,-2.18,-2.19,-2.19
306,0.45,2.65,0.46,2.65,-2.65,-2.90,-2.20,-2.20,-2.20
309,0.31,2.51,0.33,2.52,-2.52,-2.75,-2.21,-2.20,-2.20
312,0.20,2.40,0.19,2.39,-2.39,-2.60,-2.19,-2.20,-2.20
316,0.05,2.25,0.06,2.26,-2.26,-2.39,-2.21,-2.20,-2.20
319,-0.10,2.10,-0.07,2.13,-2.13,-2.23,-2.23,-2.20,-2.20
322,-0.19,2.02,-0.20,2.00,-2.00,-2.06,-2.19,-2.20,-2.20
325,-0.29,1.92,-0.33,1.87,-1.87,-1.89,-2.16,-2.21,-2.21
328,-0.42,1.79,-0.46,1.75,-1.75,-1.73,-2.16,-2.21,-2.21
332,-0.62,1.59,-0.58,1.63,-1.63,-1.52,-2.25,-2.21,-2.21
335,-0.69,1.52,-0.69,1.52,-1.52,-1.39,-2.20,-2.21,-2.21
338,-0.79,1.42,-0.79,1.42,-1.42,-1.27,-2.21,-2.21,-2.21
342,-0.90,1.31,-0.88,1.34,-1.34,-1.14,-2.23,-2.21,-2.21
345,-1.00,1.22,-0.94,1.27,-1.27,-1.08,-2.27,-2.21,-2.21
349,-1.01,1.21,-0.99,1.23,-1.23,-1.05,-2.24,-2.22,-2.22
352,-1.05,1.17,-1.01,1.20,-1.20,-1.05,-2.25,-2.22,-2.22
356,-1.05,1.17,-1.03,1.19,-1.19,-1.09,-2.24,-2.22,-2.22
359,-1.02,1.20,-1.03,1.18,-1.18,-1.13,-2.20,-2.22,-2.22
363,-0.96,1.26,-1.04,1.18,-1.18,-1.20,-2.14,-2.22,-2.22
366,-1.01,1.21,-1.04,1.18,-1.18,-1.26,-2.19,-2.22,-2.22
370,-1.05,1.17,-1.04,1.18,-1.18,-1.34,-2.23,-2.22,-2.22
374,-1.02,1.21,-1.05,1.17,-1.17,-1.41,-2.19,-2.22,-2.22
377,-1.04,1.19,-1.06,1.16,-1.16,-1.46,-2.20,-2.23,-2.23
381,-1.08,1.15,-1.07,1.16,-1.16,-1.53,-2.24,-2.23,-2.23
385,-1.09,1.14,-1.07,1.16,-1.16,-1.58,-2.25,-2.23,-2.23
389,-1.10,1.13,-1.05,1.18,-1.18,-1.62,-2.28,-2.23,-2.23
393,-1.06,1.17,-1.03,1.21,-1.21,-1.65,-2.26,-2.23,-2.23
397,-1.01,1.22,-0.98,1.25,-1.25,-1.68,-2.26,-2.23,-2.23
401,-0.93,1.31,-0.93,1.30,-1.30,-1.70,-2.23,-2.23,-2.23
405,-0.85,1.39,-0.86,1.37,-1.37,-1.72,-2.22,-2.24,-2.24
409,-0.78,1.46,-0.79,1.45,-1.45,-1.73,-2.22,-2.24,-2.24
413,-0.70,1.54,-0.71,1.53,-1.53,-1.73,-2.22,-2.24,-2.24
417,-0.63,1.61,-0.63,1.61,-1.61,-1.73,-2.24,-2.24,-2.24
421,-0.56,1.68,-0.55,1.69,-1.69,-1.73,-2.25,-2.24,-2.24
425,-0.48,1.76,-0.47,1.77,-1.77,-1.73,-2.25,-2.24,-2.24
430,-0.39,1.85,-0.40,1.84,-1.84,-1.72,-2.23,-2.24,-2.24
434,-0.32,1.92,-0.33,1.91,-1.91,-1.71,-2.22,-2.23,-2.23
438,-0.25,1.98,-0.27,1.96,-1.96,-1.70,-2.21,-2.23,-2.23
443,-0.21,2.02,-0.22,2.01,-2.01,-1.69,-2.22,-2.23,-2.23
447,-0.17,2.06,-0.17,2.06,-2.06,-1.68,-2.22,-2.23,-2.23
451,-0.14,2.08,-0.13,2.09,-2.09,-1.67,-2.23,-2.22,-2.22
456,-0.09,2.13,-0.10,2.12,-2.12,-1.65,-2.21,-2.22,-2.22
460,-0.09,2.12,-0.07,2.14,-2.14,-1.64,-2.23,-2.21,-2.21
465,-0.07,2.14,-0.04,2.16,-2.16,-1.62,-2.23,-2.20,-2.20
470,-0.03,2.17,-0.03,2.17,-2.17,-1.60,-2.20,-2.20,-2.20
474,-0.01,2.18,-0.02,2.17,-2.17,-1.59,-2.18,-2.19,-2.19
479,0.00,2.18,-0.02,2.16,-2.16,-1.57,-2.16,-2.18,-2.18
484,0.02,2.19,-0.03,2.14,-2.14,-1.55,-2.12,-2.17,-2.17
489,-0.03,2.13,-0.04,2.11,-2.11,-1.53,-2.14,-2.15,-2.15
494,-0.08,2.06,-0.06,2.08,-2.08,-1.51,-2.16,-2.14,-2.14
499,-0.06,2.07,-0.08,2.05,-2.05,-1.49,-2.10,-2.13,-2.13
504,-0.12,1.99,-0.10,2.01,-2.01,-1.48,-2.13,-2.11,-2.11
509,-0.15,1.95,-0.11,1.99,-1.99,-1.46,-2.13,-2.09,-2.09
514,-0.13,1.95,-0.11,1.97,-1.97,-1.44,-2.09,-2.08,-2.08
519,-0.14,1.92,-0.10,1.96,-1.96,-1.42,-2.09,-2.06,-2.06
524,-0.10,1.94,-0.09,1.95,-1.95,-1.41,-2.05,-2.04,-2.04
529,-0.07,1.95,-0.06,1.96,-1.96,-1.39,-2.02,-2.02,-2.02
535,-0.01,1.99,-0.03,1.96,-1.96,-1.37,-1.97,-2.00,-2.00
540,0.02,2.00,-0.01,1.97,-1.97,-1.36,-1.95,-1.97,-1.97
545,0.04,1.99,0.02,1.97,-1.97,-1.34,-1.93,-1.95,-1.95
551,0.02,1.95,0.04,1.97,-1.97,-1.32,-1.95,-1.93,-1.93
556,0.08,1.98,0.06,1.96,-1.96,-1.31,-1.88,-1.90,-1.90
562,0.10,1.98,0.07,1.95,-1.95,-1.29,-1.85,-1.88,-1.88
568,0.05,1.90,0.08,1.94,-1.94,-1.27,-1.88,-1.85,-1.85
573,0.08,1.90,0.09,1.92,-1.92,-1.26,-1.83,-1.82,-1.82
579,0.09,1.89,0.10,1.90,-1.90,-1.25,-1.80,-1.79,-1.79
585,0.13,1.90,0.11,1.88,-1.88,-1.23,-1.74,-1.77,-1.77
591,0.11,1.85,0.12,1.86,-1.86,-1.22,-1.74,-1.74,-1.74
596,0.14,1.85,0.13,1.84,-1.84,-1.20,-1.70,-1.71,-1.71
602,0.13,1.81,0.14,1.82,-1.82,-1.19,-1.69,-1.68,-1.68
608,0.15,1.80,0.16,1.80,-1.80,-1.18,-1.65,-1.64,-1.64
615,0.18,1.79,0.18,1.79,-1.79,-1.16,-1.61,-1.61,-1.61
621,0.19,1.77,0.19,1.78,-1.78,-1.15,-1.58,-1.58,-1.58
627,0.22,1.77,0.22,1.76,-1.76,-1.14,-1.54,-1.55,-1.55
633,0.22,1.74,0.24,1.76,-1.76,-1.13,-1.53,-1.51,-1.51
639,0.27,1.75,0.27,1.75,-1.75,-1.12,-1.48,-1.48,-1.48
646,0.31,1.76,0.30,1.74,-1.74,-1.10,-1.43,-1.45,-1.45
652,0.35,1.76,0.33,1.74,-1.74,-1.09,-1.39,-1.41,-1.41
659,0.32,1.70,0.36,1.74,-1.74,-1.08,-1.42,-1.37,-1.37
665,0.38,1.72,0.40,1.74,-1.74,-1.07,-1.36,-1.34,-1.34
672,0.46,1.76,0.44,1.74,-1.74,-1.06,-1.28,-1.30,-1.30
679,0.50,1.77,0.47,1.74,-1.74,-1.05,-1.24,-1.27,-1.27
686,0.49,1.72,0.51,1.74,-1.74,-1.05,-1.25,-1.23,-1.23
692,0.50,1.69,0.55,1.74,-1.74,-1.04,-1.24,-1.19,-1.19
699,0.58,1.74,0.58,1.73,-1.73,-1.03,-1.15,-1.15,-1.15
706,0.64,1.76,0.61,1.73,-1.73,-1.02,-1.09,-1.12,-1.12
713,0.68,1.76,0.64,1.72,-1.72,-1.01,-1.04,-1.08,-1.08
721,0.67,1.71,0.67,1.71,-1.71,-1.01,-1.04,-1.04,-1.04
728,0.65,1.65,0.69,1.69,-1.69,-1.00,-1.04,-1.00,-1.00
735,0.69,1.66,0.71,1.67,-1.67,-0.99,-0.98,-0.96,-0.96
742,0.73,1.66,0.72,1.65,-1.65,-0.99,-0.92,-0.93,-0.93
750,0.76,1.65,0.73,1.62,-1.62,-0.98,-0.86,-0.89,-0.89
757,0.76,1.61,0.74,1.59,-1.59,-0.98,-0.83,-0.85,-0.85
765,0.74,1.56,0.75,1.57,-1.57,-0.97,-0.82,-0.81,-0.81
773,0.74,1.52,0.76,1.54,-1.54,-0.96,-0.80,-0.78,-0.78
780,0.75,1.49,0.77,1.51,-1.51,-0.96,-0.76,-0.74,-0.74
788,0.77,1.48,0.78,1.49,-1.49,-0.96,-0.71,-0.71,-0.71
796,0.81,1.48,0.79,1.46,-1.46,-0.95,-0.65,-0.67,-0.67
804,0.82,1.46,0.80,1.44,-1.44,-0.95,-0.62,-0.64,-0.64
812,0.81,1.41,0.82,1.42,-1.42,-0.95,-0.61,-0.60,-0.60
820,0.80,1.37,0.83,1.40,-1.40,-0.94,-0.60,-0.57,-0.57
828,0.82,1.36,0.85,1.38,-1.38,-0.94,-0.56,-0.54,-0.54
837,0.85,1.36,0.86,1.36,-1.36,-0.94,-0.51,-0.50,-0.50
845,0.88,1.35,0.87,1.34,-1.34,-0.94,-0.46,-0.47,-0.47
853,0.91,1.35,0.87,1.31,-1.31,-0.94,-0.40,-0.44,-0.44
862,0.87,1.28,0.86,1.27,-1.27,-0.94,-0.40,-0.41,-0.41
871,0.79,1.17,0.84,1.22,-1.22,-0.94,-0.43,-0.38,-0.38
879,0.82,1.17,0.81,1.16,-1.16,-0.94,-0.34,-0.35,-0.35
888,0.77,1.10,0.76,1.09,-1.09,-0.94,-0.32,-0.32,-0.32
897,0.74,1.04,0.70,1.00,-1.00,-0.94,-0.26,-0.30,-0.30
906,0.62,0.89,0.63,0.90,-0.90,-0.94,-0.27,-0.27,-0.27
915,0.55,0.79,0.54,0.78,-0.78,-0.94,-0.22,-0.24,-0.24
924,0.44,0.66,0.43,0.64,-0.64,-0.94,-0.20,-0.21,-0.21
933,0.37,0.56,0.32,0.50,-0.50,-0.94,-0.13,-0.19,-0.19
943,0.24,0.40,0.20,0.36,-0.36,-0.95,-0.12,-0.16,-0.16
952,0.14,0.28,0.09,0.22,-0.22,-0.95,-0.08,-0.13,-0.13
962,0.02,0.13,0.01,0.11,-0.11,-0.95,-0.09,-0.11,-0.11
971,-0.06,0.02,-0.04,0.04,-0.04,-0.96,-0.10,-0.08,-0.08
981,-0.13,-0.07,-0.04,0.01,-0.01,-0.96,-0.14,-0.05,-0.05
991,-0.11,-0.08,0.02,0.05,-0.05,-0.97,-0.16,-0.03,-0.03
1001,0.01,0.01,0.15,0.15,-0.15,-0.97,-0.14,0.00,0.00
1011,0.24,0.21,0.34,0.32,-0.32,-0.98,-0.07,0.03,0.03
1021,0.49,0.44,0.58,0.53,-0.53,-0.98,-0.04,0.05,0.05
1031,0.81,0.73,0.86,0.78,-0.78,-0.99,0.04,0.08,0.08
1041,1.17,1.06,1.14,1.03,-1.03,-0.99,0.14,0.11,0.11
1052,1.57,1.43,1.40,1.26,-1.26,-1.00,0.31,0.14,0.14
1062,1.80,1.64,1.63,1.46,-1.46,-1.01,0.34,0.17,0.17
1073,1.91,1.72,1.81,1.61,-1.61,-1.02,0.30,0.19,0.19
1084,1.98,1.76,1.93,1.70,-1.70,-1.03,0.28,0.22,0.22
1094,1.98,1.73,1.99,1.74,-1.74,-1.03,0.25,0.25,0.25
1105,1.97,1.69,1.99,1.71,-1.71,-1.04,0.26,0.28,0.28
1116,1.89,1.58,1.95,1.64,-1.64,-1.05,0.26,0.31,0.31
1128,1.82,1.48,1.86,1.52,-1.52,-1.06,0.30,0.34,0.34
1139,1.74,1.37,1.74,1.36,-1.36,-1.08,0.38,0.37,0.37
1150,1.63,1.23,1.58,1.18,-1.18,-1.09,0.45,0.40,0.40
1162,1.50,1.07,1.40,0.97,-0.97,-1.10,0.53,0.44,0.44
1173,1.28,0.81,1.21,0.74,-0.74,-1.11,0.54,0.47,0.47
1185,1.04,0.54,1.01,0.51,-0.51,-1.12,0.53,0.50,0.50
1197,0.86,0.33,0.83,0.30,-0.30,-1.14,0.56,0.53,0.53
1209,0.65,0.09,0.68,0.11,-0.11,-1.15,0.54,0.56,0.56
1221,0.51,-0.09,0.57,-0.02,0.02,-1.16,0.54,0.60,0.60
1233,0.40,-0.23,0.54,-0.09,0.09,-1.18,0.50,0.63,0.63
1246,0.41,-0.25,0.58,-0.09,0.09,-1.19,0.50,0.66,0.66
1258,0.58,-0.12,0.70,0.00,-0.00,-1.21,0.58,0.70,0.70
1271,0.81,0.08,0.89,0.16,-0.16,-1.23,0.65,0.73,0.73
1283,1.10,0.33,1.15,0.38,-0.38,-1.24,0.72,0.77,0.77
1296,1.49,0.69,1.44,0.64,-0.64,-1.26,0.85,0.80,0.80
1309,1.84,1.00,1.76,0.92,-0.92,-1.28,0.92,0.84,0.84
1322,2.16,1.29,2.07,1.19,-1.19,-1.30,0.97,0.87,0.87
1335,2.43,1.52,2.36,1.45,-1.45,-1.32,0.99,0.91,0.91
1349,2.68,1.74,2.61,1.67,-1.67,-1.34,1.01,0.95,0.95
1362,2.87,1.89,2.83,1.85,-1.85,-1.36,1.02,0.98,0.98
1376,3.03,2.01,3.01,1.99,-1.99,-1.38,1.04,1.02,1.02
1390,3.15,2.09,3.15,2.10,-2.10,-1.40,1.06,1.06,1.06
1404,3.26,2.17,3.27,2.17,-2.17,-1.42,1.09,1.10,1.10
1418,3.33,2.20,3.36,2.23,-2.23,-1.44,1.11,1.13,1.13
1432,3.41,2.24,3.44,2.26,-2.26,-1.47,1.15,1.17,1.17
1446,3.50,2.29,3.50,2.29,-2.29,-1.49,1.21,1.21,1.21
1461,3.53,2.28,3.56,2.31,-2.31,-1.52,1.22,1.25,1.25
1475,3.59,2.30,3.61,2.32,-2.32,-1.54,1.27,1.29,1.29
1490,3.65,2.32,3.66,2.32,-2.32,-1.57,1.33,1.33,1.33
1505,3.73,2.36,3.70,2.32,-2.32,-1.60,1.41,1.37,1.37
1520,3.78,2.37,3.73,2.32,-2.32,-1.62,1.46,1.41,1.41
1535,3.78,2.33,3.77,2.31,-2.31,-1.65,1.47,1.46,1.46
1550,3.79,2.29,3.80,2.30,-2.30,-1.68,1.49,1.50,1.50
1566,3.83,2.29,3.84,2.30,-2.30,-1.71,1.53,1.54,1.54
1582,3.85,2.27,3.88,2.30,-2.30,-1.74,1.55,1.58,1.58
1597,3.88,2.26,3.94,2.31,-2.31,-1.77,1.57,1.63,1.63
1613,3.99,2.32,4.01,2.34,-2.34,-1.81,1.66,1.67,1.67
1629,4.09,2.38,4.08,2.37,-2.37,-1.84,1.72,1.71,1.71
1646,4.18,2.42,4.17,2.41,-2.41,-1.88,1.77,1.76,1.76
1662,4.27,2.47,4.26,2.46,-2.46,-1.91,1.81,1.80,1.80
1679,4.35,2.50,4.37,2.52,-2.52,-1.95,1.84,1.85,1.85
1696,4.48,2.59,4.47,2.57,-2.57,-1.98,1.91,1.90,1.90
