frequency,raw
20,-5.39
21,-4.94
22,-4.56
23,-4.05
24,-3.74
25,-3.23
26,-2.90
27,-2.69
28,-2.34
29,-2.03
30,-1.69
31,-1.39
32,-1.13
33,-0.87
34,-0.65
35,-0.31
36,-0.16
37,0.15
38,0.39
39,0.42
40,0.70
41,0.91
42,1.02
43,1.24
44,1.41
45,1.50
46,1.69
47,1.85
48,1.89
49,1.99
50,2.09
51,2.18
52,2.28
53,2.37
54,2.37
55,2.56
56,2.56
57,2.57
58,2.76
59,2.76
60,2.76
61,2.76
62,2.85
63,2.85
64,2.85
65,2.91
66,2.95
67,2.95
68,2.95
69,2.89
70,2.76
71,2.76
72,2.76
73,2.76
74,2.76
75,2.76
76,2.76
77,2.76
78,2.76
79,2.76
80,2.76
81,2.76
82,2.76
83,2.76
84,2.70
85,2.66
86,2.66
87,2.66
88,2.66
89,2.62
90,2.57
91,2.57
92,2.53
93,2.48
94,2.39
95,2.38
96,2.28
97,2.27
98,2.17
99,2.04
100,1.99
101,1.93
102,1.91
104,1.68
105,1.52
106,1.37
107,1.33
108,1.31
109,1.29
110,1.19
111,1.16
112,1.15
113,1.14
114,1.12
115,1.04
117,1.03
118,1.04
119,1.14
120,1.15
121,1.15
123,1.16
124,1.17
125,1.19
126,1.28
128,1.29
129,1.29
130,1.30
131,1.30
133,1.31
134,1.31
135,1.32
137,1.32
138,1.31
140,1.23
141,1.23
142,1.23
144,1.23
145,1.23
147,1.23
148,1.23
150,1.33
151,1.33
153,1.33
154,1.33
156,1.33
157,1.28
159,1.08
160,1.02
162,0.88
164,0.66
165,0.60
167,0.49
169,0.44
170,0.48
172,0.56
174,0.62
175,0.61
177,0.70
179,0.70
181,0.71
183,0.71
184,0.72
186,0.73
188,0.75
190,0.76
192,0.78
194,0.80
196,0.81
198,0.82
200,0.83
202,0.84
204,0.84
206,0.85
208,0.85
210,0.84
212,0.84
214,0.84
216,0.83
218,0.82
221,0.73
223,0.73
225,0.73
227,0.73
229,0.73
232,0.64
234,0.65
236,0.67
239,0.68
241,0.68
244,0.62
246,0.64
248,0.66
251,0.64
253,0.60
256,0.61
259,0.59
261,0.48
264,0.44
266,0.43
269,0.34
272,0.23
274,0.18
277,0.04
280,-0.06
283,-0.15
286,-0.15
288,-0.20
291,-0.32
294,-0.31
297,-0.30
300,-0.28
303,-0.34
306,-0.45
309,-0.45
312,-0.44
316,-0.50
319,-0.62
322,-0.62
325,-0.63
328,-0.63
332,-0.73
335,-0.73
338,-0.73
342,-0.73
345,-0.78
349,-0.83
352,-0.87
356,-1.02
359,-1.05
363,-1.10
366,-1.12
370,-1.19
374,-1.23
377,-1.27
381,-1.36
385,-1.43
389,-1.52
393,-1.69
397,-1.63
401,-1.64
405,-1.83
409,-1.91
413,-1.94
417,-1.90
421,-1.95
425,-2.08
430,-2.13
434,-2.15
438,-2.25
443,-2.21
447,-2.13
451,-2.08
456,-2.15
460,-2.07
465,-2.07
470,-2.07
474,-2.01
479,-1.98
484,-2.01
489,-1.95
494,-1.92
499,-1.80
504,-1.78
509,-1.76
514,-1.73
519,-1.65
524,-1.65
529,-1.59
535,-1.56
540,-1.52
545,-1.51
551,-1.46
556,-1.48
562,-1.43
568,-1.44
573,-1.45
579,-1.38
585,-1.28
591,-1.20
596,-1.15
602,-1.11
608,-1.05
615,-0.90
621,-0.73
627,-0.72
633,-0.61
639,-0.59
646,-0.45
652,-0.26
659,-0.21
665,-0.19
672,-0.16
679,-0.05
686,0.04
692,0.12
699,0.13
706,0.42
713,0.46
721,0.40
728,0.37
735,0.44
742,0.47
750,0.46
757,0.43
765,0.54
773,0.58
780,0.60
788,0.68
796,0.66
804,0.66
812,0.80
820,0.94
828,0.94
837,0.91
845,0.90
853,0.90
862,0.92
871,0.92
879,0.80
888,0.78
897,0.77
906,0.78
915,0.77
924,0.62
933,0.52
943,0.35
952,0.19
962,0.01
971,-0.15
981,-0.38
991,-0.34
1001,0.04
1011,0.23
1021,0.44
1031,0.72
1041,0.93
1052,1.15
1062,1.30
1073,1.40
1084,1.55
1094,1.61
1105,1.66
1116,1.73
1128,1.69
1139,1.78
1150,1.82
1162,1.85
1173,1.86
1185,1.92
1197,1.95
1209,2.05
1221,2.09
1233,2.09
1246,2.08
1258,2.15
1271,2.16
1283,2.18
1296,2.24
1309,2.26
1322,2.25
1335,2.24
1349,2.25
1362,2.27
1376,2.24
1390,2.25
1404,2.31
1418,2.32
1432,2.29
1446,2.33
1461,2.40
1475,2.38
1490,2.41
1505,2.50
1520,2.49
1535,2.48
1550,2.55
1566,2.51
1582,2.48
1597,2.55
1613,2.61
1629,2.67
1646,2.70
1662,2.71
1679,2.84
1696,2.89
1713,2.93
1730,3.01
1747,3.10
1764,3.19
1782,3.28
1800,3.30
1818,3.32
1836,3.43
1854,3.43
1873,3.42
1892,3.43
1911,3.51
1930,3.55
1949,3.51
1969,3.51
1988,3.50
2008,3.47
2028,3.51
2048,3.59
2069,3.59
2090,3.54
2111,3.50
2132,3.62
2153,3.63
2175,3.58
2196,3.70
2218,3.73
2240,3.79
2263,3.90
2285,3.95
2308,3.97
2331,3.97
2355,4.03
2378,4.04
2402,4.11
2426,4.07
2450,4.08
2475,4.03
2500,4.03
2525,4.07
2550,4.11
2575,4.03
2601,4.06
2627,4.27
2653,4.51
2680,4.58
2707,4.69
2734,4.96
2761,5.24
2789,5.58
2817,5.69
2845,5.75
2873,6.06
2902,6.41
2931,6.80
2960,7.23
2990,7.70
3020,8.29
3050,8.61
3080,8.92
3111,9.19
3142,9.40
3174,9.56
3206,9.63
3238,9.65
3270,9.66
3303,9.67
3336,9.67
3369,9.63
3403,9.63
3437,9.71
3471,9.72
3506,9.73
3541,9.72
3576,9.58
3612,9.50
3648,9.40
3685,9.13
3721,8.80
3759,8.49
3796,8.19
3834,7.86
3873,7.58
3911,7.30
3950,7.05
3990,6.73
4030,6.36
4070,6.03
4111,5.61
4152,5.12
4193,4.75
4235,4.44
4278,4.09
4321,3.74
4364,3.52
4407,3.37
4451,3.33
4496,3.04
4541,2.77
4586,2.49
4632,2.06
4679,1.62
4725,1.40
4773,1.16
4820,0.93
4868,0.79
4917,0.73
4966,0.84
5016,0.89
5066,0.78
5117,0.70
5168,0.65
5220,0.70
5272,0.74
5325,0.84
5378,1.07
5432,1.28
5486,1.33
5541,1.48
5596,1.55
5652,1.72
5709,1.93
5766,2.42
5823,2.79
5882,3.00
5940,3.05
6000,3.19
6060,3.11
6120,2.83
6182,2.44
6244,1.87
6306,1.36
6369,0.87
6433,0.33
6497,-0.24
6562,-0.93
6628,-1.55
6694,-2.08
6761,-2.63
6828,-3.13
6897,-3.51
6966,-3.75
7035,-3.87
7106,-4.06
7177,-4.06
7249,-3.96
7321,-3.96
7394,-3.86
7468,-3.70
7543,-3.56
7618,-3.56
7694,-3.18
7771,-2.99
7849,-2.38
7928,-1.84
8007,-1.12
8087,-0.15
8168,0.78
8250,1.63
8332,2.59
8415,2.96
8499,3.82
8584,4.38
8670,4.73
8757,5.08
8845,5.30
8933,5.26
9022,5.26
9113,5.21
9204,5.12
9296,5.02
9389,4.73
9483,4.43
9577,4.05
9673,3.36
9770,2.90
9868,2.07
9966,1.45
10066,0.14
10167,-1.20
10268,-2.25
10371,-3.29
10475,-4.29
10579,-4.79
10685,-5.29
10792,-5.73
10900,-6.39
11009,-6.49
11119,-6.82
11230,-7.29
11343,-7.57
11456,-8.01
11571,-8.37
11686,-8.32
11803,-8.26
11921,-7.79
12040,-7.74
12161,-7.30
12282,-7.08
12405,-7.38
12529,-8.10
12655,-9.12
12781,-9.37
12909,-9.48
13038,-9.38
13168,-8.86
13300,-8.55
13433,-7.49
13567,-6.84
13703,-5.50
13840,-5.09
13978,-3.76
14118,-3.48
14259,-3.37
14402,-3.20
14546,-3.73
14692,-4.46
14838,-5.82
14987,-6.87
15137,-8.69
15288,-10.70
15441,-12.15
15595,-14.14
15751,-15.42
15909,-17.25
16068,-18.45
16229,-18.97
16391,-18.30
16555,-17.69
16720,-16.98
16888,-15.27
17056,-13.80
17227,-12.27
17399,-11.28
17573,-11.04
17749,-11.29
17926,-11.00
18106,-10.64
18287,-10.53
18470,-10.67
18654,-10.36
18841,-12.23
19029,-14.31
19220,-15.02
19412,-13.86
19606,-15.65
19802,-18.01
20000,-15.70
