frequency,raw,error,smoothed,error_smoothed,equalization,parametric_eq,fixed_band_eq,equalized_raw,equalized_smoothed,target
20.00,-2.53,-7.56,-2.54,-7.56,6.00,6.73,2.26,3.47,3.46,5.03
20.20,-2.50,-7.56,-2.49,-7.55,6.00,6.68,2.33,3.50,3.51,5.06
20.40,-2.45,-7.54,-2.44,-7.53,6.00,6.64,2.40,3.55,3.56,5.09
20.61,-2.39,-7.50,-2.39,-7.50,6.00,6.60,2.47,3.61,3.61,5.11
20.81,-2.31,-7.44,-2.32,-7.46,6.00,6.55,2.54,3.69,3.68,5.14
21.02,-2.25,-7.41,-2.24,-7.40,6.00,6.51,2.61,3.75,3.76,5.17
21.23,-2.18,-7.35,-2.18,-7.35,6.00,6.46,2.69,3.82,3.82,5.17
21.44,-2.10,-7.28,-2.11,-7.30,6.00,6.42,2.77,3.90,3.89,5.18
21.66,-2.05,-7.24,-2.04,-7.23,6.00,6.37,2.85,3.95,3.96,5.19
21.87,-1.97,-7.16,-1.97,-7.16,6.00,6.33,2.93,4.03,4.03,5.19
22.09,-1.89,-7.09,-1.90,-7.10,6.00,6.28,3.02,4.11,4.10,5.20
22.31,-1.83,-7.03,-1.83,-7.03,6.00,6.24,3.11,4.17,4.17,5.20
22.54,-1.77,-6.97,-1.77,-6.97,6.00,6.19,3.20,4.23,4.23,5.20
22.76,-1.71,-6.91,-1.70,-6.90,6.00,6.15,3.29,4.29,4.30,5.20
22.99,-1.63,-6.82,-1.64,-6.83,6.00,6.10,3.38,4.37,4.36,5.19
23.22,-1.57,-6.76,-1.57,-6.76,6.00,6.06,3.48,4.43,4.43,5.19
23.45,-1.50,-6.69,-1.50,-6.69,6.00,6.01,3.58,4.50,4.50,5.19
23.69,-1.43,-6.62,-1.43,-6.62,6.00,5.96,3.68,4.57,4.57,5.19
23.92,-1.37,-6.56,-1.36,-6.55,6.00,5.91,3.78,4.63,4.64,5.19
24.16,-1.29,-6.48,-1.29,-6.49,6.00,5.87,3.89,4.71,4.71,5.20
24.40,-1.23,-6.42,-1.23,-6.42,6.00,5.82,4.00,4.77,4.78,5.19
24.65,-1.16,-6.34,-1.16,-6.35,6.01,5.77,4.10,4.85,4.85,5.18
24.89,-1.10,-6.28,-1.10,-6.28,6.01,5.72,4.21,4.91,4.91,5.18
25.14,-1.04,-6.22,-1.04,-6.22,6.01,5.68,4.32,4.97,4.97,5.18
25.39,-0.98,-6.16,-0.98,-6.16,6.00,5.63,4.43,5.03,5.03,5.18
25.65,-0.91,-6.09,-0.91,-6.09,5.99,5.58,4.55,5.08,5.08,5.18
25.91,-0.85,-6.02,-0.85,-6.02,5.97,5.53,4.66,5.11,5.12,5.17
26.16,-0.78,-5.95,-0.79,-5.95,5.93,5.48,4.77,5.15,5.15,5.17
26.43,-0.73,-5.90,-0.73,-5.89,5.89,5.44,4.88,5.16,5.16,5.17
26.69,-0.67,-5.83,-0.66,-5.83,5.84,5.39,4.99,5.17,5.17,5.17
26.96,-0.60,-5.76,-0.60,-5.77,5.78,5.34,5.10,5.18,5.17,5.16
27.23,-0.54,-5.70,-0.54,-5.70,5.71,5.29,5.20,5.17,5.17,5.16
27.50,-0.48,-5.64,-0.48,-5.64,5.64,5.24,5.30,5.16,5.16,5.16
27.77,-0.42,-5.57,-0.42,-5.57,5.57,5.19,5.40,5.15,5.15,5.15
28.05,-0.36,-5.51,-0.36,-5.50,5.50,5.14,5.50,5.14,5.15,5.15
28.33,-0.29,-5.43,-0.29,-5.43,5.43,5.09,5.58,5.15,5.14,5.14
28.62,-0.23,-5.37,-0.23,-5.37,5.37,5.04,5.67,5.14,5.14,5.14
28.90,-0.17,-5.30,-0.17,-5.30,5.30,4.99,5.74,5.13,5.13,5.13
29.19,-0.12,-5.24,-0.11,-5.24,5.24,4.94,5.81,5.12,5.13,5.12
29.48,-0.04,-5.17,-0.05,-5.17,5.18,4.89,5.87,5.14,5.13,5.13
29.78,0.01,-5.11,0.01,-5.11,5.11,4.84,5.93,5.13,5.12,5.12
30.08,0.06,-5.06,0.06,-5.05,5.05,4.79,5.97,5.11,5.12,5.12
30.38,0.11,-5.00,0.11,-5.00,4.99,4.74,6.01,5.10,5.10,5.11
30.68,0.16,-4.94,0.16,-4.94,4.93,4.69,6.03,5.09,5.10,5.10
30.99,0.22,-4.87,0.22,-4.87,4.87,4.65,6.05,5.09,5.09,5.09
31.30,0.28,-4.81,0.28,-4.81,4.81,4.60,6.05,5.09,5.09,5.09
31.61,0.34,-4.75,0.34,-4.75,4.75,4.55,6.05,5.09,5.09,5.09
31.93,0.39,-4.68,0.39,-4.69,4.69,4.50,6.03,5.08,5.08,5.07
32.24,0.43,-4.63,0.43,-4.63,4.63,4.45,6.01,5.06,5.06,5.06
32.57,0.48,-4.58,0.49,-4.57,4.57,4.40,5.97,5.05,5.05,5.06
32.89,0.55,-4.51,0.55,-4.51,4.50,4.35,5.93,5.06,5.05,5.06
33.22,0.61,-4.43,0.61,-4.44,4.44,4.30,5.87,5.05,5.05,5.04
33.55,0.66,-4.38,0.66,-4.38,4.38,4.25,5.81,5.04,5.05,5.04
33.89,0.71,-4.32,0.71,-4.32,4.32,4.20,5.74,5.03,5.03,5.03
34.23,0.76,-4.27,0.76,-4.26,4.26,4.15,5.67,5.02,5.02,5.03
34.57,0.81,-4.20,0.81,-4.20,4.20,4.10,5.59,5.01,5.01,5.01
34.92,0.86,-4.14,0.86,-4.14,4.14,4.05,5.50,5.00,5.00,5.00
35.27,0.92,-4.08,0.91,-4.08,4.08,4.00,5.41,5.00,4.99,5.00
35.62,0.97,-4.01,0.97,-4.01,4.01,3.95,5.31,4.99,4.98,4.98
35.97,1.01,-3.96,1.02,-3.95,3.95,3.90,5.21,4.97,4.97,4.97
36.33,1.08,-3.88,1.07,-3.89,3.89,3.86,5.11,4.97,4.96,4.96
36.70,1.11,-3.84,1.12,-3.83,3.83,3.81,5.01,4.94,4.95,4.95
37.06,1.16,-3.78,1.17,-3.78,3.78,3.76,4.90,4.94,4.94,4.94
37.43,1.22,-3.71,1.21,-3.72,3.72,3.71,4.79,4.94,4.93,4.93
37.81,1.25,-3.67,1.26,-3.66,3.66,3.66,4.69,4.91,4.92,4.92
38.19,1.30,-3.60,1.30,-3.61,3.61,3.61,4.58,4.91,4.91,4.90
38.57,1.34,-3.56,1.34,-3.56,3.55,3.57,4.47,4.89,4.89,4.90
38.95,1.39,-3.49,1.39,-3.50,3.49,3.52,4.36,4.89,4.88,4.88
39.34,1.42,-3.45,1.43,-3.44,3.44,3.47,4.26,4.86,4.87,4.87
39.74,1.48,-3.37,1.47,-3.38,3.39,3.42,4.15,4.87,4.86,4.85
40.14,1.51,-3.34,1.52,-3.33,3.33,3.38,4.05,4.84,4.85,4.85
40.54,1.56,-3.27,1.55,-3.28,3.28,3.33,3.95,4.84,4.84,4.83
40.94,1.59,-3.24,1.59,-3.23,3.23,3.28,3.85,4.82,4.82,4.83
41.35,1.62,-3.19,1.63,-3.18,3.18,3.24,3.75,4.81,4.81,4.81
41.76,1.67,-3.13,1.67,-3.14,3.14,3.19,3.65,4.81,4.81,4.81
42.18,1.71,-3.09,1.71,-3.09,3.09,3.15,3.56,4.80,4.80,4.80
42.60,1.74,-3.04,1.74,-3.04,3.04,3.10,3.47,4.79,4.79,4.78
43.03,1.77,-3.00,1.77,-3.00,3.00,3.05,3.38,4.77,4.77,4.77
43.46,1.81,-2.95,1.80,-2.95,2.95,3.01,3.29,4.76,4.75,4.76
43.90,1.83,-2.90,1.83,-2.90,2.89,2.96,3.21,4.72,4.73,4.73
44.33,1.86,-2.85,1.87,-2.85,2.84,2.92,3.13,4.70,4.71,4.71
44.78,1.90,-2.79,1.90,-2.79,2.79,2.87,3.05,4.69,4.70,4.69
45.23,1.95,-2.73,1.94,-2.73,2.74,2.83,2.97,4.69,4.68,4.68
45.68,1.98,-2.68,1.97,-2.68,2.69,2.79,2.90,4.67,4.67,4.66
46.13,1.99,-2.65,2.01,-2.63,2.64,2.74,2.83,4.63,4.65,4.64
46.60,2.04,-2.59,2.03,-2.59,2.59,2.70,2.76,4.63,4.62,4.63
47.06,2.07,-2.54,2.06,-2.55,2.54,2.65,2.69,4.61,4.60,4.61
47.53,2.08,-2.51,2.10,-2.50,2.49,2.61,2.62,4.57,4.59,4.59
48.01,2.13,-2.45,2.13,-2.45,2.44,2.57,2.56,4.57,4.56,4.58
48.49,2.17,-2.38,2.16,-2.39,2.38,2.52,2.50,4.55,4.54,4.55
48.97,2.18,-2.34,2.19,-2.32,2.33,2.48,2.44,4.51,4.52,4.52
49.46,2.22,-2.27,2.22,-2.27,2.27,2.44,2.39,4.49,4.49,4.49
49.96,2.25,-2.20,2.25,-2.21,2.22,2.40,2.33,4.47,4.47,4.45
50.46,2.27,-2.17,2.28,-2.16,2.16,2.35,2.28,4.43,4.44,4.44
50.96,2.32,-2.10,2.31,-2.11,2.11,2.31,2.23,4.43,4.42,4.42
51.47,2.33,-2.06,2.34,-2.05,2.05,2.27,2.18,4.39,4.39,4.39
51.99,2.36,-2.00,2.36,-2.01,2.00,2.23,2.13,4.36,4.36,4.36
52.51,2.39,-1.96,2.39,-1.96,1.95,2.19,2.08,4.34,4.34,4.35
53.03,2.41,-1.91,2.42,-1.91,1.90,2.15,2.03,4.31,4.32,4.32
53.56,2.46,-1.84,2.45,-1.85,1.85,2.11,1.99,4.31,4.30,4.30
54.10,2.46,-1.81,2.47,-1.81,1.80,2.06,1.95,4.26,4.27,4.27
54.64,2.50,-1.75,2.49,-1.75,1.75,2.02,1.90,4.25,4.25,4.25
55.18,2.50,-1.72,2.51,-1.71,1.71,1.98,1.86,4.21,4.22,4.22
55.74,2.55,-1.64,2.54,-1.66,1.66,1.94,1.82,4.21,4.20,4.19
56.29,2.55,-1.63,2.56,-1.61,1.61,1.90,1.78,4.17,4.18,4.18
56.86,2.59,-1.56,2.59,-1.56,1.57,1.86,1.74,4.16,4.16,4.15
57.42,2.60,-1.52,2.59,-1.53,1.53,1.82,1.70,4.13,4.13,4.12
58.00,2.60,-1.50,2.61,-1.49,1.50,1.78,1.66,4.10,4.10,4.10
58.58,2.60,-1.48,2.62,-1.47,1.46,1.74,1.62,4.06,4.08,4.08
59.16,2.64,-1.42,2.63,-1.43,1.43,1.70,1.59,4.07,4.06,4.06
59.76,2.64,-1.40,2.64,-1.40,1.40,1.66,1.55,4.04,4.04,4.04
60.35,2.64,-1.37,2.64,-1.37,1.37,1.62,1.51,4.01,4.01,4.01
60.96,2.64,-1.34,2.64,-1.34,1.34,1.58,1.47,3.98,3.98,3.99
61.57,2.64,-1.30,2.64,-1.30,1.30,1.54,1.43,3.94,3.94,3.94
62.18,2.64,-1.27,2.64,-1.27,1.27,1.50,1.39,3.91,3.91,3.91
62.80,2.64,-1.24,2.64,-1.24,1.24,1.46,1.35,3.88,3.88,3.88
63.43,2.64,-1.21,2.64,-1.21,1.21,1.42,1.31,3.85,3.85,3.85
64.07,2.64,-1.18,2.64,-1.18,1.18,1.38,1.27,3.82,3.82,3.82
64.71,2.64,-1.16,2.64,-1.15,1.16,1.34,1.23,3.80,3.80,3.80
65.35,2.64,-1.13,2.64,-1.13,1.13,1.29,1.19,3.77,3.77,3.77
66.01,2.64,-1.10,2.64,-1.10,1.10,1.25,1.15,3.74,3.74,3.74
66.67,2.64,-1.07,2.64,-1.07,1.07,1.21,1.11,3.71,3.71,3.71
67.33,2.64,-1.04,2.64,-1.04,1.04,1.17,1.07,3.68,3.68,3.68
68.01,2.64,-1.01,2.64,-1.01,1.01,1.13,1.03,3.65,3.65,3.65
68.69,2.64,-0.98,2.64,-0.98,0.98,1.09,0.98,3.62,3.62,3.62
69.37,2.64,-0.95,2.64,-0.95,0.95,1.05,0.94,3.59,3.59,3.59
70.07,2.64,-0.91,2.64,-0.92,0.92,1.01,0.90,3.56,3.56,3.56
70.77,2.64,-0.89,2.64,-0.89,0.89,0.96,0.85,3.53,3.53,3.53
71.48,2.64,-0.86,2.64,-0.86,0.85,0.92,0.81,3.49,3.49,3.50
72.19,2.64,-0.82,2.64,-0.82,0.82,0.88,0.77,3.46,3.46,3.46
72.91,2.64,-0.79,2.64,-0.79,0.79,0.84,0.72,3.43,3.43,3.43
73.64,2.64,-0.75,2.64,-0.75,0.75,0.79,0.68,3.39,3.39,3.39
74.38,2.64,-0.72,2.64,-0.72,0.72,0.75,0.63,3.36,3.36,3.36
75.12,2.64,-0.68,2.64,-0.68,0.68,0.71,0.59,3.33,3.33,3.32
75.87,2.64,-0.65,2.64,-0.65,0.65,0.66,0.54,3.29,3.29,3.29
76.63,2.64,-0.62,2.64,-0.62,0.62,0.62,0.50,3.26,3.27,3.26
77.40,2.64,-0.59,2.64,-0.59,0.59,0.58,0.45,3.24,3.24,3.23
78.17,2.64,-0.55,2.63,-0.56,0.57,0.53,0.41,3.21,3.20,3.19
78.95,2.62,-0.55,2.62,-0.54,0.54,0.49,0.36,3.16,3.16,3.17
79.74,2.60,-0.53,2.61,-0.53,0.52,0.44,0.31,3.12,3.13,3.14
80.54,2.60,-0.50,2.60,-0.50,0.49,0.40,0.27,3.09,3.10,3.10
81.35,2.60,-0.47,2.60,-0.47,0.47,0.35,0.22,3.07,3.07,3.07
82.16,2.60,-0.43,2.58,-0.45,0.45,0.31,0.18,3.05,3.04,3.03
82.98,2.55,-0.45,2.57,-0.43,0.43,0.26,0.13,2.98,3.00,3.00
83.81,2.55,-0.41,2.55,-0.41,0.41,0.22,0.08,2.96,2.96,2.96
84.65,2.54,-0.38,2.53,-0.39,0.39,0.17,0.04,2.93,2.92,2.92
85.50,2.50,-0.39,2.51,-0.37,0.38,0.13,-0.01,2.88,2.89,2.89
86.35,2.50,-0.35,2.49,-0.36,0.36,0.08,-0.06,2.86,2.85,2.85
87.22,2.46,-0.35,2.48,-0.34,0.34,0.03,-0.11,2.80,2.81,2.81
88.09,2.46,-0.31,2.46,-0.32,0.32,-0.01,-0.15,2.78,2.78,2.77
88.97,2.46,-0.28,2.44,-0.30,0.30,-0.06,-0.20,2.76,2.74,2.74
89.86,2.41,-0.29,2.43,-0.27,0.27,-0.10,-0.25,2.68,2.70,2.70
90.76,2.41,-0.24,2.41,-0.24,0.24,-0.15,-0.30,2.65,2.65,2.65
91.66,2.41,-0.20,2.41,-0.20,0.20,-0.20,-0.35,2.61,2.60,2.61
92.58,2.41,-0.15,2.41,-0.16,0.15,-0.24,-0.40,2.56,2.56,2.56
93.51,2.41,-0.12,2.41,-0.11,0.11,-0.29,-0.45,2.52,2.52,2.53
94.44,2.41,-0.07,2.43,-0.05,0.05,-0.33,-0.49,2.46,2.48,2.48
95.39,2.46,0.02,2.44,0.00,-0.00,-0.38,-0.54,2.46,2.44,2.44
96.34,2.46,0.08,2.46,0.07,-0.06,-0.43,-0.59,2.40,2.39,2.38
97.30,2.46,0.12,2.48,0.14,-0.13,-0.47,-0.64,2.33,2.35,2.34
98.28,2.49,0.20,2.48,0.19,-0.19,-0.52,-0.69,2.30,2.29,2.29
99.26,2.50,0.25,2.50,0.25,-0.25,-0.56,-0.74,2.25,2.24,2.25
100.25,2.50,0.30,2.52,0.32,-0.32,-0.60,-0.79,2.18,2.20,2.20
101.25,2.55,0.39,2.53,0.38,-0.38,-0.65,-0.84,2.17,2.15,2.16
102.27,2.55,0.44,2.55,0.44,-0.44,-0.69,-0.89,2.11,2.11,2.11
103.29,2.55,0.50,2.57,0.51,-0.50,-0.74,-0.94,2.05,2.07,2.05
104.32,2.58,0.56,2.58,0.56,-0.56,-0.78,-0.99,2.02,2.02,2.02
105.37,2.60,0.63,2.59,0.62,-0.62,-0.82,-1.03,1.98,1.97,1.97
106.42,2.60,0.68,2.60,0.68,-0.68,-0.86,-1.08,1.92,1.92,1.92
107.48,2.60,0.72,2.60,0.73,-0.73,-0.91,-1.13,1.87,1.87,1.88
108.56,2.60,0.78,2.61,0.78,-0.79,-0.95,-1.17,1.82,1.82,1.82
109.64,2.62,0.84,2.61,0.84,-0.84,-0.99,-1.21,1.78,1.78,1.78
110.74,2.62,0.89,2.62,0.89,-0.89,-1.03,-1.26,1.73,1.73,1.73
111.85,2.62,0.94,2.62,0.94,-0.94,-1.07,-1.30,1.68,1.68,1.68
112.97,2.62,1.00,2.62,0.99,-0.99,-1.10,-1.33,1.63,1.62,1.62
114.10,2.61,1.04,2.61,1.04,-1.04,-1.14,-1.37,1.57,1.57,1.57
115.24,2.60,1.08,2.60,1.09,-1.09,-1.18,-1.41,1.51,1.51,1.52
116.39,2.60,1.14,2.60,1.14,-1.14,-1.21,-1.44,1.46,1.46,1.46
117.55,2.60,1.19,2.60,1.19,-1.19,-1.25,-1.47,1.42,1.42,1.41
118.73,2.60,1.24,2.60,1.24,-1.23,-1.28,-1.50,1.37,1.37,1.36
119.92,2.60,1.29,2.58,1.28,-1.27,-1.32,-1.52,1.33,1.32,1.31
121.12,2.55,1.29,2.57,1.31,-1.31,-1.35,-1.54,1.24,1.26,1.26
122.33,2.55,1.34,2.56,1.34,-1.35,-1.38,-1.56,1.20,1.21,1.21
123.55,2.55,1.38,2.54,1.37,-1.38,-1.41,-1.58,1.17,1.16,1.17
124.79,2.53,1.42,2.53,1.41,-1.42,-1.44,-1.59,1.11,1.11,1.12
126.03,2.50,1.44,2.51,1.45,-1.45,-1.47,-1.60,1.05,1.06,1.06
127.29,2.50,1.49,2.49,1.48,-1.49,-1.50,-1.61,1.01,1.01,1.01
128.57,2.48,1.53,2.48,1.52,-1.52,-1.52,-1.61,0.96,0.96,0.96
129.85,2.46,1.55,2.47,1.56,-1.55,-1.55,-1.61,0.91,0.91,0.91
131.15,2.46,1.60,2.45,1.59,-1.59,-1.57,-1.62,0.87,0.86,0.86
132.46,2.42,1.61,2.43,1.62,-1.62,-1.59,-1.61,0.80,0.82,0.81
133.79,2.41,1.64,2.41,1.65,-1.65,-1.62,-1.61,0.76,0.77,0.77
135.12,2.41,1.69,2.39,1.67,-1.67,-1.64,-1.60,0.74,0.72,0.72
136.48,2.36,1.68,2.38,1.69,-1.70,-1.66,-1.59,0.66,0.68,0.68
137.84,2.36,1.72,2.35,1.72,-1.72,-1.67,-1.57,0.64,0.64,0.64
139.22,2.32,1.73,2.33,1.73,-1.73,-1.69,-1.56,0.59,0.59,0.59
140.61,2.31,1.77,2.30,1.75,-1.75,-1.71,-1.54,0.56,0.56,0.54
142.02,2.27,1.75,2.28,1.76,-1.76,-1.72,-1.53,0.51,0.52,0.52
143.44,2.25,1.77,2.25,1.77,-1.77,-1.73,-1.51,0.48,0.48,0.48
144.87,2.22,1.78,2.22,1.77,-1.78,-1.74,-1.49,0.44,0.44,0.44
146.32,2.18,1.78,2.19,1.78,-1.78,-1.75,-1.47,0.40,0.40,0.40
147.78,2.15,1.78,2.15,1.78,-1.79,-1.76,-1.45,0.36,0.37,0.37
149.26,2.12,1.79,2.12,1.79,-1.79,-1.77,-1.43,0.33,0.33,0.33
150.75,2.08,1.79,2.08,1.79,-1.79,-1.78,-1.41,0.29,0.29,0.29
152.26,2.04,1.79,2.04,1.79,-1.79,-1.78,-1.38,0.25,0.25,0.25
153.78,2.00,1.79,2.00,1.79,-1.79,-1.79,-1.36,0.21,0.21,0.21
155.32,1.97,1.80,1.96,1.79,-1.79,-1.79,-1.34,0.18,0.17,0.17
156.88,1.92,1.79,1.92,1.79,-1.79,-1.79,-1.32,0.13,0.13,0.14
158.44,1.88,1.79,1.88,1.79,-1.79,-1.79,-1.30,0.09,0.09,0.09
160.03,1.83,1.78,1.83,1.78,-1.78,-1.79,-1.28,0.05,0.05,0.05
161.63,1.78,1.77,1.79,1.78,-1.77,-1.79,-1.26,0.01,0.01,0.01
163.24,1.75,1.78,1.74,1.77,-1.77,-1.78,-1.24,-0.01,-0.03,-0.03
164.88,1.69,1.75,1.69,1.76,-1.76,-1.78,-1.22,-0.07,-0.06,-0.06
166.53,1.64,1.74,1.65,1.75,-1.75,-1.77,-1.21,-0.11,-0.10,-0.10
168.19,1.60,1.74,1.59,1.73,-1.74,-1.76,-1.19,-0.14,-0.14,-0.14
169.87,1.55,1.73,1.55,1.73,-1.73,-1.75,-1.18,-0.18,-0.18,-0.18
171.57,1.50,1.71,1.51,1.72,-1.73,-1.74,-1.16,-0.22,-0.22,-0.21
173.29,1.47,1.72,1.47,1.72,-1.72,-1.73,-1.15,-0.25,-0.26,-0.25
175.02,1.43,1.72,1.43,1.72,-1.72,-1.72,-1.14,-0.29,-0.29,-0.29
176.77,1.39,1.72,1.39,1.72,-1.72,-1.70,-1.12,-0.33,-0.33,-0.33
178.54,1.35,1.72,1.35,1.72,-1.72,-1.69,-1.11,-0.37,-0.37,-0.37
180.32,1.32,1.73,1.32,1.73,-1.72,-1.67,-1.10,-0.40,-0.40,-0.41
182.13,1.29,1.73,1.29,1.73,-1.73,-1.66,-1.10,-0.44,-0.44,-0.44
183.95,1.25,1.73,1.25,1.73,-1.73,-1.64,-1.09,-0.48,-0.48,-0.48
185.79,1.20,1.71,1.21,1.72,-1.73,-1.62,-1.08,-0.53,-0.52,-0.51
187.65,1.17,1.72,1.17,1.72,-1.73,-1.60,-1.08,-0.56,-0.56,-0.55
189.52,1.14,1.72,1.14,1.72,-1.73,-1.57,-1.07,-0.59,-0.58,-0.58
191.42,1.11,1.72,1.11,1.73,-1.72,-1.55,-1.07,-0.61,-0.61,-0.61
193.33,1.08,1.72,1.08,1.72,-1.71,-1.53,-1.06,-0.63,-0.64,-0.64
195.27,1.03,1.70,1.03,1.71,-1.70,-1.50,-1.06,-0.67,-0.67,-0.67
197.22,0.99,1.69,0.99,1.69,-1.69,-1.48,-1.06,-0.70,-0.70,-0.70
199.19,0.94,1.68,0.95,1.67,-1.67,-1.45,-1.06,-0.73,-0.73,-0.74
201.18,0.91,1.66,0.90,1.65,-1.65,-1.42,-1.05,-0.74,-0.75,-0.75
203.19,0.85,1.62,0.85,1.63,-1.63,-1.39,-1.05,-0.78,-0.77,-0.77
205.23,0.80,1.59,0.81,1.59,-1.60,-1.36,-1.05,-0.80,-0.79,-0.79
207.28,0.76,1.56,0.76,1.56,-1.57,-1.33,-1.05,-0.81,-0.81,-0.80
209.35,0.71,1.53,0.71,1.54,-1.54,-1.30,-1.05,-0.83,-0.83,-0.82
211.44,0.66,1.51,0.66,1.50,-1.50,-1.27,-1.05,-0.84,-0.84,-0.85
213.56,0.62,1.47,0.62,1.47,-1.47,-1.23,-1.05,-0.84,-0.85,-0.85
215.69,0.57,1.43,0.57,1.43,-1.43,-1.20,-1.05,-0.85,-0.86,-0.85
217.85,0.52,1.39,0.52,1.38,-1.38,-1.16,-1.05,-0.86,-0.87,-0.87
220.03,0.45,1.33,0.46,1.34,-1.34,-1.13,-1.05,-0.89,-0.88,-0.88
222.23,0.41,1.30,0.41,1.29,-1.29,-1.09,-1.04,-0.88,-0.88,-0.89
224.45,0.36,1.24,0.35,1.24,-1.24,-1.05,-1.04,-0.88,-0.89,-0.88
226.70,0.30,1.19,0.31,1.19,-1.19,-1.01,-1.03,-0.89,-0.89,-0.88
228.96,0.25,1.14,0.26,1.14,-1.15,-0.97,-1.03,-0.89,-0.89,-0.89
231.25,0.22,1.10,0.21,1.09,-1.10,-0.93,-1.02,-0.88,-0.89,-0.88
233.57,0.16,1.04,0.17,1.05,-1.05,-0.89,-1.01,-0.89,-0.88,-0.88
235.90,0.13,1.01,0.13,1.00,-1.00,-0.85,-1.00,-0.87,-0.87,-0.88
238.26,0.08,0.96,0.08,0.95,-0.95,-0.80,-0.98,-0.87,-0.87,-0.87
240.64,0.03,0.89,0.04,0.90,-0.89,-0.76,-0.97,-0.86,-0.86,-0.86
243.05,-0.01,0.84,-0.01,0.84,-0.84,-0.71,-0.95,-0.85,-0.85,-0.85
245.48,-0.06,0.78,-0.06,0.78,-0.78,-0.66,-0.93,-0.84,-0.84,-0.84
247.93,-0.11,0.72,-0.11,0.73,-0.73,-0.62,-0.91,-0.83,-0.83,-0.83
250.41,-0.15,0.68,-0.15,0.67,-0.67,-0.57,-0.88,-0.81,-0.82,-0.83
252.92,-0.20,0.61,-0.20,0.60,-0.60,-0.52,-0.86,-0.80,-0.80,-0.80
255.45,-0.25,0.53,-0.25,0.54,-0.54,-0.47,-0.83,-0.79,-0.79,-0.78
258.00,-0.29,0.48,-0.29,0.48,-0.48,-0.42,-0.80,-0.77,-0.77,-0.77
260.58,-0.34,0.42,-0.34,0.42,-0.42,-0.37,-0.76,-0.76,-0.75,-0.76
263.19,-0.37,0.36,-0.38,0.36,-0.35,-0.31,-0.73,-0.72,-0.73,-0.73
265.82,-0.43,0.29,-0.42,0.30,-0.29,-0.26,-0.69,-0.72,-0.71,-0.72
268.48,-0.46,0.24,-0.47,0.23,-0.23,-0.20,-0.65,-0.69,-0.69,-0.69
271.16,-0.51,0.16,-0.51,0.16,-0.16,-0.15,-0.60,-0.67,-0.68,-0.67
273.87,-0.57,0.09,-0.56,0.10,-0.10,-0.09,-0.56,-0.67,-0.65,-0.66
276.61,-0.60,0.03,-0.61,0.03,-0.03,-0.03,-0.51,-0.63,-0.64,-0.63
279.38,-0.65,-0.03,-0.65,-0.04,0.04,0.03,-0.47,-0.61,-0.62,-0.62
282.17,-0.71,-0.11,-0.70,-0.10,0.10,0.09,-0.41,-0.61,-0.59,-0.60
284.99,-0.74,-0.16,-0.75,-0.17,0.17,0.15,-0.36,-0.57,-0.58,-0.58
287.84,-0.79,-0.23,-0.79,-0.23,0.23,0.22,-0.31,-0.55,-0.56,-0.56
290.72,-0.85,-0.31,-0.84,-0.30,0.30,0.28,-0.25,-0.55,-0.54,-0.54
293.63,-0.88,-0.36,-0.89,-0.37,0.37,0.35,-0.20,-0.51,-0.52,-0.52
296.57,-0.93,-0.43,-0.93,-0.43,0.43,0.42,-0.14,-0.50,-0.50,-0.49
299.53,-0.99,-0.51,-0.98,-0.50,0.50,0.48,-0.08,-0.49,-0.48,-0.48
302.53,-1.02,-0.56,-1.02,-0.57,0.57,0.55,-0.02,-0.45,-0.46,-0.46
305.55,-1.07,-0.64,-1.07,-0.63,0.63,0.62,0.04,-0.43,-0.43,-0.43
308.61,-1.10,-0.69,-1.10,-0.70,0.70,0.69,0.10,-0.40,-0.40,-0.41
311.69,-1.15,-0.77,-1.15,-0.77,0.77,0.77,0.16,-0.38,-0.38,-0.38
314.81,-1.19,-0.84,-1.19,-0.83,0.83,0.84,0.23,-0.36,-0.36,-0.35
317.96,-1.24,-0.91,-1.24,-0.90,0.90,0.91,0.29,-0.34,-0.34,-0.33
321.14,-1.27,-0.96,-1.28,-0.97,0.96,0.98,0.36,-0.31,-0.31,-0.31
324.35,-1.33,-1.03,-1.32,-1.03,1.03,1.05,0.42,-0.30,-0.29,-0.30
327.59,-1.36,-1.09,-1.36,-1.09,1.09,1.13,0.49,-0.27,-0.27,-0.27
330.87,-1.41,-1.16,-1.41,-1.15,1.15,1.19,0.56,-0.26,-0.25,-0.25
334.18,-1.44,-1.20,-1.45,-1.21,1.22,1.26,0.63,-0.22,-0.23,-0.24
337.52,-1.50,-1.28,-1.49,-1.28,1.28,1.33,0.70,-0.22,-0.21,-0.22
340.90,-1.53,-1.34,-1.53,-1.34,1.34,1.39,0.77,-0.19,-0.19,-0.19
344.30,-1.58,-1.41,-1.58,-1.40,1.41,1.45,0.84,-0.17,-0.17,-0.17
347.75,-1.62,-1.46,-1.62,-1.47,1.47,1.51,0.91,-0.15,-0.15,-0.16
351.23,-1.67,-1.53,-1.67,-1.53,1.53,1.56,0.99,-0.13,-0.13,-0.14
354.74,-1.72,-1.60,-1.72,-1.60,1.60,1.61,1.06,-0.12,-0.12,-0.12
358.28,-1.76,-1.66,-1.76,-1.66,1.66,1.66,1.13,-0.10,-0.10,-0.10
361.87,-1.81,-1.73,-1.81,-1.72,1.72,1.70,1.21,-0.09,-0.08,-0.08
365.49,-1.85,-1.78,-1.85,-1.78,1.78,1.74,1.29,-0.07,-0.07,-0.07
369.14,-1.89,-1.83,-1.89,-1.83,1.83,1.78,1.36,-0.06,-0.06,-0.06
372.83,-1.92,-1.88,-1.93,-1.88,1.88,1.81,1.44,-0.04,-0.04,-0.04
376.56,-1.96,-1.93,-1.95,-1.92,1.92,1.85,1.52,-0.04,-0.03,-0.03
380.33,-1.97,-1.97,-1.97,-1.96,1.95,1.87,1.60,-0.02,-0.01,-0.00
384.13,-1.97,-1.97,-1.98,-1.98,1.98,1.90,1.68,0.01,-0.00,0.01
387.97,-1.99,-2.00,-1.98,-2.00,2.00,1.93,1.76,0.01,0.01,0.01
391.85,-1.99,-2.01,-1.98,-2.01,2.01,1.96,1.84,0.02,0.03,0.02
395.77,-1.97,-2.01,-1.98,-2.02,2.01,1.98,1.92,0.04,0.03,0.04
399.73,-1.97,-2.02,-1.97,-2.02,2.02,2.01,2.00,0.05,0.05,0.05
403.72,-1.97,-2.03,-1.95,-2.01,2.02,2.03,2.08,0.05,0.07,0.06
407.76,-1.92,-1.99,-1.94,-2.01,2.02,2.06,2.16,0.10,0.08,0.07
411.84,-1.92,-2.01,-1.92,-2.00,2.01,2.08,2.24,0.09,0.09,0.09
415.96,-1.92,-2.01,-1.92,-2.01,2.01,2.11,2.32,0.09,0.09,0.09
420.12,-1.92,-2.02,-1.92,-2.02,2.01,2.13,2.40,0.09,0.09,0.10
424.32,-1.92,-2.03,-1.90,-2.01,2.00,2.16,2.47,0.08,0.10,0.11
428.56,-1.87,-1.99,-1.89,-2.01,2.00,2.19,2.55,0.14,0.12,0.12
432.85,-1.87,-2.00,-1.87,-2.00,2.01,2.21,2.62,0.14,0.14,0.13
437.18,-1.87,-2.01,-1.86,-2.00,2.02,2.24,2.70,0.15,0.16,0.14
441.55,-1.87,-2.03,-1.87,-2.03,2.03,2.27,2.77,0.16,0.16,0.16
445.96,-1.87,-2.04,-1.88,-2.05,2.05,2.30,2.84,0.18,0.17,0.17
450.42,-1.92,-2.10,-1.90,-2.08,2.08,2.33,2.90,0.16,0.18,0.18
454.93,-1.92,-2.11,-1.92,-2.12,2.12,2.36,2.96,0.20,0.19,0.20
459.48,-1.95,-2.15,-1.95,-2.16,2.15,2.38,3.02,0.21,0.21,0.20
464.07,-1.97,-2.19,-1.97,-2.20,2.20,2.41,3.07,0.23,0.23,0.22
468.71,-2.01,-2.25,-2.01,-2.25,2.25,2.44,3.12,0.24,0.24,0.24
473.40,-2.04,-2.29,-2.04,-2.29,2.29,2.47,3.17,0.25,0.25,0.25
478.13,-2.07,-2.34,-2.07,-2.34,2.34,2.50,3.21,0.27,0.27,0.27
482.91,-2.11,-2.39,-2.11,-2.39,2.39,2.53,3.24,0.28,0.28,0.28
487.74,-2.14,-2.44,-2.14,-2.44,2.44,2.56,3.27,0.30,0.30,0.30
492.62,-2.17,-2.49,-2.17,-2.49,2.49,2.58,3.29,0.32,0.31,0.32
497.55,-2.20,-2.53,-2.20,-2.53,2.53,2.61,3.31,0.33,0.33,0.33
502.52,-2.24,-2.59,-2.23,-2.58,2.58,2.64,3.33,0.34,0.35,0.35
507.55,-2.26,-2.62,-2.26,-2.62,2.63,2.66,3.33,0.37,0.36,0.36
512.62,-2.29,-2.67,-2.29,-2.67,2.67,2.69,3.33,0.38,0.38,0.38
517.75,-2.32,-2.72,-2.32,-2.71,2.71,2.71,3.33,0.39,0.40,0.40
