frequency,raw,error,smoothed,error_smoothed,equalization,parametric_eq,equalized_raw,equalized_smoothed,target
20,-19.71,-16.81,-19.53,-16.63,6.00,2.68,-13.71,-13.53,-2.90
21,-18.95,-16.05,-18.85,-15.95,6.00,3.08,-12.95,-12.85,-2.90
22,-18.05,-15.15,-18.21,-15.30,6.00,3.51,-12.05,-12.21,-2.90
23,-17.44,-14.54,-17.60,-14.69,6.00,3.98,-11.44,-11.60,-2.91
24,-16.84,-13.93,-17.02,-14.11,6.00,4.48,-10.84,-11.02,-2.91
25,-16.34,-13.43,-16.47,-13.56,6.00,5.00,-10.34,-10.47,-2.91
26,-15.98,-13.07,-15.96,-13.04,6.00,5.52,-9.98,-9.96,-2.92
27,-15.48,-12.56,-15.48,-12.56,6.00,6.02,-9.48,-9.48,-2.92
28,-15.03,-12.11,-15.04,-12.12,6.00,6.48,-9.03,-9.04,-2.92
29,-14.61,-11.69,-14.63,-11.70,6.00,6.86,-8.61,-8.63,-2.93
30,-14.23,-11.30,-14.25,-11.32,6.00,7.14,-8.23,-8.25,-2.93
31,-13.92,-10.99,-13.90,-10.96,6.00,7.31,-7.92,-7.90,-2.94
32,-13.56,-10.62,-13.57,-10.63,6.00,7.36,-7.56,-7.57,-2.94
33,-13.26,-10.31,-13.27,-10.32,6.00,7.31,-7.26,-7.27,-2.95
34,-12.99,-10.04,-12.98,-10.02,6.00,7.18,-6.99,-6.98,-2.96
35,-12.74,-9.78,-12.71,-9.75,6.00,7.01,-6.74,-6.71,-2.96
36,-12.51,-9.54,-12.46,-9.49,6.00,6.80,-6.51,-6.46,-2.97
37,-12.27,-9.29,-12.22,-9.24,6.00,6.58,-6.27,-6.22,-2.98
38,-12.02,-9.03,-11.99,-9.00,6.00,6.37,-6.02,-5.99,-2.99
39,-11.73,-8.73,-11.78,-8.78,6.00,6.18,-5.73,-5.78,-3.00
40,-11.50,-8.49,-11.57,-8.56,6.00,6.00,-5.50,-5.57,-3.01
41,-11.33,-8.31,-11.37,-8.35,6.00,5.86,-5.33,-5.37,-3.02
42,-11.19,-8.16,-11.18,-8.14,6.00,5.73,-5.19,-5.18,-3.03
43,-11.03,-7.99,-10.99,-7.95,6.00,5.64,-5.03,-4.99,-3.05
44,-10.85,-7.79,-10.81,-7.75,6.00,5.57,-4.85,-4.81,-3.06
45,-10.69,-7.62,-10.64,-7.56,6.00,5.52,-4.69,-4.64,-3.08
46,-10.52,-7.43,-10.47,-7.38,6.00,5.49,-4.52,-4.47,-3.09
47,-10.31,-7.21,-10.31,-7.20,6.00,5.49,-4.31,-4.31,-3.11
48,-10.12,-7.00,-10.14,-7.02,6.00,5.50,-4.12,-4.14,-3.12
49,-9.93,-6.79,-9.98,-6.84,6.00,5.53,-3.93,-3.98,-3.14
50,-9.77,-6.61,-9.83,-6.66,6.00,5.57,-3.77,-3.83,-3.16
51,-9.65,-6.47,-9.67,-6.49,6.00,5.61,-3.65,-3.67,-3.18
52,-9.55,-6.35,-9.53,-6.32,6.00,5.67,-3.55,-3.53,-3.20
53,-9.45,-6.23,-9.39,-6.16,5.97,5.73,-3.48,-3.42,-3.22
54,-9.35,-6.11,-9.26,-6.01,5.91,5.78,-3.44,-3.35,-3.25
55,-9.33,-6.06,-9.14,-5.87,5.82,5.84,-3.52,-3.32,-3.27
56,-9.17,-5.88,-9.04,-5.74,5.72,5.89,-3.46,-3.32,-3.29
57,-9.14,-5.82,-8.95,-5.64,5.63,5.93,-3.52,-3.33,-3.32
58,-8.59,-5.25,-8.89,-5.55,5.55,5.95,-3.05,-3.35,-3.35
59,-8.01,-4.64,-8.85,-5.48,5.48,5.96,-2.54,-3.37,-3.37
60,-8.78,-5.38,-8.82,-5.42,5.42,5.96,-3.36,-3.40,-3.40
61,-8.84,-5.41,-8.82,-5.39,5.39,5.94,-3.46,-3.43,-3.43
62,-8.57,-5.11,-8.82,-5.36,5.36,5.90,-3.21,-3.46,-3.46
63,-9.01,-5.52,-8.83,-5.34,5.34,5.84,-3.67,-3.49,-3.49
64,-9.05,-5.53,-8.85,-5.32,5.32,5.76,-3.73,-3.52,-3.52
65,-8.99,-5.44,-8.85,-5.30,5.30,5.67,-3.69,-3.55,-3.55
66,-9.03,-5.45,-8.85,-5.26,5.26,5.57,-3.77,-3.59,-3.59
67,-8.98,-5.36,-8.84,-5.21,5.21,5.45,-3.77,-3.62,-3.62
68,-8.92,-5.27,-8.80,-5.15,5.15,5.33,-3.78,-3.66,-3.66
69,-8.81,-5.12,-8.75,-5.06,5.06,5.19,-3.75,-3.69,-3.69
70,-8.68,-4.96,-8.69,-4.96,4.96,5.05,-3.72,-3.73,-3.73
71,-8.57,-4.81,-8.61,-4.84,4.84,4.90,-3.73,-3.76,-3.76
72,-8.49,-4.69,-8.51,-4.71,4.71,4.75,-3.78,-3.80,-3.80
73,-8.38,-4.55,-8.42,-4.58,4.58,4.60,-3.81,-3.84,-3.84
74,-8.24,-4.37,-8.31,-4.44,4.44,4.44,-3.81,-3.88,-3.88
75,-8.14,-4.23,-8.21,-4.29,4.29,4.29,-3.85,-3.92,-3.92
76,-8.05,-4.10,-8.11,-4.15,4.15,4.14,-3.90,-3.95,-3.95
77,-7.98,-3.99,-8.01,-4.01,4.01,3.99,-3.97,-3.99,-3.99
78,-7.90,-3.87,-7.92,-3.88,3.88,3.85,-4.02,-4.03,-4.03
79,-7.83,-3.76,-7.83,-3.76,3.76,3.70,-4.07,-4.07,-4.07
80,-7.75,-3.64,-7.75,-3.64,3.64,3.56,-4.11,-4.12,-4.12
81,-7.68,-3.53,-7.68,-3.53,3.53,3.43,-4.16,-4.16,-4.16
82,-7.61,-3.42,-7.61,-3.42,3.42,3.30,-4.20,-4.20,-4.20
83,-7.55,-3.31,-7.55,-3.31,3.31,3.17,-4.24,-4.24,-4.24
84,-7.50,-3.22,-7.49,-3.21,3.21,3.05,-4.29,-4.28,-4.28
85,-7.43,-3.11,-7.43,-3.11,3.11,2.93,-4.32,-4.32,-4.32
86,-7.38,-3.02,-7.37,-3.01,3.01,2.81,-4.37,-4.36,-4.36
87,-7.33,-2.93,-7.32,-2.91,2.91,2.70,-4.42,-4.40,-4.40
88,-7.27,-2.83,-7.26,-2.82,2.82,2.59,-4.46,-4.45,-4.45
89,-7.20,-2.72,-7.21,-2.72,2.72,2.49,-4.48,-4.49,-4.49
90,-7.15,-2.62,-7.16,-2.63,2.63,2.39,-4.52,-4.53,-4.53
91,-7.10,-2.53,-7.11,-2.54,2.54,2.29,-4.57,-4.57,-4.57
92,-7.06,-2.45,-7.06,-2.45,2.45,2.20,-4.62,-4.61,-4.61
93,-7.02,-2.37,-7.01,-2.36,2.36,2.11,-4.67,-4.65,-4.65
94,-6.95,-2.26,-6.96,-2.27,2.27,2.02,-4.68,-4.69,-4.69
95,-6.91,-2.18,-6.92,-2.18,2.18,1.93,-4.73,-4.73,-4.73
96,-6.88,-2.11,-6.87,-2.10,2.10,1.85,-4.78,-4.77,-4.77
97,-6.81,-2.00,-6.83,-2.02,2.02,1.77,-4.80,-4.81,-4.81
98,-6.77,-1.92,-6.79,-1.94,1.94,1.70,-4.84,-4.86,-4.85
99,-6.75,-1.86,-6.76,-1.86,1.86,1.62,-4.89,-4.90,-4.89
100,-6.73,-1.80,-6.72,-1.78,1.78,1.55,-4.95,-4.94,-4.93
101,-6.69,-1.72,-6.69,-1.71,1.71,1.48,-4.98,-4.98,-4.97
102,-6.67,-1.67,-6.66,-1.64,1.64,1.42,-5.03,-5.02,-5.01
104,-6.64,-1.56,-6.63,-1.57,1.57,1.29,-5.07,-5.06,-5.08
105,-6.61,-1.50,-6.61,-1.51,1.51,1.23,-5.11,-5.10,-5.12
106,-6.57,-1.42,-6.59,-1.44,1.44,1.17,-5.13,-5.14,-5.15
107,-6.55,-1.36,-6.57,-1.38,1.38,1.12,-5.17,-5.18,-5.19
108,-6.53,-1.31,-6.55,-1.33,1.33,1.06,-5.21,-5.22,-5.22
109,-6.51,-1.25,-6.53,-1.27,1.27,1.01,-5.24,-5.26,-5.26
110,-6.50,-1.21,-6.51,-1.22,1.22,0.96,-5.28,-5.29,-5.29
111,-6.48,-1.16,-6.49,-1.17,1.17,0.92,-5.32,-5.33,-5.33
112,-6.47,-1.12,-6.48,-1.11,1.11,0.87,-5.36,-5.36,-5.36
113,-6.45,-1.06,-6.46,-1.06,1.06,0.83,-5.39,-5.40,-5.39
114,-6.44,-1.02,-6.43,-1.00,1.00,0.78,-5.44,-5.43,-5.42
115,-6.42,-0.97,-6.41,-0.94,0.94,0.75,-5.48,-5.47,-5.45
117,-6.41,-0.90,-6.38,-0.88,0.88,0.67,-5.54,-5.50,-5.51
118,-6.39,-0.85,-6.34,-0.81,0.81,0.64,-5.58,-5.54,-5.54
119,-6.37,-0.80,-6.31,-0.74,0.74,0.60,-5.63,-5.57,-5.57
120,-6.34,-0.74,-6.27,-0.67,0.67,0.57,-5.67,-5.60,-5.60
121,-6.28,-0.66,-6.24,-0.60,0.60,0.54,-5.68,-5.64,-5.63
123,-6.17,-0.49,-6.20,-0.53,0.53,0.49,-5.64,-5.67,-5.68
124,-6.09,-0.39,-6.17,-0.47,0.47,0.47,-5.62,-5.70,-5.71
125,-6.02,-0.29,-6.15,-0.41,0.41,0.45,-5.61,-5.73,-5.73
126,-6.01,-0.25,-6.12,-0.36,0.36,0.42,-5.65,-5.77,-5.76
128,-6.09,-0.29,-6.11,-0.31,0.31,0.39,-5.78,-5.80,-5.81
129,-6.11,-0.28,-6.10,-0.28,0.28,0.37,-5.84,-5.83,-5.83
130,-6.14,-0.29,-6.10,-0.24,0.24,0.35,-5.90,-5.86,-5.85
131,-6.14,-0.27,-6.10,-0.22,0.22,0.34,-5.92,-5.89,-5.88
133,-6.14,-0.22,-6.11,-0.20,0.20,0.32,-5.95,-5.91,-5.92
134,-6.13,-0.19,-6.12,-0.18,0.18,0.30,-5.95,-5.94,-5.94
135,-6.12,-0.16,-6.14,-0.17,0.17,0.30,-5.96,-5.97,-5.96
137,-6.13,-0.13,-6.15,-0.16,0.16,0.28,-5.98,-6.00,-6.00
138,-6.15,-0.13,-6.17,-0.14,0.14,0.27,-6.01,-6.02,-6.02
140,-6.19,-0.14,-6.18,-0.13,0.13,0.26,-6.06,-6.05,-6.06
141,-6.22,-0.15,-6.20,-0.12,0.12,0.25,-6.10,-6.07,-6.08
142,-6.24,-0.15,-6.21,-0.11,0.11,0.25,-6.13,-6.10,-6.09
144,-6.25,-0.13,-6.23,-0.11,0.11,0.24,-6.15,-6.12,-6.13
145,-6.26,-0.12,-6.24,-0.10,0.10,0.24,-6.17,-6.15,-6.14
147,-6.26,-0.09,-6.26,-0.09,0.09,0.24,-6.17,-6.17,-6.17
148,-6.25,-0.06,-6.28,-0.09,0.09,0.24,-6.17,-6.19,-6.19
150,-6.26,-0.04,-6.30,-0.09,0.09,0.24,-6.18,-6.21,-6.22
151,-6.27,-0.04,-6.32,-0.09,0.09,0.24,-6.19,-6.24,-6.23
153,-6.31,-0.05,-6.34,-0.09,0.09,0.24,-6.23,-6.26,-6.26
154,-6.34,-0.07,-6.37,-0.09,0.09,0.24,-6.25,-6.28,-6.27
156,-6.40,-0.10,-6.39,-0.09,0.09,0.24,-6.31,-6.30,-6.30
157,-6.43,-0.12,-6.41,-0.10,0.10,0.24,-6.34,-6.32,-6.31
159,-6.47,-0.14,-6.43,-0.10,0.10,0.24,-6.37,-6.33,-6.34
160,-6.48,-0.14,-6.45,-0.10,0.10,0.25,-6.38,-6.35,-6.35
162,-6.50,-0.13,-6.47,-0.10,0.10,0.25,-6.40,-6.37,-6.37
164,-6.49,-0.10,-6.48,-0.10,0.10,0.26,-6.40,-6.39,-6.39
165,-6.50,-0.10,-6.49,-0.09,0.09,0.26,-6.41,-6.40,-6.40
167,-6.49,-0.07,-6.50,-0.08,0.08,0.26,-6.41,-6.42,-6.42
169,-6.50,-0.06,-6.51,-0.08,0.08,0.27,-6.43,-6.43,-6.44
170,-6.50,-0.06,-6.52,-0.07,0.07,0.27,-6.44,-6.45,-6.45
172,-6.51,-0.05,-6.52,-0.06,0.06,0.28,-6.46,-6.46,-6.47
174,-6.51,-0.03,-6.52,-0.04,0.04,0.28,-6.47,-6.48,-6.48
175,-6.50,-0.01,-6.53,-0.03,0.03,0.29,-6.47,-6.49,-6.49
177,-6.52,-0.02,-6.53,-0.02,0.02,0.29,-6.50,-6.51,-6.51
179,-6.55,-0.03,-6.53,-0.01,0.01,0.30,-6.54,-6.52,-6.52
181,-6.58,-0.05,-6.54,-0.01,0.01,0.31,-6.58,-6.53,-6.53
183,-6.58,-0.04,-6.55,-0.00,0.00,0.31,-6.58,-6.54,-6.55
184,-6.57,-0.02,-6.56,0.00,-0.00,0.32,-6.57,-6.56,-6.55
186,-6.53,0.03,-6.57,0.00,-0.00,0.32,-6.53,-6.57,-6.57
188,-6.53,0.05,-6.58,-0.00,0.00,0.33,-6.53,-6.58,-6.58
190,-6.56,0.03,-6.60,-0.01,0.01,0.34,-6.55,-6.59,-6.59
192,-6.59,0.01,-6.63,-0.02,0.02,0.34,-6.57,-6.60,-6.60
194,-6.62,-0.01,-6.65,-0.04,0.04,0.35,-6.58,-6.61,-6.61
196,-6.66,-0.04,-6.68,-0.06,0.06,0.36,-6.61,-6.62,-6.62
198,-6.70,-0.07,-6.71,-0.07,0.07,0.36,-6.63,-6.63,-6.63
200,-6.74,-0.10,-6.73,-0.09,0.09,0.37,-6.65,-6.64,-6.64
202,-6.78,-0.13,-6.76,-0.11,0.11,0.38,-6.67,-6.65,-6.65
204,-6.81,-0.15,-6.79,-0.13,0.13,0.38,-6.68,-6.66,-6.66
206,-6.83,-0.17,-6.81,-0.14,0.14,0.39,-6.69,-6.67,-6.67
208,-6.85,-0.18,-6.83,-0.15,0.15,0.39,-6.70,-6.67,-6.67
210,-6.86,-0.18,-6.84,-0.16,0.16,0.40,-6.71,-6.68,-6.68
212,-6.87,-0.18,-6.85,-0.16,0.16,0.41,-6.71,-6.69,-6.69
214,-6.86,-0.17,-6.85,-0.16,0.16,0.41,-6.71,-6.70,-6.70
216,-6.85,-0.15,-6.85,-0.15,0.15,0.42,-6.70,-6.70,-6.70
218,-6.84,-0.13,-6.85,-0.14,0.14,0.42,-6.70,-6.71,-6.71
221,-6.82,-0.11,-6.84,-0.12,0.12,0.43,-6.70,-6.72,-6.72
223,-6.82,-0.10,-6.83,-0.11,0.11,0.43,-6.71,-6.72,-6.72
225,-6.81,-0.08,-6.82,-0.09,0.09,0.44,-6.72,-6.73,-6.73
227,-6.81,-0.08,-6.81,-0.08,0.08,0.44,-6.73,-6.73,-6.73
229,-6.81,-0.07,-6.80,-0.06,0.06,0.45,-6.75,-6.74,-6.74
232,-6.80,-0.06,-6.80,-0.05,0.05,0.45,-6.75,-6.75,-6.75
234,-6.79,-0.04,-6.79,-0.04,0.04,0.45,-6.75,-6.75,-6.75
236,-6.78,-0.03,-6.79,-0.03,0.03,0.46,-6.75,-6.76,-6.76
239,-6.76,-0.00,-6.79,-0.02,0.02,0.46,-6.74,-6.76,-6.76
241,-6.75,0.01,-6.79,-0.02,0.02,0.46,-6.73,-6.77,-6.77
244,-6.77,-0.00,-6.79,-0.02,0.02,0.46,-6.75,-6.77,-6.77
246,-6.79,-0.02,-6.80,-0.02,0.02,0.46,-6.77,-6.77,-6.77
248,-6.81,-0.03,-6.81,-0.03,0.03,0.46,-6.79,-6.78,-6.78
251,-6.83,-0.05,-6.82,-0.03,0.03,0.46,-6.80,-6.78,-6.78
253,-6.84,-0.06,-6.83,-0.04,0.04,0.46,-6.80,-6.79,-6.79
256,-6.86,-0.07,-6.84,-0.05,0.05,0.46,-6.81,-6.79,-6.79
259,-6.87,-0.08,-6.86,-0.07,0.07,0.46,-6.81,-6.79,-6.80
261,-6.88,-0.08,-6.88,-0.08,0.08,0.45,-6.80,-6.80,-6.80
264,-6.90,-0.10,-6.90,-0.10,0.10,0.45,-6.81,-6.80,-6.80
266,-6.92,-0.12,-6.92,-0.11,0.11,0.45,-6.81,-6.81,-6.80
269,-6.94,-0.13,-6.94,-0.14,0.14,0.44,-6.81,-6.81,-6.81
272,-6.97,-0.16,-6.97,-0.16,0.16,0.44,-6.81,-6.81,-6.81
274,-6.99,-0.18,-7.00,-0.19,0.19,0.43,-6.80,-6.81,-6.81
277,-7.02,-0.21,-7.04,-0.22,0.22,0.43,-6.80,-6.82,-6.82
280,-7.06,-0.24,-7.08,-0.26,0.26,0.42,-6.80,-6.82,-6.82
283,-7.11,-0.29,-7.12,-0.30,0.30,0.41,-6.81,-6.82,-6.82
286,-7.16,-0.34,-7.17,-0.35,0.35,0.41,-6.82,-6.83,-6.83
288,-7.20,-0.38,-7.23,-0.40,0.40,0.40,-6.80,-6.83,-6.83
291,-7.26,-0.43,-7.28,-0.45,0.45,0.40,-6.81,-6.83,-6.83
294,-7.33,-0.50,-7.34,-0.51,0.51,0.39,-6.82,-6.83,-6.83
297,-7.40,-0.57,-7.40,-0.57,0.57,0.38,-6.83,-6.83,-6.83
300,-7.47,-0.64,-7.47,-0.63,0.63,0.38,-6.84,-6.84,-6.84
303,-7.54,-0.70,-7.53,-0.69,0.69,0.37,-6.85,-6.84,-6.84
306,-7.60,-0.76,-7.59,-0.75,0.75,0.36,-6.85,-6.84,-6.84
309,-7.66,-0.82,-7.65,-0.81,0.81,0.36,-6.86,-6.84,-6.84
312,-7.72,-0.88,-7.70,-0.86,0.86,0.35,-6.86,-6.84,-6.84
316,-7.78,-0.94,-7.75,-0.91,0.91,0.34,-6.87,-6.85,-6.85
319,-7.81,-0.97,-7.80,-0.95,0.95,0.34,-6.86,-6.85,-6.85
322,-7.85,-1.00,-7.85,-1.00,1.00,0.33,-6.86,-6.85,-6.85
325,-7.88,-1.03,-7.89,-1.04,1.04,0.33,-6.85,-6.85,-6.85
328,-7.91,-1.06,-7.92,-1.07,1.07,0.33,-6.84,-6.85,-6.85
332,-7.95,-1.10,-7.96,-1.10,1.10,0.32,-6.85,-6.85,-6.85
335,-7.98,-1.13,-7.99,-1.13,1.13,0.32,-6.85,-6.86,-6.86
338,-8.01,-1.16,-8.02,-1.16,1.16,0.31,-6.85,-6.86,-6.86
342,-8.04,-1.19,-8.04,-1.18,1.18,0.31,-6.86,-6.86,-6.86
345,-8.07,-1.21,-8.07,-1.21,1.21,0.30,-6.86,-6.86,-6.86
349,-8.09,-1.23,-8.09,-1.23,1.23,0.30,-6.86,-6.86,-6.86
352,-8.11,-1.25,-8.11,-1.25,1.25,0.30,-6.86,-6.86,-6.86
356,-8.14,-1.28,-8.14,-1.27,1.27,0.30,-6.87,-6.86,-6.86
359,-8.15,-1.29,-8.16,-1.29,1.29,0.29,-6.86,-6.86,-6.86
363,-8.17,-1.31,-8.18,-1.31,1.31,0.29,-6.86,-6.87,-6.87
366,-8.19,-1.33,-8.20,-1.33,1.33,0.29,-6.86,-6.87,-6.87
370,-8.20,-1.34,-8.22,-1.35,1.35,0.29,-6.85,-6.87,-6.87
374,-8.21,-1.34,-8.24,-1.37,1.37,0.29,-6.84,-6.87,-6.87
377,-8.23,-1.36,-8.26,-1.39,1.39,0.29,-6.84,-6.87,-6.87
381,-8.27,-1.40,-8.28,-1.40,1.40,0.29,-6.87,-6.87,-6.87
385,-8.30,-1.43,-8.29,-1.42,1.42,0.29,-6.88,-6.87,-6.87
389,-8.32,-1.45,-8.30,-1.43,1.43,0.28,-6.89,-6.88,-6.87
393,-8.33,-1.46,-8.31,-1.44,1.44,0.28,-6.90,-6.88,-6.88
397,-8.33,-1.46,-8.32,-1.44,1.44,0.28,-6.89,-6.88,-6.88
401,-8.33,-1.45,-8.32,-1.44,1.44,0.28,-6.89,-6.88,-6.88
405,-8.32,-1.44,-8.31,-1.43,1.43,0.28,-6.89,-6.88,-6.88
409,-8.31,-1.43,-8.31,-1.42,1.42,0.28,-6.89,-6.88,-6.88
413,-8.29,-1.41,-8.29,-1.41,1.41,0.28,-6.88,-6.88,-6.88
417,-8.26,-1.38,-8.27,-1.39,1.39,0.27,-6.87,-6.88,-6.88
421,-8.23,-1.35,-8.25,-1.37,1.37,0.27,-6.86,-6.88,-6.88
425,-8.20,-1.32,-8.22,-1.34,1.34,0.27,-6.86,-6.88,-6.88
430,-8.16,-1.28,-8.19,-1.31,1.31,0.26,-6.86,-6.88,-6.88
434,-8.13,-1.25,-8.15,-1.27,1.27,0.26,-6.87,-6.88,-6.88
438,-8.09,-1.22,-8.10,-1.22,1.22,0.25,-6.87,-6.88,-6.88
443,-8.05,-1.18,-8.05,-1.17,1.17,0.24,-6.88,-6.87,-6.87
447,-8.02,-1.15,-7.99,-1.11,1.11,0.24,-6.91,-6.87,-6.87
451,-7.97,-1.11,-7.92,-1.05,1.05,0.23,-6.92,-6.87,-6.87
456,-7.88,-1.02,-7.84,-0.98,0.98,0.22,-6.90,-6.86,-6.86
460,-7.80,-0.95,-7.76,-0.91,0.91,0.20,-6.90,-6.86,-6.86
465,-7.67,-0.82,-7.68,-0.83,0.83,0.19,-6.85,-6.85,-6.85
470,-7.54,-0.70,-7.58,-0.74,0.74,0.17,-6.80,-6.84,-6.84
474,-7.45,-0.62,-7.49,-0.65,0.65,0.15,-6.80,-6.83,-6.83
479,-7.34,-0.52,-7.38,-0.56,0.56,0.13,-6.78,-6.82,-6.82
484,-7.25,-0.44,-7.28,-0.47,0.47,0.11,-6.78,-6.81,-6.81
489,-7.17,-0.37,-7.17,-0.37,0.37,0.08,-6.80,-6.80,-6.80
494,-7.07,-0.29,-7.06,-0.27,0.27,0.05,-6.80,-6.79,-6.79
499,-6.96,-0.19,-6.95,-0.18,0.18,0.02,-6.79,-6.77,-6.77
504,-6.85,-0.10,-6.83,-0.08,0.08,-0.01,-6.78,-6.76,-6.76
509,-6.72,0.02,-6.71,0.03,-0.03,-0.05,-6.75,-6.74,-6.74
514,-6.59,0.13,-6.59,0.13,-0.13,-0.08,-6.72,-6.72,-6.72
519,-6.46,0.24,-6.47,0.23,-0.23,-0.12,-6.69,-6.70,-6.70
524,-6.34,0.34,-6.35,0.33,-0.33,-0.16,-6.68,-6.68,-6.68
529,-6.22,0.44,-6.23,0.44,-0.44,-0.21,-6.66,-6.66,-6.66
535,-6.08,0.56,-6.10,0.54,-0.54,-0.26,-6.62,-6.64,-6.64
540,-5.96,0.66,-5.97,0.65,-0.65,-0.31,-6.61,-6.62,-6.62
545,-5.84,0.75,-5.84,0.75,-0.75,-0.35,-6.60,-6.60,-6.60
551,-5.71,0.86,-5.71,0.86,-0.86,-0.42,-6.57,-6.57,-6.57
556,-5.58,0.96,-5.58,0.97,-0.97,-0.47,-6.55,-6.55,-6.55
562,-5.44,1.08,-5.44,1.08,-1.08,-0.53,-6.52,-6.52,-6.52
568,-5.29,1.20,-5.30,1.19,-1.19,-0.60,-6.48,-6.50,-6.50
573,-5.17,1.29,-5.16,1.30,-1.30,-0.65,-6.48,-6.47,-6.47
579,-5.02,1.42,-5.02,1.42,-1.42,-0.72,-6.44,-6.44,-6.44
585,-4.86,1.55,-4.87,1.54,-1.54,-0.79,-6.40,-6.41,-6.41
591,-4.71,1.67,-4.72,1.66,-1.66,-0.86,-6.37,-6.38,-6.38
596,-4.58,1.77,-4.57,1.79,-1.79,-0.92,-6.37,-6.35,-6.35
602,-4.43,1.89,-4.41,1.91,-1.91,-0.99,-6.35,-6.32,-6.32
608,-4.26,2.03,-4.24,2.05,-2.05,-1.07,-6.31,-6.29,-6.29
615,-4.07,2.18,-4.08,2.18,-2.18,-1.16,-6.25,-6.26,-6.26
621,-3.91,2.31,-3.91,2.32,-2.32,-1.23,-6.23,-6.23,-6.23
627,-3.74,2.45,-3.73,2.46,-2.46,-1.31,-6.20,-6.19,-6.19
633,-3.57,2.59,-3.56,2.60,-2.60,-1.39,-6.17,-6.16,-6.16
639,-3.40,2.72,-3.39,2.74,-2.74,-1.47,-6.14,-6.12,-6.12
646,-3.20,2.89,-3.21,2.88,-2.88,-1.56,-6.08,-6.09,-6.09
652,-3.03,3.02,-3.04,3.01,-3.01,-1.64,-6.05,-6.05,-6.06
659,-2.84,3.18,-2.87,3.15,-3.15,-1.74,-5.99,-6.02,-6.02
665,-2.69,3.29,-2.70,3.28,-3.28,-1.82,-5.97,-5.98,-5.98
672,-2.52,3.42,-2.54,3.41,-3.41,-1.92,-5.93,-5.95,-5.95
679,-2.35,3.56,-2.38,3.53,-3.53,-2.01,-5.88,-5.91,-5.91
686,-2.19,3.68,-2.22,3.65,-3.65,-2.11,-5.84,-5.87,-5.87
692,-2.07,3.76,-2.07,3.76,-3.76,-2.20,-5.84,-5.84,-5.84
699,-1.93,3.87,-1.92,3.88,-3.88,-2.30,-5.81,-5.80,-5.80
706,-1.79,3.97,-1.78,3.98,-3.98,-2.40,-5.78,-5.76,-5.76
713,-1.66,4.06,-1.63,4.09,-4.09,-2.50,-5.75,-5.72,-5.72
721,-1.51,4.17,-1.49,4.19,-4.19,-2.62,-5.71,-5.68,-5.68
728,-1.37,4.27,-1.35,4.29,-4.29,-2.73,-5.67,-5.65,-5.65
735,-1.24,4.37,-1.22,4.39,-4.39,-2.83,-5.63,-5.61,-5.61
742,-1.10,4.47,-1.09,4.48,-4.48,-2.94,-5.59,-5.57,-5.57
750,-0.95,4.58,-0.96,4.57,-4.57,-3.06,-5.53,-5.53,-5.53
757,-0.82,4.67,-0.84,4.66,-4.66,-3.16,-5.48,-5.50,-5.50
765,-0.69,4.77,-0.72,4.74,-4.74,-3.29,-5.43,-5.46,-5.46
773,-0.58,4.84,-0.61,4.81,-4.81,-3.41,-5.39,-5.42,-5.42
780,-0.49,4.89,-0.51,4.88,-4.88,-3.52,-5.37,-5.39,-5.39
788,-0.39,4.96,-0.41,4.94,-4.94,-3.64,-5.33,-5.35,-5.35
796,-0.31,5.00,-0.32,4.99,-4.99,-3.76,-5.31,-5.32,-5.31
804,-0.24,5.04,-0.24,5.04,-5.04,-3.88,-5.28,-5.28,-5.28
812,-0.17,5.07,-0.16,5.08,-5.08,-4.01,-5.26,-5.25,-5.25
820,-0.12,5.09,-0.10,5.12,-5.12,-4.13,-5.24,-5.21,-5.21
828,-0.07,5.11,-0.04,5.15,-5.15,-4.24,-5.22,-5.18,-5.18
837,-0.01,5.14,0.02,5.17,-5.17,-4.38,-5.18,-5.15,-5.15
845,0.03,5.14,0.06,5.18,-5.18,-4.49,-5.15,-5.12,-5.12
853,0.08,5.16,0.09,5.18,-5.18,-4.60,-5.10,-5.09,-5.09
862,0.14,5.19,0.12,5.17,-5.17,-4.72,-5.04,-5.06,-5.06
871,0.18,5.20,0.13,5.15,-5.15,-4.84,-4.98,-5.03,-5.03
879,0.20,5.19,0.13,5.13,-5.13,-4.94,-4.93,-5.00,-5.00
888,0.21,5.18,0.12,5.09,-5.09,-5.05,-4.88,-4.97,-4.97
897,0.19,5.13,0.10,5.04,-5.04,-5.15,-4.86,-4.94,-4.94
906,0.16,5.07,0.08,4.99,-4.99,-5.25,-4.84,-4.91,-4.91
915,0.09,4.97,0.05,4.94,-4.94,-5.34,-4.85,-4.89,-4.89
924,-0.00,4.86,0.02,4.88,-4.88,-5.42,-4.88,-4.86,-4.86
933,-0.10,4.73,-0.01,4.83,-4.83,-5.49,-4.93,-4.83,-4.83
943,-0.15,4.65,-0.03,4.77,-4.77,-5.56,-4.93,-4.80,-4.80
952,-0.14,4.64,-0.05,4.73,-4.73,-5.61,-4.87,-4.78,-4.78
962,-0.13,4.62,-0.06,4.69,-4.69,-5.66,-4.82,-4.75,-4.75
971,-0.13,4.59,-0.07,4.66,-4.66,-5.70,-4.79,-4.72,-4.72
981,-0.11,4.59,-0.07,4.63,-4.63,-5.72,-4.74,-4.70,-4.70
991,-0.06,4.61,-0.06,4.61,-4.61,-5.74,-4.67,-4.67,-4.67
1001,0.01,4.65,-0.05,4.59,-4.59,-5.74,-4.59,-4.64,-4.64
1011,0.06,4.67,-0.04,4.58,-4.58,-5.73,-4.52,-4.62,-4.62
1021,0.06,4.65,-0.02,4.57,-4.57,-5.72,-4.51,-4.59,-4.59
1031,0.05,4.61,-0.01,4.56,-4.56,-5.69,-4.51,-4.56,-4.56
1041,0.03,4.56,0.01,4.54,-4.54,-5.65,-4.52,-4.53,-4.54
1052,-0.00,4.50,0.02,4.53,-4.53,-5.60,-4.53,-4.51,-4.51
1062,-0.02,4.46,0.03,4.51,-4.51,-5.54,-4.53,-4.48,-4.48
1073,-0.03,4.42,0.04,4.49,-4.49,-5.47,-4.52,-4.45,-4.45
1084,-0.04,4.38,0.04,4.46,-4.46,-5.39,-4.50,-4.42,-4.42
1094,-0.03,4.36,0.03,4.42,-4.42,-5.31,-4.45,-4.39,-4.39
1105,-0.02,4.34,0.01,4.37,-4.37,-5.22,-4.40,-4.36,-4.36
1116,-0.01,4.32,-0.02,4.31,-4.31,-5.12,-4.33,-4.33,-4.33
1128,-0.00,4.30,-0.06,4.24,-4.24,-5.01,-4.24,-4.30,-4.30
1139,0.01,4.28,-0.12,4.15,-4.15,-4.91,-4.15,-4.27,-4.27
1150,-0.01,4.23,-0.19,4.05,-4.05,-4.80,-4.06,-4.24,-4.24
1162,-0.06,4.15,-0.27,3.94,-3.94,-4.68,-4.00,-4.21,-4.21
1173,-0.17,4.00,-0.36,3.82,-3.82,-4.57,-3.99,-4.18,-4.18
1185,-0.36,3.78,-0.46,3.69,-3.69,-4.44,-4.05,-4.15,-4.15
1197,-0.59,3.52,-0.55,3.56,-3.56,-4.32,-4.16,-4.11,-4.11
1209,-0.80,3.28,-0.64,3.44,-3.44,-4.20,-4.24,-4.08,-4.08
1221,-0.94,3.10,-0.72,3.33,-3.33,-4.08,-4.27,-4.05,-4.05
1233,-1.01,3.00,-0.79,3.23,-3.23,-3.95,-4.24,-4.01,-4.01
1246,-1.00,2.98,-0.84,3.14,-3.14,-3.82,-4.15,-3.98,-3.98
1258,-0.96,2.98,-0.87,3.08,-3.08,-3.71,-4.04,-3.95,-3.95
1271,-0.90,3.01,-0.88,3.03,-3.03,-3.58,-3.93,-3.91,-3.91
1283,-0.84,3.03,-0.88,3.00,-3.00,-3.47,-3.84,-3.88,-3.88
1296,-0.79,3.05,-0.86,2.98,-2.98,-3.34,-3.77,-3.84,-3.84
1309,-0.75,3.05,-0.83,2.97,-2.97,-3.23,-3.73,-3.81,-3.81
1322,-0.72,3.05,-0.80,2.98,-2.98,-3.11,-3.70,-3.77,-3.77
1335,-0.70,3.03,-0.75,2.98,-2.98,-3.00,-3.69,-3.74,-3.74
1349,-0.70,3.00,-0.71,2.99,-2.99,-2.88,-3.70,-3.70,-3.70
1362,-0.70,2.96,-0.66,3.00,-3.00,-2.77,-3.70,-3.66,-3.66
1376,-0.67,2.95,-0.62,3.01,-3.01,-2.66,-3.68,-3.62,-3.62
1390,-0.61,2.97,-0.58,3.01,-3.01,-2.55,-3.62,-3.59,-3.59
1404,-0.57,2.98,-0.55,3.00,-3.00,-2.44,-3.57,-3.55,-3.55
1418,-0.54,2.97,-0.53,2.98,-2.98,-2.34,-3.52,-3.51,-3.51
1432,-0.50,2.97,-0.52,2.95,-2.95,-2.24,-3.45,-3.47,-3.47
1446,-0.48,2.95,-0.53,2.91,-2.91,-2.14,-3.39,-3.43,-3.43
1461,-0.49,2.90,-0.54,2.85,-2.85,-2.03,-3.34,-3.39,-3.39
1475,-0.50,2.85,-0.57,2.78,-2.78,-1.94,-3.28,-3.35,-3.35
1490,-0.54,2.77,-0.61,2.70,-2.70,-1.85,-3.24,-3.31,-3.31
1505,-0.60,2.67,-0.67,2.60,-2.60,-1.75,-3.20,-3.27,-3.27
1520,-0.68,2.55,-0.74,2.49,-2.49,-1.66,-3.18,-3.23,-3.23
