frequency,raw,error,smoothed,error_smoothed,equalization,parametric_eq,fixed_band_eq,equalized_raw,equalized_smoothed,target
20.00,-7.07,-10.97,-7.09,-11.02,6.00,5.20,2.41,-1.07,-1.09,3.90
20.20,-6.93,-10.87,-6.94,-10.89,6.00,5.29,2.48,-0.93,-0.94,3.94
20.40,-6.79,-10.76,-6.79,-10.77,6.00,5.38,2.55,-0.79,-0.79,3.97
20.61,-6.65,-10.66,-6.64,-10.65,6.00,5.47,2.63,-0.65,-0.64,4.00
20.81,-6.51,-10.55,-6.49,-10.53,6.00,5.56,2.71,-0.51,-0.49,4.04
21.02,-6.37,-10.45,-6.35,-10.40,6.00,5.64,2.79,-0.37,-0.35,4.08
21.23,-6.22,-10.31,-6.20,-10.28,6.00,5.72,2.87,-0.22,-0.20,4.09
21.44,-6.07,-10.18,-6.05,-10.15,6.00,5.81,2.95,-0.07,-0.05,4.11
21.66,-5.92,-10.05,-5.91,-10.03,6.00,5.88,3.04,0.08,0.09,4.13
21.87,-5.77,-9.91,-5.77,-9.90,6.00,5.96,3.13,0.23,0.23,4.14
22.09,-5.62,-9.78,-5.62,-9.78,6.00,6.03,3.22,0.38,0.38,4.16
22.31,-5.47,-9.63,-5.48,-9.65,6.00,6.10,3.31,0.53,0.52,4.16
22.54,-5.32,-9.49,-5.35,-9.52,6.00,6.16,3.41,0.68,0.65,4.17
22.76,-5.17,-9.35,-5.21,-9.39,6.00,6.22,3.51,0.83,0.79,4.18
22.99,-5.02,-9.20,-5.07,-9.27,6.00,6.27,3.61,0.98,0.93,4.18
23.22,-4.91,-9.10,-4.94,-9.14,6.00,6.32,3.71,1.09,1.06,4.19
23.45,-4.80,-9.00,-4.80,-9.01,6.00,6.36,3.82,1.20,1.20,4.20
23.69,-4.69,-8.90,-4.66,-8.88,6.00,6.40,3.93,1.31,1.34,4.21
23.92,-4.58,-8.80,-4.53,-8.74,6.00,6.43,4.04,1.42,1.47,4.22
24.16,-4.44,-8.67,-4.39,-8.61,6.00,6.46,4.15,1.56,1.61,4.23
24.40,-4.28,-8.52,-4.25,-8.48,6.00,6.48,4.26,1.72,1.75,4.24
24.65,-4.13,-8.36,-4.12,-8.34,6.00,6.49,4.38,1.87,1.88,4.23
24.89,-3.98,-8.21,-3.98,-8.20,6.00,6.50,4.49,2.02,2.02,4.23
25.14,-3.83,-8.06,-3.83,-8.06,6.00,6.50,4.61,2.17,2.17,4.23
25.39,-3.68,-7.90,-3.69,-7.92,6.00,6.49,4.73,2.32,2.31,4.23
25.65,-3.53,-7.76,-3.54,-7.77,6.00,6.47,4.85,2.47,2.46,4.23
25.91,-3.38,-7.60,-3.38,-7.61,6.00,6.45,4.97,2.62,2.62,4.22
26.16,-3.24,-7.46,-3.23,-7.46,6.00,6.42,5.09,2.76,2.77,4.23
26.43,-3.10,-7.33,-3.09,-7.31,6.00,6.39,5.21,2.90,2.91,4.22
26.69,-2.96,-7.18,-2.95,-7.18,6.00,6.35,5.32,3.04,3.05,4.22
26.96,-2.82,-7.04,-2.82,-7.04,6.00,6.30,5.44,3.18,3.18,4.22
27.23,-2.68,-6.90,-2.70,-6.92,6.00,6.25,5.55,3.32,3.30,4.22
27.50,-2.54,-6.76,-2.58,-6.79,6.00,6.19,5.65,3.46,3.42,4.22
27.77,-2.40,-6.61,-2.46,-6.67,6.00,6.13,5.76,3.60,3.54,4.21
28.05,-2.28,-6.49,-2.34,-6.56,6.00,6.06,5.85,3.72,3.66,4.21
28.33,-2.21,-6.41,-2.23,-6.44,6.00,5.99,5.95,3.79,3.77,4.20
28.62,-2.14,-6.35,-2.11,-6.32,5.99,5.91,6.03,3.85,3.87,4.21
28.90,-2.07,-6.28,-2.00,-6.21,5.96,5.83,6.11,3.89,3.96,4.21
29.19,-1.96,-6.16,-1.89,-6.10,5.92,5.74,6.18,3.96,4.03,4.20
29.48,-1.83,-6.03,-1.78,-5.98,5.87,5.66,6.24,4.04,4.09,4.21
29.78,-1.70,-5.91,-1.67,-5.87,5.80,5.56,6.29,4.10,4.13,4.20
30.08,-1.57,-5.78,-1.57,-5.76,5.73,5.47,6.33,4.16,4.16,4.20
30.38,-1.45,-5.64,-1.46,-5.65,5.64,5.38,6.35,4.19,4.18,4.19
30.68,-1.33,-5.52,-1.36,-5.54,5.54,5.28,6.37,4.21,4.19,4.19
30.99,-1.22,-5.40,-1.25,-5.44,5.44,5.18,6.37,4.22,4.18,4.18
31.30,-1.12,-5.30,-1.15,-5.33,5.33,5.08,6.36,4.21,4.18,4.18
31.61,-1.03,-5.21,-1.05,-5.23,5.23,4.97,6.34,4.20,4.17,4.18
31.93,-0.93,-5.10,-0.96,-5.13,5.13,4.87,6.31,4.20,4.17,4.17
32.24,-0.85,-5.00,-0.88,-5.04,5.04,4.77,6.26,4.19,4.17,4.16
32.57,-0.78,-4.93,-0.79,-4.95,4.95,4.66,6.20,4.17,4.16,4.15
32.89,-0.70,-4.85,-0.70,-4.86,4.86,4.56,6.14,4.16,4.16,4.15
33.22,-0.63,-4.78,-0.61,-4.77,4.77,4.45,6.06,4.14,4.15,4.15
33.55,-0.56,-4.71,-0.53,-4.68,4.68,4.35,5.97,4.12,4.15,4.15
33.89,-0.48,-4.63,-0.45,-4.60,4.60,4.24,5.87,4.12,4.14,4.15
34.23,-0.41,-4.56,-0.38,-4.52,4.52,4.14,5.76,4.11,4.14,4.15
34.57,-0.33,-4.46,-0.30,-4.43,4.43,4.04,5.65,4.10,4.14,4.13
34.92,-0.25,-4.38,-0.21,-4.34,4.34,3.93,5.53,4.09,4.13,4.13
35.27,-0.11,-4.24,-0.12,-4.25,4.25,3.83,5.40,4.13,4.13,4.13
35.62,0.05,-4.07,-0.02,-4.14,4.14,3.73,5.27,4.19,4.12,4.12
35.97,0.21,-3.91,0.08,-4.03,4.03,3.63,5.13,4.24,4.12,4.12
36.33,0.23,-3.88,0.19,-3.92,3.92,3.53,4.99,4.15,4.11,4.11
36.70,0.25,-3.86,0.30,-3.80,3.80,3.43,4.84,4.05,4.11,4.11
37.06,0.29,-3.81,0.42,-3.68,3.68,3.33,4.70,3.97,4.10,4.10
37.43,0.47,-3.62,0.55,-3.55,3.55,3.23,4.55,4.02,4.10,4.10
37.81,0.64,-3.45,0.68,-3.41,3.41,3.14,4.40,4.05,4.09,4.09
38.19,0.81,-3.27,0.81,-3.28,3.28,3.04,4.25,4.08,4.09,4.08
38.57,0.96,-3.12,0.94,-3.14,3.14,2.95,4.10,4.10,4.08,4.08
38.95,1.12,-2.95,1.07,-3.01,3.01,2.86,3.95,4.13,4.08,4.08
39.34,1.23,-2.83,1.19,-2.88,2.88,2.76,3.80,4.12,4.07,4.06
39.74,1.33,-2.72,1.31,-2.75,2.75,2.67,3.65,4.08,4.07,4.05
40.14,1.46,-2.60,1.45,-2.61,2.61,2.58,3.50,4.07,4.06,4.06
40.54,1.63,-2.43,1.59,-2.46,2.46,2.50,3.35,4.09,4.05,4.05
40.94,1.80,-2.25,1.73,-2.31,2.31,2.41,3.21,4.11,4.04,4.05
41.35,1.88,-2.16,1.87,-2.16,2.16,2.32,3.06,4.04,4.03,4.04
41.76,1.96,-2.06,1.99,-2.02,2.02,2.24,2.92,3.98,4.01,4.02
42.18,2.05,-1.96,2.12,-1.87,1.87,2.15,2.78,3.92,3.99,4.01
42.60,2.17,-1.81,2.25,-1.72,1.72,2.07,2.64,3.89,3.97,3.98
43.03,2.29,-1.68,2.38,-1.57,1.57,1.99,2.50,3.86,3.95,3.97
43.46,2.49,-1.46,2.51,-1.42,1.42,1.91,2.36,3.91,3.93,3.95
43.90,2.69,-1.21,2.64,-1.27,1.27,1.83,2.22,3.95,3.90,3.90
44.33,2.81,-1.07,2.76,-1.12,1.12,1.75,2.09,3.93,3.88,3.88
44.78,2.91,-0.93,2.88,-0.98,0.98,1.67,1.96,3.88,3.86,3.84
45.23,3.01,-0.81,2.99,-0.84,0.84,1.59,1.83,3.85,3.83,3.82
45.68,3.12,-0.67,3.10,-0.71,0.71,1.51,1.70,3.83,3.81,3.79
46.13,3.22,-0.56,3.21,-0.58,0.58,1.43,1.57,3.80,3.79,3.78
46.60,3.33,-0.44,3.30,-0.47,0.47,1.36,1.44,3.80,3.78,3.77
47.06,3.42,-0.33,3.39,-0.38,0.38,1.28,1.32,3.80,3.76,3.75
47.53,3.44,-0.31,3.45,-0.30,0.30,1.21,1.19,3.74,3.76,3.75
48.01,3.46,-0.29,3.51,-0.24,0.24,1.14,1.07,3.70,3.75,3.75
48.49,3.55,-0.20,3.55,-0.20,0.20,1.06,0.95,3.75,3.75,3.75
48.97,3.64,-0.10,3.58,-0.17,0.17,0.99,0.83,3.81,3.75,3.74
49.46,3.65,-0.08,3.62,-0.13,0.13,0.92,0.72,3.78,3.75,3.73
49.96,3.65,-0.08,3.65,-0.10,0.10,0.84,0.60,3.75,3.75,3.73
50.46,3.65,-0.10,3.67,-0.08,0.08,0.77,0.49,3.73,3.75,3.75
50.96,3.65,-0.11,3.68,-0.07,0.07,0.70,0.37,3.72,3.74,3.76
51.47,3.65,-0.10,3.68,-0.05,0.05,0.63,0.26,3.70,3.74,3.75
51.99,3.65,-0.09,3.69,-0.04,0.04,0.56,0.15,3.69,3.73,3.74
52.51,3.65,-0.08,3.68,-0.03,0.03,0.49,0.05,3.68,3.71,3.73
53.03,3.65,-0.06,3.66,-0.03,0.03,0.42,-0.06,3.68,3.69,3.71
53.56,3.65,-0.03,3.63,-0.03,0.03,0.35,-0.16,3.68,3.67,3.68
54.10,3.65,0.00,3.60,-0.04,0.04,0.28,-0.26,3.69,3.64,3.65
54.64,3.65,0.04,3.56,-0.05,0.05,0.21,-0.36,3.70,3.60,3.61
55.18,3.61,0.04,3.52,-0.05,0.05,0.14,-0.46,3.66,3.56,3.56
55.74,3.48,-0.03,3.48,-0.04,0.04,0.07,-0.56,3.52,3.52,3.51
56.29,3.42,-0.05,3.43,-0.04,0.04,-0.00,-0.65,3.46,3.47,3.47
56.86,3.42,-0.00,3.39,-0.03,0.03,-0.07,-0.74,3.45,3.42,3.42
57.42,3.32,-0.04,3.35,-0.02,0.02,-0.14,-0.82,3.34,3.37,3.36
58.00,3.19,-0.12,3.31,-0.00,0.00,-0.21,-0.91,3.20,3.31,3.31
58.58,3.19,-0.06,3.27,0.01,-0.01,-0.28,-0.99,3.18,3.26,3.25
59.16,3.19,-0.02,3.24,0.03,-0.03,-0.35,-1.07,3.16,3.20,3.21
59.76,3.19,0.03,3.20,0.05,-0.05,-0.42,-1.14,3.14,3.15,3.16
60.35,3.19,0.10,3.17,0.07,-0.07,-0.50,-1.21,3.12,3.09,3.09
60.96,3.19,0.14,3.14,0.10,-0.10,-0.57,-1.28,3.09,3.04,3.05
61.57,3.19,0.21,3.13,0.14,-0.14,-0.64,-1.35,3.05,2.99,2.98
62.18,3.19,0.26,3.14,0.20,-0.20,-0.71,-1.41,2.99,2.94,2.93
62.80,3.19,0.30,3.15,0.25,-0.25,-0.79,-1.47,2.94,2.90,2.89
63.43,3.19,0.34,3.16,0.31,-0.31,-0.86,-1.52,2.88,2.85,2.85
64.07,3.19,0.38,3.19,0.38,-0.38,-0.93,-1.57,2.81,2.81,2.81
64.71,3.19,0.42,3.23,0.45,-0.45,-1.01,-1.62,2.74,2.77,2.77
65.35,3.19,0.46,3.27,0.53,-0.53,-1.08,-1.67,2.66,2.74,2.73
66.01,3.19,0.49,3.32,0.61,-0.61,-1.16,-1.71,2.58,2.71,2.70
66.67,3.34,0.66,3.39,0.71,-0.71,-1.24,-1.75,2.63,2.68,2.68
67.33,3.50,0.84,3.48,0.82,-0.82,-1.31,-1.79,2.68,2.66,2.66
68.01,3.65,1.01,3.58,0.95,-0.95,-1.39,-1.83,2.70,2.63,2.64
68.69,3.66,1.04,3.69,1.08,-1.08,-1.47,-1.86,2.58,2.61,2.62
69.37,3.75,1.16,3.80,1.21,-1.21,-1.55,-1.90,2.54,2.59,2.59
70.07,3.89,1.32,3.93,1.35,-1.35,-1.63,-1.93,2.54,2.58,2.57
70.77,4.05,1.48,4.06,1.50,-1.50,-1.71,-1.96,2.55,2.56,2.57
71.48,4.21,1.66,4.20,1.66,-1.66,-1.79,-1.99,2.55,2.54,2.55
72.19,4.38,1.85,4.34,1.82,-1.82,-1.88,-2.02,2.56,2.52,2.53
72.91,4.54,2.03,4.48,1.97,-1.97,-1.96,-2.05,2.57,2.50,2.51
73.64,4.71,2.22,4.61,2.12,-2.12,-2.04,-2.08,2.59,2.49,2.49
74.38,4.79,2.31,4.73,2.26,-2.26,-2.13,-2.11,2.53,2.47,2.48
75.12,4.80,2.35,4.85,2.40,-2.40,-2.22,-2.14,2.40,2.45,2.45
75.87,4.84,2.41,4.96,2.53,-2.53,-2.30,-2.17,2.31,2.44,2.44
76.63,5.07,2.65,5.08,2.66,-2.66,-2.39,-2.20,2.41,2.42,2.42
77.40,5.24,2.83,5.19,2.78,-2.78,-2.48,-2.23,2.46,2.41,2.41
78.17,5.34,2.95,5.30,2.89,-2.89,-2.56,-2.26,2.45,2.40,2.39
78.95,5.46,3.07,5.39,2.99,-2.99,-2.65,-2.30,2.47,2.40,2.39
79.74,5.47,3.08,5.48,3.09,-3.09,-2.74,-2.33,2.38,2.39,2.39
80.54,5.55,3.17,5.58,3.19,-3.19,-2.83,-2.37,2.36,2.39,2.38
81.35,5.65,3.27,5.67,3.28,-3.28,-2.92,-2.41,2.37,2.39,2.38
82.16,5.72,3.33,5.76,3.36,-3.36,-3.01,-2.45,2.36,2.40,2.39
82.98,5.80,3.39,5.85,3.44,-3.44,-3.10,-2.49,2.36,2.41,2.41
83.81,5.91,3.49,5.94,3.52,-3.52,-3.19,-2.53,2.39,2.42,2.42
84.65,6.07,3.64,6.02,3.59,-3.59,-3.28,-2.58,2.49,2.44,2.43
85.50,6.15,3.70,6.09,3.64,-3.64,-3.37,-2.63,2.51,2.45,2.45
86.35,6.15,3.68,6.16,3.69,-3.69,-3.45,-2.68,2.46,2.47,2.47
87.22,6.20,3.72,6.23,3.74,-3.74,-3.54,-2.73,2.46,2.49,2.48
88.09,6.38,3.88,6.29,3.79,-3.79,-3.63,-2.79,2.59,2.50,2.50
88.97,6.38,3.85,6.35,3.83,-3.83,-3.71,-2.85,2.55,2.52,2.53
89.86,6.38,3.83,6.41,3.87,-3.87,-3.80,-2.91,2.51,2.54,2.55
90.76,6.40,3.85,6.47,3.91,-3.91,-3.88,-2.97,2.49,2.55,2.55
91.66,6.54,3.97,6.52,3.95,-3.95,-3.96,-3.03,2.59,2.56,2.57
92.58,6.61,4.04,6.56,3.99,-3.99,-4.04,-3.10,2.62,2.57,2.57
93.51,6.61,4.02,6.60,4.02,-4.02,-4.12,-3.17,2.59,2.58,2.59
94.44,6.61,4.02,6.64,4.05,-4.05,-4.19,-3.24,2.56,2.59,2.59
95.39,6.61,4.02,6.68,4.09,-4.09,-4.26,-3.31,2.52,2.59,2.59
96.34,6.64,4.06,6.71,4.13,-4.13,-4.33,-3.39,2.51,2.59,2.58
97.30,6.75,4.17,6.74,4.16,-4.16,-4.39,-3.46,2.59,2.58,2.58
98.28,6.84,4.27,6.77,4.20,-4.20,-4.45,-3.54,2.64,2.58,2.57
99.26,6.84,4.28,6.81,4.24,-4.24,-4.51,-3.62,2.60,2.57,2.56
100.25,6.84,4.29,6.83,4.28,-4.28,-4.56,-3.70,2.56,2.55,2.55
101.25,6.84,4.31,6.84,4.31,-4.31,-4.61,-3.78,2.53,2.53,2.53
102.27,6.84,4.33,6.84,4.33,-4.33,-4.65,-3.87,2.51,2.51,2.51
103.29,6.84,4.36,6.84,4.36,-4.36,-4.69,-3.95,2.48,2.48,2.48
104.32,6.84,4.38,6.83,4.38,-4.38,-4.72,-4.03,2.46,2.45,2.46
105.37,6.84,4.40,6.82,4.41,-4.41,-4.75,-4.11,2.43,2.42,2.44
106.42,6.84,4.44,6.81,4.43,-4.43,-4.77,-4.20,2.41,2.38,2.40
107.48,6.84,4.49,6.80,4.46,-4.46,-4.79,-4.28,2.38,2.34,2.35
108.56,6.84,4.55,6.77,4.48,-4.48,-4.80,-4.35,2.36,2.29,2.29
109.64,6.69,4.45,6.74,4.51,-4.51,-4.80,-4.43,2.18,2.24,2.24
110.74,6.61,4.42,6.72,4.54,-4.54,-4.80,-4.50,2.07,2.18,2.19
111.85,6.61,4.47,6.69,4.56,-4.56,-4.80,-4.57,2.05,2.13,2.14
112.97,6.61,4.54,6.66,4.59,-4.59,-4.79,-4.64,2.02,2.07,2.07
114.10,6.61,4.59,6.62,4.60,-4.60,-4.77,-4.70,2.01,2.02,2.02
115.24,6.61,4.65,6.58,4.61,-4.61,-4.75,-4.76,2.00,1.97,1.96
116.39,6.61,4.70,6.53,4.61,-4.61,-4.73,-4.81,2.00,1.92,1.91
117.55,6.60,4.74,6.47,4.60,-4.60,-4.70,-4.85,2.00,1.88,1.86
118.73,6.44,4.63,6.42,4.58,-4.58,-4.66,-4.89,1.86,1.84,1.81
119.92,6.38,4.60,6.37,4.57,-4.57,-4.62,-4.92,1.81,1.80,1.78
121.12,6.37,4.62,6.32,4.55,-4.55,-4.58,-4.95,1.82,1.77,1.75
122.33,6.23,4.51,6.27,4.54,-4.54,-4.53,-4.96,1.69,1.74,1.72
123.55,6.15,4.43,6.22,4.51,-4.51,-4.48,-4.97,1.64,1.71,1.72
124.79,6.15,4.46,6.16,4.47,-4.47,-4.42,-4.97,1.68,1.69,1.69
126.03,6.00,4.32,6.10,4.43,-4.43,-4.37,-4.96,1.57,1.67,1.67
127.29,5.95,4.29,6.03,4.38,-4.38,-4.31,-4.94,1.57,1.65,1.66
128.57,5.93,4.29,5.96,4.33,-4.33,-4.25,-4.92,1.60,1.63,1.64
129.85,5.93,4.31,5.90,4.29,-4.29,-4.18,-4.89,1.64,1.62,1.62
131.15,5.93,4.32,5.85,4.25,-4.25,-4.11,-4.85,1.68,1.60,1.61
132.46,5.93,4.34,5.80,4.22,-4.22,-4.05,-4.80,1.71,1.59,1.59
133.79,5.79,4.22,5.75,4.19,-4.19,-3.98,-4.74,1.60,1.57,1.58
135.12,5.69,4.15,5.71,4.16,-4.16,-3.91,-4.68,1.53,1.55,1.54
136.48,5.64,4.11,5.67,4.13,-4.13,-3.84,-4.61,1.51,1.53,1.53
137.84,5.49,3.98,5.62,4.11,-4.11,-3.76,-4.54,1.38,1.51,1.51
139.22,5.47,4.00,5.57,4.08,-4.08,-3.69,-4.46,1.39,1.49,1.47
140.61,5.47,4.03,5.53,4.06,-4.06,-3.62,-4.38,1.41,1.46,1.44
142.02,5.47,4.03,5.47,4.03,-4.03,-3.55,-4.30,1.44,1.44,1.44
143.44,5.46,4.05,5.39,3.98,-3.98,-3.47,-4.21,1.48,1.40,1.41
144.87,5.29,3.91,5.30,3.93,-3.93,-3.40,-4.12,1.36,1.37,1.38
146.32,5.25,3.91,5.20,3.87,-3.87,-3.33,-4.02,1.38,1.33,1.34
147.78,5.19,3.87,5.09,3.81,-3.81,-3.26,-3.93,1.38,1.28,1.32
149.26,5.07,3.81,4.96,3.73,-3.73,-3.19,-3.83,1.34,1.23,1.26
150.75,4.91,3.71,4.81,3.64,-3.64,-3.11,-3.73,1.27,1.18,1.20
152.26,4.80,3.66,4.66,3.54,-3.54,-3.04,-3.63,1.26,1.12,1.14
153.78,4.63,3.55,4.50,3.44,-3.44,-2.98,-3.54,1.19,1.06,1.08
155.32,4.36,3.36,4.34,3.34,-3.34,-2.91,-3.44,1.02,1.00,1.00
156.88,4.10,3.17,4.19,3.25,-3.25,-2.84,-3.34,0.85,0.94,0.93
158.44,3.93,3.06,4.06,3.18,-3.18,-2.77,-3.24,0.75,0.88,0.87
160.03,3.81,3.00,3.94,3.11,-3.11,-2.71,-3.15,0.70,0.83,0.81
161.63,3.68,2.92,3.83,3.05,-3.05,-2.64,-3.05,0.63,0.78,0.76
163.24,3.51,2.79,3.73,2.99,-2.99,-2.58,-2.96,0.52,0.74,0.72
164.88,3.42,2.73,3.64,2.94,-2.94,-2.52,-2.86,0.48,0.71,0.69
166.53,3.46,2.80,3.56,2.88,-2.88,-2.46,-2.77,0.58,0.68,0.66
168.19,3.58,2.94,3.50,2.84,-2.84,-2.40,-2.68,0.74,0.66,0.64
169.87,3.65,3.02,3.45,2.80,-2.80,-2.34,-2.60,0.85,0.66,0.63
171.57,3.65,3.02,3.42,2.76,-2.76,-2.28,-2.51,0.89,0.65,0.63
173.29,3.51,2.86,3.38,2.73,-2.73,-2.22,-2.42,0.78,0.66,0.65
175.02,3.42,2.75,3.35,2.69,-2.69,-2.17,-2.34,0.73,0.66,0.67
176.77,3.23,2.56,3.29,2.63,-2.63,-2.11,-2.26,0.60,0.67,0.67
178.54,3.19,2.50,3.23,2.55,-2.55,-2.06,-2.18,0.64,0.68,0.69
180.32,3.11,2.41,3.16,2.48,-2.48,-2.01,-2.10,0.63,0.69,0.70
182.13,3.01,2.29,3.08,2.39,-2.39,-1.95,-2.03,0.62,0.69,0.72
183.95,2.96,2.24,2.97,2.28,-2.28,-1.90,-1.95,0.68,0.70,0.72
185.79,2.96,2.24,2.85,2.15,-2.15,-1.86,-1.88,0.81,0.70,0.72
187.65,2.80,2.09,2.70,2.00,-2.00,-1.81,-1.81,0.80,0.70,0.71
189.52,2.57,1.87,2.57,1.87,-1.87,-1.76,-1.74,0.70,0.70,0.69
191.42,2.45,1.77,2.43,1.75,-1.75,-1.71,-1.67,0.70,0.69,0.68
193.33,2.33,1.66,2.30,1.62,-1.62,-1.67,-1.61,0.71,0.68,0.67
195.27,2.18,1.51,2.18,1.51,-1.51,-1.63,-1.54,0.67,0.67,0.67
197.22,2.08,1.42,2.05,1.39,-1.39,-1.58,-1.48,0.69,0.65,0.66
199.19,1.91,1.28,1.91,1.27,-1.27,-1.54,-1.42,0.64,0.64,0.63
201.18,1.69,1.06,1.78,1.15,-1.15,-1.50,-1.36,0.54,0.63,0.63
203.19,1.55,0.93,1.65,1.04,-1.04,-1.46,-1.30,0.51,0.61,0.62
205.23,1.43,0.83,1.53,0.93,-0.93,-1.42,-1.25,0.50,0.60,0.60
207.28,1.37,0.77,1.41,0.82,-0.82,-1.38,-1.19,0.55,0.59,0.60
209.35,1.37,0.79,1.31,0.73,-0.73,-1.35,-1.14,0.64,0.58,0.58
211.44,1.24,0.68,1.23,0.66,-0.66,-1.31,-1.09,0.58,0.57,0.56
213.56,1.15,0.59,1.14,0.58,-0.58,-1.27,-1.04,0.57,0.56,0.56
215.69,1.14,0.58,1.06,0.51,-0.51,-1.24,-0.99,0.63,0.55,0.56
217.85,0.93,0.39,0.98,0.44,-0.44,-1.20,-0.94,0.49,0.54,0.54
220.03,0.91,0.37,0.91,0.38,-0.38,-1.17,-0.89,0.53,0.53,0.54
222.23,0.91,0.39,0.85,0.32,-0.32,-1.14,-0.85,0.59,0.53,0.52
224.45,0.80,0.28,0.79,0.27,-0.27,-1.11,-0.80,0.53,0.52,0.52
226.70,0.69,0.17,0.74,0.22,-0.22,-1.07,-0.76,0.47,0.52,0.52
228.96,0.68,0.16,0.69,0.18,-0.18,-1.04,-0.72,0.50,0.52,0.52
231.25,0.68,0.16,0.65,0.13,-0.13,-1.01,-0.68,0.55,0.51,0.52
233.57,0.65,0.14,0.60,0.08,-0.08,-0.98,-0.64,0.57,0.52,0.51
235.90,0.47,-0.04,0.56,0.05,-0.05,-0.95,-0.60,0.42,0.52,0.51
238.26,0.46,-0.05,0.53,0.01,-0.01,-0.93,-0.57,0.45,0.52,0.51
240.64,0.46,-0.06,0.50,-0.02,0.02,-0.90,-0.53,0.48,0.52,0.52
243.05,0.46,-0.07,0.47,-0.06,0.06,-0.87,-0.50,0.52,0.53,0.53
245.48,0.46,-0.08,0.43,-0.10,0.10,-0.84,-0.47,0.56,0.54,0.54
247.93,0.46,-0.09,0.39,-0.15,0.15,-0.82,-0.44,0.61,0.54,0.55
250.41,0.46,-0.09,0.36,-0.20,0.20,-0.79,-0.41,0.66,0.55,0.55
252.92,0.41,-0.15,0.31,-0.25,0.25,-0.77,-0.38,0.66,0.56,0.56
255.45,0.26,-0.33,0.25,-0.32,0.32,-0.74,-0.36,0.58,0.57,0.59
258.00,0.23,-0.36,0.19,-0.39,0.39,-0.72,-0.33,0.62,0.59,0.59
260.58,0.23,-0.37,0.13,-0.47,0.47,-0.69,-0.31,0.70,0.60,0.60
263.19,0.21,-0.41,0.07,-0.55,0.55,-0.67,-0.28,0.76,0.62,0.62
265.82,0.02,-0.60,0.01,-0.62,0.62,-0.65,-0.26,0.64,0.63,0.62
268.48,0.00,-0.65,-0.02,-0.67,0.67,-0.62,-0.24,0.67,0.65,0.65
271.16,0.00,-0.67,-0.02,-0.69,0.69,-0.60,-0.22,0.69,0.67,0.67
273.87,0.00,-0.68,0.03,-0.67,0.67,-0.58,-0.20,0.67,0.69,0.68
276.61,0.00,-0.72,0.12,-0.59,0.59,-0.56,-0.18,0.59,0.72,0.72
279.38,0.00,-0.74,0.27,-0.47,0.47,-0.54,-0.16,0.47,0.74,0.74
282.17,0.17,-0.59,0.47,-0.29,0.29,-0.52,-0.15,0.46,0.77,0.76
284.99,0.31,-0.48,0.72,-0.08,0.08,-0.49,-0.13,0.39,0.79,0.79
287.84,0.61,-0.21,0.98,0.15,-0.15,-0.47,-0.11,0.46,0.82,0.82
290.72,1.04,0.19,1.24,0.39,-0.39,-0.45,-0.10,0.65,0.85,0.85
293.63,1.49,0.61,1.51,0.63,-0.63,-0.43,-0.08,0.86,0.88,0.88
296.57,1.97,1.06,1.78,0.88,-0.88,-0.41,-0.07,1.09,0.91,0.91
299.53,2.32,1.38,2.03,1.10,-1.10,-0.39,-0.06,1.22,0.93,0.94
302.53,2.68,1.73,2.26,1.30,-1.30,-0.37,-0.04,1.38,0.96,0.95
305.55,2.93,1.94,2.45,1.47,-1.47,-0.36,-0.03,1.46,0.98,0.99
308.61,2.96,1.95,2.61,1.61,-1.61,-0.34,-0.02,1.35,1.00,1.01
311.69,2.96,1.93,2.71,1.70,-1.70,-0.32,-0.00,1.26,1.02,1.03
314.81,2.82,1.76,2.76,1.73,-1.73,-0.30,0.01,1.09,1.03,1.06
317.96,2.60,1.55,2.76,1.71,-1.71,-0.28,0.02,0.89,1.04,1.05
321.14,2.51,1.46,2.70,1.65,-1.65,-0.26,0.04,0.86,1.05,1.05
324.35,2.51,1.45,2.61,1.54,-1.54,-0.24,0.05,0.97,1.07,1.06
327.59,2.47,1.40,2.50,1.43,-1.43,-0.23,0.06,1.04,1.08,1.07
330.87,2.33,1.25,2.38,1.30,-1.30,-0.21,0.07,1.03,1.09,1.08
334.18,2.18,1.09,2.26,1.17,-1.17,-0.19,0.09,1.01,1.10,1.09
337.52,2.06,0.97,2.15,1.04,-1.04,-0.17,0.10,1.02,1.11,1.09
340.90,2.05,0.93,2.05,0.93,-0.93,-0.15,0.11,1.12,1.12,1.12
344.30,1.87,0.74,1.98,0.84,-0.84,-0.13,0.13,1.03,1.14,1.13
347.75,1.82,0.67,1.92,0.76,-0.76,-0.12,0.14,1.06,1.16,1.15
351.23,1.82,0.64,1.86,0.68,-0.68,-0.10,0.15,1.14,1.18,1.18
354.74,1.82,0.62,1.81,0.61,-0.61,-0.08,0.17,1.21,1.20,1.20
358.28,1.82,0.59,1.75,0.52,-0.52,-0.06,0.18,1.30,1.23,1.23
361.87,1.82,0.57,1.70,0.45,-0.45,-0.05,0.19,1.37,1.25,1.25
365.49,1.66,0.39,1.66,0.39,-0.39,-0.03,0.21,1.27,1.27,1.27
369.14,1.61,0.32,1.62,0.33,-0.33,-0.01,0.22,1.28,1.30,1.29
372.83,1.60,0.28,1.59,0.27,-0.27,0.01,0.23,1.33,1.32,1.32
376.56,1.60,0.26,1.55,0.21,-0.21,0.03,0.25,1.39,1.34,1.34
380.33,1.50,0.13,1.50,0.15,-0.15,0.05,0.26,1.35,1.36,1.37
384.13,1.39,0.00,1.46,0.09,-0.09,0.06,0.28,1.30,1.38,1.39
387.97,1.37,-0.03,1.42,0.02,-0.02,0.08,0.29,1.35,1.39,1.40
391.85,1.37,-0.04,1.37,-0.04,0.04,0.10,0.31,1.41,1.41,1.41
395.77,1.37,-0.05,1.32,-0.10,0.10,0.12,0.32,1.47,1.42,1.42
399.73,1.37,-0.06,1.29,-0.14,0.14,0.14,0.34,1.51,1.43,1.43
403.72,1.28,-0.16,1.27,-0.17,0.17,0.16,0.36,1.45,1.44,1.44
407.76,1.17,-0.27,1.24,-0.20,0.20,0.18,0.37,1.37,1.44,1.44
411.84,1.14,-0.31,1.22,-0.23,0.23,0.20,0.39,1.37,1.45,1.45
415.96,1.14,-0.32,1.19,-0.27,0.27,0.22,0.41,1.41,1.45,1.46
420.12,1.14,-0.32,1.16,-0.30,0.30,0.24,0.42,1.44,1.46,1.46
424.32,1.14,-0.32,1.13,-0.33,0.33,0.26,0.44,1.47,1.46,1.46
428.56,1.14,-0.32,1.11,-0.36,0.36,0.28,0.46,1.50,1.46,1.46
432.85,1.14,-0.32,1.08,-0.39,0.39,0.30,0.47,1.53,1.47,1.46
437.18,1.14,-0.33,1.05,-0.42,0.42,0.32,0.49,1.56,1.47,1.47
441.55,1.14,-0.34,1.04,-0.44,0.44,0.34,0.51,1.58,1.48,1.48
445.96,0.98,-0.50,1.02,-0.46,0.46,0.36,0.53,1.44,1.48,1.48
450.42,0.91,-0.58,1.01,-0.49,0.49,0.39,0.55,1.40,1.49,1.49
454.93,0.91,-0.59,0.99,-0.52,0.52,0.41,0.56,1.43,1.50,1.50
459.48,0.91,-0.60,0.96,-0.56,0.56,0.43,0.58,1.47,1.52,1.51
464.07,0.91,-0.62,0.93,-0.60,0.60,0.46,0.60,1.51,1.53,1.53
468.71,0.91,-0.64,0.90,-0.65,0.65,0.48,0.62,1.56,1.55,1.55
473.40,0.91,-0.65,0.87,-0.70,0.70,0.50,0.64,1.61,1.57,1.56
478.13,0.91,-0.68,0.84,-0.75,0.75,0.53,0.66,1.66,1.59,1.59
482.91,0.91,-0.70,0.81,-0.80,0.80,0.56,0.68,1.71,1.61,1.61
487.74,0.86,-0.78,0.79,-0.85,0.85,0.58,0.70,1.71,1.64,1.64
492.62,0.72,-0.95,0.77,-0.89,0.89,0.61,0.72,1.61,1.66,1.67
497.55,0.68,-1.01,0.76,-0.93,0.93,0.64,0.73,1.61,1.69,1.69
502.52,0.68,-1.04,0.75,-0.96,0.96,0.66,0.75,1.64,1.71,1.72
507.55,0.68,-1.06,0.74,-1.00,1.00,0.69,0.77,1.68,1.74,1.74
512.62,0.68,-1.08,0.72,-1.04,1.04,0.72,0.79,1.72,1.76,1.76
517.75,0.68,-1.10,0.70,-1.08,1.08,0.75,0.81,1.76,1.78,1.78
522.93,0.68,-1.13,0.68,-1.12,1.12,0.78,0.84,1.80,1.80,1.81
528.16,0.68,-1.14,0.66,-1.16,1.16,0.81,0.86,1.84,1.82,1.82
533.44,0.68,-1.16,0.64,-1.20,1.20,0.85,0.88,1.88,1.84,1.84
538.77,0.68,-1.18,0.63,-1.23,1.23,0.88,0.90,1.91,1.86,1.86
544.16,0.68,-1.19,0.61,-1.25,1.25,0.91,0.92,1.93,1.87,1.87
