frequency,raw,error,smoothed,error_smoothed,equalization,parametric_eq,equalized_raw,equalized_smoothed,target
20.00,4.19,-0.38,4.18,-0.38,0.38,-0.95,4.57,4.56,4.57
20.20,4.27,-0.30,4.26,-0.30,0.30,-0.97,4.57,4.56,4.57
20.40,4.34,-0.22,4.34,-0.22,0.22,-1.00,4.56,4.56,4.56
20.61,4.42,-0.15,4.42,-0.14,0.14,-1.03,4.56,4.56,4.56
20.81,4.49,-0.07,4.50,-0.06,0.06,-1.06,4.56,4.56,4.56
21.02,4.57,0.01,4.57,0.01,-0.01,-1.08,4.56,4.56,4.56
21.23,4.64,0.08,4.65,0.09,-0.09,-1.11,4.55,4.56,4.56
21.44,4.72,0.16,4.73,0.17,-0.17,-1.14,4.55,4.56,4.56
21.66,4.79,0.23,4.80,0.24,-0.24,-1.17,4.54,4.56,4.56
21.87,4.87,0.31,4.88,0.32,-0.32,-1.21,4.55,4.56,4.56
22.09,4.94,0.38,4.95,0.40,-0.40,-1.24,4.54,4.55,4.56
22.31,5.02,0.47,5.03,0.47,-0.47,-1.27,4.55,4.55,4.56
22.54,5.10,0.54,5.10,0.55,-0.55,-1.31,4.55,4.55,4.55
22.76,5.18,0.63,5.17,0.63,-0.63,-1.34,4.55,4.55,4.55
22.99,5.26,0.71,5.25,0.70,-0.70,-1.38,4.56,4.55,4.55
23.22,5.33,0.78,5.32,0.78,-0.78,-1.41,4.55,4.54,4.55
23.45,5.40,0.85,5.39,0.85,-0.85,-1.45,4.55,4.54,4.55
23.69,5.47,0.92,5.47,0.92,-0.92,-1.49,4.54,4.54,4.55
23.92,5.55,1.00,5.54,1.00,-1.00,-1.53,4.55,4.54,4.55
24.16,5.61,1.06,5.62,1.07,-1.07,-1.57,4.54,4.54,4.55
24.40,5.67,1.13,5.69,1.14,-1.14,-1.61,4.53,4.54,4.54
24.65,5.73,1.19,5.76,1.21,-1.21,-1.65,4.51,4.54,4.54
24.89,5.79,1.25,5.82,1.28,-1.28,-1.69,4.51,4.54,4.54
25.14,5.87,1.33,5.89,1.35,-1.35,-1.73,4.52,4.54,4.54
25.39,5.96,1.42,5.95,1.42,-1.42,-1.77,4.54,4.53,4.54
25.65,6.04,1.50,6.01,1.48,-1.48,-1.82,4.56,4.53,4.54
25.91,6.13,1.59,6.07,1.54,-1.54,-1.86,4.58,4.53,4.54
26.16,6.18,1.65,6.13,1.61,-1.61,-1.90,4.57,4.52,4.53
26.43,6.21,1.68,6.19,1.67,-1.67,-1.95,4.54,4.52,4.53
26.69,6.24,1.71,6.25,1.73,-1.73,-1.99,4.51,4.52,4.53
26.96,6.27,1.74,6.31,1.79,-1.79,-2.03,4.48,4.52,4.53
27.23,6.34,1.81,6.37,1.85,-1.85,-2.08,4.48,4.52,4.53
27.50,6.41,1.88,6.43,1.92,-1.92,-2.12,4.49,4.52,4.52
27.77,6.47,1.95,6.49,1.98,-1.98,-2.16,4.49,4.51,4.52
28.05,6.54,2.02,6.55,2.04,-2.04,-2.20,4.50,4.51,4.52
28.33,6.61,2.09,6.61,2.11,-2.11,-2.25,4.50,4.51,4.52
28.62,6.68,2.16,6.68,2.17,-2.17,-2.29,4.51,4.51,4.52
28.90,6.76,2.25,6.74,2.23,-2.23,-2.33,4.53,4.51,4.51
29.19,6.82,2.31,6.81,2.30,-2.30,-2.36,4.52,4.51,4.51
29.48,6.88,2.37,6.87,2.36,-2.36,-2.40,4.52,4.51,4.51
29.78,6.94,2.43,6.93,2.43,-2.43,-2.44,4.51,4.51,4.51
30.08,7.00,2.49,6.99,2.49,-2.49,-2.47,4.51,4.51,4.50
30.38,7.06,2.56,7.05,2.55,-2.55,-2.51,4.51,4.50,4.50
30.68,7.12,2.62,7.10,2.61,-2.61,-2.54,4.51,4.50,4.50
30.99,7.18,2.68,7.16,2.67,-2.67,-2.57,4.51,4.49,4.50
31.30,7.22,2.72,7.21,2.73,-2.73,-2.60,4.49,4.48,4.49
31.61,7.26,2.77,7.26,2.78,-2.78,-2.63,4.48,4.48,4.49
31.93,7.30,2.81,7.32,2.84,-2.84,-2.66,4.46,4.48,4.49
32.24,7.35,2.86,7.38,2.90,-2.90,-2.68,4.45,4.48,4.49
32.57,7.41,2.93,7.43,2.96,-2.96,-2.71,4.45,4.48,4.48
32.89,7.46,2.98,7.49,3.02,-3.02,-2.73,4.44,4.47,4.48
33.22,7.52,3.04,7.54,3.07,-3.07,-2.75,4.45,4.47,4.48
33.55,7.59,3.12,7.59,3.13,-3.13,-2.78,4.46,4.46,4.47
33.89,7.66,3.19,7.65,3.19,-3.19,-2.80,4.47,4.46,4.47
34.23,7.73,3.26,7.70,3.24,-3.24,-2.82,4.49,4.46,4.47
34.57,7.79,3.33,7.75,3.30,-3.30,-2.84,4.49,4.45,4.46
34.92,7.86,3.40,7.81,3.35,-3.35,-2.86,4.50,4.45,4.46
35.27,7.89,3.43,7.86,3.41,-3.41,-2.88,4.48,4.45,4.45
35.62,7.89,3.44,7.91,3.46,-3.46,-2.90,4.43,4.45,4.45
35.97,7.90,3.45,7.95,3.51,-3.51,-2.92,4.39,4.44,4.45
36.33,7.96,3.52,8.00,3.56,-3.56,-2.94,4.40,4.44,4.44
36.70,8.03,3.59,8.04,3.61,-3.61,-2.97,4.42,4.44,4.44
37.06,8.09,3.66,8.08,3.65,-3.65,-2.99,4.44,4.43,4.43
37.43,8.13,3.70,8.13,3.70,-3.70,-3.02,4.43,4.42,4.43
37.81,8.18,3.76,8.17,3.75,-3.75,-3.04,4.43,4.42,4.42
38.19,8.22,3.80,8.21,3.79,-3.79,-3.07,4.43,4.41,4.42
38.57,8.25,3.83,8.25,3.84,-3.84,-3.10,4.41,4.41,4.41
38.95,8.29,3.88,8.29,3.89,-3.89,-3.13,4.40,4.40,4.41
39.34,8.33,3.93,8.33,3.94,-3.94,-3.16,4.39,4.40,4.40
39.74,8.38,3.98,8.38,3.98,-3.98,-3.19,4.40,4.39,4.40
40.14,8.42,4.03,8.42,4.03,-4.03,-3.23,4.39,4.39,4.39
40.54,8.45,4.06,8.46,4.08,-4.08,-3.27,4.37,4.39,4.39
40.94,8.49,4.11,8.50,4.12,-4.12,-3.31,4.37,4.38,4.38
41.35,8.53,4.15,8.54,4.17,-4.17,-3.35,4.36,4.38,4.38
41.76,8.57,4.20,8.58,4.21,-4.21,-3.40,4.36,4.37,4.37
42.18,8.61,4.25,8.61,4.25,-4.25,-3.45,4.36,4.36,4.36
42.60,8.65,4.29,8.64,4.29,-4.29,-3.50,4.36,4.35,4.36
43.03,8.69,4.34,8.67,4.33,-4.33,-3.55,4.36,4.34,4.35
43.46,8.74,4.40,8.71,4.37,-4.37,-3.60,4.37,4.34,4.34
43.90,8.78,4.44,8.73,4.41,-4.41,-3.66,4.37,4.33,4.34
44.33,8.79,4.46,8.76,4.44,-4.44,-3.72,4.35,4.32,4.33
44.78,8.79,4.47,8.79,4.48,-4.48,-3.79,4.31,4.31,4.32
45.23,8.79,4.48,8.82,4.52,-4.52,-3.85,4.27,4.30,4.31
45.68,8.79,4.49,8.85,4.56,-4.56,-3.92,4.23,4.30,4.30
46.13,8.82,4.52,8.89,4.60,-4.60,-3.99,4.22,4.29,4.30
46.60,8.91,4.62,8.92,4.64,-4.64,-4.07,4.27,4.28,4.29
47.06,8.99,4.71,8.94,4.68,-4.68,-4.15,4.31,4.27,4.28
47.53,8.99,4.72,8.97,4.72,-4.72,-4.23,4.27,4.26,4.27
48.01,8.99,4.73,9.01,4.76,-4.76,-4.31,4.23,4.25,4.26
48.49,9.04,4.79,9.04,4.80,-4.80,-4.39,4.24,4.24,4.25
48.97,9.09,4.85,9.08,4.85,-4.85,-4.48,4.24,4.23,4.24
49.46,9.14,4.91,9.12,4.89,-4.89,-4.57,4.25,4.23,4.23
49.96,9.19,4.97,9.16,4.93,-4.93,-4.66,4.26,4.22,4.22
50.46,9.19,4.98,9.19,4.98,-4.98,-4.75,4.21,4.21,4.21
50.96,9.19,4.99,9.22,5.02,-5.02,-4.84,4.17,4.20,4.20
51.47,9.22,5.03,9.25,5.06,-5.06,-4.94,4.16,4.19,4.19
51.99,9.26,5.08,9.28,5.10,-5.10,-5.03,4.15,4.17,4.18
52.51,9.33,5.16,9.31,5.15,-5.15,-5.13,4.18,4.16,4.16
53.03,9.39,5.24,9.34,5.19,-5.19,-5.22,4.20,4.15,4.15
53.56,9.39,5.25,9.37,5.23,-5.23,-5.32,4.16,4.14,4.14
54.10,9.39,5.26,9.40,5.27,-5.27,-5.41,4.12,4.12,4.13
54.64,9.39,5.28,9.43,5.32,-5.32,-5.51,4.07,4.11,4.11
55.18,9.41,5.31,9.45,5.36,-5.36,-5.60,4.05,4.10,4.10
55.74,9.46,5.37,9.48,5.40,-5.40,-5.69,4.06,4.08,4.09
56.29,9.52,5.45,9.51,5.44,-5.44,-5.77,4.08,4.07,4.07
56.86,9.58,5.52,9.54,5.49,-5.49,-5.86,4.09,4.06,4.06
57.42,9.59,5.55,9.57,5.53,-5.53,-5.94,4.06,4.04,4.04
58.00,9.59,5.56,9.60,5.57,-5.57,-6.02,4.02,4.02,4.03
58.58,9.63,5.62,9.62,5.62,-5.62,-6.09,4.01,4.00,4.01
59.16,9.66,5.66,9.64,5.66,-5.66,-6.16,4.00,3.99,4.00
59.76,9.68,5.70,9.67,5.70,-5.70,-6.22,3.98,3.97,3.98
60.35,9.69,5.73,9.70,5.74,-5.74,-6.28,3.95,3.96,3.96
60.96,9.69,5.74,9.73,5.78,-5.78,-6.33,3.91,3.94,3.95
61.57,9.75,5.82,9.75,5.83,-5.83,-6.37,3.92,3.93,3.93
62.18,9.79,5.88,9.77,5.86,-5.86,-6.41,3.92,3.91,3.91
62.80,9.79,5.90,9.79,5.90,-5.90,-6.45,3.89,3.89,3.89
63.43,9.79,5.92,9.81,5.94,-5.94,-6.47,3.85,3.87,3.87
64.07,9.80,5.95,9.83,5.97,-5.97,-6.49,3.83,3.85,3.85
64.71,9.86,6.03,9.84,6.01,-6.01,-6.51,3.85,3.83,3.83
65.35,9.89,6.08,9.85,6.04,-6.04,-6.52,3.85,3.81,3.81
66.01,9.89,6.10,9.86,6.08,-6.08,-6.52,3.81,3.78,3.79
66.67,9.89,6.12,9.87,6.11,-6.11,-6.52,3.78,3.76,3.77
67.33,9.89,6.14,9.88,6.14,-6.14,-6.52,3.75,3.74,3.75
68.01,9.89,6.16,9.89,6.17,-6.17,-6.51,3.72,3.72,3.73
68.69,9.89,6.18,9.90,6.20,-6.20,-6.49,3.69,3.69,3.71
69.37,9.89,6.21,9.91,6.24,-6.24,-6.48,3.65,3.67,3.68
70.07,9.89,6.23,9.92,6.27,-6.27,-6.46,3.62,3.65,3.66
70.77,9.89,6.25,9.93,6.31,-6.31,-6.44,3.58,3.63,3.64
71.48,9.89,6.28,9.94,6.34,-6.34,-6.42,3.55,3.60,3.61
72.19,9.91,6.32,9.95,6.37,-6.37,-6.40,3.54,3.58,3.59
72.91,9.99,6.43,9.96,6.40,-6.40,-6.38,3.59,3.55,3.56
73.64,10.00,6.46,9.96,6.43,-6.43,-6.35,3.56,3.53,3.54
74.38,10.00,6.49,9.97,6.46,-6.46,-6.33,3.54,3.50,3.51
75.12,10.00,6.51,9.97,6.49,-6.49,-6.31,3.51,3.48,3.49
75.87,10.00,6.54,9.97,6.52,-6.52,-6.29,3.48,3.45,3.46
76.63,10.00,6.57,9.97,6.54,-6.54,-6.28,3.46,3.42,3.43
77.40,10.00,6.59,9.96,6.56,-6.56,-6.26,3.44,3.40,3.40
78.17,9.97,6.59,9.95,6.58,-6.58,-6.25,3.39,3.37,3.38
78.95,9.89,6.54,9.94,6.60,-6.60,-6.24,3.29,3.34,3.35
79.74,9.89,6.57,9.93,6.62,-6.62,-6.24,3.27,3.31,3.32
80.54,9.89,6.60,9.92,6.64,-6.64,-6.24,3.25,3.28,3.29
81.35,9.89,6.63,9.91,6.66,-6.66,-6.24,3.23,3.25,3.26
82.16,9.89,6.66,9.90,6.68,-6.68,-6.25,3.21,3.22,3.23
82.98,9.89,6.69,9.89,6.70,-6.70,-6.26,3.19,3.19,3.20
83.81,9.89,6.72,9.89,6.72,-6.72,-6.27,3.17,3.17,3.17
84.65,9.89,6.75,9.88,6.75,-6.75,-6.29,3.14,3.14,3.14
85.50,9.89,6.78,9.88,6.77,-6.77,-6.31,3.12,3.10,3.11
86.35,9.89,6.81,9.88,6.80,-6.80,-6.34,3.09,3.07,3.08
87.22,9.89,6.84,9.88,6.84,-6.84,-6.37,3.05,3.05,3.05
88.09,9.90,6.88,9.89,6.87,-6.87,-6.41,3.03,3.02,3.02
88.97,9.90,6.91,9.89,6.91,-6.91,-6.45,2.99,2.99,2.99
89.86,9.90,6.95,9.89,6.94,-6.94,-6.50,2.96,2.95,2.95
90.76,9.90,6.98,9.90,6.98,-6.98,-6.55,2.91,2.91,2.92
91.66,9.90,7.01,9.91,7.03,-7.03,-6.61,2.87,2.88,2.89
92.58,9.90,7.04,9.92,7.07,-7.07,-6.67,2.83,2.85,2.86
93.51,9.90,7.08,9.94,7.12,-7.12,-6.74,2.78,2.81,2.82
94.44,9.94,7.15,9.95,7.18,-7.18,-6.81,2.76,2.78,2.79
95.39,10.00,7.24,9.98,7.23,-7.23,-6.88,2.77,2.75,2.76
96.34,10.00,7.27,10.00,7.28,-7.28,-6.96,2.72,2.72,2.73
97.30,9.99,7.30,10.03,7.34,-7.34,-7.04,2.65,2.69,2.69
98.28,10.00,7.34,10.05,7.39,-7.39,-7.13,2.61,2.66,2.66
99.26,10.09,7.46,10.07,7.45,-7.45,-7.22,2.64,2.63,2.63
100.25,10.14,7.55,10.08,7.50,-7.50,-7.32,2.64,2.59,2.59
101.25,10.13,7.57,10.10,7.55,-7.55,-7.41,2.58,2.55,2.56
102.27,10.13,7.60,10.11,7.60,-7.60,-7.51,2.53,2.52,2.53
103.29,10.17,7.68,10.12,7.64,-7.64,-7.62,2.53,2.48,2.49
104.32,10.19,7.73,10.14,7.69,-7.69,-7.72,2.50,2.45,2.46
105.37,10.17,7.74,10.14,7.73,-7.73,-7.83,2.44,2.41,2.43
106.42,10.14,7.75,10.15,7.77,-7.77,-7.93,2.37,2.38,2.39
107.48,10.12,7.76,10.16,7.81,-7.81,-8.04,2.31,2.35,2.36
108.56,10.09,7.76,10.17,7.85,-7.85,-8.15,2.24,2.32,2.33
109.64,10.07,7.78,10.17,7.89,-7.89,-8.25,2.18,2.28,2.29
110.74,10.13,7.87,10.17,7.92,-7.92,-8.35,2.21,2.25,2.26
111.85,10.23,8.00,10.17,7.96,-7.96,-8.45,2.27,2.22,2.23
112.97,10.23,8.03,10.18,7.99,-7.99,-8.55,2.24,2.19,2.20
114.10,10.22,8.05,10.19,8.03,-8.03,-8.64,2.19,2.16,2.17
115.24,10.22,8.08,10.20,8.06,-8.06,-8.73,2.16,2.13,2.14
116.39,10.22,8.10,10.21,8.10,-8.10,-8.81,2.12,2.11,2.12
117.55,10.22,8.13,10.22,8.13,-8.13,-8.89,2.09,2.09,2.09
118.73,10.23,8.16,10.24,8.17,-8.17,-8.96,2.06,2.07,2.07
119.92,10.24,8.19,10.25,8.20,-8.20,-9.01,2.04,2.05,2.05
121.12,10.24,8.22,10.26,8.23,-8.23,-9.07,2.01,2.03,2.02
122.33,10.25,8.25,10.26,8.26,-8.26,-9.11,1.99,2.01,2.00
123.55,10.26,8.28,10.26,8.28,-8.28,-9.14,1.98,1.98,1.98
124.79,10.27,8.31,10.26,8.31,-8.31,-9.16,1.96,1.96,1.96
126.03,10.27,8.32,10.27,8.33,-8.33,-9.17,1.94,1.94,1.95
127.29,10.28,8.35,10.28,8.36,-8.36,-9.17,1.92,1.92,1.93
128.57,10.29,8.38,10.29,8.38,-8.38,-9.16,1.91,1.91,1.91
129.85,10.29,8.40,10.29,8.40,-8.40,-9.15,1.89,1.89,1.89
131.15,10.30,8.43,10.30,8.43,-8.43,-9.12,1.87,1.87,1.87
132.46,10.30,8.45,10.30,8.45,-8.45,-9.09,1.85,1.85,1.85
133.79,10.31,8.48,10.31,8.47,-8.47,-9.04,1.84,1.83,1.83
135.12,10.31,8.50,10.31,8.50,-8.50,-8.99,1.81,1.81,1.81
136.48,10.31,8.52,10.31,8.52,-8.52,-8.94,1.79,1.79,1.79
137.84,10.32,8.55,10.32,8.55,-8.55,-8.88,1.77,1.77,1.77
139.22,10.32,8.57,10.32,8.57,-8.57,-8.81,1.75,1.75,1.75
140.61,10.32,8.59,10.32,8.60,-8.60,-8.74,1.72,1.72,1.73
142.02,10.32,8.61,10.32,8.62,-8.62,-8.67,1.70,1.70,1.71
143.44,10.32,8.63,10.32,8.65,-8.65,-8.60,1.67,1.68,1.69
144.87,10.32,8.65,10.33,8.67,-8.67,-8.52,1.65,1.66,1.67
146.32,10.32,8.67,10.33,8.70,-8.70,-8.45,1.62,1.64,1.65
147.78,10.32,8.69,10.34,8.72,-8.72,-8.38,1.60,1.62,1.63
149.26,10.32,8.71,10.35,8.73,-8.73,-8.30,1.59,1.61,1.61
150.75,10.32,8.73,10.34,8.74,-8.74,-8.23,1.58,1.60,1.59
152.26,10.32,8.75,10.33,8.75,-8.75,-8.16,1.57,1.58,1.57
153.78,10.32,8.77,10.31,8.76,-8.76,-8.09,1.56,1.55,1.55
155.32,10.32,8.78,10.28,8.76,-8.76,-8.03,1.56,1.52,1.54
156.88,10.32,8.80,10.25,8.75,-8.75,-7.97,1.57,1.50,1.52
158.44,10.32,8.81,10.22,8.74,-8.74,-7.91,1.58,1.48,1.50
160.03,10.30,8.81,10.19,8.73,-8.73,-7.86,1.57,1.46,1.49
161.63,10.19,8.72,10.16,8.72,-8.72,-7.81,1.47,1.44,1.47
163.24,10.13,8.68,10.13,8.71,-8.71,-7.77,1.42,1.42,1.45
164.88,10.03,8.60,10.10,8.70,-8.70,-7.73,1.33,1.40,1.43
166.53,9.94,8.53,10.08,8.70,-8.70,-7.70,1.24,1.38,1.41
168.19,9.90,8.50,10.06,8.70,-8.70,-7.67,1.20,1.36,1.40
169.87,9.90,8.52,10.04,8.70,-8.70,-7.65,1.20,1.34,1.38
171.57,10.05,8.69,10.03,8.70,-8.70,-7.63,1.35,1.33,1.36
173.29,10.08,8.74,10.02,8.71,-8.71,-7.62,1.37,1.31,1.34
175.02,10.08,8.75,10.02,8.72,-8.72,-7.62,1.36,1.30,1.33
176.77,10.08,8.77,10.02,8.74,-8.74,-7.62,1.34,1.29,1.31
178.54,10.07,8.77,10.04,8.75,-8.75,-7.62,1.32,1.28,1.30
180.32,10.08,8.78,10.06,8.77,-8.77,-7.63,1.31,1.29,1.30
182.13,10.08,8.79,10.07,8.78,-8.78,-7.65,1.30,1.30,1.29
183.95,10.09,8.80,10.09,8.79,-8.79,-7.67,1.30,1.31,1.29
185.79,10.11,8.82,10.10,8.79,-8.79,-7.70,1.32,1.31,1.29
187.65,10.10,8.81,10.10,8.79,-8.79,-7.74,1.31,1.31,1.29
189.52,10.05,8.75,10.09,8.79,-8.79,-7.77,1.26,1.30,1.30
191.42,10.05,8.75,10.07,8.78,-8.78,-7.82,1.27,1.29,1.30
193.33,10.06,8.75,10.06,8.77,-8.77,-7.87,1.29,1.29,1.31
195.27,10.08,8.77,10.05,8.75,-8.75,-7.92,1.32,1.30,1.31
197.22,10.09,8.77,10.04,8.74,-8.74,-7.98,1.35,1.30,1.32
199.19,10.06,8.74,10.03,8.72,-8.72,-8.04,1.34,1.31,1.32
201.18,10.02,8.70,10.01,8.70,-8.70,-8.11,1.32,1.31,1.32
203.19,9.95,8.63,9.98,8.68,-8.68,-8.18,1.27,1.30,1.32
205.23,9.92,8.61,9.96,8.66,-8.66,-8.25,1.26,1.30,1.31
207.28,9.92,8.61,9.94,8.64,-8.64,-8.32,1.28,1.30,1.31
209.35,9.91,8.61,9.91,8.62,-8.62,-8.40,1.29,1.29,1.30
211.44,9.91,8.62,9.88,8.60,-8.60,-8.48,1.31,1.29,1.29
213.56,9.86,8.58,9.85,8.57,-8.57,-8.56,1.29,1.28,1.28
215.69,9.81,8.54,9.82,8.55,-8.55,-8.64,1.26,1.27,1.27
217.85,9.80,8.54,9.78,8.52,-8.52,-8.71,1.28,1.26,1.26
220.03,9.73,8.48,9.74,8.49,-8.49,-8.79,1.24,1.25,1.25
222.23,9.69,8.45,9.71,8.46,-8.46,-8.86,1.23,1.24,1.24
224.45,9.69,8.45,9.67,8.43,-8.43,-8.93,1.26,1.24,1.24
226.70,9.67,8.43,9.64,8.39,-8.39,-9.00,1.28,1.24,1.24
228.96,9.60,8.36,9.60,8.36,-8.36,-9.06,1.24,1.24,1.24
231.25,9.54,8.30,9.56,8.32,-8.32,-9.11,1.22,1.24,1.24
233.57,9.51,8.27,9.53,8.28,-8.28,-9.15,1.23,1.24,1.24
235.90,9.48,8.23,9.49,8.24,-8.24,-9.19,1.24,1.25,1.25
238.26,9.43,8.17,9.45,8.20,-8.20,-9.22,1.23,1.26,1.26
240.64,9.37,8.10,9.42,8.15,-8.15,-9.23,1.22,1.27,1.27
243.05,9.37,8.09,9.39,8.10,-8.10,-9.24,1.27,1.28,1.28
245.48,9.39,8.09,9.35,8.06,-8.06,-9.23,1.33,1.29,1.30
247.93,9.33,8.02,9.31,8.01,-8.01,-9.21,1.32,1.30,1.31
250.41,9.26,7.94,9.27,7.95,-7.95,-9.17,1.31,1.31,1.32
252.92,9.24,7.91,9.22,7.90,-7.90,-9.13,1.34,1.32,1.33
255.45,9.20,7.86,9.17,7.84,-7.84,-9.07,1.36,1.33,1.34
258.00,9.16,7.81,9.12,7.78,-7.78,-9.00,1.38,1.34,1.35
260.58,9.05,7.70,9.07,7.72,-7.72,-8.91,1.33,1.35,1.35
263.19,8.99,7.63,9.01,7.66,-7.66,-8.82,1.33,1.35,1.36
265.82,8.98,7.62,8.94,7.59,-7.59,-8.71,1.39,1.35,1.36
268.48,8.86,7.50,8.87,7.52,-7.52,-8.60,1.34,1.35,1.36
271.16,8.79,7.43,8.80,7.45,-7.45,-8.48,1.34,1.35,1.36
273.87,8.77,7.42,8.72,7.37,-7.37,-8.34,1.40,1.35,1.35
276.61,8.67,7.32,8.65,7.30,-7.30,-8.20,1.37,1.35,1.35
279.38,8.54,7.19,8.59,7.22,-7.22,-8.06,1.32,1.36,1.35
282.17,8.47,7.11,8.51,7.15,-7.15,-7.91,1.32,1.36,1.36
284.99,8.45,7.09,8.43,7.07,-7.07,-7.75,1.38,1.36,1.36
287.84,8.34,6.97,8.36,7.00,-7.00,-7.59,1.34,1.36,1.36
290.72,8.25,6.88,8.29,6.92,-6.92,-7.43,1.33,1.37,1.37
293.63,8.20,6.82,8.23,6.85,-6.85,-7.27,1.35,1.38,1.38
296.57,8.22,6.83,8.15,6.77,-6.77,-7.11,1.45,1.38,1.39
299.53,8.10,6.70,8.09,6.70,-6.70,-6.94,1.40,1.39,1.40
302.53,8.05,6.64,8.02,6.63,-6.63,-6.78,1.42,1.40,1.41
305.55,8.02,6.60,7.96,6.56,-6.56,-6.62,1.46,1.40,1.42
308.61,7.86,6.44,7.90,6.49,-6.49,-6.46,1.37,1.41,1.42
311.69,7.77,6.34,7.84,6.42,-6.42,-6.30,1.35,1.42,1.43
314.81,7.75,6.32,7.79,6.36,-6.36,-6.14,1.39,1.43,1.43
317.96,7.78,6.34,7.73,6.30,-6.30,-5.98,1.48,1.43,1.44
321.14,7.72,6.28,7.67,6.24,-6.24,-5.83,1.48,1.43,1.44
324.35,7.56,6.12,7.61,6.19,-6.19,-5.68,1.37,1.43,1.44
327.59,7.53,6.09,7.56,6.13,-6.13,-5.53,1.40,1.42,1.44
330.87,7.54,6.10,7.51,6.08,-6.08,-5.39,1.46,1.43,1.44
334.18,7.44,6.00,7.46,6.03,-6.03,-5.25,1.41,1.44,1.44
337.52,7.41,5.97,7.41,5.98,-5.98,-5.11,1.43,1.43,1.44
340.90,7.37,5.93,7.36,5.93,-5.93,-4.97,1.44,1.44,1.44
344.30,7.34,5.90,7.32,5.88,-5.88,-4.84,1.46,1.44,1.44
347.75,7.27,5.83,7.27,5.82,-5.82,-4.71,1.45,1.45,1.44
351.23,7.16,5.72,7.22,5.77,-5.77,-4.59,1.39,1.45,1.44
354.74,7.10,5.65,7.16,5.70,-5.70,-4.47,1.40,1.46,1.45
358.28,7.14,5.69,7.10,5.64,-5.64,-4.35,1.50,1.47,1.45
361.87,7.12,5.66,7.03,5.57,-5.57,-4.23,1.55,1.47,1.46
365.49,7.02,5.55,6.95,5.49,-5.49,-4.12,1.53,1.47,1.47
369.14,6.83,5.36,6.88,5.41,-5.41,-4.01,1.42,1.47,1.47
372.83,6.79,5.31,6.80,5.32,-5.32,-3.91,1.47,1.48,1.48
376.56,6.76,5.27,6.70,5.23,-5.23,-3.80,1.53,1.47,1.49
380.33,6.67,5.18,6.61,5.13,-5.13,-3.70,1.54,1.47,1.49
384.13,6.57,5.07,6.51,5.04,-5.04,-3.61,1.53,1.47,1.50
387.97,6.43,4.93,6.42,4.94,-4.94,-3.51,1.49,1.48,1.50
391.85,6.24,4.74,6.33,4.85,-4.85,-3.42,1.39,1.48,1.50
395.77,6.12,4.62,6.23,4.75,-4.75,-3.33,1.37,1.48,1.50
399.73,6.09,4.59,6.13,4.66,-4.66,-3.25,1.43,1.48,1.50
403.72,6.06,4.56,6.05,4.57,-4.57,-3.16,1.49,1.48,1.50
407.76,6.01,4.51,5.96,4.48,-4.48,-3.08,1.53,1.48,1.50
411.84,5.83,4.33,5.89,4.39,-4.39,-3.00,1.44,1.50,1.50
415.96,5.76,4.25,5.80,4.31,-4.31,-2.92,1.45,1.49,1.51
420.12,5.77,4.26,5.72,4.23,-4.23,-2.85,1.54,1.49,1.51
424.32,5.72,4.19,5.65,4.15,-4.15,-2.77,1.57,1.50,1.53
428.56,5.65,4.11,5.61,4.08,-4.08,-2.70,1.57,1.54,1.54
432.85,5.58,4.01,5.58,4.00,-4.00,-2.63,1.58,1.58,1.57
437.18,5.49,3.89,5.54,3.93,-3.93,-2.56,1.56,1.61,1.60
441.55,5.46,3.83,5.50,3.85,-3.85,-2.49,1.61,1.65,1.63
445.96,5.35,3.67,5.46,3.77,-3.77,-2.42,1.58,1.69,1.68
450.42,5.33,3.61,5.42,3.70,-3.70,-2.35,1.63,1.73,1.72
454.93,5.39,3.61,5.38,3.61,-3.61,-2.29,1.78,1.77,1.78
459.48,5.26,3.43,5.35,3.53,-3.53,-2.22,1.73,1.82,1.83
464.07,5.44,3.55,5.31,3.44,-3.44,-2.16,1.99,1.87,1.89
468.71,5.47,3.53,5.29,3.36,-3.36,-2.10,2.11,1.93,1.94
473.40,5.35,3.35,5.25,3.26,-3.26,-2.03,2.08,1.99,2.00
478.13,5.15,3.09,5.21,3.17,-3.17,-1.97,1.98,2.04,2.06
482.91,5.06,2.95,5.16,3.07,-3.07,-1.91,1.99,2.10,2.11
487.74,5.07,2.92,5.11,2.96,-2.96,-1.84,2.11,2.15,2.15
492.62,5.01,2.81,5.04,2.85,-2.85,-1.78,2.16,2.18,2.20
497.55,4.91,2.68,4.96,2.74,-2.74,-1.72,2.17,2.22,2.23
502.52,4.84,2.58,4.86,2.62,-2.62,-1.65,2.22,2.24,2.26
507.55,4.88,2.60,4.75,2.49,-2.49,-1.59,2.39,2.25,2.28
512.62,4.78,2.49,4.62,2.36,-2.36,-1.52,2.42,2.26,2.29
517.75,4.54,2.25,4.48,2.23,-2.23,-1.46,2.31,2.25,2.29
522.93,4.28,1.99,4.34,2.08,-2.08,-1.40,2.20,2.25,2.29
528.16,4.12,1.85,4.19,1.94,-1.94,-1.33,2.18,2.25,2.27
533.44,4.03,1.78,4.03,1.78,-1.78,-1.26,2.25,2.25,2.25
538.77,3.88,1.65,3.85,1.62,-1.62,-1.20,2.26,2.23,2.23
544.16,3.63,1.43,3.66,1.45,-1.45,-1.13,2.18,2.20,2.20
549.60,3.47,1.30,3.45,1.28,-1.28,-1.06,2.19,2.17,2.17
555.10,3.28,1.14,3.24,1.10,-1.10,-1.00,2.18,2.14,2.14
560.65,3.02,0.91,3.02,0.92,-0.92,-0.93,2.10,2.10,2.11
566.25,2.80,0.72,2.80,0.73,-0.73,-0.86,2.07,2.07,2.08
571.92,2.59,0.53,2.59,0.53,-0.53,-0.79,2.06,2.05,2.06
577.64,2.40,0.36,2.38,0.34,-0.34,-0.72,2.06,2.04,2.04
583.41,2.16,0.14,2.17,0.14,-0.14,-0.65,2.02,2.03,2.02
589.25,1.96,-0.05,1.96,-0.07,0.07,-0.58,2.03,2.02,2.01
595.14,1.72,-0.29,1.74,-0.27,0.27,-0.51,1.99,2.01,2.01
601.09,1.44,-0.58,1.55,-0.48,0.48,-0.44,1.92,2.02,2.02
607.10,1.31,-0.72,1.36,-0.68,0.68,-0.37,1.99,2.04,2.03
613.17,1.18,-0.87,1.17,-0.89,0.89,-0.30,2.07,2.06,2.05
619.30,0.97,-1.11,0.99,-1.10,1.10,-0.22,2.07,2.09,2.08
625.50,0.83,-1.28,0.82,-1.30,1.30,-0.15,2.13,2.12,2.11
631.75,0.66,-1.49,0.65,-1.51,1.51,-0.07,2.17,2.16,2.15
638.07,0.48,-1.72,0.48,-1.72,1.72,-0.00,2.20,2.20,2.20
644.45,0.31,-1.94,0.32,-1.92,1.92,0.07,2.23,2.24,2.25
650.89,0.16,-2.14,0.16,-2.13,2.13,0.15,2.29,2.29,2.30
657.40,0.04,-2.31,0.01,-2.33,2.33,0.23,2.37,2.34,2.35
663.98,-0.09,-2.49,-0.14,-2.54,2.54,0.30,2.45,2.39,2.40
670.62,-0.29,-2.74,-0.30,-2.74,2.74,0.38,2.45,2.44,2.45
677.32,-0.49,-2.98,-0.46,-2.94,2.94,0.46,2.45,2.48,2.49
684.10,-0.64,-3.17,-0.62,-3.14,3.14,0.54,2.50,2.52,2.53
690.94,-0.79,-3.36,-0.78,-3.34,3.34,0.62,2.55,2.56,2.57
697.85,-0.94,-3.54,-0.94,-3.53,3.53,0.70,2.59,2.58,2.60
704.83,-1.08,-3.71,-1.11,-3.72,3.72,0.78,2.64,2.61,2.63
711.87,-1.23,-3.87,-1.27,-3.90,3.90,0.86,2.67,2.63,2.64
718.99,-1.40,-4.06,-1.44,-4.08,4.08,0.95,2.68,2.64,2.65
726.18,-1.58,-4.24,-1.61,-4.26,4.26,1.03,2.68,2.65,2.66
733.44,-1.75,-4.42,-1.77,-4.42,4.42,1.12,2.67,2.66,2.67
740.78,-1.92,-4.59,-1.92,-4.58,4.58,1.20,2.66,2.66,2.67
748.19,-2.05,-4.72,-2.06,-4.74,4.74,1.29,2.69,2.67,2.67
755.67,-2.21,-4.88,-2.20,-4.88,4.88,1.38,2.67,2.68,2.67
763.23,-2.38,-5.05,-2.33,-5.01,5.01,1.46,2.63,2.68,2.67
