frequency,raw,error,smoothed,error_smoothed,equalization,parametric_eq,fixed_band_eq,equalized_raw,equalized_smoothed,target
20.00,9.90,6.43,9.91,6.42,-6.42,-6.15,-2.26,3.48,3.49,3.47
20.20,9.85,6.34,9.85,6.33,-6.33,-6.12,-2.33,3.52,3.53,3.51
20.40,9.79,6.24,9.79,6.24,-6.24,-6.09,-2.40,3.55,3.55,3.55
20.61,9.73,6.15,9.73,6.15,-6.15,-6.05,-2.47,3.58,3.58,3.58
20.81,9.68,6.06,9.67,6.06,-6.06,-6.02,-2.54,3.61,3.61,3.62
21.02,9.63,5.97,9.62,5.98,-5.98,-5.99,-2.61,3.65,3.64,3.66
21.23,9.57,5.89,9.56,5.90,-5.90,-5.96,-2.69,3.67,3.66,3.68
21.44,9.52,5.82,9.51,5.82,-5.82,-5.93,-2.77,3.69,3.68,3.70
21.66,9.47,5.75,9.45,5.75,-5.75,-5.90,-2.85,3.72,3.70,3.72
21.87,9.42,5.69,9.40,5.68,-5.68,-5.87,-2.93,3.74,3.72,3.73
22.09,9.37,5.62,9.35,5.61,-5.61,-5.83,-3.02,3.76,3.74,3.75
22.31,9.32,5.56,9.30,5.55,-5.55,-5.80,-3.10,3.77,3.76,3.76
22.54,9.26,5.49,9.25,5.48,-5.48,-5.77,-3.19,3.78,3.77,3.77
22.76,9.20,5.42,9.20,5.42,-5.42,-5.74,-3.29,3.77,3.78,3.78
22.99,9.15,5.37,9.15,5.37,-5.37,-5.71,-3.38,3.78,3.79,3.78
23.22,9.11,5.32,9.11,5.31,-5.31,-5.68,-3.48,3.80,3.80,3.79
23.45,9.06,5.26,9.06,5.26,-5.26,-5.65,-3.58,3.80,3.80,3.80
23.69,9.02,5.21,9.02,5.21,-5.21,-5.62,-3.68,3.81,3.81,3.81
23.92,8.98,5.16,8.99,5.16,-5.16,-5.59,-3.78,3.81,3.82,3.82
24.16,8.95,5.11,8.95,5.12,-5.12,-5.57,-3.89,3.83,3.83,3.84
24.40,8.92,5.06,8.92,5.08,-5.08,-5.54,-3.99,3.83,3.84,3.85
24.65,8.90,5.04,8.90,5.05,-5.05,-5.51,-4.10,3.85,3.85,3.85
24.89,8.89,5.02,8.88,5.02,-5.02,-5.48,-4.21,3.87,3.86,3.86
25.14,8.87,4.99,8.87,4.99,-4.99,-5.45,-4.32,3.87,3.87,3.87
25.39,8.85,4.96,8.86,4.97,-4.97,-5.42,-4.43,3.87,3.88,3.88
25.65,8.84,4.93,8.85,4.95,-4.95,-5.40,-4.55,3.88,3.90,3.90
25.91,8.84,4.94,8.85,4.94,-4.94,-5.37,-4.66,3.90,3.91,3.90
26.16,8.84,4.93,8.84,4.93,-4.93,-5.34,-4.77,3.91,3.92,3.91
26.43,8.85,4.93,8.84,4.92,-4.92,-5.32,-4.88,3.93,3.93,3.92
26.69,8.86,4.93,8.84,4.91,-4.91,-5.29,-4.99,3.95,3.93,3.93
26.96,8.86,4.91,8.85,4.90,-4.90,-5.27,-5.10,3.95,3.94,3.95
27.23,8.86,4.90,8.85,4.90,-4.90,-5.24,-5.21,3.96,3.95,3.96
27.50,8.86,4.89,8.85,4.89,-4.89,-5.21,-5.32,3.97,3.96,3.97
27.77,8.86,4.89,8.85,4.88,-4.88,-5.19,-5.42,3.98,3.97,3.97
28.05,8.86,4.87,8.86,4.87,-4.87,-5.16,-5.52,3.98,3.98,3.99
28.33,8.86,4.87,8.86,4.87,-4.87,-5.14,-5.61,3.99,3.99,3.99
28.62,8.86,4.86,8.86,4.86,-4.86,-5.12,-5.70,4.00,4.00,3.99
28.90,8.86,4.85,8.86,4.85,-4.85,-5.09,-5.78,4.00,4.01,4.00
29.19,8.86,4.85,8.86,4.84,-4.84,-5.07,-5.86,4.01,4.01,4.00
29.48,8.86,4.83,8.86,4.84,-4.84,-5.05,-5.93,4.02,4.02,4.03
29.78,8.86,4.83,8.86,4.83,-4.83,-5.02,-5.99,4.03,4.03,4.03
30.08,8.86,4.82,8.86,4.82,-4.82,-5.00,-6.04,4.04,4.04,4.04
30.38,8.86,4.82,8.86,4.81,-4.81,-4.98,-6.09,4.04,4.04,4.04
30.68,8.86,4.80,8.86,4.81,-4.81,-4.96,-6.13,4.05,4.05,4.06
30.99,8.86,4.80,8.86,4.80,-4.80,-4.93,-6.16,4.06,4.06,4.06
31.30,8.86,4.79,8.86,4.79,-4.79,-4.91,-6.17,4.07,4.07,4.07
31.61,8.86,4.78,8.86,4.78,-4.78,-4.89,-6.18,4.08,4.08,4.07
31.93,8.86,4.77,8.86,4.77,-4.77,-4.87,-6.19,4.08,4.08,4.08
32.24,8.86,4.78,8.86,4.76,-4.76,-4.85,-6.18,4.09,4.09,4.08
32.57,8.86,4.76,8.86,4.76,-4.76,-4.83,-6.16,4.10,4.10,4.10
32.89,8.86,4.75,8.86,4.75,-4.75,-4.81,-6.14,4.11,4.11,4.11
33.22,8.86,4.74,8.86,4.74,-4.74,-4.79,-6.11,4.12,4.12,4.12
33.55,8.86,4.73,8.86,4.73,-4.73,-4.77,-6.07,4.12,4.12,4.13
33.89,8.86,4.72,8.86,4.73,-4.73,-4.75,-6.02,4.13,4.13,4.13
34.23,8.86,4.71,8.86,4.72,-4.72,-4.73,-5.97,4.14,4.14,4.14
34.57,8.86,4.71,8.86,4.72,-4.72,-4.71,-5.91,4.14,4.15,4.15
34.92,8.86,4.71,8.87,4.71,-4.71,-4.69,-5.85,4.14,4.15,4.15
35.27,8.86,4.70,8.87,4.71,-4.71,-4.68,-5.79,4.15,4.16,4.16
35.62,8.86,4.69,8.87,4.71,-4.71,-4.66,-5.72,4.15,4.16,4.16
35.97,8.87,4.70,8.87,4.71,-4.71,-4.64,-5.65,4.16,4.17,4.16
36.33,8.87,4.70,8.87,4.70,-4.70,-4.62,-5.57,4.16,4.17,4.17
36.70,8.88,4.71,8.87,4.70,-4.70,-4.61,-5.50,4.18,4.17,4.17
37.06,8.89,4.71,8.87,4.69,-4.69,-4.59,-5.42,4.19,4.17,4.18
37.43,8.88,4.69,8.86,4.68,-4.68,-4.57,-5.35,4.19,4.17,4.18
37.81,8.87,4.69,8.85,4.67,-4.67,-4.55,-5.27,4.19,4.17,4.18
38.19,8.85,4.67,8.83,4.66,-4.66,-4.54,-5.20,4.19,4.17,4.18
38.57,8.83,4.65,8.82,4.64,-4.64,-4.52,-5.12,4.19,4.17,4.18
38.95,8.81,4.63,8.80,4.62,-4.62,-4.51,-5.05,4.18,4.17,4.17
39.34,8.78,4.61,8.77,4.60,-4.60,-4.49,-4.98,4.18,4.17,4.17
39.74,8.75,4.58,8.75,4.58,-4.58,-4.47,-4.91,4.17,4.17,4.17
40.14,8.72,4.54,8.72,4.55,-4.55,-4.46,-4.85,4.17,4.17,4.17
40.54,8.69,4.52,8.70,4.53,-4.53,-4.44,-4.78,4.16,4.17,4.17
40.94,8.66,4.49,8.67,4.50,-4.50,-4.43,-4.72,4.16,4.17,4.17
41.35,8.63,4.46,8.64,4.47,-4.47,-4.41,-4.66,4.15,4.17,4.16
41.76,8.61,4.44,8.62,4.45,-4.45,-4.40,-4.60,4.15,4.17,4.17
42.18,8.59,4.41,8.60,4.43,-4.43,-4.39,-4.55,4.16,4.17,4.17
42.60,8.58,4.41,8.58,4.41,-4.41,-4.37,-4.50,4.17,4.17,4.17
43.03,8.56,4.38,8.55,4.39,-4.39,-4.36,-4.46,4.17,4.17,4.18
43.46,8.54,4.36,8.54,4.37,-4.37,-4.34,-4.41,4.17,4.17,4.17
43.90,8.52,4.36,8.52,4.35,-4.35,-4.33,-4.37,4.17,4.17,4.16
44.33,8.50,4.33,8.50,4.33,-4.33,-4.32,-4.34,4.16,4.17,4.16
44.78,8.48,4.32,8.48,4.31,-4.31,-4.30,-4.30,4.16,4.17,4.16
45.23,8.46,4.30,8.46,4.29,-4.29,-4.29,-4.27,4.16,4.16,4.15
45.68,8.44,4.28,8.44,4.27,-4.27,-4.28,-4.25,4.16,4.16,4.16
46.13,8.42,4.26,8.41,4.25,-4.25,-4.26,-4.22,4.17,4.16,4.15
46.60,8.40,4.23,8.38,4.22,-4.22,-4.25,-4.20,4.18,4.16,4.17
47.06,8.37,4.21,8.35,4.19,-4.19,-4.24,-4.19,4.17,4.16,4.16
47.53,8.34,4.18,8.32,4.17,-4.17,-4.23,-4.17,4.17,4.15,4.15
48.01,8.30,4.13,8.29,4.14,-4.14,-4.21,-4.16,4.16,4.15,4.17
48.49,8.26,4.11,8.25,4.11,-4.11,-4.20,-4.15,4.15,4.14,4.15
48.97,8.22,4.08,8.22,4.08,-4.08,-4.19,-4.15,4.13,4.14,4.13
49.46,8.18,4.05,8.19,4.06,-4.06,-4.18,-4.14,4.12,4.13,4.13
49.96,8.14,4.03,8.15,4.03,-4.03,-4.17,-4.14,4.10,4.12,4.11
50.46,8.10,3.98,8.12,4.01,-4.01,-4.16,-4.14,4.09,4.11,4.11
50.96,8.07,3.96,8.09,3.99,-3.99,-4.14,-4.15,4.08,4.10,4.10
51.47,8.04,3.96,8.06,3.97,-3.97,-4.13,-4.15,4.07,4.09,4.08
51.99,8.03,3.96,8.02,3.95,-3.95,-4.12,-4.16,4.08,4.08,4.07
52.51,8.01,3.94,7.99,3.93,-3.93,-4.11,-4.17,4.08,4.06,4.07
53.03,7.99,3.94,7.97,3.92,-3.92,-4.10,-4.18,4.07,4.05,4.05
53.56,7.96,3.92,7.94,3.90,-3.90,-4.09,-4.19,4.05,4.03,4.04
54.10,7.93,3.91,7.91,3.89,-3.89,-4.08,-4.20,4.04,4.02,4.02
54.64,7.89,3.88,7.88,3.87,-3.87,-4.07,-4.21,4.01,4.01,4.01
55.18,7.85,3.86,7.85,3.86,-3.86,-4.06,-4.22,3.99,3.99,3.99
55.74,7.82,3.85,7.83,3.84,-3.84,-4.05,-4.23,3.97,3.98,3.97
56.29,7.79,3.82,7.80,3.83,-3.83,-4.04,-4.24,3.96,3.97,3.97
56.86,7.76,3.81,7.76,3.81,-3.81,-4.03,-4.25,3.94,3.95,3.95
57.42,7.74,3.81,7.73,3.80,-3.80,-4.02,-4.25,3.94,3.94,3.93
58.00,7.72,3.80,7.70,3.78,-3.78,-4.01,-4.26,3.93,3.92,3.91
58.58,7.69,3.79,7.67,3.77,-3.77,-4.00,-4.26,3.91,3.90,3.90
59.16,7.66,3.77,7.65,3.77,-3.77,-3.99,-4.27,3.89,3.88,3.89
59.76,7.63,3.75,7.63,3.77,-3.77,-3.98,-4.26,3.86,3.86,3.87
60.35,7.60,3.75,7.61,3.77,-3.77,-3.97,-4.26,3.82,3.84,3.85
60.96,7.58,3.75,7.60,3.78,-3.78,-3.96,-4.26,3.79,3.81,3.82
61.57,7.56,3.77,7.59,3.80,-3.80,-3.95,-4.25,3.76,3.79,3.79
62.18,7.55,3.79,7.58,3.82,-3.82,-3.94,-4.23,3.73,3.76,3.75
62.80,7.54,3.80,7.57,3.84,-3.84,-3.93,-4.22,3.70,3.74,3.74
63.43,7.55,3.85,7.57,3.86,-3.86,-3.92,-4.20,3.69,3.71,3.70
64.07,7.57,3.89,7.56,3.88,-3.88,-3.91,-4.18,3.69,3.68,3.67
64.71,7.58,3.93,7.55,3.90,-3.90,-3.90,-4.16,3.67,3.65,3.65
65.35,7.58,3.96,7.55,3.93,-3.93,-3.89,-4.13,3.65,3.62,3.62
66.01,7.58,3.99,7.54,3.95,-3.95,-3.88,-4.10,3.63,3.59,3.59
66.67,7.56,3.99,7.53,3.97,-3.97,-3.87,-4.07,3.59,3.56,3.57
67.33,7.54,3.99,7.52,3.98,-3.98,-3.86,-4.03,3.55,3.53,3.54
68.01,7.52,4.01,7.50,3.99,-3.99,-3.85,-4.00,3.52,3.51,3.51
68.69,7.49,4.01,7.48,4.00,-4.00,-3.84,-3.96,3.49,3.48,3.48
69.37,7.46,4.01,7.46,4.01,-4.01,-3.83,-3.92,3.45,3.45,3.45
70.07,7.43,4.01,7.43,4.01,-4.01,-3.82,-3.88,3.42,3.42,3.42
70.77,7.40,4.00,7.40,4.01,-4.01,-3.81,-3.83,3.39,3.40,3.40
71.48,7.37,3.99,7.38,4.01,-4.01,-3.81,-3.79,3.36,3.37,3.37
72.19,7.34,4.00,7.35,4.01,-4.01,-3.80,-3.75,3.33,3.34,3.34
72.91,7.31,3.99,7.33,4.01,-4.01,-3.79,-3.70,3.30,3.32,3.31
73.64,7.29,4.00,7.30,4.01,-4.01,-3.78,-3.66,3.28,3.29,3.29
74.38,7.27,3.99,7.29,4.01,-4.01,-3.77,-3.62,3.25,3.27,3.27
75.12,7.26,4.01,7.27,4.02,-4.02,-3.76,-3.57,3.24,3.25,3.25
75.87,7.25,4.01,7.25,4.02,-4.02,-3.75,-3.53,3.23,3.23,3.23
76.63,7.24,4.02,7.24,4.02,-4.02,-3.74,-3.49,3.22,3.22,3.21
77.40,7.23,4.03,7.22,4.02,-4.02,-3.73,-3.45,3.20,3.20,3.20
78.17,7.22,4.04,7.21,4.02,-4.02,-3.72,-3.41,3.19,3.18,3.18
78.95,7.21,4.04,7.19,4.02,-4.02,-3.71,-3.37,3.18,3.17,3.17
79.74,7.19,4.03,7.18,4.02,-4.02,-3.71,-3.34,3.17,3.16,3.16
80.54,7.17,4.02,7.16,4.01,-4.01,-3.70,-3.31,3.16,3.15,3.15
81.35,7.14,4.00,7.14,4.00,-4.00,-3.69,-3.27,3.14,3.14,3.14
82.16,7.12,3.99,7.11,3.98,-3.98,-3.68,-3.24,3.14,3.13,3.13
82.98,7.09,3.96,7.08,3.96,-3.96,-3.67,-3.22,3.12,3.12,3.13
83.81,7.07,3.95,7.06,3.94,-3.94,-3.66,-3.19,3.13,3.12,3.11
84.65,7.03,3.93,7.03,3.91,-3.91,-3.65,-3.17,3.11,3.11,3.10
85.50,7.00,3.89,6.99,3.89,-3.89,-3.64,-3.15,3.11,3.11,3.11
86.35,6.96,3.85,6.96,3.86,-3.86,-3.63,-3.13,3.10,3.10,3.10
87.22,6.91,3.81,6.93,3.82,-3.82,-3.62,-3.11,3.08,3.10,3.10
88.09,6.88,3.78,6.89,3.79,-3.79,-3.61,-3.10,3.09,3.10,3.09
88.97,6.85,3.75,6.86,3.76,-3.76,-3.60,-3.09,3.09,3.10,3.10
89.86,6.82,3.71,6.82,3.72,-3.72,-3.59,-3.08,3.09,3.10,3.10
90.76,6.78,3.69,6.78,3.69,-3.69,-3.59,-3.07,3.09,3.09,3.09
91.66,6.75,3.66,6.74,3.65,-3.65,-3.58,-3.06,3.10,3.09,3.09
92.58,6.71,3.62,6.70,3.61,-3.61,-3.57,-3.06,3.10,3.09,3.08
93.51,6.67,3.57,6.66,3.57,-3.57,-3.56,-3.06,3.10,3.09,3.10
94.44,6.63,3.54,6.62,3.53,-3.53,-3.55,-3.06,3.09,3.08,3.09
95.39,6.59,3.50,6.57,3.49,-3.49,-3.54,-3.07,3.09,3.08,3.09
96.34,6.54,3.46,6.53,3.46,-3.46,-3.53,-3.07,3.08,3.07,3.07
97.30,6.49,3.42,6.49,3.42,-3.42,-3.52,-3.08,3.07,3.07,3.06
98.28,6.44,3.38,6.44,3.38,-3.38,-3.51,-3.09,3.06,3.06,3.06
99.26,6.39,3.34,6.39,3.34,-3.34,-3.50,-3.10,3.04,3.05,3.05
100.25,6.34,3.30,6.35,3.31,-3.31,-3.49,-3.11,3.03,3.04,3.04
101.25,6.29,3.26,6.30,3.27,-3.27,-3.48,-3.13,3.01,3.03,3.03
102.27,6.25,3.24,6.26,3.25,-3.25,-3.47,-3.14,3.00,3.01,3.01
103.29,6.22,3.23,6.21,3.22,-3.22,-3.46,-3.16,3.00,2.99,2.99
104.32,6.18,3.20,6.17,3.20,-3.20,-3.45,-3.18,2.98,2.97,2.98
105.37,6.13,3.17,6.13,3.17,-3.17,-3.44,-3.19,2.95,2.95,2.96
106.42,6.08,3.15,6.08,3.15,-3.15,-3.43,-3.21,2.92,2.93,2.93
107.48,6.04,3.12,6.04,3.14,-3.14,-3.42,-3.23,2.90,2.90,2.91
108.56,6.00,3.12,6.00,3.12,-3.12,-3.41,-3.25,2.87,2.87,2.87
109.64,5.96,3.11,5.96,3.12,-3.12,-3.39,-3.27,2.84,2.84,2.84
110.74,5.93,3.11,5.91,3.11,-3.11,-3.38,-3.28,2.82,2.81,2.81
111.85,5.89,3.11,5.87,3.10,-3.10,-3.37,-3.30,2.79,2.77,2.78
112.97,5.83,3.10,5.83,3.10,-3.10,-3.36,-3.32,2.73,2.73,2.73
114.10,5.78,3.08,5.78,3.09,-3.09,-3.35,-3.33,2.69,2.69,2.70
115.24,5.73,3.08,5.73,3.08,-3.08,-3.34,-3.35,2.65,2.65,2.65
116.39,5.68,3.07,5.69,3.08,-3.08,-3.33,-3.36,2.60,2.61,2.60
117.55,5.64,3.07,5.64,3.07,-3.07,-3.32,-3.37,2.56,2.57,2.56
118.73,5.61,3.09,5.60,3.07,-3.07,-3.31,-3.37,2.54,2.53,2.52
119.92,5.56,3.07,5.55,3.06,-3.06,-3.29,-3.38,2.49,2.49,2.49
121.12,5.51,3.06,5.50,3.05,-3.05,-3.28,-3.38,2.45,2.45,2.44
122.33,5.45,3.04,5.46,3.04,-3.04,-3.27,-3.38,2.40,2.41,2.41
123.55,5.40,3.02,5.41,3.03,-3.03,-3.26,-3.38,2.37,2.38,2.38
124.79,5.36,3.01,5.36,3.02,-3.02,-3.25,-3.37,2.34,2.34,2.35
126.03,5.32,3.01,5.31,3.01,-3.01,-3.24,-3.36,2.31,2.31,2.31
127.29,5.28,3.00,5.27,2.99,-2.99,-3.22,-3.35,2.28,2.27,2.28
128.57,5.23,2.99,5.22,2.98,-2.98,-3.21,-3.33,2.25,2.24,2.23
129.85,5.18,2.97,5.17,2.96,-2.96,-3.20,-3.32,2.22,2.21,2.21
131.15,5.12,2.94,5.12,2.94,-2.94,-3.19,-3.30,2.18,2.18,2.18
132.46,5.06,2.90,5.07,2.91,-2.91,-3.17,-3.27,2.14,2.15,2.15
133.79,5.01,2.88,5.02,2.89,-2.89,-3.16,-3.25,2.12,2.13,2.13
135.12,4.97,2.87,4.96,2.86,-2.86,-3.15,-3.22,2.10,2.10,2.10
136.48,4.93,2.85,4.91,2.84,-2.84,-3.14,-3.19,2.09,2.08,2.08
137.84,4.88,2.83,4.86,2.81,-2.81,-3.12,-3.16,2.07,2.05,2.05
139.22,4.82,2.80,4.81,2.78,-2.78,-3.11,-3.13,2.03,2.03,2.02
140.61,4.76,2.77,4.76,2.76,-2.76,-3.10,-3.09,2.00,2.00,1.99
142.02,4.70,2.72,4.71,2.73,-2.73,-3.08,-3.06,1.97,1.98,1.98
143.44,4.65,2.68,4.66,2.71,-2.71,-3.07,-3.02,1.94,1.96,1.96
144.87,4.60,2.66,4.62,2.68,-2.68,-3.06,-2.99,1.91,1.93,1.94
146.32,4.57,2.66,4.57,2.66,-2.66,-3.04,-2.95,1.90,1.91,1.91
147.78,4.53,2.63,4.53,2.64,-2.64,-3.03,-2.91,1.88,1.88,1.89
149.26,4.49,2.62,4.48,2.63,-2.63,-3.01,-2.88,1.86,1.85,1.87
150.75,4.45,2.62,4.44,2.61,-2.61,-3.00,-2.84,1.84,1.83,1.82
152.26,4.41,2.61,4.40,2.60,-2.60,-2.99,-2.80,1.81,1.80,1.80
153.78,4.37,2.59,4.36,2.59,-2.59,-2.97,-2.77,1.78,1.77,1.77
155.32,4.33,2.60,4.32,2.58,-2.58,-2.96,-2.74,1.74,1.74,1.73
156.88,4.29,2.58,4.29,2.58,-2.58,-2.94,-2.70,1.71,1.71,1.71
158.44,4.24,2.56,4.25,2.58,-2.58,-2.93,-2.67,1.66,1.67,1.68
160.03,4.20,2.56,4.22,2.58,-2.58,-2.91,-2.64,1.62,1.64,1.64
161.63,4.17,2.57,4.18,2.58,-2.58,-2.90,-2.61,1.59,1.60,1.59
163.24,4.14,2.57,4.15,2.58,-2.58,-2.88,-2.58,1.56,1.57,1.56
164.88,4.12,2.58,4.11,2.58,-2.58,-2.87,-2.56,1.54,1.53,1.53
166.53,4.10,2.60,4.08,2.59,-2.59,-2.85,-2.53,1.51,1.49,1.49
168.19,4.07,2.61,4.05,2.59,-2.59,-2.84,-2.51,1.48,1.46,1.46
169.87,4.04,2.62,4.02,2.60,-2.60,-2.82,-2.49,1.43,1.42,1.42
171.57,4.00,2.62,3.99,2.62,-2.62,-2.81,-2.47,1.38,1.37,1.38
173.29,3.96,2.62,3.96,2.63,-2.63,-2.79,-2.45,1.33,1.33,1.33
175.02,3.92,2.62,3.93,2.65,-2.65,-2.78,-2.44,1.27,1.29,1.30
176.77,3.89,2.65,3.91,2.66,-2.66,-2.76,-2.42,1.22,1.24,1.24
178.54,3.86,2.66,3.88,2.68,-2.68,-2.74,-2.41,1.18,1.20,1.20
180.32,3.84,2.69,3.85,2.70,-2.70,-2.73,-2.40,1.14,1.15,1.15
182.13,3.83,2.72,3.82,2.72,-2.72,-2.71,-2.39,1.11,1.10,1.11
183.95,3.81,2.76,3.79,2.74,-2.74,-2.69,-2.39,1.07,1.05,1.05
185.79,3.78,2.77,3.76,2.76,-2.76,-2.68,-2.38,1.02,1.00,1.01
187.65,3.75,2.80,3.73,2.78,-2.78,-2.66,-2.38,0.97,0.96,0.94
189.52,3.71,2.81,3.71,2.80,-2.80,-2.65,-2.38,0.91,0.91,0.90
191.42,3.67,2.81,3.68,2.82,-2.82,-2.63,-2.38,0.85,0.86,0.86
193.33,3.64,2.82,3.65,2.84,-2.84,-2.61,-2.38,0.80,0.81,0.82
195.27,3.61,2.83,3.62,2.85,-2.85,-2.59,-2.38,0.76,0.77,0.77
197.22,3.59,2.86,3.59,2.86,-2.86,-2.58,-2.39,0.72,0.72,0.72
199.19,3.56,2.88,3.55,2.87,-2.87,-2.56,-2.39,0.69,0.68,0.67
201.18,3.53,2.90,3.51,2.88,-2.88,-2.54,-2.40,0.65,0.64,0.63
203.19,3.49,2.89,3.47,2.88,-2.88,-2.53,-2.41,0.61,0.60,0.60
205.23,3.45,2.90,3.43,2.88,-2.88,-2.51,-2.42,0.57,0.56,0.55
207.28,3.40,2.86,3.39,2.88,-2.88,-2.49,-2.43,0.52,0.52,0.53
209.35,3.35,2.86,3.35,2.87,-2.87,-2.47,-2.44,0.48,0.48,0.48
211.44,3.31,2.87,3.31,2.86,-2.86,-2.45,-2.45,0.44,0.44,0.43
213.56,3.27,2.86,3.26,2.85,-2.85,-2.44,-2.46,0.41,0.41,0.41
215.69,3.22,2.83,3.22,2.84,-2.84,-2.42,-2.47,0.38,0.38,0.39
217.85,3.17,2.82,3.17,2.82,-2.82,-2.40,-2.48,0.34,0.35,0.35
220.03,3.13,2.82,3.13,2.81,-2.81,-2.38,-2.49,0.32,0.32,0.31
222.23,3.08,2.79,3.08,2.79,-2.79,-2.36,-2.50,0.29,0.29,0.28
224.45,3.04,2.77,3.04,2.77,-2.77,-2.35,-2.51,0.27,0.27,0.27
226.70,3.00,2.75,3.00,2.75,-2.75,-2.33,-2.52,0.25,0.25,0.25
228.96,2.95,2.72,2.96,2.73,-2.73,-2.31,-2.52,0.22,0.23,0.22
231.25,2.91,2.69,2.92,2.71,-2.71,-2.29,-2.53,0.20,0.21,0.22
233.57,2.87,2.67,2.88,2.68,-2.68,-2.27,-2.53,0.19,0.20,0.20
235.90,2.84,2.65,2.84,2.65,-2.65,-2.25,-2.54,0.18,0.19,0.19
238.26,2.81,2.63,2.81,2.62,-2.62,-2.24,-2.54,0.18,0.18,0.18
240.64,2.79,2.61,2.77,2.59,-2.59,-2.22,-2.53,0.19,0.18,0.17
243.05,2.76,2.58,2.74,2.56,-2.56,-2.20,-2.53,0.20,0.18,0.18
245.48,2.72,2.54,2.70,2.52,-2.52,-2.18,-2.52,0.19,0.18,0.17
247.93,2.68,2.50,2.67,2.49,-2.49,-2.16,-2.51,0.19,0.18,0.18
250.41,2.64,2.46,2.63,2.45,-2.45,-2.14,-2.50,0.19,0.18,0.17
252.92,2.60,2.41,2.60,2.41,-2.41,-2.12,-2.49,0.18,0.19,0.19
255.45,2.56,2.35,2.57,2.37,-2.37,-2.10,-2.47,0.18,0.20,0.20
258.00,2.53,2.32,2.54,2.34,-2.34,-2.08,-2.45,0.19,0.21,0.21
260.58,2.51,2.29,2.52,2.30,-2.30,-2.07,-2.43,0.21,0.22,0.22
263.19,2.49,2.25,2.49,2.26,-2.26,-2.05,-2.41,0.23,0.23,0.23
265.82,2.46,2.22,2.47,2.22,-2.22,-2.03,-2.38,0.24,0.25,0.24
268.48,2.44,2.17,2.44,2.18,-2.18,-2.01,-2.36,0.25,0.26,0.26
271.16,2.42,2.14,2.42,2.15,-2.15,-1.99,-2.33,0.27,0.28,0.28
273.87,2.41,2.12,2.41,2.12,-2.12,-1.97,-2.30,0.29,0.29,0.29
276.61,2.40,2.08,2.39,2.08,-2.08,-1.95,-2.26,0.31,0.31,0.31
279.38,2.38,2.06,2.38,2.05,-2.05,-1.93,-2.23,0.32,0.32,0.32
282.17,2.36,2.02,2.36,2.03,-2.03,-1.91,-2.19,0.33,0.34,0.34
284.99,2.35,1.99,2.35,2.00,-2.00,-1.89,-2.16,0.35,0.35,0.36
287.84,2.33,1.96,2.33,1.96,-1.96,-1.87,-2.12,0.36,0.37,0.36
290.72,2.32,1.94,2.31,1.93,-1.93,-1.85,-2.08,0.39,0.38,0.38
293.63,2.29,1.89,2.29,1.89,-1.89,-1.84,-2.04,0.40,0.40,0.40
296.57,2.27,1.85,2.27,1.85,-1.85,-1.82,-2.01,0.41,0.41,0.41
299.53,2.26,1.83,2.24,1.81,-1.81,-1.80,-1.97,0.45,0.43,0.42
302.53,2.23,1.80,2.21,1.77,-1.77,-1.78,-1.93,0.46,0.44,0.43
305.55,2.20,1.74,2.17,1.72,-1.72,-1.76,-1.89,0.48,0.45,0.46
308.61,2.16,1.69,2.14,1.68,-1.68,-1.74,-1.85,0.48,0.46,0.47
311.69,2.12,1.64,2.11,1.63,-1.63,-1.72,-1.82,0.49,0.48,0.47
314.81,2.07,1.57,2.07,1.59,-1.59,-1.70,-1.78,0.48,0.49,0.50
317.96,2.03,1.53,2.04,1.54,-1.54,-1.68,-1.74,0.49,0.50,0.50
321.14,1.98,1.47,2.00,1.50,-1.50,-1.66,-1.71,0.48,0.51,0.51
324.35,1.94,1.43,1.96,1.45,-1.45,-1.64,-1.67,0.49,0.51,0.51
327.59,1.91,1.38,1.93,1.41,-1.41,-1.63,-1.64,0.50,0.52,0.52
330.87,1.88,1.35,1.89,1.36,-1.36,-1.61,-1.60,0.51,0.53,0.52
334.18,1.86,1.34,1.85,1.32,-1.32,-1.59,-1.57,0.54,0.53,0.52
337.52,1.84,1.31,1.81,1.28,-1.28,-1.57,-1.54,0.55,0.53,0.53
340.90,1.81,1.27,1.78,1.25,-1.25,-1.55,-1.51,0.56,0.53,0.54
344.30,1.77,1.23,1.75,1.21,-1.21,-1.53,-1.48,0.55,0.53,0.54
347.75,1.73,1.19,1.72,1.18,-1.18,-1.51,-1.45,0.54,0.53,0.54
351.23,1.69,1.15,1.69,1.16,-1.16,-1.50,-1.43,0.53,0.53,0.53
354.74,1.65,1.11,1.66,1.13,-1.13,-1.48,-1.40,0.52,0.53,0.53
358.28,1.61,1.08,1.63,1.10,-1.10,-1.46,-1.38,0.50,0.53,0.52
361.87,1.58,1.06,1.60,1.08,-1.08,-1.44,-1.35,0.50,0.52,0.52
365.49,1.55,1.03,1.57,1.05,-1.05,-1.42,-1.33,0.49,0.52,0.52
369.14,1.54,1.03,1.54,1.03,-1.03,-1.40,-1.31,0.51,0.51,0.51
372.83,1.53,1.02,1.51,1.01,-1.01,-1.39,-1.29,0.52,0.51,0.51
376.56,1.51,1.01,1.49,0.99,-0.99,-1.37,-1.27,0.52,0.50,0.50
380.33,1.48,0.98,1.46,0.97,-0.97,-1.35,-1.25,0.51,0.49,0.50
384.13,1.45,0.96,1.43,0.95,-0.95,-1.33,-1.23,0.50,0.49,0.49
387.97,1.42,0.94,1.41,0.93,-0.93,-1.31,-1.21,0.49,0.48,0.47
391.85,1.39,0.92,1.38,0.91,-0.91,-1.30,-1.20,0.48,0.47,0.46
395.77,1.35,0.87,1.36,0.89,-0.89,-1.28,-1.18,0.46,0.47,0.47
399.73,1.32,0.85,1.33,0.87,-0.87,-1.26,-1.17,0.45,0.46,0.46
403.72,1.30,0.85,1.30,0.85,-0.85,-1.24,-1.15,0.45,0.45,0.45
407.76,1.28,0.84,1.27,0.82,-0.82,-1.23,-1.14,0.46,0.45,0.44
411.84,1.25,0.80,1.24,0.79,-0.79,-1.21,-1.13,0.45,0.44,0.45
415.96,1.22,0.78,1.21,0.77,-0.77,-1.19,-1.12,0.45,0.44,0.44
420.12,1.19,0.75,1.18,0.74,-0.74,-1.17,-1.11,0.44,0.44,0.44
424.32,1.16,0.72,1.16,0.72,-0.72,-1.16,-1.09,0.44,0.43,0.44
428.56,1.14,0.71,1.13,0.70,-0.70,-1.14,-1.08,0.44,0.43,0.43
432.85,1.11,0.68,1.11,0.68,-0.68,-1.12,-1.07,0.42,0.43,0.43
437.18,1.09,0.66,1.10,0.67,-0.67,-1.11,-1.06,0.42,0.43,0.43
441.55,1.07,0.63,1.09,0.66,-0.66,-1.09,-1.05,0.41,0.43,0.44
445.96,1.06,0.62,1.08,0.64,-0.64,-1.07,-1.04,0.41,0.43,0.44
450.42,1.05,0.62,1.07,0.63,-0.63,-1.06,-1.03,0.41,0.43,0.43
454.93,1.05,0.61,1.06,0.62,-0.62,-1.04,-1.02,0.42,0.44,0.43
459.48,1.06,0.62,1.06,0.62,-0.62,-1.02,-1.00,0.44,0.44,0.43
464.07,1.07,0.62,1.06,0.61,-0.61,-1.01,-0.99,0.45,0.44,0.44
468.71,1.08,0.62,1.06,0.61,-0.61,-0.99,-0.98,0.47,0.45,0.45
473.40,1.08,0.62,1.06,0.61,-0.61,-0.98,-0.97,0.47,0.45,0.45
478.13,1.08,0.61,1.07,0.61,-0.61,-0.96,-0.95,0.47,0.46,0.46
482.91,1.08,0.61,1.07,0.60,-0.60,-0.94,-0.94,0.47,0.47,0.46
487.74,1.08,0.60,1.07,0.60,-0.60,-0.93,-0.92,0.48,0.47,0.47
492.62,1.08,0.60,1.08,0.60,-0.60,-0.91,-0.90,0.48,0.48,0.48
497.55,1.08,0.60,1.08,0.60,-0.60,-0.90,-0.89,0.48,0.48,0.48
502.52,1.08,0.59,1.08,0.59,-0.59,-0.88,-0.87,0.49,0.49,0.49
507.55,1.08,0.59,1.08,0.59,-0.59,-0.87,-0.85,0.49,0.49,0.49
512.62,1.08,0.59,1.08,0.58,-0.58,-0.85,-0.83,0.49,0.49,0.49
517.75,1.08,0.58,1.08,0.58,-0.58,-0.84,-0.80,0.50,0.50,0.50
522.93,1.08,0.58,1.08,0.58,-0.58,-0.82,-0.78,0.50,0.50,0.50
528.16,1.08,0.58,1.08,0.58,-0.58,-0.81,-0.76,0.50,0.50,0.50
533.44,1.08,0.58,1.08,0.58,-0.58,-0.79,-0.73,0.50,0.50,0.50
538.77,1.08,0.58,1.08,0.58,-0.58,-0.78,-0.71,0.50,0.50,0.50
544.16,1.08,0.58,1.08,0.58,-0.58,-0.76,-0.68,0.50,0.50,0.50
