frequency,raw,error,smoothed,error_smoothed,equalization,equalized_raw,equalized_smoothed,target
20,-15.037945851412651,-16.685789606881997,-15.023989190348287,-16.67181759915054,5.999999999999999,-9.037945851412651,-9.023989190348289,1.647843755469347
21,-14.348819561996345,-15.996644358014525,-14.343200686960811,-15.991027837129868,6.0,-8.348819561996345,-8.343200686960811,1.6478247960181784
22,-13.6563124573557,-15.304112455841043,-13.68514481279848,-15.332957125203881,6.0,-7.6563124573557,-7.68514481279848,1.6477999984853424
23,-13.071156615681211,-14.718924572323184,-13.049821567861294,-14.697605463372582,6.000000000000001,-7.07115661568121,-7.049821567861293,1.6477679566419732
24,-12.434387363276901,-14.082114374615749,-12.437230952149232,-14.08497285163595,5.999999999999997,-6.434387363276904,-6.437230952149235,1.647727011338847
25,-11.73226797152405,-13.379943190584225,-11.847922392937441,-13.49561019358692,6.0,-5.732267971524051,-5.847922392937441,1.647675219060174
26,-11.245997783587713,-12.893608101767711,-11.28106014407236,-12.928680288574679,6.0,-5.245997783587713,-5.2810601440723595,1.6476103181799977
27,-10.928279765535937,-12.575809458736227,-10.736123186815275,-12.38366054924308,5.999999999999999,-4.928279765535938,-4.736123186815276,1.647529693200291
28,-10.172590284851976,-11.820020620363334,-10.212699241530379,-11.860136112309394,5.999999999999999,-4.172590284851977,-4.2126992415303794,1.6474303355113573
29,-9.697646753998821,-11.34495555692409,-9.710643491597008,-11.357958541386711,6.0,-3.6976467539988214,-3.7106434915970077,1.6473088029252683
30,-9.246369641911722,-10.893530818013469,-9.230316336732308,-10.877484156893193,6.0,-3.2463696419117216,-3.230316336732308,1.6471611761017466
31,-8.715912749566296,-10.362895762164438,-8.772053293213592,-10.419043729028386,5.999999999999999,-2.7159127495662974,-2.7720532932135926,1.6469830125981426
32,-8.306066740022668,-9.95283603843915,-8.335713890853619,-9.982491533013473,5.999999999999999,-2.3060667400226693,-2.3357138908536195,1.6467692984164817
33,-7.9150236041765965,-9.56153800123679,-7.920168739768353,-9.566692414536323,6.0,-1.9150236041765965,-1.9201687397683527,1.6465143970601943
34,-7.5648623477316175,-9.211074343906056,-7.523010195684904,-9.169232351129436,5.999999999999997,-1.5648623477316201,-1.5230101956849067,1.6462119961744381
35,-7.109831599556833,-8.755686651272912,-7.140765864544715,-8.786631907329554,6.000000000000001,-1.1098315995568324,-1.140765864544714,1.645855051716079
36,-6.633022252968672,-8.278457982779566,-6.769527360542002,-8.414974890130747,5.999999999999999,-0.6330222529686731,-0.7695273605420025,1.6454357298108935
37,-6.636183019034848,-8.281128365385008,-6.405866839061455,-8.050824797181678,6.0,-0.6361830190348483,-0.4058668390614546,1.6449453463501595
38,-6.027198555969039,-7.671572860411503,-6.047716494167556,-7.692104244662037,6.000000000000003,-0.02719855596903642,-0.047716494167553414,1.6443743044424641
39,-5.705858355695983,-7.349570385549265,-5.6948589302241315,-7.338585268649364,6.0,0.294141644304017,0.3051410697758685,1.643712029853282
40,-5.382773437619539,-7.0257203422081265,-5.348821449605891,-6.9917835512969555,6.000000000000001,0.6172265623804618,0.6511785503941097,1.6429469045885874
41,-5.0670063482371175,-6.709072547046651,-5.012169505057095,-6.654251809649563,6.0,0.9329936517628825,0.9878304949429051,1.642066198809533
42,-4.581393859943502,-6.222449861229766,-4.687440203983478,-6.328513233095546,5.937145554659641,1.3557516947161394,1.2497053506761633,1.6410560012862638
43,-4.284578433580938,-5.924479582217452,-4.376107322330514,-6.016026428155368,5.805452381246627,1.520873947665689,1.4293450589161134,1.6399011486365138
44,-3.9880150979557234,-5.626600251588237,-4.0779605872079365,-5.71656462906863,5.609908916934359,1.6218938189786352,1.531948329726422,1.6385851536325138
45,-3.825559614044099,-5.462649746952206,-3.7911217804057538,-5.42823172824896,5.379697781297892,1.5541381672537935,1.5885760008921386,1.6370901329081073
46,-3.596125259161659,-5.231521993619863,-3.5126673423055004,-5.148084806971907,5.13372192558918,1.537596666427521,1.6210545832836796,1.6353967344582032
47,-3.3349067293601777,-4.968390794758451,-3.2395968716343964,-4.873102562299177,4.873102562299177,1.5381958329389995,1.633505690664781,1.6334840653982736
48,-3.0530444942948103,-4.684374114841225,-2.9697772779334857,-4.601129387812234,4.601129387812234,1.5480848935174238,1.6313521098787485,1.6313296205464143
49,-2.620551278825687,-4.249460491332691,-2.7025450496127412,-4.331477571505493,4.331477571505493,1.7109262926798063,1.628932521892752,1.6289092125070037
50,-2.3939154503053075,-4.0201123543811255,-2.4388267362296534,-4.065047710235784,4.065047710235785,1.6711322599304772,1.6262209740061313,1.626196904075818
51,-2.1895364354557483,-3.812701379408375,-2.1808460653412842,-3.8040357620720426,3.8040357620720435,1.6144993266162952,1.6231896967307593,1.6231649439526268
52,-1.8759461311082668,-3.495729838046407,-1.9316242281244076,-3.5514332719398025,3.5514332719398034,1.6754871408315366,1.6198090438153958,1.61978370693814
53,-1.7130991725570908,-3.3291208125617215,-1.6944912069610916,-3.3105386452135326,3.3105386452135317,1.597439472656441,1.6160474382524401,1.616021640004631
54,-1.5771842394573592,-3.189029455315356,-1.4727249817852839,-3.084596307716111,3.0845963077161107,1.5074120682587515,1.6118713259308268,1.611845215857997
55,-1.2524208966965211,-2.859639792541267,-1.2692953359509604,-2.876540474773557,2.8765404747735572,1.624119578077036,1.6072451388225968,1.6072188958447455
56,-1.0387913055566556,-2.640896409845375,-1.0865976036168652,-2.6887288734310024,2.6887288734310024,1.6499375678743469,1.6021312698141372,1.6021051042887193
57,-0.870199023836922,-2.4666632403916675,-0.9260753687588525,-2.5225654302491423,2.5225654302491414,1.6523664064122192,1.5964900614902888,1.5964642165547454
58,-0.7822293640605164,-2.372483927373394,-0.7877388533523606,-2.378018664696734,2.378018664696735,1.5957893006362185,1.5902798113443743,1.5902545633128775
59,-0.7094930383362675,-2.2929254919352644,-0.6697218863631237,-2.25317868235517,2.25317868235517,1.5436856440189022,1.583456795992046,1.5834324535989968
60,-0.3673253937379717,-1.9432776130545526,-0.568099773528081,-2.144075090522879,2.1440750905228794,1.7767496967849077,1.5759753169947983,1.575952219316581
61,-0.568474746100712,-2.1362410298833425,-0.4771573574149878,-2.044945128250279,2.0449451282502795,1.4764703821495675,1.5677877708352916,1.5677662837826305
62,-0.3673252401363043,-1.926150496909635,-0.3901543303177596,-1.948999075735797,1.9489990757357973,1.581673835599493,1.5588447454180376,1.5588252567733307
63,-0.4231924811224138,-1.9722705393841613,-0.30044416034651367,-1.8495393055320297,1.84953930553203,1.4263468244096162,1.5490951451855164,1.5490780582617476
64,-0.22106674788243327,-1.759538820539393,-0.2026508964512252,-1.741137243028445,1.7411372430284455,1.5200704951460122,1.5384863465772203,1.5384720726569596
65,-0.17633198730758645,-1.7032853221632738,-0.0935669334074343,-1.6205313182981316,1.6205313182981311,1.4441993309905448,1.5269643848906969,1.5269533348556874
66,0.08392263812873826,-1.4305441106883368,0.027477150731939355,-1.4869970225978437,1.4869970225978444,1.5709196607265827,1.5144741733297837,1.514466748817075
67,0.13512750046033054,-1.3658288382315467,0.15884013779688952,-1.3421196166295695,1.3421196166295692,1.4772471170898998,1.5009597544264588,1.5009563386918772
68,0.29740061299286336,-1.1889649188187388,0.29727023344562803,-1.1890943490871897,1.1890943490871897,1.486494962080053,1.4863645825328178,1.486365531811602
69,0.4670479865852478,-1.0035894855269847,0.4388195764717804,-1.031812258521451,1.031812258521451,1.498860245106699,1.4706318349932315,1.4706374721122324
70,0.6473963470594016,-0.806319014819172,0.5796875524914791,-0.8740171980060267,0.8740171980060267,1.5214135450654283,1.4537047504975058,1.4537153618785736
71,0.6587001490112265,-0.7768426800887398,0.7167821303366193,-0.7187448646521718,0.718744864652172,1.3774450136633987,1.4355269949887912,1.4355428290999663
72,0.8610842607131987,-0.5549800565632669,0.8479225085418842,-0.5681205462209356,0.5681205462209354,1.429204806934134,1.4160430547628198,1.4160643172764655
73,0.9523971105884472,-0.44282838366354715,0.9717396892663441,-0.42345896022818846,0.4234589602281885,1.3758560708166359,1.3951986494945325,1.3952254942519944
74,1.0888799768809474,-0.2840936997317163,1.0874169221901973,-0.28552423061915655,0.28552423061915655,1.374404207500104,1.3729411528093538,1.3729736766126637
75,1.2419062159228065,-0.10735205047199559,1.1944281432597887,-0.15479186117521387,0.15479186117521387,1.3966980770980204,1.3492200044350027,1.349258266394802
76,1.2460101029945791,-0.07802109430448523,1.2923897218326859,-0.031597384224368766,0.03159738422436876,1.277607487218948,1.3239871060570547,1.3240311972990644
77,1.443054406386867,0.14580701810473484,1.3810664126939645,0.08386918369917656,-0.08386918369917654,1.3591852226876906,1.297197228994788,1.2972473882821323
78,1.4430266357944022,0.17416143254558092,1.4604984723411314,0.1916899579109665,-0.19168995791096644,1.2513366778834358,1.268808514430165,1.2688652032488212
79,1.4921943636615982,0.25334744713941104,1.5311663469345604,0.29238319111061956,-0.2923831911106196,1.1998111725509786,1.2387831558239408,1.2388469165221871
80,1.633605587256393,0.42644640252478627,1.594092921778509,0.38700467617730117,-0.38700467617730133,1.2466009110790917,1.2070882456012075,1.2071591847316068
81,1.6439114741959464,0.47013794758203864,1.6508015232280489,0.47710498452593597,-0.477104984525936,1.1668064896700103,1.1736965387021128,1.1737735266139078
82,1.7443544339198829,0.6056876210766606,1.7030943319833085,0.5645076599034831,-0.5645076599034832,1.1798467740163998,1.1385866720798252,1.1386668128432222
83,1.7442410076656691,0.6424192394046222,1.7526781270595704,0.6509357477714599,-0.6509357477714599,1.0933052598942092,1.1017423792881105,1.101821768261047
84,1.744194345289496,0.6809668566434097,1.8007264825603557,0.7375757745080485,-0.7375757745080487,1.0066185707814472,1.063150708052307,1.0632274886460862
85,1.7942362755520531,0.771356302211722,1.8475092326019449,0.824708968625597,-0.8247089686255972,0.969527306926456,1.0228002639763476,1.022879973340331
86,1.9190323221899512,0.9382496486284433,1.8922231479975036,0.9115414778995952,-0.9115414778995949,1.0074908442903563,0.9806816700979086,0.980782673561508
87,1.94625996593957,1.0093129118862785,1.9331125796240394,0.9963197457976044,-0.9963197457976044,0.9499402201419657,0.936792833826435,0.9369470540532916
88,1.9471188457061253,1.0557256828289443,1.9678832565199653,1.0767329993196477,-1.0767329993196475,0.8703858463864778,0.8911502572003178,0.891393162877181
89,2.0134536670966785,1.169303466380231,1.9943132101008623,1.1505090225235044,-1.1505090225235044,0.8629446445731741,0.8438041875773579,0.8441502007164474
90,2.0502760292602997,1.2550189520717372,2.010888646093839,1.2160378011984232,-1.216037801198423,0.8342382280618768,0.7948508448954159,0.7952570771885625
91,2.05178829206038,1.3070253545059227,2.017271332455691,1.2728398495121618,-1.2728398495121618,0.7789484425482183,0.7444314829435292,0.7447629375544573
92,2.053157196365353,1.3604295572336942,2.014450529385856,1.321741899644847,-1.3217418996448467,0.7314152967205063,0.6927086297410094,0.6927276391316588
93,1.9681486104184944,1.3289264574507376,2.0045319373728336,1.3647153756608006,-1.3647153756608006,0.6034332347576938,0.639816561712033,0.6392221529677569
94,1.9534576776241517,1.3691288143836284,1.9902323814686051,1.4044372284137636,-1.4044372284137638,0.5490204492103878,0.5857951530548413,0.5843288632405232
95,1.9520646171774927,1.4239228824205274,1.974238168638276,1.443708780557599,-1.443708780557599,0.5083558366198937,0.530529388080677,0.5281417347569652
96,1.9487937556173345,1.4780274374749263,1.958616301649443,1.4848918301982246,-1.4848918301982241,0.46390192541911035,0.47372447145121876,0.4707663181424082
97,1.9431754219527921,1.5308558588374186,1.9444348748685805,1.5294921577731233,-1.5294921577731229,0.4136832641796693,0.4149427170954576,0.41231956311537354
98,1.9348195263632475,1.5818901135251664,1.9316705731729078,1.5779593379877623,-1.5779593379877623,0.35686018837548517,0.35371123518514547,0.3529294128380811
99,1.9234646503550132,1.630730493528486,1.9193898958529212,1.6297070983725654,-1.6297070983725652,0.293757551982448,0.28968279748035597,0.29273415682652715
100,1.9090185452085195,1.6771370189111046,1.9061183028205506,1.6833123303281985,-1.6833123303281987,0.22570621488032083,0.2228059724923519,0.23188152629741499
101,1.8915846639927896,1.7210571399969155,1.8902767248881727,1.736830189285473,-1.7368301892854732,0.1547544747073164,0.1534465356026995,0.17052752399587412
102,1.871471068006804,1.7626360777754353,1.8705700347158718,1.7881613723139287,-1.7881613723139282,0.08330969569287583,0.08240866240194356,0.10883499023136878
104,1.8491802594014208,1.8641729668967728,1.8462458159125976,1.8354138827449518,-1.8354138827449522,0.013766376656468626,0.010831933167645413,-0.014992707495351976
105,1.8253808047378652,1.9023167712678455,1.8171886960416752,1.877208343028995,-1.8772083430289945,-0.051827538291129294,-0.06001964698731932,-0.07693596652998025
106,1.800863661885906,1.9394473501746983,1.7838620081371768,1.912883965780955,-1.9128839657809549,-0.11202030389504891,-0.1290219576437781,-0.1385836882887923
107,1.776487640710099,1.9762548889266764,1.7471447022040967,1.9425766494572387,-1.9425766494572383,-0.1660890087471394,-0.1954319472531416,-0.19976724821657754
108,1.6867060801727174,1.9470283959464303,1.7081301764886736,1.967163494104301,-1.967163494104301,-0.28045741393158363,-0.2590333176156274,-0.2603223157737129
109,1.630997960408721,1.9510891073302712,1.6679506821981716,1.988094133809641,-1.988094133809641,-0.3570961734009199,-0.3201434516114694,-0.32009114692155016
110,1.6119795473938183,1.990904371738892,1.6276668681522477,2.0071489057997685,-2.007148905799768,-0.3951693584059497,-0.3794820376475203,-0.3789248243450736
111,1.5960425094348731,2.0327278858025504,1.5882249946970153,2.0261694821620915,-2.026169482162092,-0.4301269727272188,-0.43794448746507664,-0.43668537636767724
112,1.5835540385907751,2.0768017451460556,1.5504487453931346,2.0467989589509448,-2.046798958950945,-0.46324492036017006,-0.4963502135578106,-0.4932477065552807
113,1.525375370101003,2.073876640474531,1.5150157257737673,2.0702542691489896,-2.0702542691489887,-0.5448788990479856,-0.5552385433752214,-0.5485012703735279
114,1.4687996980483051,2.071151140927949,1.4823817444497938,2.097145681791951,-2.097145681791952,-0.6283459837436469,-0.6147639373421583,-0.6023514428796437
115,1.4668403078337675,2.121560839850674,1.452655716282313,2.12736199587538,-2.127361995875381,-0.6605216880416134,-0.6747062795930678,-0.6547205320169067
117,1.3672651630244819,2.1275262842822675,1.4254754429743626,2.1600504885471103,-2.1600504885471095,-0.7927853255226276,-0.7345750455727469,-0.7602611212577859
118,1.3707242936852182,2.179105111443037,1.399962415505649,2.1937233692547538,-2.1937233692547533,-0.8229990755695351,-0.7937609537491044,-0.8083808177578189
119,1.3760800316476014,2.230925440720204,1.3748218927832596,2.22650435736447,-2.2265043573644694,-0.850424325716868,-0.8516824645812098,-0.8548454090726025
120,1.3827584581676982,2.282412551756768,1.348601840982528,2.2564887054682106,-2.2564887054682106,-0.8737302473005124,-0.9078868644856826,-0.8996540935890698
121,1.3867473325690156,2.3295692751361696,1.320051546338965,2.282141297974672,-2.282141297974672,-0.8953939654056562,-0.9620897516357068,-0.942821942567154
123,1.2870792851545918,2.3188562657015828,1.2884628692855453,2.3026245763623505,-2.30262457636235,-1.0155452912077583,-1.0141617070768048,-1.031776980546991
124,1.2169263965281758,2.287385174207227,1.2538655054301917,2.317952369909101,-2.3179523699091016,-1.1010259733809258,-1.0640868644789099,-1.0704587776790508
125,1.2121119000884546,2.319728587797869,1.2169933114038005,2.3289134901392674,-2.3289134901392674,-1.1168015900508128,-1.111920178735467,-1.1076166877094145
126,1.2191774623090748,2.362496518673138,1.1790247295990566,2.3367850460622432,-2.3367850460622432,-1.1176075837531685,-1.1577603164631867,-1.1433190563640632
128,1.125191274340628,2.343656179509166,1.1411884665722059,2.3429286815629267,-2.3429286815629276,-1.2177374072222995,-1.2017402149907217,-1.218464905168538
129,1.064943771430957,2.3151257901059603,1.1043760056759966,2.348401333500382,-2.348401333500383,-1.2834575620694257,-1.2440253278243862,-1.2501820186750034
130,1.0363805607890573,2.317075834679232,1.068892895319,2.353698872356362,-2.353698872356362,-1.3173183115673046,-1.2848059770373619,-1.2806952738901747
131,1.041602352362914,2.3516949941618877,1.0344168700440461,2.358692850769609,-2.3586928507696094,-1.3170904984066953,-1.3242759807255633,-1.3100926417989736
133,1.0382130487249368,2.4111262562708324,1.0001443425097858,2.362744854747045,-2.3627448547470453,-1.3245318060221085,-1.3626005122372595,-1.3729132075458956
134,0.9704723098871172,2.369595696978217,0.9650380897908185,2.3649233268726038,-2.364923326872604,-1.394451016985487,-1.3998852370817856,-1.3991233870910995
135,0.9530509008070008,2.377546702392568,0.9280682108757505,2.3642291058841027,-2.364229105884103,-1.4111782050771025,-1.4361608950083526,-1.424495801585567
137,0.8566833172698338,2.3355407955079417,0.8883701206259067,2.3597617444167716,-2.3597617444167716,-1.5030784271469377,-1.4713916237908649,-1.4788574782381079
138,0.859328998007119,2.3610037612412267,0.8453049149800838,2.35080977069978,-2.3508097706997804,-1.4914807726926613,-1.5055048557196966,-1.5016747632341079
140,0.7618736377255761,2.3122906796218166,0.7984633053220018,2.3368940446052218,-2.3368940446052213,-1.5750204068796452,-1.5384307392832195,-1.5504170418962406
141,0.7620834735164466,2.3331687073533587,0.7476744389877914,2.317809259096866,-2.317809259096866,-1.5557257855804196,-1.5701348201090748,-1.5710852338369121
142,0.6932510910311279,2.2845443591676213,0.6930571233446206,2.293688439668851,-2.293688439668852,-1.600437348637724,-1.6006313163242314,-1.5912932681364933
144,0.6624857097387961,2.29620778713888,0.6351002537287076,2.2650739313543857,-2.2650739313543853,-1.6025882216155893,-1.6299736776256777,-1.6337220774000842
145,0.6275512333108966,2.2797716877516416,0.5747132048380588,2.232942548754111,-2.232942548754111,-1.6053913154432145,-1.6582293439160523,-1.6522204544407448
147,0.4608825825703806,2.151311541434639,0.5131760087042785,2.198627814620294,-2.1986278146202936,-1.737745232049913,-1.685451805916015,-1.6904289588642585
148,0.4605218690034163,2.1679550335295428,0.4519538461515542,2.1636166154707768,-2.1636166154707763,-1.70309474646736,-1.7116627693192221,-1.7074331645261265
150,0.3919717411150072,2.1338277870151448,0.3924046447998626,2.1292559215327866,-2.1292559215327866,-1.7372841804177794,-1.736851276732924,-1.7418560459001373
151,0.2867455347176804,2.044226458008673,0.33546916203349986,2.096457171753759,-2.096457171753759,-1.8097116370360784,-1.760988009720259,-1.7574809232909923
153,0.2593874049399558,2.047821914378006,0.28145639514277965,2.065502396604993,-2.065502396604992,-1.806114991665036,-1.7840460014622121,-1.78843450943805
154,0.2599190503145783,2.0626096819775386,0.23000893136965317,2.036025718350561,-2.036025718350561,-1.7761066680359825,-1.8060167869809076,-1.8026906316629603
156,0.1759259155282076,2.0062962968061426,0.18026355528551763,2.0071776838810402,-2.0071776838810402,-1.8312517683528327,-1.8269141285955226,-1.8303703812779348
157,0.16069481686094858,2.00386540346552,0.13114309425227738,1.9779069666251448,-1.977906966625145,-1.8172121497641964,-1.8467638723728677,-1.8431705866045713
159,0.06050189633817517,1.9281637133067244,0.08166427298636167,1.9472492572342817,-1.9472492572342817,-1.8867473608961065,-1.86558498424792,-1.8676618169685493
