frequency,raw,smoothed,error,error_smoothed,equalization,parametric_eq,fixed_band_eq,equalized_raw,equalized_smoothed,target
20.00,6.35,6.35,1.93,1.92,-1.94,-2.30,-1.09,4.41,4.41,4.42
20.20,6.38,6.38,1.91,1.91,-1.92,-2.30,-1.12,4.46,4.47,4.47
20.40,6.42,6.42,1.90,1.90,-1.90,-2.31,-1.16,4.52,4.52,4.52
20.61,6.45,6.45,1.90,1.89,-1.88,-2.31,-1.19,4.57,4.57,4.55
20.81,6.49,6.49,1.89,1.89,-1.87,-2.31,-1.22,4.62,4.62,4.60
21.02,6.52,6.52,1.88,1.88,-1.87,-2.32,-1.26,4.65,4.65,4.64
21.23,6.54,6.54,1.88,1.88,-1.87,-2.32,-1.30,4.67,4.67,4.66
21.44,6.56,6.56,1.88,1.88,-1.88,-2.32,-1.33,4.68,4.68,4.68
21.66,6.58,6.58,1.88,1.88,-1.89,-2.33,-1.37,4.69,4.69,4.70
21.87,6.60,6.60,1.89,1.89,-1.91,-2.33,-1.41,4.69,4.69,4.71
22.09,6.63,6.64,1.90,1.91,-1.94,-2.33,-1.45,4.70,4.70,4.73
22.31,6.68,6.68,1.94,1.94,-1.97,-2.34,-1.49,4.72,4.71,4.74
22.54,6.73,6.73,1.99,1.99,-1.99,-2.34,-1.53,4.73,4.74,4.74
22.76,6.78,6.78,2.04,2.05,-2.02,-2.35,-1.58,4.76,4.76,4.74
22.99,6.83,6.82,2.10,2.09,-2.04,-2.35,-1.62,4.79,4.77,4.73
23.22,6.83,6.83,2.10,2.10,-2.07,-2.36,-1.67,4.76,4.76,4.73
23.45,6.82,6.82,2.10,2.10,-2.09,-2.36,-1.72,4.73,4.74,4.72
23.69,6.82,6.81,2.09,2.08,-2.11,-2.36,-1.76,4.71,4.71,4.73
23.92,6.81,6.82,2.08,2.08,-2.12,-2.37,-1.81,4.69,4.70,4.73
24.16,6.84,6.84,2.10,2.10,-2.14,-2.37,-1.86,4.70,4.70,4.74
24.40,6.89,6.89,2.14,2.14,-2.16,-2.38,-1.91,4.73,4.73,4.75
24.65,6.93,6.93,2.19,2.19,-2.18,-2.38,-1.96,4.75,4.76,4.74
24.89,6.98,6.97,2.24,2.23,-2.20,-2.39,-2.01,4.78,4.77,4.74
25.14,7.00,7.00,2.26,2.25,-2.23,-2.39,-2.07,4.77,4.77,4.74
25.39,7.00,7.01,2.25,2.26,-2.25,-2.40,-2.12,4.75,4.75,4.75
25.65,7.01,7.01,2.26,2.26,-2.27,-2.40,-2.17,4.74,4.74,4.75
25.91,7.01,7.01,2.27,2.27,-2.29,-2.41,-2.22,4.72,4.72,4.74
26.16,7.03,7.03,2.30,2.30,-2.31,-2.41,-2.28,4.72,4.72,4.73
26.43,7.05,7.05,2.32,2.32,-2.33,-2.42,-2.33,4.72,4.73,4.73
26.69,7.08,7.08,2.35,2.34,-2.35,-2.42,-2.38,4.73,4.73,4.73
26.96,7.11,7.11,2.37,2.37,-2.37,-2.43,-2.43,4.74,4.73,4.74
27.23,7.13,7.13,2.39,2.40,-2.40,-2.44,-2.48,4.73,4.74,4.74
27.50,7.16,7.16,2.42,2.43,-2.42,-2.44,-2.53,4.74,4.74,4.74
27.77,7.19,7.19,2.46,2.46,-2.44,-2.45,-2.58,4.75,4.75,4.73
28.05,7.21,7.20,2.48,2.48,-2.46,-2.45,-2.63,4.75,4.75,4.73
28.33,7.20,7.20,2.49,2.49,-2.47,-2.46,-2.67,4.73,4.73,4.71
28.62,7.20,7.20,2.49,2.48,-2.48,-2.47,-2.71,4.72,4.71,4.71
28.90,7.19,7.20,2.47,2.48,-2.50,-2.47,-2.75,4.69,4.70,4.72
29.19,7.21,7.21,2.50,2.50,-2.52,-2.48,-2.79,4.69,4.69,4.71
29.48,7.25,7.24,2.52,2.52,-2.55,-2.49,-2.83,4.70,4.70,4.73
29.78,7.28,7.28,2.56,2.56,-2.57,-2.49,-2.86,4.71,4.71,4.72
30.08,7.32,7.32,2.60,2.60,-2.60,-2.50,-2.89,4.72,4.72,4.72
30.38,7.36,7.36,2.65,2.65,-2.64,-2.51,-2.92,4.72,4.72,4.71
30.68,7.39,7.39,2.68,2.68,-2.66,-2.51,-2.94,4.73,4.73,4.71
30.99,7.43,7.42,2.72,2.71,-2.69,-2.52,-2.96,4.74,4.73,4.71
31.30,7.42,7.42,2.71,2.72,-2.70,-2.53,-2.98,4.72,4.72,4.71
31.61,7.42,7.42,2.72,2.72,-2.71,-2.53,-2.99,4.71,4.71,4.70
31.93,7.41,7.41,2.71,2.71,-2.71,-2.54,-3.00,4.70,4.70,4.70
32.24,7.41,7.40,2.72,2.71,-2.72,-2.55,-3.01,4.69,4.68,4.69
32.57,7.40,7.40,2.70,2.70,-2.73,-2.56,-3.01,4.67,4.67,4.70
32.89,7.39,7.40,2.70,2.71,-2.74,-2.57,-3.01,4.65,4.66,4.69
33.22,7.42,7.42,2.74,2.74,-2.75,-2.57,-3.01,4.67,4.67,4.68
33.55,7.46,7.46,2.78,2.78,-2.77,-2.58,-3.01,4.69,4.69,4.68
33.89,7.50,7.49,2.84,2.82,-2.80,-2.59,-3.00,4.70,4.70,4.66
34.23,7.51,7.51,2.84,2.84,-2.82,-2.60,-2.99,4.69,4.68,4.67
34.57,7.51,7.51,2.85,2.85,-2.86,-2.61,-2.98,4.65,4.66,4.66
34.92,7.51,7.52,2.85,2.86,-2.88,-2.62,-2.97,4.63,4.63,4.66
35.27,7.54,7.55,2.89,2.89,-2.91,-2.63,-2.96,4.63,4.64,4.65
35.62,7.58,7.58,2.93,2.93,-2.93,-2.64,-2.94,4.65,4.65,4.65
35.97,7.62,7.61,2.97,2.96,-2.94,-2.64,-2.93,4.68,4.67,4.65
36.33,7.62,7.62,2.97,2.98,-2.95,-2.65,-2.91,4.67,4.67,4.65
36.70,7.61,7.62,2.97,2.98,-2.96,-2.66,-2.89,4.65,4.66,4.64
37.06,7.61,7.60,2.98,2.96,-2.97,-2.67,-2.88,4.64,4.64,4.63
37.43,7.60,7.60,2.95,2.95,-2.98,-2.68,-2.86,4.62,4.62,4.65
37.81,7.59,7.60,2.95,2.96,-2.99,-2.69,-2.85,4.60,4.61,4.64
38.19,7.61,7.62,2.97,2.97,-3.00,-2.70,-2.83,4.61,4.62,4.64
38.57,7.66,7.66,3.01,3.01,-3.01,-2.71,-2.82,4.65,4.65,4.65
38.95,7.70,7.69,3.05,3.04,-3.02,-2.73,-2.80,4.68,4.67,4.65
39.34,7.71,7.71,3.06,3.06,-3.04,-2.74,-2.79,4.67,4.67,4.65
39.74,7.71,7.71,3.07,3.07,-3.06,-2.75,-2.78,4.65,4.66,4.64
40.14,7.71,7.71,3.07,3.07,-3.07,-2.76,-2.77,4.64,4.64,4.64
40.54,7.71,7.71,3.07,3.07,-3.08,-2.77,-2.76,4.63,4.63,4.64
40.94,7.71,7.71,3.08,3.08,-3.08,-2.78,-2.75,4.63,4.63,4.63
41.35,7.71,7.71,3.08,3.08,-3.08,-2.79,-2.75,4.63,4.63,4.63
41.76,7.71,7.71,3.09,3.09,-3.09,-2.80,-2.75,4.62,4.62,4.62
42.18,7.71,7.71,3.09,3.09,-3.09,-2.82,-2.74,4.62,4.62,4.62
42.60,7.71,7.71,3.10,3.10,-3.10,-2.83,-2.74,4.61,4.61,4.61
43.03,7.71,7.71,3.11,3.11,-3.11,-2.84,-2.75,4.60,4.60,4.60
43.46,7.71,7.71,3.12,3.12,-3.13,-2.85,-2.75,4.58,4.58,4.59
43.90,7.71,7.71,3.14,3.14,-3.14,-2.87,-2.76,4.57,4.57,4.57
44.33,7.71,7.71,3.16,3.16,-3.16,-2.88,-2.77,4.55,4.55,4.55
44.78,7.71,7.71,3.18,3.18,-3.17,-2.89,-2.78,4.54,4.54,4.53
45.23,7.71,7.71,3.19,3.19,-3.19,-2.91,-2.79,4.52,4.52,4.52
45.68,7.71,7.71,3.21,3.21,-3.20,-2.92,-2.80,4.51,4.51,4.50
46.13,7.71,7.71,3.23,3.22,-3.22,-2.93,-2.82,4.49,4.49,4.48
46.60,7.71,7.71,3.22,3.23,-3.23,-2.95,-2.84,4.48,4.48,4.49
47.06,7.71,7.71,3.24,3.24,-3.24,-2.96,-2.86,4.47,4.47,4.47
47.53,7.71,7.71,3.25,3.25,-3.25,-2.98,-2.88,4.46,4.46,4.46
48.01,7.71,7.71,3.25,3.26,-3.27,-2.99,-2.91,4.44,4.44,4.46
48.49,7.71,7.71,3.28,3.28,-3.28,-3.01,-2.93,4.43,4.43,4.43
48.97,7.71,7.71,3.30,3.30,-3.30,-3.02,-2.96,4.41,4.41,4.41
49.46,7.71,7.71,3.32,3.32,-3.31,-3.04,-2.99,4.40,4.40,4.39
49.96,7.71,7.71,3.34,3.33,-3.33,-3.05,-3.02,4.38,4.38,4.37
50.46,7.71,7.71,3.34,3.35,-3.34,-3.07,-3.05,4.37,4.37,4.37
50.96,7.71,7.71,3.35,3.36,-3.36,-3.08,-3.09,4.35,4.35,4.36
51.47,7.71,7.71,3.38,3.37,-3.37,-3.10,-3.12,4.34,4.34,4.33
51.99,7.71,7.71,3.39,3.39,-3.38,-3.12,-3.16,4.33,4.33,4.32
52.51,7.71,7.71,3.39,3.40,-3.40,-3.13,-3.20,4.31,4.31,4.32
53.03,7.71,7.71,3.40,3.40,-3.41,-3.15,-3.23,4.30,4.30,4.31
53.56,7.71,7.71,3.41,3.41,-3.42,-3.17,-3.27,4.29,4.29,4.30
54.10,7.71,7.71,3.43,3.43,-3.43,-3.18,-3.31,4.28,4.28,4.28
54.64,7.71,7.71,3.45,3.44,-3.44,-3.20,-3.35,4.27,4.27,4.26
55.18,7.71,7.71,3.45,3.45,-3.45,-3.22,-3.39,4.26,4.26,4.26
55.74,7.71,7.71,3.47,3.47,-3.47,-3.24,-3.43,4.24,4.24,4.24
56.29,7.71,7.71,3.48,3.48,-3.48,-3.25,-3.46,4.23,4.23,4.23
56.86,7.71,7.71,3.49,3.50,-3.50,-3.27,-3.50,4.21,4.21,4.22
57.42,7.71,7.71,3.52,3.52,-3.52,-3.29,-3.54,4.19,4.19,4.19
58.00,7.71,7.71,3.53,3.53,-3.53,-3.31,-3.57,4.18,4.18,4.18
58.58,7.71,7.71,3.54,3.55,-3.55,-3.33,-3.61,4.16,4.17,4.17
59.16,7.71,7.72,3.56,3.57,-3.56,-3.35,-3.64,4.15,4.16,4.15
59.76,7.72,7.71,3.59,3.58,-3.58,-3.37,-3.67,4.14,4.13,4.13
60.35,7.69,7.68,3.61,3.59,-3.60,-3.39,-3.70,4.09,4.08,4.08
60.96,7.64,7.65,3.59,3.60,-3.62,-3.41,-3.73,4.02,4.03,4.05
61.57,7.62,7.63,3.61,3.62,-3.63,-3.42,-3.75,3.99,3.99,4.01
62.18,7.61,7.61,3.65,3.65,-3.65,-3.44,-3.78,3.96,3.96,3.96
62.80,7.61,7.60,3.69,3.68,-3.66,-3.46,-3.80,3.95,3.94,3.92
63.43,7.58,7.57,3.70,3.70,-3.68,-3.48,-3.82,3.90,3.89,3.88
64.07,7.52,7.52,3.69,3.69,-3.69,-3.50,-3.83,3.83,3.83,3.83
64.71,7.46,7.47,3.68,3.69,-3.69,-3.52,-3.85,3.77,3.78,3.78
65.35,7.42,7.43,3.67,3.69,-3.69,-3.55,-3.86,3.73,3.74,3.75
66.01,7.41,7.39,3.71,3.69,-3.68,-3.57,-3.88,3.73,3.71,3.70
66.67,7.34,7.34,3.69,3.69,-3.66,-3.59,-3.89,3.68,3.68,3.65
67.33,7.28,7.28,3.68,3.68,-3.66,-3.61,-3.90,3.62,3.62,3.60
68.01,7.21,7.20,3.65,3.65,-3.66,-3.63,-3.91,3.55,3.54,3.56
68.69,7.14,7.14,3.63,3.64,-3.68,-3.65,-3.91,3.46,3.47,3.51
69.37,7.11,7.12,3.66,3.67,-3.71,-3.67,-3.92,3.40,3.41,3.45
70.07,7.12,7.13,3.72,3.73,-3.76,-3.69,-3.93,3.36,3.38,3.40
70.77,7.19,7.16,3.83,3.81,-3.82,-3.71,-3.94,3.37,3.34,3.36
71.48,7.21,7.21,3.91,3.91,-3.90,-3.73,-3.94,3.31,3.31,3.30
72.19,7.23,7.25,3.99,4.01,-3.99,-3.75,-3.95,3.24,3.26,3.24
72.91,7.30,7.28,4.12,4.09,-4.09,-3.77,-3.96,3.21,3.18,3.18
73.64,7.31,7.32,4.18,4.20,-4.19,-3.79,-3.97,3.12,3.13,3.13
74.38,7.35,7.36,4.28,4.30,-4.29,-3.80,-3.98,3.06,3.08,3.07
75.12,7.41,7.39,4.40,4.38,-4.38,-3.82,-3.99,3.03,3.01,3.01
75.87,7.41,7.41,4.46,4.46,-4.46,-3.84,-4.00,2.95,2.96,2.95
76.63,7.41,7.42,4.51,4.52,-4.52,-3.85,-4.02,2.89,2.89,2.90
77.40,7.41,7.41,4.56,4.57,-4.58,-3.87,-4.04,2.83,2.84,2.85
78.17,7.41,7.41,4.62,4.62,-4.62,-3.88,-4.06,2.79,2.80,2.79
78.95,7.41,7.40,4.66,4.65,-4.64,-3.89,-4.08,2.77,2.76,2.75
79.74,7.36,7.37,4.66,4.66,-4.64,-3.90,-4.10,2.72,2.72,2.70
80.54,7.30,7.29,4.64,4.63,-4.63,-3.91,-4.13,2.67,2.66,2.66
81.35,7.20,7.19,4.60,4.59,-4.59,-3.91,-4.16,2.61,2.61,2.60
82.16,7.05,7.10,4.49,4.54,-4.53,-3.91,-4.19,2.52,2.57,2.56
82.98,7.01,6.98,4.49,4.47,-4.45,-3.91,-4.23,2.56,2.53,2.52
83.81,6.86,6.83,4.40,4.37,-4.36,-3.89,-4.27,2.50,2.48,2.46
84.65,6.65,6.67,4.23,4.25,-4.25,-3.88,-4.31,2.40,2.42,2.42
85.50,6.47,6.48,4.09,4.11,-4.14,-3.85,-4.35,2.33,2.34,2.38
86.35,6.31,6.31,3.98,3.98,-4.01,-3.82,-4.40,2.30,2.30,2.33
87.22,6.14,6.14,3.86,3.86,-3.86,-3.78,-4.45,2.28,2.28,2.28
88.09,5.97,5.97,3.74,3.74,-3.71,-3.73,-4.51,2.26,2.26,2.23
88.97,5.78,5.77,3.60,3.60,-3.55,-3.66,-4.57,2.23,2.22,2.18
89.86,5.55,5.55,3.43,3.42,-3.39,-3.58,-4.63,2.16,2.15,2.12
90.76,5.31,5.31,3.24,3.23,-3.23,-3.48,-4.69,2.08,2.08,2.07
91.66,5.07,5.08,3.04,3.06,-3.07,-3.37,-4.76,2.00,2.02,2.03
92.58,4.88,4.88,2.91,2.91,-2.91,-3.26,-4.83,1.97,1.97,1.97
93.51,4.72,4.71,2.80,2.78,-2.77,-3.14,-4.91,1.95,1.94,1.92
94.44,4.56,4.56,2.68,2.68,-2.66,-3.04,-4.98,1.90,1.90,1.88
95.39,4.43,4.43,2.60,2.59,-2.59,-2.95,-5.06,1.84,1.83,1.83
96.34,4.34,4.33,2.56,2.55,-2.59,-2.94,-5.15,1.75,1.74,1.78
97.30,4.29,4.31,2.56,2.58,-2.66,-2.94,-5.24,1.63,1.65,1.74
98.28,4.38,4.38,2.69,2.69,-2.79,-3.05,-5.33,1.59,1.60,1.69
99.26,4.53,4.53,2.89,2.88,-2.97,-3.19,-5.42,1.56,1.55,1.64
100.25,4.78,4.78,3.18,3.18,-3.21,-3.40,-5.51,1.57,1.57,1.60
101.25,5.03,5.07,3.48,3.52,-3.50,-3.64,-5.61,1.54,1.58,1.55
102.27,5.43,5.37,3.92,3.87,-3.81,-3.90,-5.71,1.62,1.56,1.51
103.29,5.66,5.65,4.21,4.19,-4.14,-4.17,-5.81,1.52,1.51,1.45
104.32,5.88,5.91,4.47,4.50,-4.46,-4.43,-5.91,1.42,1.45,1.41
105.37,6.12,6.13,4.75,4.77,-4.76,-4.69,-6.01,1.36,1.37,1.37
106.42,6.39,6.36,5.07,5.04,-5.03,-4.92,-6.11,1.36,1.32,1.32
107.48,6.55,6.56,5.29,5.29,-5.27,-5.16,-6.21,1.28,1.29,1.26
108.56,6.71,6.72,5.50,5.51,-5.48,-5.37,-6.31,1.23,1.24,1.21
109.64,6.86,6.85,5.70,5.69,-5.66,-5.58,-6.40,1.20,1.18,1.16
110.74,6.95,6.95,5.84,5.84,-5.83,-5.76,-6.50,1.12,1.12,1.11
111.85,7.03,7.02,5.96,5.96,-5.98,-5.94,-6.59,1.05,1.04,1.07
112.97,7.07,7.09,6.06,6.08,-6.11,-6.11,-6.68,0.96,0.99,1.01
114.10,7.16,7.18,6.20,6.22,-6.23,-6.26,-6.77,0.93,0.95,0.96
115.24,7.29,7.25,6.37,6.34,-6.34,-6.40,-6.85,0.95,0.91,0.92
116.39,7.32,7.31,6.46,6.44,-6.45,-6.52,-6.92,0.87,0.86,0.86
117.55,7.34,7.37,6.51,6.54,-6.56,-6.63,-6.99,0.78,0.81,0.83
118.73,7.41,7.43,6.63,6.64,-6.66,-6.72,-7.06,0.75,0.77,0.78
119.92,7.54,7.51,6.78,6.76,-6.76,-6.80,-7.11,0.78,0.75,0.76
121.12,7.59,7.59,6.87,6.87,-6.85,-6.87,-7.16,0.74,0.74,0.72
122.33,7.64,7.65,6.96,6.96,-6.93,-6.92,-7.20,0.71,0.72,0.68
123.55,7.68,7.66,7.02,7.01,-7.00,-6.96,-7.24,0.68,0.67,0.66
124.79,7.68,7.69,7.05,7.06,-7.06,-6.99,-7.26,0.62,0.63,0.63
126.03,7.69,7.71,7.09,7.11,-7.11,-7.03,-7.28,0.58,0.60,0.60
127.29,7.74,7.72,7.16,7.15,-7.15,-7.05,-7.29,0.59,0.57,0.58
128.57,7.74,7.73,7.20,7.18,-7.18,-7.08,-7.30,0.56,0.55,0.54
129.85,7.71,7.73,7.20,7.21,-7.21,-7.10,-7.29,0.50,0.52,0.51
131.15,7.71,7.71,7.23,7.23,-7.24,-7.13,-7.28,0.47,0.48,0.48
132.46,7.72,7.71,7.26,7.26,-7.27,-7.15,-7.25,0.45,0.45,0.46
133.79,7.72,7.72,7.29,7.29,-7.30,-7.18,-7.23,0.42,0.43,0.43
135.12,7.73,7.73,7.33,7.33,-7.33,-7.21,-7.20,0.40,0.40,0.40
136.48,7.73,7.73,7.35,7.35,-7.35,-7.25,-7.16,0.38,0.37,0.38
137.84,7.73,7.73,7.38,7.39,-7.38,-7.29,-7.12,0.35,0.35,0.35
139.22,7.73,7.73,7.42,7.42,-7.41,-7.32,-7.08,0.32,0.32,0.31
140.61,7.74,7.74,7.46,7.45,-7.45,-7.37,-7.03,0.29,0.29,0.28
142.02,7.74,7.74,7.47,7.48,-7.48,-7.41,-6.98,0.26,0.26,0.27
143.44,7.74,7.74,7.50,7.51,-7.51,-7.46,-6.92,0.23,0.23,0.24
144.87,7.74,7.74,7.54,7.54,-7.55,-7.50,-6.87,0.19,0.19,0.20
146.32,7.74,7.74,7.58,7.58,-7.59,-7.55,-6.82,0.15,0.15,0.16
147.78,7.74,7.74,7.61,7.62,-7.63,-7.60,-6.76,0.11,0.11,0.13
149.26,7.74,7.74,7.66,7.67,-7.68,-7.66,-6.71,0.06,0.06,0.08
150.75,7.74,7.73,7.73,7.71,-7.73,-7.71,-6.65,0.01,0.00,0.01
152.26,7.71,7.70,7.76,7.76,-7.76,-7.76,-6.60,-0.05,-0.06,-0.05
153.78,7.65,7.68,7.77,7.80,-7.78,-7.81,-6.55,-0.13,-0.10,-0.12
155.32,7.64,7.64,7.83,7.83,-7.78,-7.86,-6.51,-0.14,-0.15,-0.19
156.88,7.59,7.56,7.86,7.83,-7.76,-7.92,-6.46,-0.17,-0.20,-0.27
158.44,7.44,7.44,7.79,7.79,-7.73,-7.97,-6.43,-0.29,-0.29,-0.35
160.03,7.27,7.29,7.70,7.72,-7.69,-8.02,-6.39,-0.42,-0.40,-0.43
161.63,7.13,7.13,7.64,7.64,-7.66,-8.07,-6.35,-0.53,-0.53,-0.51
163.24,7.03,7.02,7.60,7.58,-7.65,-8.11,-6.32,-0.62,-0.64,-0.57
164.88,6.94,6.95,7.56,7.56,-7.66,-8.16,-6.30,-0.72,-0.72,-0.62
166.53,6.92,6.94,7.58,7.61,-7.70,-8.20,-6.28,-0.78,-0.76,-0.66
168.19,7.00,7.01,7.70,7.72,-7.77,-8.25,-6.26,-0.77,-0.75,-0.70
169.87,7.13,7.12,7.87,7.86,-7.85,-8.29,-6.25,-0.72,-0.72,-0.74
171.57,7.27,7.24,8.03,8.00,-7.94,-8.32,-6.24,-0.67,-0.70,-0.76
173.29,7.31,7.32,8.08,8.09,-8.02,-8.36,-6.23,-0.71,-0.70,-0.77
175.02,7.36,7.37,8.14,8.15,-8.09,-8.39,-6.24,-0.73,-0.72,-0.78
176.77,7.39,7.38,8.18,8.18,-8.13,-8.42,-6.24,-0.74,-0.75,-0.79
178.54,7.39,7.38,8.19,8.18,-8.16,-8.44,-6.25,-0.77,-0.77,-0.80
180.32,7.36,7.36,8.15,8.15,-8.16,-8.46,-6.27,-0.80,-0.81,-0.79
182.13,7.32,7.33,8.10,8.12,-8.16,-8.48,-6.29,-0.84,-0.83,-0.78
183.95,7.31,7.32,8.11,8.11,-8.16,-8.49,-6.31,-0.85,-0.84,-0.80
185.79,7.32,7.32,8.12,8.12,-8.16,-8.50,-6.34,-0.84,-0.84,-0.80
187.65,7.34,7.34,8.16,8.15,-8.16,-8.50,-6.37,-0.82,-0.82,-0.82
189.52,7.35,7.35,8.18,8.18,-8.16,-8.50,-6.41,-0.81,-0.81,-0.83
191.42,7.36,7.35,8.21,8.20,-8.17,-8.50,-6.45,-0.81,-0.82,-0.85
193.33,7.34,7.34,8.21,8.21,-8.18,-8.49,-6.50,-0.84,-0.84,-0.87
195.27,7.31,7.32,8.19,8.21,-8.19,-8.48,-6.55,-0.88,-0.87,-0.88
197.22,7.31,7.29,8.21,8.20,-8.20,-8.46,-6.60,-0.89,-0.91,-0.90
199.19,7.26,7.26,8.19,8.19,-8.20,-8.44,-6.66,-0.94,-0.94,-0.93
201.18,7.22,7.24,8.17,8.19,-8.21,-8.41,-6.72,-0.99,-0.97,-0.95
203.19,7.23,7.22,8.19,8.19,-8.22,-8.38,-6.78,-0.99,-0.99,-0.96
205.23,7.23,7.23,8.22,8.21,-8.23,-8.34,-6.85,-1.00,-1.00,-0.99
207.28,7.23,7.23,8.22,8.23,-8.24,-8.30,-6.91,-1.01,-1.00,-0.99
209.35,7.23,7.24,8.25,8.26,-8.24,-8.26,-6.98,-1.01,-1.01,-1.02
211.44,7.23,7.23,8.28,8.27,-8.25,-8.21,-7.05,-1.02,-1.02,-1.05
213.56,7.22,7.20,8.28,8.26,-8.24,-8.15,-7.12,-1.02,-1.04,-1.06
215.69,7.14,7.15,8.21,8.22,-8.22,-8.10,-7.19,-1.08,-1.06,-1.07
217.85,7.09,7.10,8.17,8.18,-8.18,-8.04,-7.25,-1.09,-1.08,-1.08
220.03,7.04,7.04,8.13,8.13,-8.13,-7.97,-7.32,-1.09,-1.09,-1.09
222.23,6.99,6.97,8.11,8.08,-8.07,-7.90,-7.38,-1.08,-1.10,-1.12
224.45,6.88,6.89,7.99,8.00,-8.00,-7.83,-7.44,-1.12,-1.11,-1.11
226.70,6.81,6.81,7.92,7.91,-7.93,-7.75,-7.49,-1.12,-1.13,-1.11
228.96,6.72,6.73,7.82,7.83,-7.86,-7.68,-7.54,-1.14,-1.13,-1.10
231.25,6.67,6.68,7.76,7.77,-7.78,-7.59,-7.59,-1.11,-1.10,-1.09
233.57,6.63,6.62,7.71,7.70,-7.69,-7.51,-7.62,-1.06,-1.07,-1.08
235.90,6.56,6.55,7.63,7.62,-7.60,-7.42,-7.65,-1.04,-1.05,-1.07
238.26,6.48,6.48,7.54,7.53,-7.51,-7.33,-7.67,-1.03,-1.03,-1.06
240.64,6.37,6.39,7.41,7.43,-7.41,-7.24,-7.68,-1.04,-1.02,-1.04
243.05,6.31,6.29,7.32,7.30,-7.31,-7.14,-7.69,-1.00,-1.02,-1.01
245.48,6.22,6.20,7.20,7.18,-7.21,-7.04,-7.68,-0.99,-1.01,-0.98
247.93,6.08,6.13,7.03,7.09,-7.10,-6.94,-7.66,-1.02,-0.96,-0.95
250.41,6.06,6.05,7.00,6.98,-6.98,-6.84,-7.63,-0.92,-0.94,-0.94
252.92,6.01,5.97,6.92,6.87,-6.87,-6.73,-7.59,-0.86,-0.91,-0.91
255.45,5.85,5.89,6.74,6.78,-6.76,-6.63,-7.54,-0.91,-0.88,-0.89
258.00,5.79,5.79,6.65,6.65,-6.66,-6.52,-7.48,-0.87,-0.87,-0.86
260.58,5.71,5.69,6.56,6.54,-6.55,-6.41,-7.40,-0.84,-0.86,-0.85
263.19,5.61,5.62,6.43,6.44,-6.44,-6.30,-7.32,-0.83,-0.82,-0.82
265.82,5.52,5.53,6.32,6.33,-6.32,-6.19,-7.23,-0.80,-0.79,-0.80
268.48,5.46,5.45,6.24,6.22,-6.21,-6.07,-7.13,-0.75,-0.76,-0.78
271.16,5.37,5.37,6.11,6.12,-6.10,-5.95,-7.02,-0.73,-0.73,-0.74
273.87,5.26,5.25,5.99,5.98,-5.99,-5.84,-6.91,-0.73,-0.74,-0.73
276.61,5.15,5.14,5.85,5.84,-5.88,-5.72,-6.79,-0.73,-0.74,-0.70
279.38,5.01,5.05,5.68,5.72,-5.76,-5.60,-6.67,-0.75,-0.71,-0.67
282.17,4.99,5.00,5.64,5.64,-5.63,-5.47,-6.53,-0.64,-0.64,-0.65
284.99,4.97,4.94,5.58,5.56,-5.50,-5.35,-6.40,-0.53,-0.56,-0.61
287.84,4.86,4.84,5.45,5.43,-5.36,-5.22,-6.26,-0.50,-0.52,-0.60
290.72,4.69,4.67,5.25,5.23,-5.22,-5.10,-6.12,-0.53,-0.55,-0.56
293.63,4.46,4.50,4.99,5.03,-5.08,-4.97,-5.98,-0.62,-0.57,-0.53
296.57,4.34,4.37,4.84,4.87,-4.92,-4.84,-5.83,-0.58,-0.55,-0.50
299.53,4.29,4.26,4.76,4.74,-4.76,-4.71,-5.69,-0.47,-0.50,-0.47
302.53,4.19,4.16,4.65,4.60,-4.59,-4.57,-5.54,-0.40,-0.44,-0.46
305.55,4.01,4.03,4.42,4.45,-4.42,-4.44,-5.40,-0.41,-0.39,-0.41
308.61,3.87,3.90,4.26,4.29,-4.25,-4.30,-5.25,-0.38,-0.36,-0.39
311.69,3.77,3.74,4.14,4.10,-4.09,-4.17,-5.11,-0.32,-0.35,-0.37
314.81,3.60,3.58,3.94,3.93,-3.93,-4.03,-4.96,-0.33,-0.35,-0.34
317.96,3.38,3.41,3.70,3.74,-3.76,-3.89,-4.82,-0.38,-0.36,-0.32
321.14,3.24,3.24,3.56,3.55,-3.60,-3.74,-4.68,-0.36,-0.35,-0.32
324.35,3.10,3.11,3.40,3.41,-3.42,-3.60,-4.54,-0.32,-0.32,-0.30
327.59,3.00,2.99,3.28,3.27,-3.25,-3.46,-4.41,-0.25,-0.27,-0.28
330.87,2.86,2.85,3.14,3.12,-3.08,-3.31,-4.27,-0.22,-0.23,-0.28
334.18,2.69,2.70,2.95,2.96,-2.92,-3.17,-4.14,-0.23,-0.22,-0.26
337.52,2.53,2.53,2.78,2.78,-2.76,-3.02,-4.01,-0.24,-0.23,-0.25
340.90,2.38,2.36,2.61,2.60,-2.62,-2.88,-3.89,-0.24,-0.26,-0.23
344.30,2.20,2.20,2.43,2.43,-2.48,-2.74,-3.76,-0.28,-0.28,-0.23
347.75,2.04,2.07,2.27,2.30,-2.34,-2.60,-3.64,-0.30,-0.26,-0.23
351.23,1.97,1.98,2.19,2.21,-2.21,-2.46,-3.52,-0.24,-0.23,-0.22
354.74,1.95,1.92,2.17,2.14,-2.11,-2.33,-3.41,-0.16,-0.19,-0.22
358.28,1.84,1.83,2.06,2.05,-2.02,-2.20,-3.29,-0.18,-0.19,-0.22
361.87,1.73,1.72,1.95,1.94,-1.94,-2.07,-3.18,-0.21,-0.22,-0.22
365.49,1.60,1.64,1.81,1.85,-1.88,-1.96,-3.07,-0.28,-0.24,-0.21
369.14,1.58,1.59,1.80,1.81,-1.82,-1.85,-2.97,-0.24,-0.23,-0.22
372.83,1.59,1.56,1.81,1.78,-1.76,-1.74,-2.86,-0.17,-0.20,-0.22
376.56,1.53,1.52,1.75,1.74,-1.72,-1.65,-2.76,-0.19,-0.20,-0.22
380.33,1.46,1.47,1.68,1.69,-1.69,-1.57,-2.66,-0.23,-0.22,-0.22
384.13,1.40,1.42,1.62,1.64,-1.67,-1.49,-2.56,-0.27,-0.26,-0.22
387.97,1.40,1.40,1.63,1.63,-1.67,-1.43,-2.47,-0.27,-0.27,-0.23
391.85,1.41,1.40,1.65,1.64,-1.66,-1.37,-2.38,-0.25,-0.26,-0.24
395.77,1.42,1.43,1.65,1.67,-1.65,-1.33,-2.29,-0.23,-0.23,-0.23
399.73,1.43,1.43,1.67,1.67,-1.64,-1.29,-2.20,-0.21,-0.22,-0.24
403.72,1.43,1.41,1.68,1.66,-1.63,-1.26,-2.11,-0.20,-0.22,-0.25
407.76,1.35,1.37,1.61,1.62,-1.60,-1.24,-2.03,-0.25,-0.24,-0.26
411.84,1.31,1.31,1.57,1.57,-1.56,-1.23,-1.95,-0.25,-0.24,-0.26
415.96,1.24,1.24,1.50,1.50,-1.49,-1.22,-1.87,-0.25,-0.25,-0.26
420.12,1.19,1.17,1.45,1.43,-1.40,-1.22,-1.79,-0.21,-0.23,-0.26
424.32,1.06,1.08,1.32,1.34,-1.31,-1.22,-1.71,-0.25,-0.23,-0.26
428.56,0.98,0.98,1.23,1.23,-1.22,-1.22,-1.64,-0.24,-0.24,-0.25
432.85,0.88,0.86,1.12,1.11,-1.14,-1.23,-1.57,-0.26,-0.27,-0.24
437.18,0.77,0.78,1.00,1.00,-1.06,-1.24,-1.50,-0.29,-0.29,-0.23
441.55,0.71,0.73,0.91,0.93,-1.00,-1.25,-1.43,-0.29,-0.27,-0.20
445.96,0.73,0.74,0.90,0.91,-0.95,-1.25,-1.37,-0.22,-0.20,-0.17
450.42,0.81,0.80,0.95,0.93,-0.90,-1.26,-1.31,-0.09,-0.10,-0.14
454.93,0.87,0.85,0.96,0.94,-0.88,-1.27,-1.25,-0.01,-0.02,-0.09
459.48,0.88,0.87,0.92,0.90,-0.86,-1.28,-1.19,0.02,0.00,-0.04
464.07,0.86,0.86,0.85,0.85,-0.85,-1.29,-1.13,0.01,0.01,0.01
468.71,0.84,0.88,0.77,0.81,-0.85,-1.29,-1.08,-0.01,0.03,0.07
473.40,0.93,0.93,0.82,0.82,-0.84,-1.30,-1.03,0.09,0.09,0.11
478.13,1.03,1.01,0.86,0.85,-0.84,-1.30,-0.98,0.19,0.17,0.17
482.91,1.09,1.08,0.88,0.87,-0.85,-1.30,-0.93,0.24,0.23,0.21
487.74,1.13,1.13,0.88,0.87,-0.87,-1.30,-0.89,0.26,0.25,0.25
492.62,1.17,1.18,0.87,0.89,-0.91,-1.30,-0.85,0.26,0.27,0.30
497.55,1.24,1.26,0.92,0.94,-0.97,-1.30,-0.81,0.27,0.29,0.32
502.52,1.38,1.36,1.04,1.02,-1.03,-1.29,-0.77,0.35,0.32,0.34
507.55,1.47,1.46,1.12,1.10,-1.10,-1.29,-0.73,0.37,0.36,0.35
512.62,1.54,1.56,1.18,1.19,-1.18,-1.28,-0.70,0.36,0.38,0.36
517.75,1.64,1.64,1.27,1.27,-1.26,-1.27,-0.67,0.38,0.38,0.37
