frequency,raw,smoothed,error,error_smoothed,equalization,parametric_eq,fixed_band_eq,equalized_raw,equalized_smoothed,target
20.00,6.96,6.96,2.04,2.05,-2.05,-2.44,-1.21,4.91,4.91,4.91
20.20,6.94,6.94,2.02,2.02,-2.02,-2.44,-1.24,4.91,4.91,4.91
20.40,6.92,6.92,2.01,2.00,-2.00,-2.44,-1.28,4.91,4.91,4.91
20.61,6.90,6.90,1.99,1.98,-1.98,-2.44,-1.32,4.91,4.91,4.91
20.81,6.88,6.88,1.97,1.97,-1.97,-2.44,-1.35,4.91,4.91,4.91
21.02,6.86,6.86,1.95,1.95,-1.95,-2.45,-1.39,4.90,4.90,4.91
21.23,6.84,6.84,1.95,1.94,-1.95,-2.45,-1.43,4.89,4.89,4.89
21.44,6.82,6.82,1.94,1.94,-1.94,-2.45,-1.48,4.88,4.88,4.88
21.66,6.80,6.79,1.94,1.94,-1.94,-2.45,-1.52,4.86,4.86,4.86
21.87,6.78,6.78,1.94,1.94,-1.94,-2.45,-1.57,4.84,4.84,4.84
22.09,6.76,6.76,1.93,1.94,-1.94,-2.45,-1.61,4.82,4.82,4.83
22.31,6.75,6.74,1.95,1.94,-1.95,-2.45,-1.66,4.80,4.80,4.79
22.54,6.73,6.73,1.95,1.95,-1.95,-2.45,-1.71,4.77,4.77,4.77
22.76,6.72,6.71,1.96,1.96,-1.96,-2.45,-1.76,4.75,4.75,4.75
22.99,6.70,6.70,1.97,1.98,-1.97,-2.45,-1.81,4.72,4.72,4.72
23.22,6.69,6.69,1.99,1.99,-1.98,-2.45,-1.86,4.70,4.70,4.69
23.45,6.68,6.67,2.00,2.00,-1.99,-2.45,-1.91,4.68,4.68,4.67
23.69,6.67,6.67,2.00,2.01,-2.01,-2.45,-1.97,4.66,4.66,4.66
23.92,6.66,6.66,2.02,2.01,-2.02,-2.45,-2.02,4.64,4.64,4.64
24.16,6.66,6.65,2.03,2.02,-2.03,-2.45,-2.08,4.63,4.62,4.63
24.40,6.65,6.65,2.04,2.04,-2.04,-2.45,-2.13,4.60,4.61,4.61
24.65,6.65,6.65,2.06,2.06,-2.06,-2.45,-2.19,4.59,4.59,4.59
24.89,6.65,6.64,2.08,2.08,-2.07,-2.45,-2.25,4.57,4.57,4.57
25.14,6.65,6.64,2.09,2.09,-2.09,-2.45,-2.31,4.55,4.55,4.56
25.39,6.65,6.64,2.11,2.11,-2.11,-2.45,-2.37,4.53,4.53,4.53
25.65,6.65,6.65,2.12,2.13,-2.13,-2.45,-2.43,4.51,4.52,4.52
25.91,6.66,6.65,2.16,2.15,-2.16,-2.45,-2.49,4.50,4.50,4.49
26.16,6.67,6.66,2.18,2.18,-2.18,-2.46,-2.55,4.49,4.48,4.48
26.43,6.67,6.67,2.19,2.21,-2.20,-2.46,-2.60,4.46,4.47,4.47
26.69,6.69,6.68,2.24,2.23,-2.23,-2.46,-2.66,4.46,4.45,4.45
26.96,6.70,6.69,2.26,2.25,-2.25,-2.46,-2.72,4.44,4.44,4.44
27.23,6.71,6.71,2.28,2.28,-2.28,-2.46,-2.77,4.42,4.42,4.43
27.50,6.72,6.72,2.30,2.30,-2.31,-2.46,-2.83,4.40,4.41,4.42
27.77,6.74,6.73,2.34,2.34,-2.34,-2.46,-2.88,4.40,4.39,4.39
28.05,6.75,6.75,2.36,2.37,-2.37,-2.46,-2.93,4.38,4.38,4.38
28.33,6.77,6.76,2.40,2.40,-2.40,-2.46,-2.98,4.37,4.37,4.36
28.62,6.78,6.78,2.43,2.43,-2.42,-2.46,-3.02,4.35,4.35,4.35
28.90,6.79,6.79,2.45,2.46,-2.45,-2.46,-3.07,4.33,4.34,4.34
29.19,6.81,6.80,2.49,2.48,-2.48,-2.46,-3.11,4.33,4.32,4.32
29.48,6.82,6.82,2.50,2.50,-2.51,-2.46,-3.14,4.31,4.31,4.31
29.78,6.83,6.83,2.52,2.53,-2.53,-2.46,-3.17,4.29,4.30,4.30
30.08,6.85,6.84,2.55,2.55,-2.56,-2.46,-3.20,4.29,4.28,4.29
30.38,6.86,6.86,2.59,2.58,-2.58,-2.46,-3.22,4.27,4.27,4.27
30.68,6.87,6.86,2.61,2.61,-2.60,-2.46,-3.24,4.26,4.26,4.26
30.99,6.87,6.87,2.63,2.63,-2.62,-2.46,-3.26,4.24,4.24,4.23
31.30,6.87,6.86,2.64,2.64,-2.64,-2.47,-3.27,4.23,4.22,4.22
31.61,6.86,6.86,2.65,2.65,-2.65,-2.47,-3.27,4.20,4.20,4.21
31.93,6.85,6.85,2.66,2.66,-2.66,-2.47,-3.27,4.18,4.18,4.19
32.24,6.84,6.84,2.68,2.67,-2.67,-2.47,-3.27,4.16,4.16,4.16
32.57,6.83,6.82,2.68,2.68,-2.68,-2.47,-3.27,4.15,4.14,4.14
32.89,6.81,6.81,2.67,2.68,-2.68,-2.47,-3.26,4.12,4.12,4.13
33.22,6.79,6.79,2.69,2.68,-2.69,-2.47,-3.24,4.10,4.10,4.10
33.55,6.78,6.77,2.69,2.69,-2.69,-2.47,-3.22,4.08,4.08,4.08
33.89,6.76,6.75,2.69,2.69,-2.69,-2.47,-3.20,4.06,4.06,4.06
34.23,6.74,6.74,2.70,2.70,-2.70,-2.47,-3.18,4.04,4.04,4.04
34.57,6.72,6.72,2.70,2.70,-2.70,-2.47,-3.15,4.02,4.02,4.02
34.92,6.70,6.70,2.70,2.70,-2.70,-2.47,-3.12,4.00,4.00,3.99
35.27,6.68,6.68,2.70,2.70,-2.70,-2.47,-3.09,3.98,3.98,3.98
35.62,6.66,6.66,2.70,2.70,-2.70,-2.47,-3.05,3.96,3.96,3.96
35.97,6.64,6.63,2.70,2.70,-2.70,-2.47,-3.02,3.93,3.93,3.93
36.33,6.62,6.61,2.70,2.70,-2.70,-2.47,-2.98,3.91,3.91,3.92
36.70,6.60,6.60,2.70,2.70,-2.71,-2.47,-2.94,3.89,3.89,3.89
37.06,6.59,6.58,2.71,2.71,-2.71,-2.47,-2.91,3.87,3.87,3.87
37.43,6.58,6.57,2.72,2.72,-2.72,-2.47,-2.87,3.86,3.85,3.86
37.81,6.56,6.56,2.72,2.73,-2.73,-2.47,-2.83,3.83,3.83,3.83
38.19,6.55,6.55,2.74,2.73,-2.74,-2.48,-2.79,3.81,3.81,3.81
38.57,6.54,6.53,2.74,2.75,-2.75,-2.48,-2.76,3.79,3.79,3.79
38.95,6.53,6.53,2.76,2.76,-2.76,-2.48,-2.72,3.77,3.77,3.77
39.34,6.52,6.52,2.77,2.77,-2.77,-2.48,-2.68,3.75,3.75,3.74
39.74,6.51,6.51,2.79,2.78,-2.78,-2.48,-2.65,3.72,3.72,3.72
40.14,6.50,6.50,2.78,2.79,-2.79,-2.48,-2.61,3.71,3.71,3.71
40.54,6.49,6.49,2.80,2.80,-2.80,-2.48,-2.58,3.69,3.69,3.69
40.94,6.48,6.48,2.80,2.81,-2.81,-2.48,-2.55,3.67,3.67,3.67
41.35,6.47,6.47,2.82,2.81,-2.81,-2.48,-2.52,3.65,3.65,3.64
41.76,6.46,6.45,2.82,2.82,-2.81,-2.48,-2.49,3.64,3.64,3.64
42.18,6.44,6.44,2.81,2.82,-2.82,-2.48,-2.46,3.62,3.62,3.62
42.60,6.42,6.42,2.82,2.81,-2.82,-2.48,-2.44,3.60,3.60,3.60
43.03,6.40,6.40,2.81,2.81,-2.82,-2.48,-2.41,3.58,3.58,3.59
43.46,6.38,6.38,2.81,2.82,-2.82,-2.48,-2.39,3.56,3.56,3.56
43.90,6.36,6.35,2.82,2.81,-2.81,-2.48,-2.37,3.54,3.54,3.53
44.33,6.33,6.33,2.81,2.81,-2.81,-2.48,-2.35,3.52,3.52,3.52
44.78,6.30,6.30,2.80,2.80,-2.80,-2.48,-2.34,3.49,3.50,3.50
45.23,6.27,6.27,2.80,2.79,-2.79,-2.48,-2.32,3.47,3.47,3.47
45.68,6.24,6.24,2.78,2.78,-2.78,-2.48,-2.31,3.45,3.45,3.45
46.13,6.21,6.21,2.77,2.77,-2.77,-2.48,-2.30,3.44,3.44,3.43
46.60,6.18,6.17,2.75,2.76,-2.75,-2.48,-2.29,3.42,3.42,3.42
47.06,6.15,6.14,2.74,2.74,-2.74,-2.48,-2.28,3.40,3.40,3.40
47.53,6.11,6.11,2.72,2.72,-2.73,-2.48,-2.28,3.38,3.38,3.38
48.01,6.08,6.07,2.70,2.71,-2.72,-2.48,-2.27,3.36,3.36,3.37
48.49,6.04,6.04,2.69,2.70,-2.70,-2.48,-2.27,3.33,3.33,3.34
48.97,6.01,6.01,2.69,2.70,-2.69,-2.48,-2.27,3.31,3.31,3.31
49.46,5.98,5.97,2.70,2.69,-2.68,-2.48,-2.27,3.29,3.29,3.28
49.96,5.94,5.94,2.69,2.68,-2.67,-2.48,-2.27,3.26,3.26,3.25
50.46,5.91,5.90,2.66,2.67,-2.66,-2.47,-2.27,3.24,3.24,3.25
50.96,5.87,5.87,2.64,2.65,-2.65,-2.47,-2.28,3.21,3.21,3.22
51.47,5.84,5.83,2.65,2.64,-2.64,-2.47,-2.28,3.19,3.19,3.19
51.99,5.80,5.80,2.63,2.63,-2.63,-2.47,-2.29,3.17,3.17,3.17
52.51,5.77,5.76,2.61,2.61,-2.61,-2.47,-2.30,3.15,3.15,3.15
53.03,5.73,5.73,2.60,2.60,-2.60,-2.47,-2.30,3.12,3.12,3.13
53.56,5.69,5.69,2.58,2.59,-2.59,-2.47,-2.31,3.10,3.10,3.10
54.10,5.66,5.65,2.58,2.57,-2.57,-2.47,-2.32,3.08,3.08,3.08
54.64,5.62,5.61,2.56,2.56,-2.56,-2.47,-2.33,3.05,3.05,3.05
55.18,5.58,5.58,2.55,2.55,-2.55,-2.47,-2.34,3.03,3.03,3.03
55.74,5.54,5.54,2.54,2.53,-2.53,-2.46,-2.35,3.00,3.00,3.00
56.29,5.50,5.50,2.51,2.52,-2.52,-2.46,-2.36,2.98,2.98,2.98
56.86,5.46,5.46,2.50,2.50,-2.50,-2.46,-2.37,2.95,2.95,2.95
57.42,5.42,5.42,2.49,2.49,-2.49,-2.46,-2.38,2.93,2.93,2.92
58.00,5.38,5.38,2.47,2.47,-2.47,-2.46,-2.39,2.90,2.90,2.90
58.58,5.34,5.34,2.46,2.46,-2.46,-2.46,-2.40,2.88,2.88,2.87
59.16,5.30,5.30,2.44,2.44,-2.44,-2.45,-2.41,2.85,2.85,2.85
59.76,5.26,5.26,2.42,2.42,-2.43,-2.45,-2.41,2.83,2.83,2.83
60.35,5.22,5.22,2.41,2.41,-2.41,-2.45,-2.42,2.80,2.80,2.80
60.96,5.18,5.18,2.39,2.40,-2.40,-2.45,-2.42,2.78,2.78,2.79
61.57,5.14,5.13,2.39,2.39,-2.39,-2.45,-2.43,2.75,2.75,2.75
62.18,5.10,5.09,2.38,2.38,-2.37,-2.44,-2.43,2.72,2.72,2.71
62.80,5.05,5.05,2.36,2.37,-2.36,-2.44,-2.43,2.68,2.69,2.69
63.43,5.01,5.01,2.35,2.35,-2.35,-2.44,-2.43,2.66,2.66,2.65
64.07,4.97,4.96,2.34,2.34,-2.33,-2.43,-2.43,2.63,2.63,2.63
64.71,4.93,4.93,2.32,2.32,-2.32,-2.43,-2.43,2.61,2.61,2.61
65.35,4.89,4.89,2.30,2.30,-2.30,-2.43,-2.43,2.58,2.58,2.58
66.01,4.85,4.85,2.28,2.28,-2.28,-2.43,-2.42,2.56,2.56,2.56
66.67,4.81,4.80,2.27,2.27,-2.27,-2.42,-2.42,2.54,2.54,2.54
67.33,4.77,4.76,2.25,2.25,-2.25,-2.42,-2.41,2.52,2.51,2.52
68.01,4.72,4.72,2.23,2.23,-2.23,-2.42,-2.41,2.48,2.49,2.49
68.69,4.68,4.68,2.21,2.21,-2.22,-2.41,-2.40,2.46,2.46,2.46
69.37,4.64,4.63,2.20,2.20,-2.20,-2.41,-2.40,2.43,2.43,2.43
70.07,4.60,4.60,2.19,2.19,-2.19,-2.41,-2.39,2.41,2.41,2.41
70.77,4.56,4.56,2.17,2.17,-2.17,-2.40,-2.38,2.38,2.38,2.39
71.48,4.52,4.52,2.16,2.16,-2.16,-2.40,-2.38,2.35,2.35,2.35
72.19,4.48,4.48,2.15,2.15,-2.15,-2.39,-2.37,2.32,2.32,2.33
72.91,4.44,4.44,2.15,2.15,-2.14,-2.39,-2.37,2.29,2.29,2.29
73.64,4.40,4.39,2.14,2.14,-2.14,-2.39,-2.36,2.26,2.26,2.25
74.38,4.36,4.35,2.13,2.13,-2.13,-2.38,-2.36,2.23,2.22,2.23
75.12,4.31,4.31,2.13,2.13,-2.12,-2.38,-2.35,2.18,2.18,2.18
75.87,4.27,4.27,2.12,2.12,-2.12,-2.37,-2.35,2.15,2.15,2.15
76.63,4.23,4.22,2.11,2.11,-2.12,-2.37,-2.35,2.11,2.11,2.12
77.40,4.19,4.18,2.11,2.11,-2.11,-2.37,-2.35,2.07,2.07,2.08
78.17,4.15,4.15,2.12,2.11,-2.11,-2.36,-2.35,2.03,2.03,2.02
78.95,4.11,4.11,2.10,2.11,-2.11,-2.36,-2.35,1.99,2.00,2.00
79.74,4.08,4.07,2.12,2.12,-2.11,-2.36,-2.35,1.96,1.96,1.96
80.54,4.04,4.03,2.12,2.12,-2.12,-2.35,-2.36,1.92,1.92,1.91
81.35,4.00,4.00,2.13,2.13,-2.12,-2.35,-2.37,1.87,1.87,1.87
82.16,3.96,3.96,2.13,2.13,-2.13,-2.34,-2.37,1.83,1.83,1.82
82.98,3.92,3.92,2.13,2.14,-2.14,-2.34,-2.38,1.78,1.78,1.79
83.81,3.88,3.87,2.14,2.14,-2.14,-2.34,-2.40,1.73,1.73,1.73
84.65,3.84,3.84,2.15,2.15,-2.15,-2.33,-2.41,1.69,1.69,1.68
85.50,3.80,3.80,2.15,2.16,-2.16,-2.33,-2.43,1.64,1.64,1.64
86.35,3.77,3.76,2.17,2.17,-2.17,-2.33,-2.44,1.60,1.60,1.59
87.22,3.73,3.72,2.18,2.18,-2.18,-2.33,-2.46,1.55,1.55,1.55
88.09,3.69,3.69,2.19,2.19,-2.19,-2.32,-2.48,1.50,1.50,1.49
88.97,3.65,3.65,2.19,2.20,-2.20,-2.32,-2.51,1.44,1.45,1.45
89.86,3.62,3.61,2.21,2.21,-2.22,-2.32,-2.53,1.40,1.40,1.40
90.76,3.58,3.58,2.24,2.23,-2.23,-2.32,-2.56,1.35,1.35,1.34
91.66,3.55,3.54,2.25,2.25,-2.24,-2.32,-2.59,1.30,1.30,1.30
92.58,3.51,3.50,2.27,2.26,-2.26,-2.32,-2.62,1.25,1.24,1.23
93.51,3.47,3.47,2.27,2.27,-2.28,-2.32,-2.65,1.19,1.19,1.20
94.44,3.44,3.43,2.29,2.29,-2.30,-2.32,-2.68,1.14,1.14,1.15
95.39,3.41,3.40,2.31,2.31,-2.31,-2.32,-2.72,1.09,1.09,1.09
96.34,3.37,3.37,2.34,2.34,-2.34,-2.32,-2.75,1.03,1.03,1.03
97.30,3.34,3.33,2.36,2.36,-2.36,-2.32,-2.79,0.98,0.97,0.97
98.28,3.30,3.30,2.38,2.39,-2.38,-2.33,-2.83,0.91,0.91,0.92
99.26,3.27,3.27,2.41,2.41,-2.41,-2.33,-2.87,0.85,0.85,0.85
100.25,3.24,3.24,2.44,2.44,-2.44,-2.34,-2.92,0.80,0.80,0.80
101.25,3.21,3.20,2.47,2.47,-2.47,-2.34,-2.96,0.74,0.74,0.74
102.27,3.18,3.17,2.50,2.50,-2.50,-2.35,-3.00,0.68,0.68,0.67
103.29,3.14,3.14,2.53,2.53,-2.53,-2.35,-3.05,0.61,0.61,0.61
104.32,3.11,3.11,2.55,2.56,-2.56,-2.36,-3.09,0.55,0.55,0.55
105.37,3.08,3.07,2.58,2.58,-2.59,-2.37,-3.14,0.49,0.48,0.49
106.42,3.05,3.05,2.62,2.62,-2.62,-2.38,-3.18,0.42,0.42,0.43
107.48,3.02,3.02,2.65,2.66,-2.66,-2.39,-3.23,0.36,0.36,0.36
108.56,3.00,2.99,2.70,2.70,-2.69,-2.40,-3.27,0.30,0.30,0.30
109.64,2.97,2.96,2.74,2.73,-2.73,-2.42,-3.32,0.24,0.24,0.23
110.74,2.94,2.94,2.76,2.77,-2.77,-2.43,-3.36,0.17,0.17,0.17
111.85,2.91,2.91,2.80,2.80,-2.81,-2.45,-3.40,0.10,0.10,0.11
112.97,2.88,2.88,2.85,2.84,-2.85,-2.47,-3.44,0.03,0.03,0.02
114.10,2.86,2.85,2.89,2.89,-2.89,-2.48,-3.47,-0.03,-0.03,-0.03
115.24,2.83,2.82,2.92,2.93,-2.93,-2.50,-3.50,-0.10,-0.10,-0.10
116.39,2.80,2.80,2.97,2.97,-2.96,-2.52,-3.54,-0.17,-0.17,-0.17
117.55,2.77,2.77,3.00,3.00,-3.00,-2.55,-3.56,-0.24,-0.23,-0.24
118.73,2.75,2.74,3.05,3.04,-3.04,-2.57,-3.59,-0.29,-0.30,-0.30
119.92,2.72,2.72,3.07,3.07,-3.07,-2.60,-3.61,-0.36,-0.36,-0.35
121.12,2.69,2.69,3.10,3.11,-3.10,-2.63,-3.63,-0.42,-0.41,-0.42
122.33,2.67,2.66,3.14,3.14,-3.14,-2.66,-3.64,-0.47,-0.47,-0.48
123.55,2.64,2.63,3.17,3.17,-3.17,-2.69,-3.65,-0.53,-0.53,-0.53
124.79,2.61,2.61,3.20,3.19,-3.20,-2.72,-3.65,-0.59,-0.59,-0.59
126.03,2.58,2.58,3.22,3.22,-3.23,-2.75,-3.66,-0.65,-0.65,-0.64
127.29,2.55,2.55,3.25,3.25,-3.26,-2.79,-3.65,-0.71,-0.71,-0.70
128.57,2.53,2.52,3.30,3.29,-3.28,-2.82,-3.65,-0.76,-0.76,-0.77
129.85,2.50,2.49,3.32,3.32,-3.31,-2.86,-3.64,-0.82,-0.82,-0.82
131.15,2.47,2.47,3.33,3.34,-3.34,-2.90,-3.62,-0.87,-0.87,-0.87
132.46,2.44,2.44,3.36,3.36,-3.36,-2.95,-3.60,-0.92,-0.92,-0.93
133.79,2.42,2.41,3.38,3.38,-3.38,-2.99,-3.59,-0.96,-0.97,-0.96
135.12,2.39,2.38,3.40,3.40,-3.40,-3.03,-3.56,-1.01,-1.01,-1.02
136.48,2.36,2.36,3.41,3.41,-3.41,-3.08,-3.53,-1.06,-1.06,-1.05
137.84,2.33,2.33,3.41,3.43,-3.42,-3.13,-3.50,-1.10,-1.10,-1.09
139.22,2.31,2.30,3.45,3.44,-3.43,-3.18,-3.47,-1.13,-1.13,-1.14
140.61,2.28,2.27,3.46,3.45,-3.44,-3.23,-3.44,-1.17,-1.17,-1.18
142.02,2.25,2.25,3.44,3.45,-3.45,-3.28,-3.40,-1.20,-1.20,-1.20
143.44,2.22,2.22,3.44,3.45,-3.45,-3.33,-3.37,-1.24,-1.24,-1.23
144.87,2.19,2.19,3.45,3.45,-3.45,-3.38,-3.33,-1.27,-1.27,-1.27
146.32,2.17,2.16,3.46,3.45,-3.46,-3.43,-3.29,-1.29,-1.29,-1.30
147.78,2.14,2.14,3.45,3.46,-3.46,-3.48,-3.26,-1.32,-1.32,-1.32
149.26,2.11,2.11,3.45,3.46,-3.46,-3.53,-3.22,-1.35,-1.35,-1.34
150.75,2.09,2.08,3.47,3.46,-3.46,-3.58,-3.18,-1.37,-1.38,-1.38
152.26,2.06,2.06,3.46,3.46,-3.46,-3.63,-3.14,-1.40,-1.40,-1.41
153.78,2.03,2.03,3.46,3.46,-3.46,-3.68,-3.10,-1.44,-1.43,-1.43
155.32,2.01,2.00,3.46,3.46,-3.46,-3.73,-3.07,-1.46,-1.46,-1.46
156.88,1.98,1.98,3.46,3.46,-3.46,-3.78,-3.03,-1.49,-1.49,-1.48
158.44,1.95,1.95,3.46,3.46,-3.46,-3.82,-3.00,-1.52,-1.51,-1.51
160.03,1.93,1.92,3.47,3.47,-3.46,-3.86,-2.97,-1.54,-1.54,-1.55
161.63,1.90,1.89,3.47,3.47,-3.46,-3.90,-2.94,-1.57,-1.57,-1.58
163.24,1.87,1.87,3.46,3.46,-3.46,-3.94,-2.91,-1.60,-1.60,-1.60
164.88,1.84,1.84,3.45,3.46,-3.46,-3.97,-2.88,-1.63,-1.63,-1.62
166.53,1.82,1.81,3.46,3.46,-3.46,-4.00,-2.86,-1.65,-1.65,-1.65
168.19,1.79,1.78,3.47,3.47,-3.46,-4.02,-2.83,-1.68,-1.68,-1.69
169.87,1.76,1.76,3.47,3.47,-3.47,-4.04,-2.81,-1.71,-1.71,-1.71
171.57,1.73,1.73,3.47,3.47,-3.47,-4.05,-2.79,-1.74,-1.74,-1.74
173.29,1.70,1.70,3.46,3.47,-3.47,-4.06,-2.78,-1.77,-1.77,-1.77
175.02,1.67,1.67,3.47,3.47,-3.47,-4.07,-2.76,-1.81,-1.81,-1.80
176.77,1.64,1.64,3.48,3.48,-3.48,-4.07,-2.75,-1.84,-1.84,-1.85
178.54,1.61,1.61,3.49,3.48,-3.48,-4.06,-2.74,-1.88,-1.88,-1.88
180.32,1.58,1.58,3.49,3.49,-3.49,-4.05,-2.73,-1.92,-1.92,-1.91
182.13,1.55,1.55,3.49,3.49,-3.50,-4.04,-2.72,-1.95,-1.95,-1.95
183.95,1.52,1.52,3.50,3.50,-3.50,-4.02,-2.72,-1.99,-1.99,-1.99
185.79,1.49,1.49,3.51,3.51,-3.51,-3.99,-2.72,-2.02,-2.02,-2.02
187.65,1.46,1.46,3.52,3.52,-3.51,-3.97,-2.72,-2.05,-2.05,-2.06
189.52,1.43,1.42,3.52,3.51,-3.51,-3.93,-2.72,-2.08,-2.08,-2.09
191.42,1.40,1.39,3.52,3.51,-3.51,-3.90,-2.72,-2.11,-2.12,-2.12
193.33,1.36,1.36,3.49,3.50,-3.51,-3.86,-2.73,-2.15,-2.15,-2.14
195.27,1.33,1.33,3.49,3.50,-3.50,-3.81,-2.73,-2.18,-2.18,-2.17
197.22,1.30,1.29,3.49,3.49,-3.49,-3.77,-2.74,-2.20,-2.20,-2.20
199.19,1.26,1.26,3.50,3.49,-3.49,-3.72,-2.75,-2.23,-2.23,-2.24
201.18,1.23,1.22,3.48,3.48,-3.48,-3.67,-2.76,-2.25,-2.25,-2.26
203.19,1.19,1.19,3.46,3.47,-3.46,-3.62,-2.78,-2.28,-2.28,-2.28
205.23,1.16,1.15,3.46,3.45,-3.45,-3.56,-2.79,-2.30,-2.30,-2.30
207.28,1.12,1.12,3.42,3.43,-3.44,-3.51,-2.80,-2.32,-2.32,-2.31
209.35,1.08,1.08,3.42,3.42,-3.42,-3.46,-2.82,-2.34,-2.34,-2.34
211.44,1.05,1.04,3.41,3.40,-3.40,-3.40,-2.83,-2.35,-2.36,-2.36
213.56,1.01,1.01,3.38,3.38,-3.38,-3.35,-2.84,-2.37,-2.37,-2.38
215.69,0.97,0.97,3.35,3.35,-3.36,-3.30,-2.86,-2.39,-2.39,-2.38
217.85,0.94,0.93,3.33,3.33,-3.33,-3.25,-2.87,-2.40,-2.40,-2.39
220.03,0.90,0.90,3.31,3.31,-3.31,-3.20,-2.88,-2.41,-2.41,-2.42
222.23,0.87,0.86,3.29,3.28,-3.28,-3.15,-2.89,-2.42,-2.42,-2.43
224.45,0.83,0.83,3.25,3.26,-3.25,-3.10,-2.90,-2.43,-2.42,-2.42
226.70,0.80,0.80,3.23,3.22,-3.22,-3.06,-2.91,-2.43,-2.43,-2.43
228.96,0.77,0.76,3.20,3.19,-3.19,-3.02,-2.92,-2.42,-2.43,-2.43
231.25,0.73,0.73,3.15,3.15,-3.15,-2.98,-2.92,-2.43,-2.42,-2.42
233.57,0.70,0.70,3.11,3.11,-3.12,-2.94,-2.92,-2.42,-2.42,-2.41
235.90,0.67,0.66,3.08,3.07,-3.07,-2.90,-2.92,-2.41,-2.41,-2.41
238.26,0.63,0.63,3.04,3.03,-3.03,-2.87,-2.92,-2.41,-2.40,-2.41
240.64,0.60,0.60,2.99,2.99,-2.99,-2.83,-2.91,-2.39,-2.39,-2.39
243.05,0.57,0.56,2.94,2.94,-2.94,-2.80,-2.90,-2.37,-2.38,-2.38
245.48,0.53,0.53,2.88,2.89,-2.89,-2.77,-2.88,-2.36,-2.36,-2.36
247.93,0.50,0.49,2.84,2.84,-2.84,-2.73,-2.86,-2.34,-2.34,-2.35
250.41,0.46,0.46,2.79,2.78,-2.78,-2.69,-2.84,-2.33,-2.33,-2.33
252.92,0.43,0.42,2.73,2.73,-2.73,-2.66,-2.81,-2.30,-2.31,-2.30
255.45,0.39,0.39,2.66,2.67,-2.67,-2.61,-2.78,-2.29,-2.28,-2.28
258.00,0.36,0.35,2.61,2.61,-2.61,-2.57,-2.75,-2.26,-2.26,-2.26
260.58,0.32,0.32,2.56,2.55,-2.55,-2.51,-2.71,-2.24,-2.24,-2.24
263.19,0.28,0.28,2.49,2.49,-2.49,-2.46,-2.67,-2.21,-2.21,-2.22
265.82,0.24,0.23,2.43,2.43,-2.42,-2.40,-2.62,-2.19,-2.19,-2.19
268.48,0.19,0.19,2.36,2.36,-2.36,-2.33,-2.58,-2.17,-2.17,-2.17
271.16,0.15,0.14,2.28,2.29,-2.29,-2.26,-2.52,-2.14,-2.15,-2.14
273.87,0.10,0.10,2.22,2.21,-2.22,-2.18,-2.47,-2.12,-2.12,-2.12
276.61,0.05,0.05,2.13,2.14,-2.14,-2.11,-2.41,-2.10,-2.10,-2.09
279.38,-0.00,-0.01,2.07,2.07,-2.06,-2.03,-2.35,-2.07,-2.07,-2.07
282.17,-0.06,-0.06,1.98,1.99,-1.98,-1.94,-2.29,-2.05,-2.04,-2.05
284.99,-0.11,-0.12,1.91,1.90,-1.90,-1.86,-2.23,-2.01,-2.02,-2.02
287.84,-0.18,-0.18,1.81,1.82,-1.81,-1.78,-2.16,-2.00,-2.00,-2.00
290.72,-0.24,-0.24,1.72,1.73,-1.73,-1.70,-2.09,-1.97,-1.97,-1.96
293.63,-0.30,-0.31,1.64,1.63,-1.63,-1.62,-2.02,-1.94,-1.94,-1.95
296.57,-0.37,-0.37,1.54,1.54,-1.54,-1.54,-1.95,-1.91,-1.91,-1.91
299.53,-0.43,-0.44,1.45,1.45,-1.44,-1.46,-1.88,-1.88,-1.88,-1.89
302.53,-0.50,-0.50,1.35,1.35,-1.35,-1.38,-1.81,-1.85,-1.85,-1.86
305.55,-0.56,-0.57,1.25,1.26,-1.25,-1.31,-1.74,-1.82,-1.82,-1.81
308.61,-0.62,-0.63,1.16,1.16,-1.16,-1.23,-1.67,-1.78,-1.79,-1.79
311.69,-0.68,-0.68,1.07,1.07,-1.07,-1.16,-1.60,-1.76,-1.75,-1.75
314.81,-0.73,-0.74,0.98,0.98,-0.99,-1.09,-1.52,-1.72,-1.72,-1.71
317.96,-0.78,-0.78,0.90,0.90,-0.91,-1.02,-1.45,-1.69,-1.69,-1.69
321.14,-0.82,-0.83,0.84,0.83,-0.83,-0.96,-1.38,-1.66,-1.66,-1.66
324.35,-0.86,-0.86,0.77,0.77,-0.77,-0.89,-1.31,-1.63,-1.63,-1.63
327.59,-0.89,-0.89,0.70,0.71,-0.71,-0.83,-1.23,-1.60,-1.60,-1.60
330.87,-0.91,-0.92,0.65,0.66,-0.66,-0.76,-1.16,-1.57,-1.58,-1.57
334.18,-0.93,-0.94,0.62,0.61,-0.62,-0.70,-1.09,-1.55,-1.55,-1.55
337.52,-0.95,-0.95,0.57,0.57,-0.58,-0.64,-1.02,-1.54,-1.54,-1.52
340.90,-0.96,-0.96,0.53,0.54,-0.55,-0.57,-0.95,-1.51,-1.51,-1.50
344.30,-0.97,-0.97,0.50,0.50,-0.51,-0.51,-0.88,-1.49,-1.49,-1.48
347.75,-0.97,-0.97,0.48,0.48,-0.47,-0.45,-0.81,-1.45,-1.44,-1.45
351.23,-0.98,-0.98,0.45,0.45,-0.42,-0.38,-0.74,-1.41,-1.40,-1.43
354.74,-0.99,-1.02,0.42,0.40,-0.36,-0.32,-0.67,-1.36,-1.38,-1.42
358.28,-1.08,-1.08,0.31,0.32,-0.30,-0.25,-0.61,-1.38,-1.37,-1.40
361.87,-1.16,-1.16,0.22,0.22,-0.22,-0.19,-0.54,-1.39,-1.38,-1.38
365.49,-1.23,-1.24,0.12,0.12,-0.14,-0.12,-0.47,-1.38,-1.38,-1.35
369.14,-1.30,-1.30,0.04,0.04,-0.06,-0.05,-0.40,-1.36,-1.36,-1.34
372.83,-1.36,-1.37,-0.04,-0.04,0.03,0.02,-0.34,-1.34,-1.34,-1.33
376.56,-1.42,-1.42,-0.12,-0.12,0.11,0.09,-0.27,-1.31,-1.31,-1.31
380.33,-1.47,-1.47,-0.20,-0.19,0.19,0.16,-0.21,-1.29,-1.29,-1.28
384.13,-1.51,-1.52,-0.25,-0.26,0.26,0.24,-0.14,-1.26,-1.26,-1.26
387.97,-1.56,-1.56,-0.32,-0.32,0.32,0.31,-0.08,-1.24,-1.24,-1.24
391.85,-1.60,-1.61,-0.38,-0.39,0.39,0.39,-0.02,-1.21,-1.22,-1.22
395.77,-1.65,-1.65,-0.46,-0.45,0.46,0.47,0.05,-1.20,-1.20,-1.20
399.73,-1.69,-1.70,-0.52,-0.52,0.52,0.54,0.11,-1.17,-1.17,-1.18
403.72,-1.74,-1.74,-0.59,-0.59,0.59,0.62,0.17,-1.16,-1.16,-1.16
407.76,-1.78,-1.79,-0.65,-0.65,0.65,0.70,0.23,-1.13,-1.13,-1.14
411.84,-1.83,-1.83,-0.72,-0.72,0.72,0.77,0.29,-1.12,-1.11,-1.11
415.96,-1.87,-1.88,-0.78,-0.78,0.78,0.84,0.35,-1.09,-1.09,-1.09
420.12,-1.91,-1.92,-0.84,-0.85,0.85,0.91,0.40,-1.07,-1.07,-1.07
424.32,-1.95,-1.95,-0.91,-0.90,0.91,0.96,0.46,-1.05,-1.04,-1.04
428.56,-1.98,-1.99,-0.96,-0.96,0.97,1.02,0.51,-1.02,-1.02,-1.03
432.85,-2.01,-2.02,-1.01,-1.01,1.02,1.06,0.57,-1.00,-1.00,-1.01
437.18,-2.04,-2.04,-1.07,-1.07,1.06,1.10,0.62,-0.98,-0.98,-0.98
441.55,-2.05,-2.06,-1.11,-1.11,1.09,1.12,0.67,-0.96,-0.97,-0.95
445.96,-2.07,-2.06,-1.15,-1.13,1.12,1.14,0.72,-0.96,-0.94,-0.93
450.42,-2.04,-2.05,-1.13,-1.14,1.13,1.14,0.76,-0.91,-0.91,-0.91
454.93,-2.01,-2.02,-1.14,-1.14,1.14,1.14,0.80,-0.87,-0.88,-0.87
459.48,-1.97,-1.98,-1.12,-1.13,1.14,1.13,0.85,-0.84,-0.84,-0.85
464.07,-1.93,-1.94,-1.11,-1.12,1.12,1.11,0.88,-0.81,-0.81,-0.82
468.71,-1.89,-1.89,-1.11,-1.10,1.11,1.08,0.92,-0.79,-0.79,-0.78
473.40,-1.84,-1.84,-1.08,-1.08,1.08,1.05,0.96,-0.76,-0.76,-0.76
478.13,-1.78,-1.79,-1.05,-1.05,1.05,1.02,0.99,-0.73,-0.74,-0.74
482.91,-1.72,-1.72,-1.02,-1.02,1.02,0.98,1.01,-0.71,-0.71,-0.71
487.74,-1.65,-1.66,-0.98,-0.98,0.98,0.94,1.04,-0.68,-0.68,-0.68
492.62,-1.58,-1.58,-0.94,-0.93,0.93,0.90,1.06,-0.65,-0.65,-0.65
497.55,-1.50,-1.50,-0.88,-0.88,0.88,0.86,1.08,-0.62,-0.62,-0.63
