frequency,raw
20.00,3.41
20.20,3.44
20.40,3.46
20.61,3.49
20.81,3.52
21.02,3.54
21.23,3.57
21.44,3.59
21.66,3.62
21.87,3.65
22.09,3.67
22.31,3.69
22.54,3.72
22.76,3.74
22.99,3.77
23.22,3.80
23.45,3.82
23.69,3.85
23.92,3.88
24.16,3.91
24.40,3.93
24.65,3.96
24.89,3.99
25.14,4.01
25.39,4.04
25.65,4.07
25.91,4.09
26.16,4.12
26.43,4.15
26.69,4.18
26.96,4.21
27.23,4.23
27.50,4.26
27.77,4.28
28.05,4.30
28.33,4.32
28.62,4.34
28.90,4.36
29.19,4.38
29.48,4.39
29.78,4.41
30.08,4.42
30.38,4.43
30.68,4.44
30.99,4.45
31.30,4.45
31.61,4.45
31.93,4.45
32.24,4.45
32.57,4.44
32.89,4.44
33.22,4.44
33.55,4.43
33.89,4.42
34.23,4.42
34.57,4.41
34.92,4.41
35.27,4.41
35.62,4.40
35.97,4.40
36.33,4.40
36.70,4.39
37.06,4.39
37.43,4.39
37.81,4.38
38.19,4.38
38.57,4.37
38.95,4.36
39.34,4.35
39.74,4.35
40.14,4.34
40.54,4.32
40.94,4.31
41.35,4.30
41.76,4.29
42.18,4.28
42.60,4.27
43.03,4.26
43.46,4.25
43.90,4.23
44.33,4.22
44.78,4.21
45.23,4.19
45.68,4.18
46.13,4.16
46.60,4.15
47.06,4.13
47.53,4.11
48.01,4.10
48.49,4.09
48.97,4.07
49.46,4.05
49.96,4.03
50.46,4.02
50.96,4.00
51.47,3.98
51.99,3.96
52.51,3.94
53.03,3.93
53.56,3.91
54.10,3.89
54.64,3.86
55.18,3.84
55.74,3.83
56.29,3.81
56.86,3.79
57.42,3.77
58.00,3.75
58.58,3.74
59.16,3.73
59.76,3.71
60.35,3.70
60.96,3.69
61.57,3.68
62.18,3.68
62.80,3.68
63.43,3.68
64.07,3.68
64.71,3.67
65.35,3.66
66.01,3.65
66.67,3.63
67.33,3.61
68.01,3.59
68.69,3.57
69.37,3.55
70.07,3.53
70.77,3.51
71.48,3.51
72.19,3.50
72.91,3.50
73.64,3.50
74.38,3.50
75.12,3.50
75.87,3.49
76.63,3.48
77.40,3.47
78.17,3.47
78.95,3.46
79.74,3.47
80.54,3.48
81.35,3.48
82.16,3.48
82.98,3.48
83.81,3.48
84.65,3.47
85.50,3.47
86.35,3.46
87.22,3.46
88.09,3.46
88.97,3.46
89.86,3.46
90.76,3.45
91.66,3.45
92.58,3.44
93.51,3.44
94.44,3.44
95.39,3.43
96.34,3.42
97.30,3.41
98.28,3.39
99.26,3.37
100.25,3.35
101.25,3.31
102.27,3.27
103.29,3.24
104.32,3.21
105.37,3.19
106.42,3.18
107.48,3.16
108.56,3.14
109.64,3.11
110.74,3.08
111.85,3.04
112.97,3.00
114.10,2.96
115.24,2.91
116.39,2.86
117.55,2.80
118.73,2.75
119.92,2.71
121.12,2.68
122.33,2.64
123.55,2.61
124.79,2.56
126.03,2.50
127.29,2.43
128.57,2.35
129.85,2.26
131.15,2.19
132.46,2.12
133.79,2.07
135.12,2.02
136.48,1.96
137.84,1.89
139.22,1.81
140.61,1.72
142.02,1.63
143.44,1.55
144.87,1.48
146.32,1.40
147.78,1.35
149.26,1.29
150.75,1.22
152.26,1.14
153.78,1.05
155.32,0.94
156.88,0.85
158.44,0.75
160.03,0.67
161.63,0.59
163.24,0.52
164.88,0.44
166.53,0.35
168.19,0.26
169.87,0.17
171.57,0.06
173.29,-0.05
175.02,-0.15
176.77,-0.27
178.54,-0.37
180.32,-0.48
182.13,-0.58
183.95,-0.67
185.79,-0.75
187.65,-0.83
189.52,-0.92
191.42,-1.01
193.33,-1.10
195.27,-1.20
197.22,-1.29
199.19,-1.37
201.18,-1.44
203.19,-1.49
205.23,-1.53
207.28,-1.56
209.35,-1.58
211.44,-1.59
213.56,-1.61
215.69,-1.62
217.85,-1.64
220.03,-1.67
222.23,-1.71
224.45,-1.77
226.70,-1.81
228.96,-1.85
231.25,-1.86
233.57,-1.84
235.90,-1.80
238.26,-1.74
240.64,-1.67
243.05,-1.59
245.48,-1.53
247.93,-1.49
250.41,-1.49
252.92,-1.52
255.45,-1.59
258.00,-1.70
260.58,-1.84
263.19,-1.99
265.82,-2.15
268.48,-2.32
271.16,-2.47
273.87,-2.62
276.61,-2.77
279.38,-2.90
282.17,-3.02
284.99,-3.13
287.84,-3.23
290.72,-3.33
293.63,-3.42
296.57,-3.50
299.53,-3.57
302.53,-3.64
305.55,-3.71
308.61,-3.76
311.69,-3.82
314.81,-3.87
317.96,-3.92
321.14,-3.97
324.35,-4.01
327.59,-4.05
330.87,-4.09
334.18,-4.12
337.52,-4.16
340.90,-4.19
344.30,-4.22
347.75,-4.24
351.23,-4.26
354.74,-4.29
358.28,-4.32
361.87,-4.35
365.49,-4.38
369.14,-4.40
372.83,-4.42
376.56,-4.44
380.33,-4.45
384.13,-4.46
387.97,-4.47
391.85,-4.47
395.77,-4.47
399.73,-4.47
403.72,-4.46
407.76,-4.45
411.84,-4.44
415.96,-4.43
420.12,-4.40
424.32,-4.38
428.56,-4.36
432.85,-4.34
437.18,-4.31
441.55,-4.27
445.96,-4.25
450.42,-4.19
454.93,-4.12
459.48,-4.04
464.07,-3.95
468.71,-3.86
473.40,-3.79
478.13,-3.72
482.91,-3.67
487.74,-3.63
492.62,-3.59
497.55,-3.54
502.52,-3.48
507.55,-3.43
512.62,-3.36
517.75,-3.29
522.93,-3.22
528.16,-3.16
533.44,-3.10
538.77,-3.04
544.16,-2.98
549.60,-2.92
555.10,-2.85
560.65,-2.79
566.25,-2.72
571.92,-2.65
577.64,-2.59
583.41,-2.52
589.25,-2.45
595.14,-2.38
601.09,-2.31
607.10,-2.24
613.17,-2.17
619.30,-2.10
625.50,-2.03
631.75,-1.96
638.07,-1.89
644.45,-1.83
650.89,-1.76
657.40,-1.70
663.98,-1.64
670.62,-1.57
677.32,-1.51
684.10,-1.46
690.94,-1.42
697.85,-1.38
704.83,-1.36
711.87,-1.34
718.99,-1.33
726.18,-1.32
733.44,-1.29
740.78,-1.26
748.19,-1.22
755.67,-1.18
763.23,-1.14
770.86,-1.09
778.57,-1.06
786.35,-1.02
794.22,-0.98
802.16,-0.95
810.18,-0.92
818.28,-0.89
826.46,-0.86
834.73,-0.82
843.08,-0.78
851.51,-0.72
860.02,-0.66
868.62,-0.60
877.31,-0.55
886.08,-0.50
894.94,-0.47
903.89,-0.42
912.93,-0.39
922.06,-0.36
931.28,-0.32
940.59,-0.28
950.00,-0.24
959.50,-0.20
969.09,-0.15
978.78,-0.09
988.57,-0.05
998.46,-0.01
1008.44,0.04
1018.53,0.07
1028.71,0.09
1039.00,0.10
1049.39,0.12
1059.88,0.14
1070.48,0.16
1081.19,0.20
1092.00,0.23
1102.92,0.27
1113.95,0.31
1125.09,0.35
1136.34,0.39
1147.70,0.43
1159.18,0.49
1170.77,0.54
1182.48,0.60
1194.30,0.66
1206.25,0.73
1218.31,0.78
1230.49,0.82
1242.80,0.86
1255.22,0.89
1267.78,0.92
1280.45,0.96
1293.26,1.00
1306.19,1.06
1319.25,1.14
1332.45,1.21
1345.77,1.31
1359.23,1.40
1372.82,1.49
1386.55,1.59
1400.41,1.68
1414.42,1.77
1428.56,1.87
1442.85,1.96
1457.28,2.04
1471.85,2.12
1486.57,2.19
1501.43,2.26
1516.45,2.32
1531.61,2.38
1546.93,2.43
1562.40,2.50
1578.02,2.57
1593.80,2.65
1609.74,2.72
1625.84,2.79
1642.10,2.87
1658.52,2.95
1675.10,3.05
1691.85,3.15
1708.77,3.25
1725.86,3.35
1743.12,3.45
1760.55,3.56
1778.15,3.66
1795.94,3.76
1813.90,3.85
1832.03,3.93
1850.36,4.01
1868.86,4.09
1887.55,4.19
1906.42,4.28
1925.49,4.38
1944.74,4.50
1964.19,4.60
1983.83,4.72
2003.67,4.84
2023.71,4.97
2043.94,5.10
2064.38,5.23
2085.03,5.34
2105.88,5.45
2126.94,5.55
2148.20,5.64
2169.69,5.72
2191.38,5.79
2213.30,5.88
2235.43,5.95
2257.78,6.02
2280.36,6.09
2303.17,6.13
2326.20,6.16
2349.46,6.19
2372.95,6.20
2396.68,6.22
2420.65,6.25
2444.86,6.27
2469.31,6.33
2494.00,6.40
2518.94,6.46
2544.13,6.53
2569.57,6.60
2595.27,6.65
2621.22,6.68
2647.43,6.70
2673.90,6.71
2700.64,6.70
2727.65,6.68
2754.93,6.66
2782.48,6.64
2810.30,6.62
2838.40,6.59
2866.79,6.54
2895.46,6.48
2924.41,6.42
2953.65,6.35
2983.19,6.28
3013.02,6.21
3043.15,6.17
3073.58,6.10
3104.32,6.04
3135.36,5.96
3166.72,5.86
3198.38,5.76
3230.37,5.65
3262.67,5.54
3295.30,5.43
3328.25,5.29
3361.53,5.15
3395.15,4.97
3429.10,4.77
3463.39,4.53
3498.03,4.25
3533.01,3.98
3568.34,3.76
3604.02,3.62
3640.06,3.65
3676.46,3.79
3713.22,4.05
3750.36,4.39
3787.86,4.76
3825.74,5.11
3864.00,5.40
3902.64,5.61
3941.66,5.75
3981.08,5.80
4020.89,5.77
4061.10,5.71
4101.71,5.57
4142.73,5.41
4184.15,5.21
4226.00,5.00
4268.26,4.76
4310.94,4.52
4354.05,4.27
4397.59,3.99
4441.56,3.70
4485.98,3.40
4530.84,3.07
4576.15,2.71
4621.91,2.34
4668.13,1.97
4714.81,1.58
4761.96,1.19
4809.58,0.82
4857.67,0.51
4906.25,0.27
4955.31,0.13
5004.87,0.12
5054.91,0.24
5105.46,0.46
5156.52,0.77
5208.08,1.14
5260.16,1.52
5312.77,1.87
5365.89,2.13
5419.55,2.30
5473.75,2.28
5528.49,2.12
5583.77,1.85
5639.61,1.49
5696.00,1.14
5752.96,0.83
5810.49,0.60
5868.60,0.51
5927.28,0.46
5986.56,0.43
6046.42,0.41
6106.89,0.36
6167.96,0.25
6229.64,0.09
6291.93,-0.10
6354.85,-0.28
6418.40,-0.44
6482.58,-0.57
6547.41,-0.67
6612.88,-0.75
6679.01,-0.75
6745.80,-0.67
6813.26,-0.49
6881.39,-0.18
6950.21,0.22
7019.71,0.69
7089.91,1.10
7160.81,1.46
7232.41,1.72
7304.74,1.87
7377.79,1.99
7451.56,2.14
7526.08,2.36
7601.34,2.72
7677.35,3.20
7754.13,3.79
7831.67,4.51
7909.98,5.27
7989.08,6.08
8068.98,6.93
8149.67,7.76
8231.16,8.57
8313.47,9.26
8396.61,9.82
8480.57,10.26
8565.38,10.55
8651.03,10.73
8737.54,10.83
8824.92,10.85
8913.17,10.95
9002.30,10.97
9092.32,10.75
9183.25,10.53
9275.08,10.34
9367.83,9.65
9461.51,8.62
9556.12,7.54
9651.68,6.41
9748.20,5.21
9845.68,4.01
9944.14,2.88
10043.58,1.88
10144.02,1.01
10245.46,0.24
10347.91,-0.49
10451.39,-1.15
10555.91,-1.69
10661.46,-2.09
10768.08,-2.40
10875.76,-2.68
10984.52,-2.97
11094.36,-3.23
11205.31,-3.41
11317.36,-3.40
11430.53,-3.14
11544.84,-3.29
11660.29,-3.67
11776.89,-3.55
11894.66,-3.77
12013.60,-4.39
12133.74,-4.89
12255.08,-5.62
12377.63,-6.37
12501.41,-6.96
12626.42,-7.32
12752.68,-7.63
12880.21,-7.97
13009.01,-8.55
13139.10,-9.38
13270.49,-10.34
13403.20,-11.33
13537.23,-12.22
13672.60,-12.95
13809.33,-13.48
13947.42,-13.68
14086.90,-13.66
14227.77,-13.42
14370.04,-12.96
14513.74,-12.35
14658.88,-11.63
14805.47,-10.92
14953.52,-10.39
15103.06,-10.09
15254.09,-10.33
15406.63,-11.06
15560.70,-12.13
15716.30,-13.46
15873.47,-14.58
16032.20,-15.28
16192.52,-15.29
16354.45,-14.38
16517.99,-12.90
16683.17,-11.04
16850.01,-9.18
17018.51,-7.61
17188.69,-6.41
17360.58,-5.97
17534.18,-6.09
17709.53,-6.59
17886.62,-7.48
18065.49,-8.48
18246.14,-9.50
18428.60,-10.43
18612.89,-11.14
18799.02,-11.61
18987.01,-11.81
19176.88,-11.66
19368.65,-11.29
19562.33,-10.76
19757.96,-10.12
19955.54,-9.51
