frequency,raw,error,smoothed,error_smoothed,equalization,parametric_eq,fixed_band_eq,equalized_raw,equalized_smoothed,target
20.00,5.19,1.65,5.13,1.56,-1.56,-1.87,-1.29,3.63,3.57,3.54
20.20,5.23,1.64,5.20,1.59,-1.59,-1.89,-1.33,3.64,3.60,3.59
20.40,5.27,1.63,5.27,1.63,-1.63,-1.92,-1.37,3.64,3.64,3.64
20.61,5.31,1.64,5.34,1.66,-1.66,-1.95,-1.41,3.65,3.67,3.67
20.81,5.35,1.63,5.40,1.70,-1.70,-1.97,-1.45,3.65,3.70,3.72
21.02,5.40,1.64,5.47,1.74,-1.74,-2.00,-1.49,3.66,3.73,3.76
21.23,5.49,1.71,5.54,1.78,-1.78,-2.02,-1.54,3.71,3.75,3.78
21.44,5.58,1.79,5.60,1.83,-1.83,-2.05,-1.58,3.75,3.78,3.80
21.66,5.67,1.85,5.67,1.87,-1.87,-2.08,-1.63,3.80,3.80,3.81
21.87,5.77,1.95,5.73,1.92,-1.92,-2.10,-1.68,3.85,3.82,3.83
22.09,5.84,2.00,5.80,1.97,-1.97,-2.13,-1.73,3.87,3.83,3.84
22.31,5.89,2.04,5.86,2.02,-2.02,-2.16,-1.78,3.87,3.84,3.85
22.54,5.94,2.09,5.93,2.08,-2.08,-2.18,-1.83,3.86,3.85,3.85
22.76,5.99,2.14,6.00,2.15,-2.15,-2.21,-1.88,3.84,3.85,3.85
22.99,6.04,2.20,6.07,2.21,-2.21,-2.24,-1.94,3.83,3.86,3.84
23.22,6.10,2.26,6.14,2.28,-2.28,-2.27,-1.99,3.82,3.86,3.84
23.45,6.17,2.33,6.19,2.33,-2.33,-2.29,-2.05,3.84,3.86,3.84
23.69,6.24,2.39,6.24,2.38,-2.38,-2.32,-2.11,3.86,3.86,3.85
23.92,6.31,2.46,6.29,2.43,-2.43,-2.35,-2.17,3.88,3.86,3.85
24.16,6.36,2.50,6.33,2.47,-2.47,-2.38,-2.23,3.89,3.86,3.86
24.40,6.40,2.53,6.37,2.51,-2.51,-2.41,-2.29,3.89,3.86,3.87
24.65,6.44,2.58,6.42,2.56,-2.56,-2.43,-2.35,3.88,3.86,3.86
24.89,6.48,2.62,6.46,2.60,-2.60,-2.46,-2.41,3.88,3.86,3.86
25.14,6.51,2.65,6.50,2.64,-2.64,-2.49,-2.48,3.87,3.86,3.86
25.39,6.52,2.65,6.53,2.67,-2.67,-2.52,-2.54,3.85,3.86,3.87
25.65,6.53,2.66,6.56,2.69,-2.69,-2.55,-2.60,3.84,3.86,3.87
25.91,6.54,2.68,6.57,2.71,-2.71,-2.58,-2.67,3.83,3.86,3.86
26.16,6.57,2.71,6.59,2.72,-2.72,-2.60,-2.73,3.85,3.86,3.86
26.43,6.63,2.77,6.61,2.75,-2.75,-2.63,-2.80,3.88,3.86,3.86
26.69,6.68,2.82,6.63,2.77,-2.77,-2.66,-2.86,3.91,3.86,3.86
26.96,6.73,2.86,6.66,2.80,-2.80,-2.69,-2.92,3.93,3.86,3.87
27.23,6.72,2.86,6.69,2.84,-2.84,-2.72,-2.99,3.88,3.86,3.86
27.50,6.69,2.83,6.72,2.87,-2.87,-2.74,-3.05,3.82,3.86,3.86
27.77,6.66,2.81,6.76,2.90,-2.90,-2.77,-3.11,3.76,3.85,3.85
28.05,6.66,2.81,6.79,2.94,-2.94,-2.80,-3.16,3.72,3.85,3.85
28.33,6.76,2.92,6.83,2.98,-2.98,-2.83,-3.22,3.79,3.85,3.84
28.62,6.87,3.03,6.86,3.01,-3.01,-2.86,-3.27,3.86,3.85,3.84
28.90,6.97,3.12,6.89,3.04,-3.04,-2.88,-3.32,3.93,3.85,3.85
29.19,7.02,3.18,6.93,3.08,-3.08,-2.91,-3.36,3.94,3.85,3.84
29.48,7.02,3.16,6.96,3.11,-3.11,-2.94,-3.41,3.91,3.85,3.86
29.78,7.03,3.18,7.00,3.15,-3.15,-2.97,-3.45,3.88,3.85,3.85
30.08,7.04,3.18,7.03,3.18,-3.18,-3.00,-3.48,3.86,3.85,3.86
30.38,7.05,3.20,7.07,3.22,-3.22,-3.02,-3.51,3.83,3.85,3.85
30.68,7.06,3.22,7.10,3.26,-3.26,-3.05,-3.54,3.80,3.84,3.84
30.99,7.07,3.23,7.13,3.29,-3.29,-3.08,-3.57,3.78,3.84,3.84
31.30,7.12,3.28,7.15,3.31,-3.31,-3.10,-3.59,3.81,3.84,3.84
31.61,7.17,3.33,7.17,3.33,-3.33,-3.13,-3.60,3.84,3.84,3.84
31.93,7.23,3.39,7.18,3.35,-3.35,-3.16,-3.61,3.88,3.84,3.84
32.24,7.24,3.41,7.20,3.36,-3.36,-3.18,-3.62,3.88,3.83,3.83
32.57,7.23,3.39,7.22,3.39,-3.39,-3.21,-3.62,3.84,3.83,3.84
32.89,7.22,3.39,7.24,3.41,-3.41,-3.24,-3.62,3.81,3.83,3.83
33.22,7.25,3.43,7.26,3.44,-3.44,-3.26,-3.62,3.81,3.82,3.82
33.55,7.29,3.47,7.29,3.47,-3.47,-3.29,-3.61,3.82,3.82,3.82
33.89,7.33,3.52,7.31,3.50,-3.50,-3.31,-3.60,3.83,3.82,3.81
34.23,7.34,3.52,7.34,3.52,-3.52,-3.34,-3.59,3.82,3.81,3.82
34.57,7.34,3.53,7.36,3.55,-3.55,-3.36,-3.57,3.79,3.81,3.81
34.92,7.34,3.54,7.38,3.57,-3.57,-3.39,-3.55,3.77,3.81,3.80
35.27,7.37,3.57,7.40,3.60,-3.60,-3.41,-3.53,3.77,3.80,3.80
35.62,7.41,3.61,7.42,3.62,-3.62,-3.43,-3.51,3.79,3.80,3.80
35.97,7.45,3.65,7.45,3.64,-3.64,-3.46,-3.49,3.81,3.80,3.80
36.33,7.48,3.67,7.47,3.67,-3.67,-3.48,-3.47,3.81,3.80,3.81
36.70,7.51,3.72,7.49,3.69,-3.69,-3.50,-3.44,3.82,3.80,3.79
37.06,7.54,3.75,7.50,3.70,-3.70,-3.52,-3.42,3.84,3.80,3.79
37.43,7.54,3.73,7.52,3.71,-3.71,-3.55,-3.40,3.83,3.80,3.81
37.81,7.54,3.73,7.53,3.72,-3.72,-3.57,-3.37,3.82,3.81,3.81
38.19,7.54,3.74,7.53,3.73,-3.73,-3.59,-3.35,3.81,3.81,3.80
38.57,7.54,3.73,7.54,3.73,-3.73,-3.61,-3.33,3.81,3.81,3.81
38.95,7.54,3.72,7.54,3.73,-3.73,-3.63,-3.31,3.81,3.81,3.82
39.34,7.54,3.72,7.54,3.73,-3.73,-3.65,-3.29,3.81,3.81,3.82
39.74,7.54,3.73,7.54,3.73,-3.73,-3.67,-3.27,3.81,3.82,3.81
40.14,7.54,3.72,7.54,3.73,-3.73,-3.69,-3.26,3.81,3.82,3.82
40.54,7.54,3.72,7.55,3.73,-3.73,-3.71,-3.24,3.81,3.82,3.82
40.94,7.54,3.73,7.56,3.74,-3.74,-3.72,-3.23,3.80,3.81,3.81
41.35,7.53,3.72,7.57,3.75,-3.75,-3.74,-3.22,3.78,3.81,3.81
41.76,7.52,3.72,7.57,3.77,-3.77,-3.76,-3.21,3.75,3.81,3.81
42.18,7.54,3.73,7.58,3.78,-3.78,-3.78,-3.21,3.76,3.80,3.81
42.60,7.59,3.79,7.59,3.80,-3.80,-3.79,-3.21,3.79,3.79,3.80
43.03,7.64,3.85,7.59,3.81,-3.81,-3.81,-3.20,3.83,3.78,3.79
43.46,7.64,3.85,7.60,3.83,-3.83,-3.82,-3.21,3.81,3.77,3.79
43.90,7.64,3.88,7.61,3.84,-3.84,-3.84,-3.21,3.80,3.76,3.76
44.33,7.64,3.89,7.61,3.85,-3.85,-3.85,-3.22,3.79,3.76,3.75
44.78,7.63,3.90,7.60,3.86,-3.86,-3.86,-3.23,3.77,3.75,3.73
45.23,7.61,3.88,7.59,3.86,-3.86,-3.88,-3.24,3.75,3.73,3.73
45.68,7.57,3.86,7.58,3.86,-3.86,-3.89,-3.25,3.71,3.72,3.71
46.13,7.54,3.84,7.57,3.86,-3.86,-3.90,-3.27,3.68,3.71,3.70
46.60,7.54,3.84,7.56,3.86,-3.86,-3.91,-3.28,3.68,3.70,3.70
47.06,7.54,3.85,7.55,3.86,-3.86,-3.92,-3.31,3.68,3.69,3.69
47.53,7.53,3.85,7.53,3.85,-3.85,-3.93,-3.33,3.68,3.68,3.68
48.01,7.53,3.85,7.51,3.84,-3.84,-3.94,-3.35,3.69,3.67,3.68
48.49,7.48,3.81,7.49,3.83,-3.83,-3.95,-3.38,3.65,3.66,3.67
48.97,7.42,3.77,7.47,3.82,-3.82,-3.96,-3.41,3.60,3.65,3.65
49.46,7.43,3.80,7.45,3.81,-3.81,-3.97,-3.44,3.62,3.64,3.63
49.96,7.44,3.82,7.44,3.81,-3.81,-3.97,-3.47,3.63,3.63,3.62
50.46,7.46,3.84,7.43,3.81,-3.81,-3.98,-3.51,3.65,3.62,3.62
50.96,7.48,3.87,7.42,3.81,-3.81,-3.98,-3.54,3.67,3.61,3.61
51.47,7.41,3.82,7.41,3.81,-3.81,-3.99,-3.58,3.60,3.60,3.59
51.99,7.34,3.76,7.39,3.80,-3.80,-3.99,-3.61,3.54,3.59,3.58
52.51,7.34,3.75,7.37,3.79,-3.79,-4.00,-3.65,3.55,3.59,3.59
53.03,7.34,3.75,7.35,3.77,-3.77,-4.00,-3.69,3.57,3.58,3.59
53.56,7.34,3.76,7.33,3.76,-3.76,-4.00,-3.73,3.58,3.57,3.58
54.10,7.34,3.77,7.31,3.75,-3.75,-4.00,-3.77,3.59,3.57,3.57
54.64,7.35,3.79,7.30,3.73,-3.73,-4.00,-3.80,3.62,3.56,3.56
55.18,7.33,3.77,7.28,3.72,-3.72,-4.00,-3.84,3.61,3.56,3.56
55.74,7.26,3.71,7.26,3.71,-3.71,-4.00,-3.87,3.55,3.55,3.55
56.29,7.20,3.65,7.23,3.69,-3.69,-4.00,-3.91,3.51,3.54,3.54
56.86,7.15,3.62,7.21,3.68,-3.68,-4.00,-3.94,3.48,3.54,3.53
57.42,7.14,3.63,7.19,3.66,-3.66,-4.00,-3.97,3.48,3.53,3.51
58.00,7.14,3.63,7.17,3.65,-3.65,-3.99,-3.99,3.49,3.51,3.51
58.58,7.14,3.63,7.14,3.65,-3.65,-3.99,-4.02,3.49,3.50,3.51
59.16,7.14,3.65,7.12,3.64,-3.64,-3.99,-4.04,3.50,3.48,3.49
59.76,7.16,3.68,7.09,3.63,-3.63,-3.98,-4.05,3.53,3.46,3.48
60.35,7.12,3.67,7.07,3.63,-3.63,-3.98,-4.07,3.49,3.44,3.45
60.96,7.05,3.63,7.04,3.63,-3.63,-3.97,-4.08,3.42,3.41,3.42
61.57,6.97,3.58,7.02,3.63,-3.63,-3.96,-4.08,3.34,3.38,3.39
62.18,6.92,3.57,6.99,3.64,-3.64,-3.95,-4.08,3.28,3.35,3.35
62.80,6.94,3.63,6.96,3.65,-3.65,-3.95,-4.08,3.29,3.32,3.31
63.43,6.94,3.66,6.93,3.65,-3.65,-3.94,-4.07,3.29,3.29,3.28
64.07,6.94,3.70,6.89,3.64,-3.64,-3.93,-4.06,3.30,3.25,3.24
64.71,6.87,3.67,6.85,3.63,-3.63,-3.92,-4.05,3.24,3.21,3.20
65.35,6.82,3.64,6.80,3.62,-3.62,-3.91,-4.03,3.20,3.18,3.18
66.01,6.79,3.65,6.76,3.62,-3.62,-3.90,-4.01,3.17,3.14,3.14
66.67,6.72,3.62,6.72,3.62,-3.62,-3.88,-3.98,3.10,3.10,3.10
67.33,6.67,3.61,6.68,3.62,-3.62,-3.87,-3.95,3.05,3.06,3.06
68.01,6.64,3.61,6.65,3.63,-3.63,-3.86,-3.92,3.01,3.02,3.03
68.69,6.58,3.59,6.61,3.63,-3.63,-3.84,-3.89,2.95,2.98,2.99
69.37,6.53,3.58,6.57,3.62,-3.62,-3.83,-3.85,2.91,2.94,2.95
70.07,6.47,3.57,6.52,3.61,-3.61,-3.82,-3.81,2.86,2.90,2.90
70.77,6.45,3.58,6.47,3.61,-3.61,-3.80,-3.77,2.84,2.86,2.87
71.48,6.44,3.61,6.42,3.61,-3.61,-3.78,-3.73,2.83,2.82,2.83
72.19,6.44,3.66,6.38,3.61,-3.61,-3.77,-3.68,2.83,2.77,2.78
72.91,6.42,3.69,6.34,3.61,-3.61,-3.75,-3.64,2.81,2.73,2.73
73.64,6.30,3.61,6.29,3.61,-3.61,-3.73,-3.60,2.69,2.69,2.69
74.38,6.24,3.60,6.25,3.60,-3.60,-3.72,-3.55,2.64,2.64,2.64
75.12,6.22,3.62,6.20,3.60,-3.60,-3.70,-3.51,2.62,2.60,2.59
75.87,6.10,3.55,6.15,3.60,-3.60,-3.68,-3.47,2.50,2.56,2.55
76.63,6.05,3.54,6.11,3.59,-3.59,-3.66,-3.42,2.46,2.52,2.51
77.40,6.03,3.56,6.06,3.58,-3.58,-3.64,-3.38,2.45,2.48,2.47
78.17,6.03,3.60,6.01,3.57,-3.57,-3.62,-3.34,2.46,2.44,2.42
78.95,6.01,3.60,5.96,3.56,-3.56,-3.60,-3.30,2.45,2.40,2.41
79.74,5.88,3.51,5.90,3.53,-3.53,-3.58,-3.27,2.35,2.37,2.37
80.54,5.83,3.49,5.85,3.51,-3.51,-3.56,-3.23,2.32,2.33,2.34
81.35,5.80,3.50,5.80,3.50,-3.50,-3.53,-3.20,2.30,2.30,2.30
82.16,5.75,3.49,5.75,3.48,-3.48,-3.51,-3.17,2.27,2.27,2.26
82.98,5.73,3.49,5.69,3.46,-3.46,-3.49,-3.14,2.27,2.23,2.24
83.81,5.65,3.45,5.64,3.43,-3.43,-3.47,-3.11,2.22,2.20,2.20
84.65,5.60,3.43,5.58,3.41,-3.41,-3.44,-3.08,2.19,2.17,2.17
85.50,5.52,3.38,5.52,3.38,-3.38,-3.42,-3.06,2.14,2.14,2.14
86.35,5.43,3.32,5.45,3.35,-3.35,-3.39,-3.04,2.08,2.10,2.11
87.22,5.38,3.30,5.39,3.32,-3.32,-3.37,-3.02,2.06,2.07,2.08
88.09,5.33,3.29,5.33,3.30,-3.30,-3.34,-3.00,2.03,2.04,2.04
88.97,5.32,3.31,5.28,3.28,-3.28,-3.32,-2.99,2.04,2.00,2.01
89.86,5.18,3.21,5.23,3.26,-3.26,-3.29,-2.98,1.92,1.97,1.97
90.76,5.14,3.21,5.17,3.23,-3.23,-3.27,-2.97,1.91,1.94,1.93
91.66,5.12,3.21,5.12,3.21,-3.21,-3.24,-2.96,1.91,1.90,1.91
92.58,5.07,3.21,5.06,3.19,-3.19,-3.22,-2.96,1.88,1.87,1.86
93.51,4.99,3.16,5.02,3.18,-3.18,-3.19,-2.95,1.81,1.84,1.83
94.44,4.95,3.14,4.97,3.16,-3.16,-3.16,-2.95,1.79,1.81,1.81
95.39,4.94,3.16,4.92,3.15,-3.15,-3.14,-2.95,1.79,1.77,1.78
96.34,4.92,3.18,4.88,3.14,-3.14,-3.11,-2.96,1.78,1.74,1.74
97.30,4.87,3.16,4.84,3.12,-3.12,-3.08,-2.96,1.75,1.71,1.71
98.28,4.79,3.11,4.79,3.11,-3.11,-3.05,-2.97,1.68,1.68,1.68
99.26,4.71,3.06,4.74,3.09,-3.09,-3.03,-2.98,1.62,1.65,1.65
100.25,4.68,3.06,4.70,3.07,-3.07,-3.00,-2.99,1.61,1.62,1.62
101.25,4.66,3.06,4.65,3.06,-3.06,-2.97,-3.00,1.60,1.59,1.59
102.27,4.62,3.05,4.61,3.04,-3.04,-2.94,-3.01,1.58,1.56,1.57
103.29,4.57,3.04,4.56,3.03,-3.03,-2.91,-3.03,1.54,1.53,1.53
104.32,4.52,3.01,4.51,3.01,-3.01,-2.89,-3.04,1.51,1.50,1.51
105.37,4.49,3.01,4.46,2.99,-2.99,-2.86,-3.06,1.50,1.47,1.48
106.42,4.41,2.96,4.41,2.98,-2.98,-2.83,-3.07,1.43,1.44,1.45
107.48,4.35,2.94,4.37,2.97,-2.97,-2.80,-3.09,1.38,1.40,1.41
108.56,4.32,2.95,4.33,2.96,-2.96,-2.77,-3.10,1.36,1.37,1.37
109.64,4.30,2.96,4.29,2.96,-2.96,-2.74,-3.12,1.34,1.34,1.34
110.74,4.28,2.98,4.26,2.96,-2.96,-2.71,-3.13,1.32,1.30,1.30
111.85,4.25,2.97,4.23,2.96,-2.96,-2.68,-3.15,1.29,1.27,1.28
112.97,4.16,2.93,4.21,2.97,-2.97,-2.65,-3.16,1.19,1.24,1.23
114.10,4.15,2.95,4.19,2.98,-2.98,-2.63,-3.17,1.17,1.21,1.20
115.24,4.15,2.97,4.17,2.99,-2.99,-2.60,-3.18,1.16,1.18,1.18
116.39,4.15,3.01,4.17,3.02,-3.02,-2.57,-3.19,1.13,1.15,1.14
117.55,4.15,3.03,4.17,3.04,-3.04,-2.54,-3.20,1.11,1.13,1.12
118.73,4.16,3.07,4.17,3.07,-3.07,-2.51,-3.20,1.09,1.11,1.09
119.92,4.17,3.08,4.18,3.10,-3.10,-2.48,-3.20,1.07,1.08,1.09
121.12,4.17,3.11,4.18,3.12,-3.12,-2.45,-3.20,1.05,1.07,1.06
122.33,4.18,3.14,4.19,3.14,-3.14,-2.42,-3.19,1.04,1.05,1.04
123.55,4.19,3.15,4.19,3.16,-3.16,-2.39,-3.19,1.03,1.03,1.04
124.79,4.20,3.18,4.19,3.17,-3.17,-2.36,-3.18,1.03,1.02,1.02
126.03,4.20,3.19,4.18,3.17,-3.17,-2.33,-3.16,1.03,1.00,1.01
127.29,4.21,3.21,4.16,3.17,-3.17,-2.30,-3.15,1.04,0.99,1.00
128.57,4.18,3.20,4.12,3.14,-3.14,-2.28,-3.13,1.04,0.98,0.98
129.85,4.12,3.15,4.08,3.11,-3.11,-2.25,-3.10,1.01,0.97,0.97
131.15,4.05,3.10,4.02,3.07,-3.07,-2.22,-3.08,0.98,0.95,0.95
132.46,3.99,3.05,3.96,3.02,-3.02,-2.19,-3.05,0.97,0.94,0.94
133.79,3.91,2.98,3.89,2.97,-2.97,-2.16,-3.02,0.94,0.93,0.93
135.12,3.83,2.92,3.82,2.90,-2.90,-2.13,-2.98,0.93,0.92,0.91
136.48,3.74,2.84,3.74,2.83,-2.83,-2.10,-2.95,0.91,0.90,0.91
137.84,3.67,2.79,3.66,2.77,-2.77,-2.07,-2.91,0.90,0.89,0.88
139.22,3.53,2.66,3.58,2.70,-2.70,-2.05,-2.87,0.83,0.88,0.87
140.61,3.43,2.58,3.51,2.65,-2.65,-2.02,-2.83,0.78,0.86,0.85
142.02,3.36,2.51,3.44,2.60,-2.60,-1.99,-2.79,0.76,0.84,0.85
143.44,3.35,2.52,3.39,2.56,-2.56,-1.96,-2.75,0.79,0.82,0.83
144.87,3.29,2.49,3.33,2.53,-2.53,-1.93,-2.70,0.76,0.80,0.80
146.32,3.24,2.46,3.28,2.51,-2.51,-1.91,-2.66,0.73,0.77,0.78
147.78,3.17,2.41,3.22,2.49,-2.49,-1.88,-2.61,0.68,0.73,0.76
149.26,3.14,2.42,3.15,2.46,-2.46,-1.85,-2.57,0.68,0.69,0.72
150.75,3.15,2.48,3.08,2.44,-2.44,-1.82,-2.52,0.71,0.65,0.67
152.26,3.13,2.52,3.00,2.41,-2.41,-1.80,-2.48,0.72,0.60,0.61
153.78,3.02,2.46,2.92,2.38,-2.38,-1.77,-2.43,0.64,0.54,0.56
155.32,2.96,2.46,2.84,2.35,-2.35,-1.74,-2.39,0.61,0.48,0.50
156.88,2.86,2.43,2.75,2.32,-2.32,-1.72,-2.35,0.54,0.43,0.43
158.44,2.71,2.35,2.65,2.29,-2.29,-1.69,-2.31,0.42,0.37,0.36
160.03,2.54,2.25,2.56,2.25,-2.25,-1.66,-2.27,0.29,0.31,0.29
161.63,2.38,2.15,2.47,2.21,-2.21,-1.64,-2.23,0.17,0.25,0.23
163.24,2.27,2.09,2.38,2.17,-2.17,-1.61,-2.19,0.10,0.20,0.18
164.88,2.17,2.03,2.30,2.14,-2.14,-1.58,-2.15,0.03,0.16,0.14
166.53,2.14,2.04,2.23,2.11,-2.11,-1.56,-2.11,0.03,0.12,0.10
168.19,2.12,2.05,2.17,2.08,-2.08,-1.53,-2.08,0.04,0.09,0.07
169.87,2.11,2.07,2.13,2.06,-2.06,-1.51,-2.05,0.05,0.07,0.04
171.57,2.11,2.07,2.10,2.05,-2.05,-1.48,-2.01,0.06,0.05,0.04
173.29,2.10,2.07,2.09,2.05,-2.05,-1.45,-1.98,0.05,0.04,0.03
175.02,2.10,2.07,2.09,2.06,-2.06,-1.43,-1.96,0.04,0.03,0.03
176.77,2.07,2.04,2.10,2.07,-2.07,-1.40,-1.93,0.00,0.03,0.03
178.54,2.12,2.09,2.12,2.09,-2.09,-1.38,-1.90,0.03,0.03,0.03
180.32,2.18,2.13,2.15,2.11,-2.11,-1.35,-1.88,0.07,0.04,0.05
182.13,2.20,2.14,2.17,2.13,-2.13,-1.33,-1.86,0.07,0.04,0.06
183.95,2.21,2.15,2.18,2.14,-2.14,-1.31,-1.83,0.07,0.04,0.06
185.79,2.22,2.16,2.19,2.15,-2.15,-1.28,-1.82,0.07,0.04,0.06
187.65,2.24,2.19,2.19,2.16,-2.16,-1.26,-1.80,0.08,0.04,0.05
189.52,2.19,2.14,2.19,2.16,-2.16,-1.23,-1.78,0.03,0.04,0.05
191.42,2.16,2.13,2.19,2.16,-2.16,-1.21,-1.76,0.00,0.03,0.03
193.33,2.18,2.16,2.18,2.16,-2.16,-1.19,-1.75,0.02,0.02,0.02
195.27,2.21,2.20,2.17,2.16,-2.16,-1.16,-1.74,0.05,0.01,0.01
197.22,2.21,2.21,2.15,2.15,-2.15,-1.14,-1.72,0.06,-0.00,-0.00
199.19,2.11,2.13,2.12,2.14,-2.14,-1.11,-1.71,-0.03,-0.01,-0.02
201.18,2.03,2.06,2.09,2.12,-2.12,-1.09,-1.70,-0.09,-0.03,-0.03
203.19,2.03,2.07,2.06,2.10,-2.10,-1.07,-1.69,-0.07,-0.04,-0.04
205.23,2.05,2.11,2.03,2.08,-2.08,-1.05,-1.68,-0.03,-0.06,-0.06
207.28,1.99,2.05,1.99,2.07,-2.07,-1.02,-1.67,-0.08,-0.07,-0.06
209.35,1.94,2.02,1.96,2.04,-2.04,-1.00,-1.66,-0.10,-0.09,-0.08
211.44,1.93,2.04,1.92,2.02,-2.02,-0.98,-1.66,-0.09,-0.10,-0.11
213.56,1.93,2.04,1.88,1.99,-1.99,-0.96,-1.65,-0.06,-0.11,-0.11
215.69,1.88,2.00,1.83,1.95,-1.95,-0.93,-1.64,-0.07,-0.12,-0.12
217.85,1.74,1.86,1.79,1.91,-1.91,-0.91,-1.63,-0.17,-0.13,-0.12
220.03,1.72,1.85,1.75,1.88,-1.88,-0.89,-1.62,-0.16,-0.13,-0.13
222.23,1.71,1.86,1.72,1.85,-1.85,-0.87,-1.61,-0.14,-0.13,-0.15
224.45,1.71,1.85,1.69,1.82,-1.82,-0.85,-1.60,-0.11,-0.13,-0.14
226.70,1.69,1.82,1.66,1.79,-1.79,-0.82,-1.59,-0.10,-0.13,-0.13
228.96,1.61,1.73,1.64,1.75,-1.75,-0.80,-1.58,-0.14,-0.12,-0.12
231.25,1.56,1.67,1.62,1.72,-1.72,-0.78,-1.57,-0.16,-0.11,-0.11
233.57,1.53,1.62,1.59,1.69,-1.69,-0.76,-1.56,-0.16,-0.09,-0.09
235.90,1.54,1.62,1.57,1.65,-1.65,-0.74,-1.54,-0.11,-0.07,-0.08
238.26,1.56,1.62,1.56,1.61,-1.61,-0.72,-1.52,-0.05,-0.05,-0.06
240.64,1.58,1.62,1.55,1.58,-1.58,-0.69,-1.50,-0.00,-0.03,-0.04
243.05,1.58,1.59,1.54,1.55,-1.55,-0.67,-1.48,0.03,-0.01,-0.01
245.48,1.54,1.52,1.53,1.51,-1.51,-0.65,-1.46,0.03,0.02,0.02
247.93,1.54,1.49,1.51,1.47,-1.47,-0.63,-1.44,0.07,0.04,0.05
250.41,1.52,1.45,1.49,1.42,-1.42,-0.61,-1.41,0.10,0.07,0.07
252.92,1.47,1.36,1.47,1.37,-1.37,-0.59,-1.38,0.10,0.10,0.11
255.45,1.42,1.29,1.45,1.33,-1.33,-0.57,-1.35,0.09,0.12,0.13
258.00,1.40,1.24,1.42,1.27,-1.27,-0.55,-1.31,0.13,0.15,0.16
260.58,1.40,1.23,1.39,1.21,-1.21,-0.52,-1.28,0.19,0.18,0.17
263.19,1.39,1.18,1.35,1.15,-1.15,-0.50,-1.24,0.24,0.20,0.21
265.82,1.32,1.10,1.31,1.08,-1.08,-0.48,-1.20,0.24,0.23,0.22
268.48,1.29,1.04,1.27,1.01,-1.01,-0.46,-1.16,0.28,0.26,0.25
271.16,1.25,0.96,1.23,0.94,-0.94,-0.44,-1.12,0.31,0.28,0.29
273.87,1.12,0.82,1.18,0.87,-0.87,-0.42,-1.07,0.25,0.31,0.30
276.61,1.08,0.74,1.13,0.80,-0.80,-0.40,-1.03,0.28,0.34,0.34
279.38,1.08,0.71,1.08,0.71,-0.71,-0.37,-0.98,0.37,0.37,0.37
282.17,1.09,0.70,1.03,0.63,-0.63,-0.35,-0.93,0.46,0.40,0.39
284.99,1.02,0.59,0.97,0.55,-0.55,-0.33,-0.88,0.47,0.43,0.43
287.84,0.91,0.46,0.92,0.46,-0.46,-0.31,-0.82,0.45,0.46,0.45
290.72,0.91,0.42,0.86,0.37,-0.37,-0.29,-0.77,0.54,0.49,0.49
293.63,0.80,0.29,0.81,0.29,-0.29,-0.27,-0.72,0.51,0.52,0.51
296.57,0.74,0.19,0.77,0.22,-0.22,-0.24,-0.66,0.52,0.55,0.55
299.53,0.75,0.17,0.74,0.16,-0.16,-0.22,-0.60,0.59,0.58,0.58
302.53,0.66,0.06,0.70,0.10,-0.10,-0.20,-0.55,0.56,0.61,0.60
305.55,0.58,-0.06,0.67,0.04,-0.04,-0.18,-0.49,0.54,0.63,0.64
308.61,0.57,-0.09,0.64,-0.02,0.02,-0.15,-0.43,0.59,0.66,0.66
311.69,0.58,-0.11,0.61,-0.08,0.08,-0.13,-0.37,0.66,0.68,0.69
314.81,0.59,-0.13,0.58,-0.12,0.12,-0.11,-0.31,0.71,0.71,0.72
317.96,0.59,-0.15,0.56,-0.17,0.17,-0.08,-0.25,0.76,0.73,0.74
321.14,0.59,-0.15,0.54,-0.21,0.21,-0.06,-0.19,0.80,0.75,0.74
324.35,0.59,-0.17,0.51,-0.25,0.25,-0.03,-0.13,0.84,0.77,0.76
327.59,0.55,-0.23,0.49,-0.29,0.29,-0.01,-0.07,0.84,0.78,0.78
330.87,0.49,-0.30,0.47,-0.33,0.33,0.02,-0.01,0.82,0.80,0.79
334.18,0.41,-0.40,0.44,-0.37,0.37,0.04,0.05,0.78,0.81,0.81
337.52,0.38,-0.44,0.41,-0.41,0.41,0.07,0.12,0.79,0.82,0.82
340.90,0.38,-0.46,0.37,-0.45,0.45,0.10,0.18,0.83,0.83,0.84
344.30,0.33,-0.51,0.33,-0.50,0.50,0.12,0.24,0.83,0.84,0.84
347.75,0.29,-0.55,0.30,-0.55,0.55,0.15,0.31,0.84,0.84,0.84
351.23,0.23,-0.62,0.26,-0.59,0.59,0.18,0.37,0.82,0.85,0.85
354.74,0.19,-0.66,0.22,-0.63,0.63,0.21,0.44,0.82,0.85,0.85
358.28,0.19,-0.67,0.18,-0.68,0.68,0.24,0.50,0.87,0.86,0.86
361.87,0.18,-0.68,0.15,-0.71,0.71,0.26,0.56,0.89,0.86,0.86
365.49,0.11,-0.76,0.12,-0.74,0.74,0.30,0.63,0.85,0.86,0.87
369.14,0.07,-0.79,0.09,-0.77,0.77,0.33,0.70,0.84,0.86,0.86
372.83,0.02,-0.83,0.06,-0.80,0.80,0.36,0.76,0.82,0.86,0.85
376.56,0.02,-0.83,0.02,-0.84,0.84,0.39,0.83,0.86,0.86,0.85
380.33,0.03,-0.83,-0.02,-0.87,0.87,0.42,0.90,0.90,0.86,0.86
384.13,0.01,-0.85,-0.05,-0.90,0.90,0.46,0.96,0.91,0.85,0.86
387.97,-0.10,-0.95,-0.09,-0.93,0.93,0.49,1.03,0.83,0.85,0.85
391.85,-0.15,-0.99,-0.12,-0.97,0.97,0.53,1.10,0.82,0.84,0.84
395.77,-0.16,-1.01,-0.16,-1.00,1.00,0.57,1.16,0.84,0.84,0.85
399.73,-0.16,-1.00,-0.21,-1.04,1.04,0.60,1.23,0.88,0.83,0.84
403.72,-0.21,-1.05,-0.25,-1.08,1.08,0.64,1.30,0.87,0.83,0.84
407.76,-0.33,-1.16,-0.29,-1.11,1.11,0.68,1.36,0.78,0.83,0.83
411.84,-0.37,-1.20,-0.33,-1.15,1.15,0.72,1.43,0.78,0.82,0.83
415.96,-0.37,-1.20,-0.37,-1.19,1.19,0.77,1.50,0.82,0.82,0.83
420.12,-0.37,-1.20,-0.42,-1.24,1.24,0.81,1.56,0.87,0.82,0.83
424.32,-0.43,-1.25,-0.45,-1.29,1.29,0.85,1.63,0.86,0.83,0.82
428.56,-0.48,-1.31,-0.48,-1.32,1.32,0.90,1.69,0.84,0.84,0.83
432.85,-0.52,-1.36,-0.50,-1.35,1.35,0.95,1.75,0.83,0.86,0.84
437.18,-0.57,-1.42,-0.51,-1.39,1.39,1.00,1.81,0.82,0.88,0.85
441.55,-0.57,-1.46,-0.53,-1.43,1.43,1.05,1.87,0.86,0.90,0.89
445.96,-0.53,-1.45,-0.53,-1.46,1.46,1.10,1.93,0.93,0.94,0.92
450.42,-0.55,-1.50,-0.52,-1.50,1.50,1.15,1.98,0.95,0.97,0.95
454.93,-0.57,-1.57,-0.52,-1.53,1.53,1.21,2.04,0.96,1.01,1.00
459.48,-0.57,-1.62,-0.52,-1.58,1.58,1.26,2.09,1.01,1.06,1.05
464.07,-0.50,-1.60,-0.51,-1.61,1.61,1.32,2.13,1.11,1.10,1.10
468.71,-0.43,-1.59,-0.50,-1.65,1.65,1.38,2.18,1.22,1.15,1.16
473.40,-0.43,-1.63,-0.49,-1.69,1.69,1.44,2.22,1.26,1.20,1.20
478.13,-0.44,-1.70,-0.48,-1.73,1.73,1.50,2.26,1.29,1.25,1.26
482.91,-0.49,-1.79,-0.48,-1.77,1.77,1.56,2.29,1.28,1.30,1.30
487.74,-0.46,-1.80,-0.48,-1.81,1.81,1.63,2.32,1.35,1.34,1.34
492.62,-0.49,-1.88,-0.49,-1.86,1.86,1.70,2.35,1.37,1.37,1.39
497.55,-0.56,-1.97,-0.51,-1.92,1.92,1.76,2.37,1.36,1.40,1.41
502.52,-0.56,-2.00,-0.53,-1.96,1.96,1.83,2.39,1.40,1.43,1.44
507.55,-0.52,-1.97,-0.56,-2.00,2.00,1.90,2.41,1.48,1.44,1.45
512.62,-0.54,-2.00,-0.60,-2.05,2.05,1.97,2.42,1.51,1.45,1.46
517.75,-0.68,-2.15,-0.66,-2.10,2.10,2.04,2.43,1.42,1.44,1.47
522.93,-0.72,-2.18,-0.72,-2.15,2.15,2.11,2.43,1.43,1.43,1.46
528.16,-0.73,-2.16,-0.78,-2.19,2.19,2.19,2.43,1.46,1.41,1.43
533.44,-0.82,-2.22,-0.85,-2.23,2.23,2.26,2.43,1.41,1.38,1.40
538.77,-0.93,-2.30,-0.91,-2.26,2.26,2.33,2.43,1.33,1.34,1.37
