frequency,raw
20.00,8.93
20.20,8.95
20.40,8.97
20.61,8.99
20.81,9.00
21.02,9.02
21.23,9.04
21.44,9.06
21.66,9.08
21.87,9.10
22.09,9.12
22.31,9.14
22.54,9.15
22.76,9.17
22.99,9.19
23.22,9.21
23.45,9.23
23.69,9.25
23.92,9.26
24.16,9.28
24.40,9.30
24.65,9.32
24.89,9.33
25.14,9.35
25.39,9.37
25.65,9.39
25.91,9.40
26.16,9.42
26.43,9.44
26.69,9.45
26.96,9.47
27.23,9.48
27.50,9.50
27.77,9.52
28.05,9.53
28.33,9.55
28.62,9.56
28.90,9.58
29.19,9.59
29.48,9.60
29.78,9.62
30.08,9.63
30.38,9.64
30.68,9.65
30.99,9.66
31.30,9.67
31.61,9.68
31.93,9.69
32.24,9.70
32.57,9.71
32.89,9.72
33.22,9.72
33.55,9.73
33.89,9.74
34.23,9.74
34.57,9.75
34.92,9.76
35.27,9.77
35.62,9.78
35.97,9.79
36.33,9.80
36.70,9.81
37.06,9.82
37.43,9.83
37.81,9.84
38.19,9.84
38.57,9.85
38.95,9.85
39.34,9.85
39.74,9.86
40.14,9.86
40.54,9.86
40.94,9.86
41.35,9.86
41.76,9.86
42.18,9.86
42.60,9.86
43.03,9.86
43.46,9.86
43.90,9.86
44.33,9.86
44.78,9.85
45.23,9.85
45.68,9.84
46.13,9.83
46.60,9.82
47.06,9.81
47.53,9.80
48.01,9.79
48.49,9.78
48.97,9.76
49.46,9.75
49.96,9.73
50.46,9.71
50.96,9.69
51.47,9.68
51.99,9.66
52.51,9.64
53.03,9.62
53.56,9.60
54.10,9.59
54.64,9.57
55.18,9.55
55.74,9.54
56.29,9.52
56.86,9.51
57.42,9.51
58.00,9.50
58.58,9.51
59.16,9.51
59.76,9.51
60.35,9.51
60.96,9.51
61.57,9.51
62.18,9.51
62.80,9.49
63.43,9.48
64.07,9.47
64.71,9.45
65.35,9.43
66.01,9.41
66.67,9.38
67.33,9.36
68.01,9.34
68.69,9.32
69.37,9.30
70.07,9.29
70.77,9.27
71.48,9.25
72.19,9.22
72.91,9.20
73.64,9.18
74.38,9.16
75.12,9.14
75.87,9.11
76.63,9.09
77.40,9.08
78.17,9.07
78.95,9.06
79.74,9.03
80.54,9.00
81.35,8.97
82.16,8.93
82.98,8.89
83.81,8.85
84.65,8.81
85.50,8.77
86.35,8.73
87.22,8.69
88.09,8.66
88.97,8.64
89.86,8.62
90.76,8.60
91.66,8.59
92.58,8.57
93.51,8.55
94.44,8.53
95.39,8.52
96.34,8.50
97.30,8.48
98.28,8.46
99.26,8.44
100.25,8.41
101.25,8.37
102.27,8.35
103.29,8.33
104.32,8.31
105.37,8.27
106.42,8.24
107.48,8.22
108.56,8.20
109.64,8.19
110.74,8.19
111.85,8.20
112.97,8.20
114.10,8.21
115.24,8.22
116.39,8.23
117.55,8.23
118.73,8.23
119.92,8.21
121.12,8.20
122.33,8.18
123.55,8.15
124.79,8.12
126.03,8.09
127.29,8.08
128.57,8.05
129.85,8.00
131.15,7.94
132.46,7.91
133.79,7.86
135.12,7.80
136.48,7.77
137.84,7.73
139.22,7.72
140.61,7.69
142.02,7.65
143.44,7.61
144.87,7.56
146.32,7.52
147.78,7.47
149.26,7.43
150.75,7.40
152.26,7.39
153.78,7.36
155.32,7.32
156.88,7.27
158.44,7.22
160.03,7.16
161.63,7.13
163.24,7.10
164.88,7.06
166.53,7.04
168.19,7.03
169.87,6.99
171.57,6.96
173.29,6.92
175.02,6.87
176.77,6.83
178.54,6.80
180.32,6.78
182.13,6.76
183.95,6.74
185.79,6.70
187.65,6.67
189.52,6.63
191.42,6.58
193.33,6.54
195.27,6.50
197.22,6.47
199.19,6.45
201.18,6.42
203.19,6.39
205.23,6.35
207.28,6.30
209.35,6.25
211.44,6.21
213.56,6.17
215.69,6.12
217.85,6.07
220.03,6.04
222.23,6.00
224.45,5.94
226.70,5.89
228.96,5.83
231.25,5.79
233.57,5.74
235.90,5.67
238.26,5.64
240.64,5.60
243.05,5.56
245.48,5.52
247.93,5.46
250.41,5.42
252.92,5.37
255.45,5.34
258.00,5.30
260.58,5.25
263.19,5.20
265.82,5.14
268.48,5.09
271.16,5.04
273.87,4.99
276.61,4.96
279.38,4.92
282.17,4.87
284.99,4.81
287.84,4.73
290.72,4.68
293.63,4.64
296.57,4.60
299.53,4.56
302.53,4.51
305.55,4.47
308.61,4.42
311.69,4.37
314.81,4.34
317.96,4.31
321.14,4.26
324.35,4.21
327.59,4.15
330.87,4.10
334.18,4.06
337.52,4.02
340.90,3.97
344.30,3.91
347.75,3.87
351.23,3.81
354.74,3.75
358.28,3.69
361.87,3.64
365.49,3.61
369.14,3.57
372.83,3.53
376.56,3.49
380.33,3.45
384.13,3.41
387.97,3.36
391.85,3.31
395.77,3.27
399.73,3.22
403.72,3.19
407.76,3.16
411.84,3.14
415.96,3.10
420.12,3.06
424.32,3.02
428.56,2.98
432.85,2.94
437.18,2.91
441.55,2.89
445.96,2.86
450.42,2.82
454.93,2.77
459.48,2.71
464.07,2.66
468.71,2.61
473.40,2.57
478.13,2.54
482.91,2.50
487.74,2.47
492.62,2.43
497.55,2.39
502.52,2.34
507.55,2.30
512.62,2.27
517.75,2.23
522.93,2.20
528.16,2.16
533.44,2.11
538.77,2.06
544.16,2.00
549.60,1.96
555.10,1.92
560.65,1.88
566.25,1.85
571.92,1.81
577.64,1.77
583.41,1.73
589.25,1.68
595.14,1.64
601.09,1.60
607.10,1.56
613.17,1.55
619.30,1.53
625.50,1.49
631.75,1.45
638.07,1.41
644.45,1.36
650.89,1.32
657.40,1.28
663.98,1.25
670.62,1.22
677.32,1.20
684.10,1.19
690.94,1.16
697.85,1.12
704.83,1.09
711.87,1.05
718.99,1.02
726.18,0.99
733.44,0.96
740.78,0.93
748.19,0.90
755.67,0.88
763.23,0.86
770.86,0.83
778.57,0.79
786.35,0.75
794.22,0.72
802.16,0.68
810.18,0.65
818.28,0.62
826.46,0.61
834.73,0.60
843.08,0.56
851.51,0.53
860.02,0.48
868.62,0.44
877.31,0.39
886.08,0.35
894.94,0.31
903.89,0.28
912.93,0.25
922.06,0.22
931.28,0.20
940.59,0.18
950.00,0.16
959.50,0.13
969.09,0.09
978.78,0.06
988.57,0.03
998.46,0.01
1008.44,-0.02
1018.53,-0.05
1028.71,-0.08
1039.00,-0.11
1049.39,-0.14
1059.88,-0.17
1070.48,-0.20
1081.19,-0.21
1092.00,-0.22
1102.92,-0.22
1113.95,-0.22
1125.09,-0.23
1136.34,-0.24
1147.70,-0.26
1159.18,-0.28
1170.77,-0.30
1182.48,-0.34
1194.30,-0.37
1206.25,-0.41
1218.31,-0.44
1230.49,-0.47
1242.80,-0.49
1255.22,-0.52
1267.78,-0.53
1280.45,-0.55
1293.26,-0.57
1306.19,-0.59
1319.25,-0.60
1332.45,-0.62
1345.77,-0.64
1359.23,-0.67
1372.82,-0.70
1386.55,-0.73
1400.41,-0.75
1414.42,-0.78
1428.56,-0.81
1442.85,-0.85
1457.28,-0.89
1471.85,-0.92
1486.57,-0.95
1501.43,-0.97
1516.45,-0.99
1531.61,-1.02
1546.93,-1.06
1562.40,-1.10
1578.02,-1.15
1593.80,-1.21
1609.74,-1.27
1625.84,-1.32
1642.10,-1.38
1658.52,-1.44
1675.10,-1.51
1691.85,-1.58
1708.77,-1.67
1725.86,-1.76
1743.12,-1.85
1760.55,-1.93
1778.15,-2.00
1795.94,-2.03
1813.90,-2.05
1832.03,-2.03
1850.36,-2.00
1868.86,-1.92
1887.55,-1.81
1906.42,-1.67
1925.49,-1.53
1944.74,-1.36
1964.19,-1.18
1983.83,-0.97
2003.67,-0.75
2023.71,-0.53
2043.94,-0.32
2064.38,-0.12
2085.03,0.08
2105.88,0.26
2126.94,0.44
2148.20,0.62
2169.69,0.79
2191.38,0.95
2213.30,1.09
2235.43,1.23
2257.78,1.35
2280.36,1.47
2303.17,1.55
2326.20,1.61
2349.46,1.66
2372.95,1.69
2396.68,1.71
2420.65,1.72
2444.86,1.73
2469.31,1.74
2494.00,1.75
2518.94,1.77
2544.13,1.78
2569.57,1.80
2595.27,1.82
2621.22,1.86
2647.43,1.89
2673.90,1.93
2700.64,1.96
2727.65,2.00
2754.93,2.04
2782.48,2.07
2810.30,2.08
2838.40,2.07
2866.79,2.05
2895.46,2.01
2924.41,1.96
2953.65,1.93
2983.19,1.90
3013.02,1.87
3043.15,1.85
3073.58,1.84
3104.32,1.83
3135.36,1.84
3166.72,1.86
3198.38,1.88
3230.37,1.92
3262.67,1.97
3295.30,2.03
3328.25,2.10
3361.53,2.19
3395.15,2.28
3429.10,2.37
3463.39,2.48
3498.03,2.58
3533.01,2.68
3568.34,2.81
3604.02,2.94
3640.06,3.07
3676.46,3.21
3713.22,3.35
3750.36,3.49
3787.86,3.62
3825.74,3.75
3864.00,3.86
3902.64,3.97
3941.66,4.06
3981.08,4.13
4020.89,4.19
4061.10,4.24
4101.71,4.30
4142.73,4.34
4184.15,4.37
4226.00,4.39
4268.26,4.37
4310.94,4.35
4354.05,4.33
4397.59,4.30
4441.56,4.25
4485.98,4.20
4530.84,4.13
4576.15,4.03
4621.91,3.92
4668.13,3.81
4714.81,3.68
4761.96,3.53
4809.58,3.38
4857.67,3.20
4906.25,3.03
4955.31,2.87
5004.87,2.71
5054.91,2.54
5105.46,2.37
5156.52,2.21
5208.08,2.03
5260.16,1.85
5312.77,1.68
5365.89,1.50
5419.55,1.32
5473.75,1.13
5528.49,0.93
5583.77,0.72
5639.61,0.52
5696.00,0.30
5752.96,0.06
5810.49,-0.19
5868.60,-0.47
5927.28,-0.77
5986.56,-1.08
6046.42,-1.41
6106.89,-1.76
6167.96,-2.13
6229.64,-2.52
6291.93,-2.94
6354.85,-3.37
6418.40,-3.82
6482.58,-4.28
6547.41,-4.74
6612.88,-5.23
6679.01,-5.73
6745.80,-6.25
6813.26,-6.78
6881.39,-7.30
6950.21,-7.82
7019.71,-8.35
7089.91,-8.85
7160.81,-9.35
7232.41,-9.84
7304.74,-10.30
7377.79,-10.73
7451.56,-11.15
7526.08,-11.53
7601.34,-11.89
7677.35,-12.20
7754.13,-12.47
7831.67,-12.69
7909.98,-12.87
7989.08,-13.00
8068.98,-13.09
8149.67,-13.12
8231.16,-13.07
8313.47,-12.95
8396.61,-12.73
8480.57,-12.41
8565.38,-12.01
8651.03,-11.52
8737.54,-10.96
8824.92,-10.33
8913.17,-9.63
9002.30,-8.91
9092.32,-8.19
9183.25,-7.45
9275.08,-6.73
9367.83,-6.04
9461.51,-5.42
9556.12,-4.84
9651.68,-4.33
9748.20,-3.88
9845.68,-3.49
9944.14,-3.14
10043.58,-2.82
10144.02,-2.52
10245.46,-2.22
10347.91,-1.94
10451.39,-1.66
10555.91,-1.37
10661.46,-1.08
10768.08,-0.79
10875.76,-0.52
10984.52,-0.27
11094.36,-0.02
11205.31,0.21
11317.36,0.43
11430.53,0.63
11544.84,0.80
11660.29,0.96
11776.89,1.11
11894.66,1.24
12013.60,1.36
12133.74,1.47
12255.08,1.56
12377.63,1.64
12501.41,1.69
12626.42,1.72
12752.68,1.70
12880.21,1.65
13009.01,1.54
13139.10,1.40
13270.49,1.20
13403.20,0.96
13537.23,0.67
13672.60,0.35
13809.33,-0.01
13947.42,-0.40
14086.90,-0.82
14227.77,-1.29
14370.04,-1.82
14513.74,-2.42
14658.88,-3.12
14805.47,-3.93
14953.52,-4.86
15103.06,-5.91
15254.09,-7.11
15406.63,-8.40
15560.70,-9.78
15716.30,-11.20
15873.47,-12.65
16032.20,-14.08
16192.52,-15.47
16354.45,-16.80
16517.99,-18.04
16683.17,-19.17
16850.01,-20.15
17018.51,-21.01
17188.69,-21.72
17360.58,-22.31
17534.18,-22.79
17709.53,-23.19
17886.62,-23.53
18065.49,-23.82
18246.14,-24.17
18428.60,-24.50
18612.89,-24.79
18799.02,-25.04
18987.01,-25.25
19176.88,-25.43
19368.65,-25.58
19562.33,-25.68
19757.96,-25.75
19955.54,-25.78
