frequency,raw
20,3.52
21,3.73
22,3.92
23,4.10
24,4.30
25,4.48
26,4.67
27,4.85
28,4.97
29,5.06
30,5.17
31,5.26
32,5.36
33,5.44
34,5.53
35,5.57
36,5.62
37,5.67
38,5.69
39,5.71
40,5.71
41,5.71
42,5.71
43,5.71
44,5.67
45,5.62
46,5.59
47,5.57
48,5.57
49,5.53
50,5.51
51,5.47
52,5.39
53,5.35
54,5.34
55,5.29
56,5.25
57,5.20
58,5.16
59,5.12
60,5.07
61,5.01
62,4.96
63,4.90
64,4.83
65,4.78
66,4.73
67,4.69
68,4.64
69,4.59
70,4.53
71,4.48
72,4.40
73,4.34
74,4.26
75,4.20
76,4.13
77,4.06
78,4.01
79,3.94
80,3.87
81,3.82
82,3.74
83,3.68
84,3.60
85,3.53
86,3.45
87,3.37
88,3.31
89,3.26
90,3.20
91,3.14
92,3.08
93,3.05
94,2.99
95,2.94
96,2.89
97,2.84
98,2.78
99,2.75
100,2.70
101,2.66
102,2.61
104,2.53
105,2.47
106,2.43
107,2.38
108,2.33
109,2.29
110,2.24
111,2.17
112,2.10
113,2.05
114,2.00
115,1.95
117,1.85
118,1.79
119,1.73
120,1.68
121,1.63
123,1.54
124,1.50
125,1.45
126,1.41
128,1.32
129,1.28
130,1.24
131,1.21
133,1.12
134,1.07
135,1.03
137,0.93
138,0.89
140,0.81
141,0.75
142,0.71
144,0.65
145,0.61
147,0.54
148,0.50
150,0.49
151,0.44
153,0.44
154,0.44
156,0.44
157,0.44
159,0.43
160,0.44
162,0.44
164,0.49
165,0.49
167,0.53
169,0.54
170,0.54
172,0.55
174,0.58
175,0.58
177,0.58
179,0.58
181,0.54
183,0.54
184,0.54
186,0.54
188,0.54
190,0.51
192,0.49
194,0.49
196,0.44
198,0.44
200,0.40
202,0.40
204,0.38
206,0.35
208,0.34
210,0.30
212,0.30
214,0.26
216,0.26
218,0.21
221,0.21
223,0.16
225,0.16
227,0.14
229,0.12
232,0.07
234,0.07
236,0.07
239,0.02
241,0.02
244,-0.01
246,-0.02
248,-0.02
251,-0.02
253,-0.07
256,-0.07
259,-0.07
261,-0.08
264,-0.12
266,-0.12
269,-0.12
272,-0.12
274,-0.12
277,-0.12
280,-0.12
283,-0.07
286,-0.07
288,-0.07
291,-0.02
294,-0.02
297,-0.02
300,-0.02
303,-0.02
306,-0.02
309,-0.02
312,-0.02
316,-0.02
319,-0.02
322,-0.02
325,-0.02
328,-0.02
332,-0.02
335,-0.02
338,-0.02
342,-0.02
345,-0.07
349,-0.07
352,-0.07
356,-0.07
359,-0.09
363,-0.12
366,-0.12
370,-0.12
374,-0.16
377,-0.16
381,-0.16
385,-0.16
389,-0.18
393,-0.21
397,-0.21
401,-0.26
405,-0.26
409,-0.30
413,-0.30
417,-0.30
421,-0.30
425,-0.35
430,-0.35
434,-0.35
438,-0.40
443,-0.40
447,-0.40
451,-0.40
456,-0.40
460,-0.40
465,-0.40
470,-0.40
474,-0.42
479,-0.44
484,-0.44
489,-0.44
494,-0.44
499,-0.49
504,-0.49
509,-0.49
514,-0.53
519,-0.54
524,-0.54
529,-0.56
535,-0.58
540,-0.58
545,-0.58
551,-0.58
556,-0.63
562,-0.63
568,-0.63
573,-0.68
579,-0.68
585,-0.68
591,-0.72
596,-0.72
602,-0.72
608,-0.77
615,-0.77
621,-0.77
627,-0.77
633,-0.77
639,-0.77
646,-0.77
652,-0.77
659,-0.79
665,-0.82
672,-0.82
679,-0.82
686,-0.84
692,-0.86
699,-0.86
706,-0.86
713,-0.86
721,-0.82
728,-0.82
735,-0.82
742,-0.82
750,-0.77
757,-0.77
765,-0.72
773,-0.72
780,-0.70
788,-0.68
796,-0.66
804,-0.63
812,-0.63
820,-0.58
828,-0.58
837,-0.54
845,-0.54
853,-0.51
862,-0.49
871,-0.48
879,-0.44
888,-0.44
897,-0.40
906,-0.40
915,-0.35
924,-0.35
933,-0.31
943,-0.28
952,-0.23
962,-0.19
971,-0.14
981,-0.09
991,-0.05
1001,0.01
1011,0.07
1021,0.13
1031,0.19
1041,0.25
1052,0.32
1062,0.40
1073,0.46
1084,0.55
1094,0.63
1105,0.69
1116,0.80
1128,0.87
1139,0.98
1150,1.05
1162,1.15
1173,1.25
1185,1.34
1197,1.43
1209,1.54
1221,1.62
1233,1.70
1246,1.82
1258,1.92
1271,2.01
1283,2.11
1296,2.20
1309,2.31
1322,2.39
1335,2.48
1349,2.57
1362,2.64
1376,2.72
1390,2.80
1404,2.87
1418,2.93
1432,3.01
1446,3.09
1461,3.17
1475,3.24
1490,3.32
1505,3.40
1520,3.48
1535,3.54
1550,3.61
1566,3.69
1582,3.77
1597,3.84
1613,3.92
1629,4.00
1646,4.07
1662,4.13
1679,4.23
1696,4.31
1713,4.41
1730,4.48
1747,4.59
1764,4.65
1782,4.75
1800,4.82
1818,4.93
1836,5.01
1854,5.10
1873,5.21
1892,5.32
1911,5.40
1930,5.51
1949,5.62
1969,5.73
1988,5.84
2008,5.95
2028,6.06
2048,6.16
2069,6.30
2090,6.43
2111,6.54
2132,6.66
2153,6.78
2175,6.91
2196,7.02
2218,7.15
2240,7.26
2263,7.41
2285,7.52
2308,7.66
2331,7.79
2355,7.94
2378,8.05
2402,8.21
2426,8.32
2450,8.45
2475,8.59
2500,8.72
2525,8.83
2550,8.94
2575,9.02
2601,9.13
2627,9.23
2653,9.30
2680,9.38
2707,9.42
2734,9.49
2761,9.54
2789,9.58
2817,9.63
2845,9.63
2873,9.63
2902,9.63
2931,9.60
2960,9.58
2990,9.54
3020,9.50
3050,9.44
3080,9.38
3111,9.29
3142,9.21
3174,9.12
3206,9.01
3238,8.88
3270,8.77
3303,8.66
3336,8.54
3369,8.42
3403,8.26
3437,8.16
3471,8.00
3506,7.88
3541,7.74
3576,7.63
3612,7.47
3648,7.36
3685,7.21
3721,7.10
3759,6.97
3796,6.86
3834,6.72
3873,6.59
3911,6.48
3950,6.38
3990,6.29
4030,6.18
4070,6.12
4111,6.02
4152,5.97
4193,5.91
4235,5.84
4278,5.81
4321,5.78
4364,5.76
4407,5.76
4451,5.76
4496,5.76
4541,5.78
4586,5.81
4632,5.85
4679,5.85
4725,5.88
4773,5.85
4820,5.85
4868,5.85
4917,5.81
4966,5.81
5016,5.82
5066,5.86
5117,5.90
5168,5.96
5220,6.00
5272,6.06
5325,6.10
5378,6.13
5432,6.14
5486,6.18
5541,6.18
5596,6.20
5652,6.25
5709,6.30
5766,6.37
5823,6.46
5882,6.54
5940,6.65
6000,6.77
6060,6.89
6120,7.00
6182,7.11
6244,7.22
6306,7.35
6369,7.41
6433,7.50
6497,7.56
6562,7.61
6628,7.63
6694,7.55
6761,7.47
6828,7.34
6897,7.17
6966,6.95
7035,6.70
7106,6.37
7177,6.01
7249,5.61
7321,5.20
7394,4.78
7468,4.35
7543,3.96
7618,3.56
7694,3.17
7771,2.78
7849,2.39
7928,1.98
8007,1.56
8087,1.12
8168,0.69
8250,0.20
8332,-0.30
8415,-0.80
8499,-1.34
8584,-1.88
8670,-2.43
8757,-2.93
8845,-3.43
8933,-3.87
9022,-4.24
9113,-4.54
9204,-4.77
9296,-4.93
9389,-5.01
9483,-5.06
9577,-4.99
9673,-4.90
9770,-4.79
9868,-4.66
9966,-4.57
10066,-4.50
10167,-4.51
10268,-4.57
10371,-4.64
10475,-4.77
10579,-4.90
10685,-5.03
10792,-5.21
10900,-5.39
11009,-5.56
11119,-5.73
11230,-5.89
11343,-6.03
11456,-6.17
11571,-6.28
11686,-6.36
11803,-6.44
11921,-6.49
12040,-6.51
12161,-6.46
12282,-6.44
12405,-6.39
12529,-6.31
12655,-6.21
12781,-6.11
12909,-6.00
13038,-5.85
13168,-5.76
13300,-5.66
13433,-5.55
13567,-5.46
13703,-5.35
13840,-5.24
13978,-5.16
14118,-5.04
14259,-4.92
14402,-4.78
14546,-4.70
14692,-4.60
14838,-4.64
14987,-4.84
15137,-5.18
15288,-5.61
15441,-6.23
15595,-7.49
15751,-9.64
15909,-12.84
16068,-14.36
16229,-16.91
16391,-19.57
16555,-22.24
16720,-24.90
16888,-27.59
17056,-30.24
17227,-32.92
17399,-35.58
17573,-38.25
17749,-40.92
17926,-43.58
18106,-46.26
18287,-48.93
18470,-51.60
18654,-54.26
18841,-56.94
19029,-59.60
19220,-62.28
19412,-64.94
19606,-67.61
19802,-70.28
20000,-72.95
