frequency,raw
20.00,-0.83
20.20,-0.78
20.40,-0.72
20.61,-0.67
20.81,-0.62
21.02,-0.57
21.23,-0.53
21.44,-0.48
21.66,-0.44
21.87,-0.40
22.09,-0.36
22.31,-0.32
22.54,-0.27
22.76,-0.23
22.99,-0.18
23.22,-0.13
23.45,-0.08
23.69,-0.03
23.92,0.01
24.16,0.05
24.40,0.09
24.65,0.13
24.89,0.17
25.14,0.21
25.39,0.25
25.65,0.29
25.91,0.32
26.16,0.36
26.43,0.40
26.69,0.44
26.96,0.47
27.23,0.51
27.50,0.54
27.77,0.58
28.05,0.61
28.33,0.65
28.62,0.68
28.90,0.72
29.19,0.75
29.48,0.79
29.78,0.82
30.08,0.85
30.38,0.88
30.68,0.91
30.99,0.93
31.30,0.96
31.61,0.99
31.93,1.02
32.24,1.05
32.57,1.08
32.89,1.11
33.22,1.14
33.55,1.17
33.89,1.19
34.23,1.22
34.57,1.25
34.92,1.28
35.27,1.30
35.62,1.32
35.97,1.35
36.33,1.37
36.70,1.39
37.06,1.41
37.43,1.43
37.81,1.45
38.19,1.47
38.57,1.49
38.95,1.51
39.34,1.53
39.74,1.55
40.14,1.57
40.54,1.59
40.94,1.61
41.35,1.62
41.76,1.64
42.18,1.65
42.60,1.67
43.03,1.69
43.46,1.70
43.90,1.72
44.33,1.73
44.78,1.74
45.23,1.76
45.68,1.77
46.13,1.78
46.60,1.79
47.06,1.80
47.53,1.81
48.01,1.82
48.49,1.83
48.97,1.83
49.46,1.84
49.96,1.85
50.46,1.86
50.96,1.86
51.47,1.87
51.99,1.88
52.51,1.89
53.03,1.89
53.56,1.90
54.10,1.91
54.64,1.92
55.18,1.92
55.74,1.93
56.29,1.93
56.86,1.93
57.42,1.93
58.00,1.94
58.58,1.94
59.16,1.94
59.76,1.94
60.35,1.93
60.96,1.93
61.57,1.93
62.18,1.92
62.80,1.92
63.43,1.92
64.07,1.91
64.71,1.91
65.35,1.91
66.01,1.90
66.67,1.90
67.33,1.89
68.01,1.89
68.69,1.88
69.37,1.88
70.07,1.87
70.77,1.86
71.48,1.86
72.19,1.86
72.91,1.85
73.64,1.85
74.38,1.84
75.12,1.83
75.87,1.82
76.63,1.82
77.40,1.81
78.17,1.80
78.95,1.79
79.74,1.78
80.54,1.77
81.35,1.75
82.16,1.74
82.98,1.73
83.81,1.72
84.65,1.71
85.50,1.70
86.35,1.68
87.22,1.67
88.09,1.65
88.97,1.64
89.86,1.62
90.76,1.61
91.66,1.60
92.58,1.59
93.51,1.57
94.44,1.56
95.39,1.54
96.34,1.52
97.30,1.49
98.28,1.47
99.26,1.45
100.25,1.43
101.25,1.41
102.27,1.39
103.29,1.37
104.32,1.35
105.37,1.33
106.42,1.30
107.48,1.28
108.56,1.26
109.64,1.24
110.74,1.22
111.85,1.20
112.97,1.17
114.10,1.15
115.24,1.12
116.39,1.10
117.55,1.07
118.73,1.05
119.92,1.02
121.12,0.99
122.33,0.97
123.55,0.94
124.79,0.92
126.03,0.89
127.29,0.86
128.57,0.83
129.85,0.80
131.15,0.77
132.46,0.74
133.79,0.71
135.12,0.68
136.48,0.64
137.84,0.61
139.22,0.58
140.61,0.55
142.02,0.51
143.44,0.48
144.87,0.44
146.32,0.39
147.78,0.35
149.26,0.31
150.75,0.27
152.26,0.23
153.78,0.18
155.32,0.14
156.88,0.10
158.44,0.06
160.03,0.02
161.63,-0.02
163.24,-0.04
164.88,-0.06
166.53,-0.07
168.19,-0.08
169.87,-0.08
171.57,-0.09
173.29,-0.10
175.02,-0.11
176.77,-0.12
178.54,-0.13
180.32,-0.14
182.13,-0.15
183.95,-0.16
185.79,-0.16
187.65,-0.16
189.52,-0.16
191.42,-0.17
193.33,-0.18
195.27,-0.20
197.22,-0.22
199.19,-0.25
201.18,-0.28
203.19,-0.31
205.23,-0.34
207.28,-0.36
209.35,-0.39
211.44,-0.42
213.56,-0.45
215.69,-0.48
217.85,-0.51
220.03,-0.54
222.23,-0.57
224.45,-0.60
226.70,-0.63
228.96,-0.67
231.25,-0.70
233.57,-0.73
235.90,-0.76
238.26,-0.79
240.64,-0.81
243.05,-0.84
245.48,-0.86
247.93,-0.89
250.41,-0.91
252.92,-0.94
255.45,-0.97
258.00,-0.99
260.58,-1.01
263.19,-1.04
265.82,-1.06
268.48,-1.09
271.16,-1.12
273.87,-1.14
276.61,-1.16
279.38,-1.19
282.17,-1.21
284.99,-1.23
287.84,-1.25
290.72,-1.28
293.63,-1.30
296.57,-1.32
299.53,-1.34
302.53,-1.36
305.55,-1.38
308.61,-1.40
311.69,-1.41
314.81,-1.43
317.96,-1.44
321.14,-1.45
324.35,-1.46
327.59,-1.47
330.87,-1.47
334.18,-1.48
337.52,-1.49
340.90,-1.50
344.30,-1.51
347.75,-1.51
351.23,-1.52
354.74,-1.52
358.28,-1.52
361.87,-1.53
365.49,-1.54
369.14,-1.54
372.83,-1.54
376.56,-1.54
380.33,-1.54
384.13,-1.54
387.97,-1.53
391.85,-1.53
395.77,-1.52
399.73,-1.52
403.72,-1.52
407.76,-1.52
411.84,-1.52
415.96,-1.51
420.12,-1.51
424.32,-1.51
428.56,-1.50
432.85,-1.50
437.18,-1.49
441.55,-1.49
445.96,-1.48
450.42,-1.48
454.93,-1.47
459.48,-1.46
464.07,-1.46
468.71,-1.45
473.40,-1.45
478.13,-1.44
482.91,-1.44
487.74,-1.43
492.62,-1.42
497.55,-1.42
502.52,-1.41
507.55,-1.40
512.62,-1.39
517.75,-1.39
522.93,-1.38
528.16,-1.37
533.44,-1.36
538.77,-1.35
544.16,-1.34
549.60,-1.34
555.10,-1.33
560.65,-1.32
566.25,-1.31
571.92,-1.30
577.64,-1.29
583.41,-1.28
589.25,-1.27
595.14,-1.27
601.09,-1.26
607.10,-1.26
613.17,-1.26
619.30,-1.26
625.50,-1.25
631.75,-1.24
638.07,-1.23
644.45,-1.21
650.89,-1.20
657.40,-1.19
663.98,-1.18
670.62,-1.16
677.32,-1.15
684.10,-1.14
690.94,-1.13
697.85,-1.12
704.83,-1.11
711.87,-1.09
718.99,-1.08
726.18,-1.06
733.44,-1.05
740.78,-1.03
748.19,-1.02
755.67,-1.00
763.23,-0.98
770.86,-0.97
778.57,-0.95
786.35,-0.93
794.22,-0.92
802.16,-0.90
810.18,-0.88
818.28,-0.85
826.46,-0.83
834.73,-0.81
843.08,-0.78
851.51,-0.76
860.02,-0.73
868.62,-0.69
877.31,-0.66
886.08,-0.63
894.94,-0.59
903.89,-0.55
912.93,-0.51
922.06,-0.46
931.28,-0.41
940.59,-0.36
950.00,-0.31
959.50,-0.26
969.09,-0.20
978.78,-0.14
988.57,-0.08
998.46,-0.01
1008.44,0.06
1018.53,0.13
1028.71,0.20
1039.00,0.27
1049.39,0.35
1059.88,0.43
1070.48,0.51
1081.19,0.59
1092.00,0.67
1102.92,0.76
1113.95,0.84
1125.09,0.93
1136.34,1.01
1147.70,1.10
1159.18,1.19
1170.77,1.28
1182.48,1.36
1194.30,1.45
1206.25,1.54
1218.31,1.63
1230.49,1.72
1242.80,1.80
1255.22,1.89
1267.78,1.98
1280.45,2.07
1293.26,2.15
1306.19,2.24
1319.25,2.33
1332.45,2.41
1345.77,2.50
1359.23,2.59
1372.82,2.67
1386.55,2.76
1400.41,2.85
1414.42,2.94
1428.56,3.03
1442.85,3.12
1457.28,3.21
1471.85,3.30
1486.57,3.39
1501.43,3.49
1516.45,3.58
1531.61,3.68
1546.93,3.77
1562.40,3.87
1578.02,3.97
1593.80,4.07
1609.74,4.17
1625.84,4.28
1642.10,4.38
1658.52,4.49
1675.10,4.59
1691.85,4.70
1708.77,4.81
1725.86,4.91
1743.12,5.02
1760.55,5.13
1778.15,5.24
1795.94,5.34
1813.90,5.45
1832.03,5.55
1850.36,5.65
1868.86,5.75
1887.55,5.84
1906.42,5.93
1925.49,6.01
1944.74,6.09
1964.19,6.16
1983.83,6.22
2003.67,6.28
2023.71,6.32
2043.94,6.36
2064.38,6.39
2085.03,6.41
2105.88,6.41
2126.94,6.41
2148.20,6.40
2169.69,6.37
2191.38,6.34
2213.30,6.30
2235.43,6.25
2257.78,6.19
2280.36,6.12
2303.17,6.04
2326.20,5.96
2349.46,5.87
2372.95,5.78
2396.68,5.68
2420.65,5.58
2444.86,5.48
2469.31,5.38
2494.00,5.27
2518.94,5.17
2544.13,5.06
2569.57,4.96
2595.27,4.86
2621.22,4.76
2647.43,4.66
2673.90,4.56
2700.64,4.47
2727.65,4.38
2754.93,4.30
2782.48,4.22
2810.30,4.14
2838.40,4.07
2866.79,4.01
2895.46,3.95
2924.41,3.89
2953.65,3.84
2983.19,3.80
3013.02,3.75
3043.15,3.72
3073.58,3.69
3104.32,3.66
3135.36,3.64
3166.72,3.63
3198.38,3.62
3230.37,3.61
3262.67,3.61
3295.30,3.61
3328.25,3.62
3361.53,3.63
3395.15,3.65
3429.10,3.67
3463.39,3.69
3498.03,3.72
3533.01,3.76
3568.34,3.80
3604.02,3.84
3640.06,3.89
3676.46,3.94
3713.22,3.99
3750.36,4.05
3787.86,4.12
3825.74,4.18
3864.00,4.26
3902.64,4.33
3941.66,4.41
3981.08,4.49
4020.89,4.57
4061.10,4.65
4101.71,4.74
4142.73,4.82
4184.15,4.91
4226.00,4.99
4268.26,5.07
4310.94,5.14
4354.05,5.20
4397.59,5.24
4441.56,5.27
4485.98,5.26
4530.84,5.21
4576.15,5.10
4621.91,4.94
4668.13,4.69
4714.81,4.34
4761.96,3.92
4809.58,3.40
4857.67,2.83
4906.25,2.23
4955.31,1.63
5004.87,1.08
5054.91,0.63
5105.46,0.26
5156.52,-0.04
5208.08,-0.24
5260.16,-0.37
5312.77,-0.48
5365.89,-0.54
5419.55,-0.58
5473.75,-0.60
5528.49,-0.60
5583.77,-0.57
5639.61,-0.52
5696.00,-0.46
5752.96,-0.35
5810.49,-0.23
5868.60,-0.06
5927.28,0.13
5986.56,0.34
6046.42,0.58
6106.89,0.83
6167.96,1.09
6229.64,1.36
6291.93,1.63
6354.85,1.89
6418.40,2.13
6482.58,2.34
6547.41,2.53
6612.88,2.70
6679.01,2.84
6745.80,2.98
6813.26,3.11
6881.39,3.24
6950.21,3.38
7019.71,3.52
7089.91,3.67
7160.81,3.81
7232.41,3.94
7304.74,4.06
7377.79,4.13
7451.56,4.17
7526.08,4.20
7601.34,4.22
7677.35,4.28
7754.13,4.37
7831.67,4.57
7909.98,4.77
7989.08,5.00
8068.98,5.17
8149.67,5.28
8231.16,5.30
8313.47,5.21
8396.61,5.06
8480.57,4.84
8565.38,4.59
8651.03,4.34
8737.54,4.09
8824.92,3.89
8913.17,3.76
9002.30,3.65
9092.32,3.61
9183.25,3.64
9275.08,3.69
9367.83,3.78
9461.51,3.86
9556.12,3.91
9651.68,3.94
9748.20,3.94
9845.68,3.88
9944.14,3.79
10043.58,3.64
10144.02,3.46
10245.46,3.19
10347.91,2.90
10451.39,2.56
10555.91,2.17
10661.46,1.76
10768.08,1.35
10875.76,0.94
10984.52,0.56
11094.36,0.21
11205.31,-0.11
11317.36,-0.38
11430.53,-0.64
11544.84,-0.85
11660.29,-1.02
11776.89,-1.17
11894.66,-1.24
12013.60,-1.30
12133.74,-1.33
12255.08,-1.32
12377.63,-1.30
12501.41,-1.28
12626.42,-1.28
12752.68,-1.33
12880.21,-1.45
13009.01,-1.62
13139.10,-1.78
13270.49,-2.08
13403.20,-2.41
13537.23,-2.83
13672.60,-3.26
13809.33,-3.72
13947.42,-4.18
14086.90,-4.60
14227.77,-5.01
14370.04,-5.39
14513.74,-5.75
14658.88,-6.10
14805.47,-6.46
14953.52,-6.85
15103.06,-7.23
15254.09,-7.60
15406.63,-7.77
15560.70,-7.78
15716.30,-7.56
15873.47,-7.09
16032.20,-6.50
16192.52,-5.75
16354.45,-4.80
16517.99,-3.70
16683.17,-2.22
16850.01,-0.60
17018.51,1.11
17188.69,2.80
17360.58,4.32
17534.18,5.65
17709.53,6.61
17886.62,7.11
18065.49,7.22
18246.14,6.92
18428.60,5.97
18612.89,4.65
18799.02,2.96
18987.01,0.88
19176.88,-1.62
19368.65,-4.36
19562.33,-7.31
19757.96,-10.41
19955.54,-13.51
