frequency,raw
20.00,1.58
20.20,1.61
20.40,1.65
20.61,1.69
20.81,1.72
21.02,1.76
21.23,1.80
21.44,1.83
21.66,1.87
21.87,1.91
22.09,1.95
22.31,1.98
22.54,2.02
22.76,2.05
22.99,2.08
23.22,2.11
23.45,2.14
23.69,2.17
23.92,2.19
24.16,2.22
24.40,2.25
24.65,2.28
24.89,2.32
25.14,2.35
25.39,2.38
25.65,2.40
25.91,2.42
26.16,2.44
26.43,2.45
26.69,2.46
26.96,2.47
27.23,2.48
27.50,2.50
27.77,2.53
28.05,2.55
28.33,2.58
28.62,2.61
28.90,2.64
29.19,2.66
29.48,2.68
29.78,2.70
30.08,2.72
30.38,2.73
30.68,2.74
30.99,2.76
31.30,2.78
31.61,2.79
31.93,2.81
32.24,2.83
32.57,2.84
32.89,2.86
33.22,2.87
33.55,2.89
33.89,2.90
34.23,2.91
34.57,2.93
34.92,2.94
35.27,2.95
35.62,2.96
35.97,2.98
36.33,2.99
36.70,3.00
37.06,3.01
37.43,3.02
37.81,3.03
38.19,3.03
38.57,3.04
38.95,3.05
39.34,3.06
39.74,3.07
40.14,3.07
40.54,3.08
40.94,3.09
41.35,3.10
41.76,3.10
42.18,3.11
42.60,3.11
43.03,3.12
43.46,3.12
43.90,3.13
44.33,3.13
44.78,3.13
45.23,3.13
45.68,3.14
46.13,3.14
46.60,3.14
47.06,3.14
47.53,3.14
48.01,3.14
48.49,3.14
48.97,3.14
49.46,3.14
49.96,3.13
50.46,3.13
50.96,3.13
51.47,3.12
51.99,3.12
52.51,3.12
53.03,3.11
53.56,3.11
54.10,3.11
54.64,3.10
55.18,3.10
55.74,3.09
56.29,3.08
56.86,3.08
57.42,3.07
58.00,3.06
58.58,3.05
59.16,3.04
59.76,3.03
60.35,3.02
60.96,3.01
61.57,3.00
62.18,2.99
62.80,2.98
63.43,2.97
64.07,2.96
64.71,2.94
65.35,2.93
66.01,2.92
66.67,2.90
67.33,2.89
68.01,2.87
68.69,2.86
69.37,2.84
70.07,2.83
70.77,2.81
71.48,2.79
72.19,2.77
72.91,2.75
73.64,2.74
74.38,2.72
75.12,2.70
75.87,2.68
76.63,2.66
77.40,2.63
78.17,2.61
78.95,2.59
79.74,2.57
80.54,2.54
81.35,2.52
82.16,2.49
82.98,2.47
83.81,2.44
84.65,2.42
85.50,2.39
86.35,2.36
87.22,2.34
88.09,2.31
88.97,2.28
89.86,2.25
90.76,2.22
91.66,2.19
92.58,2.16
93.51,2.13
94.44,2.10
95.39,2.06
96.34,2.03
97.30,2.00
98.28,1.96
99.26,1.93
100.25,1.89
101.25,1.86
102.27,1.82
103.29,1.78
104.32,1.75
105.37,1.71
106.42,1.67
107.48,1.63
108.56,1.59
109.64,1.55
110.74,1.51
111.85,1.47
112.97,1.42
114.10,1.38
115.24,1.34
116.39,1.30
117.55,1.25
118.73,1.21
119.92,1.16
121.12,1.12
122.33,1.07
123.55,1.02
124.79,0.97
126.03,0.93
127.29,0.88
128.57,0.83
129.85,0.78
131.15,0.73
132.46,0.68
133.79,0.63
135.12,0.57
136.48,0.52
137.84,0.47
139.22,0.41
140.61,0.36
142.02,0.31
143.44,0.25
144.87,0.20
146.32,0.14
147.78,0.08
149.26,0.03
150.75,-0.03
152.26,-0.09
153.78,-0.14
155.32,-0.20
156.88,-0.26
158.44,-0.32
160.03,-0.38
161.63,-0.44
163.24,-0.50
164.88,-0.56
166.53,-0.62
168.19,-0.68
169.87,-0.74
171.57,-0.80
173.29,-0.86
175.02,-0.92
176.77,-0.98
178.54,-1.04
180.32,-1.11
182.13,-1.17
183.95,-1.23
185.79,-1.29
187.65,-1.35
189.52,-1.41
191.42,-1.47
193.33,-1.54
195.27,-1.60
197.22,-1.66
199.19,-1.72
201.18,-1.78
203.19,-1.84
205.23,-1.90
207.28,-1.96
209.35,-2.02
211.44,-2.07
213.56,-2.13
215.69,-2.19
217.85,-2.25
220.03,-2.30
222.23,-2.36
224.45,-2.41
226.70,-2.47
228.96,-2.52
231.25,-2.57
233.57,-2.63
235.90,-2.68
238.26,-2.73
240.64,-2.78
243.05,-2.82
245.48,-2.87
247.93,-2.92
250.41,-2.96
252.92,-3.01
255.45,-3.05
258.00,-3.09
260.58,-3.13
263.19,-3.17
265.82,-3.21
268.48,-3.24
271.16,-3.28
273.87,-3.31
276.61,-3.34
279.38,-3.38
282.17,-3.41
284.99,-3.43
287.84,-3.46
290.72,-3.49
293.63,-3.51
296.57,-3.53
299.53,-3.55
302.53,-3.57
305.55,-3.59
308.61,-3.61
311.69,-3.62
314.81,-3.64
317.96,-3.65
321.14,-3.66
324.35,-3.67
327.59,-3.68
330.87,-3.68
334.18,-3.69
337.52,-3.69
340.90,-3.70
344.30,-3.70
347.75,-3.70
351.23,-3.70
354.74,-3.70
358.28,-3.69
361.87,-3.69
365.49,-3.69
369.14,-3.68
372.83,-3.67
376.56,-3.66
380.33,-3.66
384.13,-3.65
387.97,-3.63
391.85,-3.62
395.77,-3.61
399.73,-3.60
403.72,-3.58
407.76,-3.57
411.84,-3.55
415.96,-3.54
420.12,-3.52
424.32,-3.50
428.56,-3.48
432.85,-3.47
437.18,-3.45
441.55,-3.43
445.96,-3.41
450.42,-3.39
454.93,-3.37
459.48,-3.35
464.07,-3.33
468.71,-3.30
473.40,-3.28
478.13,-3.26
482.91,-3.24
487.74,-3.21
492.62,-3.19
497.55,-3.17
502.52,-3.14
507.55,-3.12
512.62,-3.10
517.75,-3.07
522.93,-3.05
528.16,-3.03
533.44,-3.00
538.77,-2.98
544.16,-2.95
549.60,-2.93
555.10,-2.90
560.65,-2.88
566.25,-2.85
571.92,-2.83
577.64,-2.80
583.41,-2.77
589.25,-2.75
595.14,-2.72
601.09,-2.70
607.10,-2.67
613.17,-2.64
619.30,-2.62
625.50,-2.59
631.75,-2.56
638.07,-2.53
644.45,-2.50
650.89,-2.48
657.40,-2.45
663.98,-2.42
670.62,-2.39
677.32,-2.35
684.10,-2.32
690.94,-2.29
697.85,-2.26
704.83,-2.23
711.87,-2.19
718.99,-2.16
726.18,-2.12
733.44,-2.08
740.78,-2.04
748.19,-2.00
755.67,-1.96
763.23,-1.92
770.86,-1.88
778.57,-1.83
786.35,-1.79
794.22,-1.74
802.16,-1.69
810.18,-1.64
818.28,-1.58
826.46,-1.53
834.73,-1.47
843.08,-1.41
851.51,-1.35
860.02,-1.28
868.62,-1.22
877.31,-1.15
886.08,-1.08
894.94,-1.00
903.89,-0.92
912.93,-0.85
922.06,-0.76
931.28,-0.68
940.59,-0.59
950.00,-0.50
959.50,-0.41
969.09,-0.31
978.78,-0.22
988.57,-0.12
998.46,-0.02
1008.44,0.09
1018.53,0.19
1028.71,0.30
1039.00,0.41
1049.39,0.51
1059.88,0.62
1070.48,0.74
1081.19,0.85
1092.00,0.96
1102.92,1.07
1113.95,1.18
1125.09,1.29
1136.34,1.40
1147.70,1.51
1159.18,1.62
1170.77,1.73
1182.48,1.84
1194.30,1.94
1206.25,2.05
1218.31,2.15
1230.49,2.25
1242.80,2.35
1255.22,2.45
1267.78,2.55
1280.45,2.64
1293.26,2.73
1306.19,2.82
1319.25,2.92
1332.45,3.00
1345.77,3.09
1359.23,3.18
1372.82,3.26
1386.55,3.34
1400.41,3.43
1414.42,3.51
1428.56,3.59
1442.85,3.66
1457.28,3.74
1471.85,3.82
1486.57,3.90
1501.43,3.98
1516.45,4.06
1531.61,4.13
1546.93,4.21
1562.40,4.29
1578.02,4.36
1593.80,4.43
1609.74,4.51
1625.84,4.58
1642.10,4.65
1658.52,4.72
1675.10,4.78
1691.85,4.85
1708.77,4.92
1725.86,4.98
1743.12,5.05
1760.55,5.11
1778.15,5.18
1795.94,5.24
1813.90,5.30
1832.03,5.36
1850.36,5.42
1868.86,5.47
1887.55,5.53
1906.42,5.58
1925.49,5.63
1944.74,5.67
1964.19,5.72
1983.83,5.76
2003.67,5.79
2023.71,5.83
2043.94,5.86
2064.38,5.89
2085.03,5.91
2105.88,5.93
2126.94,5.94
2148.20,5.95
2169.69,5.96
2191.38,5.97
2213.30,5.96
2235.43,5.96
2257.78,5.95
2280.36,5.94
2303.17,5.93
2326.20,5.91
2349.46,5.89
2372.95,5.86
2396.68,5.83
2420.65,5.80
2444.86,5.77
2469.31,5.74
2494.00,5.70
2518.94,5.66
2544.13,5.63
2569.57,5.59
2595.27,5.55
2621.22,5.51
2647.43,5.47
2673.90,5.43
2700.64,5.39
2727.65,5.35
2754.93,5.31
2782.48,5.27
2810.30,5.23
2838.40,5.19
2866.79,5.14
2895.46,5.10
2924.41,5.05
2953.65,4.99
2983.19,4.93
3013.02,4.87
3043.15,4.80
3073.58,4.72
3104.32,4.64
3135.36,4.55
3166.72,4.47
3198.38,4.38
3230.37,4.29
3262.67,4.21
3295.30,4.13
3328.25,4.07
3361.53,4.01
3395.15,3.97
3429.10,3.96
3463.39,3.96
3498.03,3.98
3533.01,4.03
3568.34,4.10
3604.02,4.18
3640.06,4.29
3676.46,4.42
3713.22,4.57
3750.36,4.73
3787.86,4.91
3825.74,5.09
3864.00,5.28
3902.64,5.47
3941.66,5.66
3981.08,5.84
4020.89,5.99
4061.10,6.13
4101.71,6.22
4142.73,6.27
4184.15,6.29
4226.00,6.24
4268.26,6.15
4310.94,6.01
4354.05,5.81
4397.59,5.56
4441.56,5.29
4485.98,4.96
4530.84,4.61
4576.15,4.24
4621.91,3.86
4668.13,3.46
4714.81,3.07
4761.96,2.68
4809.58,2.30
4857.67,1.93
4906.25,1.58
4955.31,1.24
5004.87,0.92
5054.91,0.62
5105.46,0.34
5156.52,0.07
5208.08,-0.17
5260.16,-0.40
5312.77,-0.61
5365.89,-0.80
5419.55,-0.98
5473.75,-1.16
5528.49,-1.33
5583.77,-1.50
5639.61,-1.69
5696.00,-1.88
5752.96,-2.11
5810.49,-2.35
5868.60,-2.64
5927.28,-2.96
5986.56,-3.31
6046.42,-3.72
6106.89,-4.16
6167.96,-4.64
6229.64,-5.14
6291.93,-5.68
6354.85,-6.23
6418.40,-6.79
6482.58,-7.35
6547.41,-7.90
6612.88,-8.45
6679.01,-8.97
6745.80,-9.48
6813.26,-9.96
6881.39,-10.42
6950.21,-10.85
7019.71,-11.27
7089.91,-11.65
7160.81,-12.01
7232.41,-12.34
7304.74,-12.66
7377.79,-12.95
7451.56,-13.22
7526.08,-13.48
7601.34,-13.72
7677.35,-13.93
7754.13,-14.13
7831.67,-14.27
7909.98,-14.37
7989.08,-14.42
8068.98,-14.36
8149.67,-14.26
8231.16,-14.09
8313.47,-13.87
8396.61,-13.64
8480.57,-13.42
8565.38,-13.23
8651.03,-13.05
8737.54,-12.85
8824.92,-12.51
8913.17,-12.03
9002.30,-11.50
9092.32,-10.95
9183.25,-10.42
9275.08,-9.91
9367.83,-9.42
9461.51,-8.95
9556.12,-8.49
9651.68,-8.05
9748.20,-7.64
9845.68,-7.27
9944.14,-6.92
10043.58,-6.59
10144.02,-6.28
10245.46,-5.95
10347.91,-5.59
10451.39,-5.20
10555.91,-4.74
10661.46,-4.26
10768.08,-3.77
10875.76,-3.28
10984.52,-2.84
11094.36,-2.43
11205.31,-2.06
11317.36,-1.76
11430.53,-1.50
11544.84,-1.32
11660.29,-1.20
11776.89,-1.13
11894.66,-1.17
12013.60,-1.23
12133.74,-1.36
12255.08,-1.55
12377.63,-1.79
12501.41,-2.07
12626.42,-2.40
12752.68,-2.76
12880.21,-3.16
13009.01,-3.58
13139.10,-4.00
13270.49,-4.49
13403.20,-5.00
13537.23,-5.57
13672.60,-6.18
13809.33,-6.83
13947.42,-7.52
14086.90,-8.23
14227.77,-8.96
14370.04,-9.68
14513.74,-10.42
14658.88,-11.16
14805.47,-11.91
14953.52,-12.68
15103.06,-13.46
15254.09,-14.25
15406.63,-15.03
15560.70,-15.79
15716.30,-16.52
15873.47,-17.20
16032.20,-17.84
16192.52,-18.40
16354.45,-18.87
16517.99,-19.30
16683.17,-19.65
16850.01,-19.98
17018.51,-20.31
17188.69,-20.68
17360.58,-21.09
17534.18,-21.53
17709.53,-21.95
17886.62,-22.32
18065.49,-22.72
18246.14,-23.18
18428.60,-23.93
18612.89,-24.90
18799.02,-26.07
18987.01,-27.44
19176.88,-28.94
19368.65,-30.39
19562.33,-31.66
19757.96,-32.63
19955.54,-33.09
