frequency,raw
20.00,6.62
20.20,6.68
20.40,6.74
20.61,6.80
20.81,6.86
21.02,6.92
21.23,6.98
21.44,7.04
21.66,7.11
21.87,7.18
22.09,7.25
22.31,7.32
22.54,7.38
22.76,7.45
22.99,7.50
23.22,7.54
23.45,7.56
23.69,7.58
23.92,7.60
24.16,7.62
24.40,7.64
24.65,7.68
24.89,7.72
25.14,7.77
25.39,7.82
25.65,7.85
25.91,7.87
26.16,7.87
26.43,7.86
26.69,7.84
26.96,7.82
27.23,7.81
27.50,7.83
27.77,7.88
28.05,7.94
28.33,8.01
28.62,8.09
28.90,8.16
29.19,8.23
29.48,8.29
29.78,8.34
30.08,8.39
30.38,8.45
30.68,8.50
30.99,8.55
31.30,8.60
31.61,8.65
31.93,8.69
32.24,8.74
32.57,8.78
32.89,8.82
33.22,8.85
33.55,8.89
33.89,8.92
34.23,8.95
34.57,8.97
34.92,9.00
35.27,9.02
35.62,9.04
35.97,9.06
36.33,9.08
36.70,9.10
37.06,9.12
37.43,9.15
37.81,9.17
38.19,9.19
38.57,9.22
38.95,9.25
39.34,9.28
39.74,9.30
40.14,9.33
40.54,9.34
40.94,9.35
41.35,9.36
41.76,9.38
42.18,9.40
42.60,9.42
43.03,9.44
43.46,9.46
43.90,9.47
44.33,9.49
44.78,9.50
45.23,9.52
45.68,9.53
46.13,9.54
46.60,9.54
47.06,9.54
47.53,9.54
48.01,9.55
48.49,9.55
48.97,9.56
49.46,9.57
49.96,9.58
50.46,9.59
50.96,9.60
51.47,9.61
51.99,9.62
52.51,9.63
53.03,9.64
53.56,9.65
54.10,9.65
54.64,9.65
55.18,9.65
55.74,9.65
56.29,9.65
56.86,9.65
57.42,9.66
58.00,9.66
58.58,9.67
59.16,9.67
59.76,9.65
60.35,9.64
60.96,9.63
61.57,9.62
62.18,9.61
62.80,9.60
63.43,9.60
64.07,9.60
64.71,9.60
65.35,9.59
66.01,9.59
66.67,9.59
67.33,9.59
68.01,9.58
68.69,9.58
69.37,9.57
70.07,9.56
70.77,9.55
71.48,9.54
72.19,9.53
72.91,9.52
73.64,9.50
74.38,9.49
75.12,9.47
75.87,9.45
76.63,9.43
77.40,9.41
78.17,9.39
78.95,9.37
79.74,9.35
80.54,9.33
81.35,9.31
82.16,9.30
82.98,9.28
83.81,9.27
84.65,9.25
85.50,9.24
86.35,9.22
87.22,9.20
88.09,9.17
88.97,9.14
89.86,9.11
90.76,9.08
91.66,9.05
92.58,9.03
93.51,9.00
94.44,8.97
95.39,8.93
96.34,8.90
97.30,8.87
98.28,8.83
99.26,8.80
100.25,8.76
101.25,8.73
102.27,8.70
103.29,8.67
104.32,8.64
105.37,8.61
106.42,8.58
107.48,8.54
108.56,8.50
109.64,8.46
110.74,8.42
111.85,8.38
112.97,8.33
114.10,8.28
115.24,8.24
116.39,8.19
117.55,8.15
118.73,8.11
119.92,8.07
121.12,8.03
122.33,8.00
123.55,7.97
124.79,7.93
126.03,7.90
127.29,7.86
128.57,7.83
129.85,7.79
131.15,7.76
132.46,7.72
133.79,7.68
135.12,7.63
136.48,7.59
137.84,7.54
139.22,7.49
140.61,7.43
142.02,7.37
143.44,7.31
144.87,7.25
146.32,7.19
147.78,7.13
149.26,7.07
150.75,7.00
152.26,6.94
153.78,6.88
155.32,6.81
156.88,6.74
158.44,6.67
160.03,6.60
161.63,6.51
163.24,6.41
164.88,6.30
166.53,6.18
168.19,6.07
169.87,5.97
171.57,5.91
173.29,5.88
175.02,5.88
176.77,5.95
178.54,6.05
180.32,6.17
182.13,6.29
183.95,6.37
185.79,6.42
187.65,6.44
189.52,6.41
191.42,6.35
193.33,6.27
195.27,6.19
197.22,6.10
199.19,6.04
201.18,5.99
203.19,5.98
205.23,6.00
207.28,6.03
209.35,6.07
211.44,6.10
213.56,6.11
215.69,6.09
217.85,6.05
220.03,6.00
222.23,5.93
224.45,5.86
226.70,5.78
228.96,5.70
231.25,5.62
233.57,5.54
235.90,5.47
238.26,5.39
240.64,5.31
243.05,5.24
245.48,5.17
247.93,5.11
250.41,5.04
252.92,4.97
255.45,4.90
258.00,4.83
260.58,4.76
263.19,4.69
265.82,4.62
268.48,4.56
271.16,4.49
273.87,4.42
276.61,4.36
279.38,4.30
282.17,4.23
284.99,4.17
287.84,4.11
290.72,4.05
293.63,3.99
296.57,3.92
299.53,3.86
302.53,3.79
305.55,3.72
308.61,3.66
311.69,3.60
314.81,3.53
317.96,3.47
321.14,3.41
324.35,3.34
327.59,3.28
330.87,3.22
334.18,3.16
337.52,3.09
340.90,3.03
344.30,2.97
347.75,2.91
351.23,2.85
354.74,2.78
358.28,2.72
361.87,2.66
365.49,2.60
369.14,2.55
372.83,2.49
376.56,2.43
380.33,2.37
384.13,2.31
387.97,2.25
391.85,2.20
395.77,2.14
399.73,2.08
403.72,2.02
407.76,1.97
411.84,1.91
415.96,1.85
420.12,1.80
424.32,1.74
428.56,1.68
432.85,1.63
437.18,1.57
441.55,1.52
445.96,1.46
450.42,1.41
454.93,1.35
459.48,1.30
464.07,1.25
468.71,1.19
473.40,1.14
478.13,1.09
482.91,1.04
487.74,0.98
492.62,0.93
497.55,0.88
502.52,0.83
507.55,0.78
512.62,0.73
517.75,0.68
522.93,0.63
528.16,0.59
533.44,0.54
538.77,0.49
544.16,0.45
549.60,0.40
555.10,0.36
560.65,0.31
566.25,0.27
571.92,0.22
577.64,0.18
583.41,0.14
589.25,0.10
595.14,0.06
601.09,0.02
607.10,-0.02
613.17,-0.06
619.30,-0.10
625.50,-0.13
631.75,-0.17
638.07,-0.20
644.45,-0.24
650.89,-0.27
657.40,-0.30
663.98,-0.33
670.62,-0.36
677.32,-0.39
684.10,-0.42
690.94,-0.44
697.85,-0.47
704.83,-0.49
711.87,-0.51
718.99,-0.53
726.18,-0.55
733.44,-0.57
740.78,-0.58
748.19,-0.60
755.67,-0.61
763.23,-0.62
770.86,-0.63
778.57,-0.63
786.35,-0.64
794.22,-0.64
802.16,-0.64
810.18,-0.64
818.28,-0.63
826.46,-0.63
834.73,-0.62
843.08,-0.60
851.51,-0.59
860.02,-0.57
868.62,-0.55
877.31,-0.53
886.08,-0.51
894.94,-0.48
903.89,-0.45
912.93,-0.42
922.06,-0.38
931.28,-0.34
940.59,-0.30
950.00,-0.26
959.50,-0.21
969.09,-0.16
978.78,-0.11
988.57,-0.06
998.46,-0.01
1008.44,0.05
1018.53,0.11
1028.71,0.16
1039.00,0.22
1049.39,0.29
1059.88,0.35
1070.48,0.41
1081.19,0.47
1092.00,0.54
1102.92,0.60
1113.95,0.67
1125.09,0.73
1136.34,0.79
1147.70,0.86
1159.18,0.92
1170.77,0.98
1182.48,1.05
1194.30,1.11
1206.25,1.17
1218.31,1.23
1230.49,1.29
1242.80,1.35
1255.22,1.41
1267.78,1.47
1280.45,1.53
1293.26,1.59
1306.19,1.64
1319.25,1.70
1332.45,1.76
1345.77,1.82
1359.23,1.87
1372.82,1.93
1386.55,1.99
1400.41,2.05
1414.42,2.10
1428.56,2.16
1442.85,2.22
1457.28,2.28
1471.85,2.34
1486.57,2.40
1501.43,2.46
1516.45,2.53
1531.61,2.59
1546.93,2.66
1562.40,2.74
1578.02,2.81
1593.80,2.89
1609.74,2.97
1625.84,3.05
1642.10,3.14
1658.52,3.22
1675.10,3.31
1691.85,3.39
1708.77,3.47
1725.86,3.55
1743.12,3.63
1760.55,3.69
1778.15,3.75
1795.94,3.80
1813.90,3.83
1832.03,3.85
1850.36,3.85
1868.86,3.84
1887.55,3.82
1906.42,3.80
1925.49,3.78
1944.74,3.78
1964.19,3.81
1983.83,3.87
2003.67,3.95
2023.71,4.05
2043.94,4.18
2064.38,4.32
2085.03,4.47
2105.88,4.64
2126.94,4.81
2148.20,4.98
2169.69,5.16
2191.38,5.34
2213.30,5.53
2235.43,5.71
2257.78,5.89
2280.36,6.08
2303.17,6.26
2326.20,6.45
2349.46,6.64
2372.95,6.84
2396.68,7.04
2420.65,7.25
2444.86,7.48
2469.31,7.71
2494.00,7.97
2518.94,8.23
2544.13,8.49
2569.57,8.75
2595.27,9.01
2621.22,9.27
2647.43,9.52
2673.90,9.78
2700.64,10.03
2727.65,10.28
2754.93,10.53
2782.48,10.77
2810.30,11.02
2838.40,11.26
2866.79,11.52
2895.46,11.77
2924.41,12.03
2953.65,12.29
2983.19,12.54
3013.02,12.78
3043.15,12.99
3073.58,13.16
3104.32,13.29
3135.36,13.39
3166.72,13.44
3198.38,13.47
3230.37,13.45
3262.67,13.41
3295.30,13.35
3328.25,13.25
3361.53,13.14
3395.15,13.00
3429.10,12.84
3463.39,12.66
3498.03,12.46
3533.01,12.23
3568.34,11.99
3604.02,11.73
3640.06,11.46
3676.46,11.20
3713.22,10.94
3750.36,10.71
3787.86,10.51
3825.74,10.32
3864.00,10.15
3902.64,10.01
3941.66,9.87
3981.08,9.75
4020.89,9.63
4061.10,9.52
4101.71,9.41
4142.73,9.31
4184.15,9.22
4226.00,9.13
4268.26,9.05
4310.94,8.97
4354.05,8.91
4397.59,8.85
4441.56,8.79
4485.98,8.75
4530.84,8.71
4576.15,8.69
4621.91,8.67
4668.13,8.65
4714.81,8.64
4761.96,8.63
4809.58,8.63
4857.67,8.63
4906.25,8.63
4955.31,8.64
5004.87,8.65
5054.91,8.67
5105.46,8.70
5156.52,8.73
5208.08,8.77
5260.16,8.81
5312.77,8.86
5365.89,8.92
5419.55,8.98
5473.75,9.05
5528.49,9.12
5583.77,9.19
5639.61,9.26
5696.00,9.33
5752.96,9.40
5810.49,9.46
5868.60,9.52
5927.28,9.57
5986.56,9.63
6046.42,9.67
6106.89,9.71
6167.96,9.74
6229.64,9.76
6291.93,9.76
6354.85,9.76
6418.40,9.75
6482.58,9.72
6547.41,9.69
6612.88,9.64
6679.01,9.58
6745.80,9.52
6813.26,9.44
6881.39,9.36
6950.21,9.28
7019.71,9.21
7089.91,9.13
7160.81,9.07
7232.41,9.03
7304.74,8.99
7377.79,8.99
7451.56,8.99
7526.08,9.02
7601.34,9.06
7677.35,9.11
7754.13,9.17
7831.67,9.21
7909.98,9.25
7989.08,9.26
8068.98,9.21
8149.67,9.12
8231.16,8.97
8313.47,8.74
8396.61,8.45
8480.57,8.08
8565.38,7.64
8651.03,7.14
8737.54,6.59
8824.92,6.00
8913.17,5.36
9002.30,4.72
9092.32,4.06
9183.25,3.40
9275.08,2.74
9367.83,2.09
9461.51,1.46
9556.12,0.84
9651.68,0.25
9748.20,-0.33
9845.68,-0.88
9944.14,-1.40
10043.58,-1.91
10144.02,-2.39
10245.46,-2.84
10347.91,-3.28
10451.39,-3.69
10555.91,-4.08
10661.46,-4.44
10768.08,-4.79
10875.76,-5.10
10984.52,-5.39
11094.36,-5.66
11205.31,-5.91
11317.36,-6.11
11430.53,-6.30
11544.84,-6.45
11660.29,-6.58
11776.89,-6.68
11894.66,-6.72
12013.60,-6.76
12133.74,-6.75
12255.08,-6.70
12377.63,-6.62
12501.41,-6.50
12626.42,-6.32
12752.68,-6.09
12880.21,-5.77
13009.01,-5.42
13139.10,-5.06
13270.49,-4.55
13403.20,-4.00
13537.23,-3.32
13672.60,-2.56
13809.33,-1.73
13947.42,-0.77
14086.90,0.24
14227.77,1.29
14370.04,2.31
14513.74,3.29
14658.88,4.09
14805.47,4.74
14953.52,5.15
15103.06,5.26
15254.09,5.22
15406.63,4.85
15560.70,4.43
15716.30,3.91
15873.47,3.47
16032.20,3.10
16192.52,2.95
16354.45,3.05
16517.99,3.32
16683.17,3.87
16850.01,4.43
17018.51,4.97
17188.69,5.22
17360.58,5.05
17534.18,4.52
17709.53,3.39
17886.62,1.78
18065.49,-0.14
18246.14,-2.35
18428.60,-4.82
18612.89,-7.37
18799.02,-9.98
18987.01,-12.61
19176.88,-15.24
19368.65,-17.86
19562.33,-20.45
19757.96,-23.01
19955.54,-25.57
