frequency,raw,error,smoothed,error_smoothed,equalization,parametric_eq,equalized_raw,equalized_smoothed,target
20,-12.81,-15.34,-12.75,-15.29,6.00,2.90,-6.81,-6.75,2.53
21,-12.16,-14.69,-12.16,-14.69,6.00,3.32,-6.16,-6.16,2.53
22,-11.57,-14.10,-11.58,-14.11,6.00,3.79,-5.57,-5.58,2.53
23,-10.95,-13.48,-11.02,-13.55,6.00,4.28,-4.95,-5.02,2.53
24,-10.42,-12.95,-10.47,-13.01,6.00,4.81,-4.42,-4.47,2.53
25,-9.96,-12.49,-9.95,-12.48,6.00,5.35,-3.96,-3.95,2.53
26,-9.48,-12.01,-9.44,-11.97,6.00,5.88,-3.48,-3.44,2.53
27,-8.95,-11.48,-8.95,-11.48,6.00,6.39,-2.95,-2.95,2.53
28,-8.45,-10.98,-8.48,-11.01,6.00,6.84,-2.45,-2.48,2.53
29,-7.98,-10.51,-8.02,-10.56,6.00,7.20,-1.98,-2.02,2.53
30,-7.62,-10.15,-7.59,-10.12,6.00,7.44,-1.62,-1.59,2.53
31,-7.21,-9.74,-7.17,-9.70,6.00,7.55,-1.21,-1.17,2.53
32,-6.73,-9.26,-6.76,-9.29,6.00,7.53,-0.73,-0.76,2.53
33,-6.36,-8.89,-6.37,-8.90,6.00,7.39,-0.36,-0.37,2.53
34,-6.00,-8.53,-5.99,-8.53,6.00,7.16,0.00,0.01,2.53
35,-5.68,-8.21,-5.63,-8.17,6.00,6.88,0.32,0.37,2.53
36,-5.35,-7.88,-5.29,-7.82,6.00,6.56,0.65,0.71,2.53
37,-5.02,-7.55,-4.96,-7.49,6.00,6.22,0.98,1.04,2.53
38,-4.59,-7.12,-4.64,-7.17,6.00,5.89,1.41,1.36,2.53
39,-4.29,-6.82,-4.34,-6.87,6.00,5.57,1.71,1.66,2.53
40,-4.01,-6.54,-4.05,-6.58,6.00,5.26,1.99,1.95,2.53
41,-3.73,-6.26,-3.78,-6.31,5.95,4.98,2.22,2.18,2.53
42,-3.46,-5.99,-3.52,-6.05,5.85,4.72,2.39,2.33,2.53
43,-3.30,-5.83,-3.27,-5.81,5.70,4.48,2.40,2.43,2.53
44,-3.08,-5.61,-3.04,-5.57,5.52,4.26,2.45,2.48,2.53
45,-2.75,-5.28,-2.82,-5.35,5.34,4.06,2.59,2.52,2.53
46,-2.75,-5.28,-2.61,-5.14,5.14,3.89,2.40,2.53,2.53
47,-2.43,-4.96,-2.41,-4.94,4.94,3.72,2.51,2.53,2.53
48,-2.12,-4.65,-2.21,-4.74,4.74,3.58,2.63,2.53,2.53
49,-2.04,-4.57,-2.02,-4.55,4.55,3.45,2.52,2.53,2.53
50,-1.81,-4.34,-1.84,-4.37,4.37,3.33,2.56,2.53,2.53
51,-1.75,-4.28,-1.65,-4.19,4.19,3.23,2.44,2.53,2.53
52,-1.53,-4.06,-1.48,-4.01,4.01,3.13,2.48,2.53,2.53
53,-1.32,-3.85,-1.30,-3.83,3.83,3.04,2.51,2.53,2.53
54,-1.13,-3.66,-1.13,-3.66,3.66,2.96,2.53,2.53,2.53
55,-0.99,-3.52,-0.96,-3.49,3.49,2.89,2.50,2.53,2.53
56,-0.81,-3.34,-0.79,-3.32,3.32,2.82,2.52,2.53,2.53
57,-0.51,-3.04,-0.63,-3.16,3.16,2.76,2.66,2.53,2.53
58,-0.48,-3.01,-0.47,-3.01,3.01,2.70,2.53,2.53,2.53
59,-0.38,-2.91,-0.32,-2.86,2.86,2.64,2.48,2.53,2.53
60,-0.16,-2.69,-0.18,-2.71,2.71,2.58,2.56,2.53,2.53
61,-0.05,-2.58,-0.04,-2.58,2.58,2.53,2.53,2.53,2.53
62,0.13,-2.40,0.09,-2.44,2.44,2.47,2.58,2.53,2.53
63,0.17,-2.36,0.21,-2.32,2.32,2.42,2.49,2.53,2.53
64,0.33,-2.20,0.33,-2.21,2.21,2.37,2.54,2.53,2.53
65,0.49,-2.04,0.44,-2.10,2.10,2.31,2.59,2.53,2.53
66,0.49,-2.04,0.54,-1.99,1.99,2.26,2.49,2.53,2.53
67,0.55,-1.98,0.63,-1.90,1.90,2.21,2.45,2.53,2.53
68,0.81,-1.72,0.72,-1.81,1.81,2.16,2.62,2.53,2.53
69,0.81,-1.72,0.80,-1.73,1.73,2.11,2.54,2.53,2.53
70,0.81,-1.72,0.88,-1.65,1.65,2.07,2.47,2.53,2.53
71,0.89,-1.64,0.95,-1.59,1.59,2.02,2.48,2.53,2.53
72,1.14,-1.39,1.01,-1.52,1.52,1.97,2.67,2.53,2.53
73,1.14,-1.39,1.07,-1.47,1.47,1.93,2.61,2.53,2.53
74,1.14,-1.39,1.12,-1.41,1.41,1.89,2.56,2.53,2.53
75,1.14,-1.39,1.17,-1.36,1.36,1.85,2.51,2.53,2.53
76,1.14,-1.39,1.21,-1.32,1.32,1.81,2.46,2.53,2.53
77,1.14,-1.39,1.26,-1.28,1.28,1.77,2.42,2.53,2.53
78,1.26,-1.27,1.30,-1.24,1.24,1.74,2.50,2.53,2.53
79,1.30,-1.23,1.33,-1.20,1.20,1.70,2.50,2.53,2.53
80,1.39,-1.14,1.36,-1.17,1.17,1.67,2.56,2.53,2.53
81,1.46,-1.07,1.39,-1.14,1.14,1.64,2.60,2.53,2.53
82,1.46,-1.07,1.41,-1.12,1.12,1.61,2.58,2.53,2.53
83,1.46,-1.07,1.43,-1.10,1.10,1.59,2.56,2.53,2.53
84,1.46,-1.07,1.45,-1.08,1.08,1.56,2.54,2.53,2.53
85,1.46,-1.07,1.46,-1.07,1.07,1.54,2.53,2.53,2.53
86,1.46,-1.07,1.47,-1.06,1.06,1.52,2.53,2.53,2.53
87,1.46,-1.07,1.47,-1.06,1.06,1.50,2.52,2.53,2.53
88,1.46,-1.07,1.48,-1.06,1.06,1.48,2.52,2.53,2.53
89,1.46,-1.07,1.47,-1.06,1.06,1.46,2.52,2.53,2.53
90,1.46,-1.07,1.47,-1.06,1.06,1.45,2.52,2.53,2.53
91,1.46,-1.07,1.47,-1.06,1.06,1.44,2.53,2.53,2.53
92,1.46,-1.07,1.47,-1.06,1.06,1.42,2.53,2.53,2.53
93,1.46,-1.07,1.47,-1.07,1.07,1.41,2.53,2.53,2.53
94,1.46,-1.07,1.46,-1.07,1.07,1.40,2.53,2.53,2.53
95,1.46,-1.07,1.46,-1.07,1.07,1.39,2.53,2.53,2.53
96,1.46,-1.07,1.46,-1.07,1.07,1.39,2.53,2.53,2.53
97,1.46,-1.07,1.47,-1.07,1.07,1.38,2.53,2.53,2.53
98,1.46,-1.07,1.47,-1.06,1.06,1.37,2.53,2.53,2.53
99,1.46,-1.07,1.47,-1.06,1.06,1.37,2.52,2.53,2.53
100,1.46,-1.07,1.47,-1.06,1.06,1.37,2.52,2.53,2.53
101,1.46,-1.07,1.48,-1.06,1.06,1.36,2.52,2.53,2.53
102,1.46,-1.07,1.48,-1.06,1.06,1.36,2.52,2.53,2.53
104,1.46,-1.07,1.47,-1.06,1.06,1.36,2.52,2.53,2.53
105,1.46,-1.07,1.47,-1.06,1.06,1.36,2.53,2.53,2.53
106,1.46,-1.07,1.46,-1.07,1.07,1.36,2.54,2.53,2.53
107,1.46,-1.07,1.44,-1.09,1.09,1.36,2.55,2.53,2.53
108,1.46,-1.07,1.42,-1.11,1.11,1.36,2.57,2.53,2.53
109,1.46,-1.07,1.40,-1.13,1.13,1.36,2.60,2.53,2.53
110,1.46,-1.07,1.37,-1.16,1.16,1.37,2.62,2.53,2.53
111,1.41,-1.12,1.34,-1.19,1.19,1.37,2.60,2.53,2.53
112,1.31,-1.22,1.31,-1.22,1.22,1.37,2.54,2.53,2.53
113,1.21,-1.32,1.28,-1.25,1.25,1.37,2.47,2.53,2.53
114,1.14,-1.39,1.25,-1.28,1.28,1.38,2.43,2.53,2.53
115,1.14,-1.39,1.22,-1.31,1.31,1.38,2.45,2.53,2.53
117,1.14,-1.39,1.20,-1.33,1.33,1.39,2.48,2.53,2.53
118,1.14,-1.39,1.18,-1.35,1.35,1.39,2.50,2.53,2.53
119,1.14,-1.39,1.16,-1.37,1.37,1.40,2.51,2.53,2.53
120,1.14,-1.39,1.15,-1.39,1.39,1.40,2.53,2.53,2.53
121,1.14,-1.39,1.13,-1.40,1.40,1.41,2.55,2.53,2.53
123,1.14,-1.39,1.11,-1.42,1.42,1.42,2.56,2.53,2.53
124,1.14,-1.39,1.10,-1.44,1.44,1.42,2.58,2.53,2.53
125,1.14,-1.39,1.07,-1.46,1.46,1.43,2.60,2.53,2.53
126,1.14,-1.39,1.05,-1.48,1.48,1.43,2.62,2.53,2.53
128,1.10,-1.43,1.03,-1.51,1.51,1.44,2.61,2.53,2.53
129,1.01,-1.52,1.00,-1.53,1.53,1.45,2.55,2.53,2.53
130,0.92,-1.61,0.97,-1.56,1.56,1.45,2.49,2.53,2.53
131,0.84,-1.69,0.94,-1.59,1.59,1.46,2.44,2.53,2.53
133,0.81,-1.72,0.91,-1.62,1.62,1.47,2.44,2.53,2.53
134,0.81,-1.72,0.88,-1.66,1.66,1.48,2.47,2.53,2.53
135,0.81,-1.72,0.85,-1.68,1.68,1.48,2.50,2.53,2.53
137,0.81,-1.72,0.82,-1.71,1.71,1.50,2.53,2.53,2.53
138,0.81,-1.72,0.79,-1.74,1.74,1.50,2.56,2.53,2.53
140,0.81,-1.72,0.76,-1.77,1.77,1.52,2.58,2.53,2.53
141,0.81,-1.72,0.73,-1.80,1.80,1.53,2.61,2.53,2.53
142,0.81,-1.72,0.70,-1.83,1.83,1.53,2.64,2.53,2.53
144,0.74,-1.79,0.68,-1.86,1.86,1.55,2.60,2.53,2.53
145,0.66,-1.87,0.65,-1.89,1.89,1.56,2.55,2.53,2.53
147,0.51,-2.02,0.62,-1.91,1.91,1.58,2.43,2.53,2.53
148,0.49,-2.04,0.59,-1.94,1.94,1.59,2.43,2.53,2.53
150,0.49,-2.04,0.56,-1.97,1.97,1.61,2.46,2.53,2.53
151,0.49,-2.04,0.54,-1.99,1.99,1.62,2.49,2.53,2.53
153,0.49,-2.04,0.51,-2.02,2.02,1.64,2.51,2.53,2.53
154,0.49,-2.04,0.49,-2.04,2.04,1.66,2.53,2.53,2.53
156,0.49,-2.04,0.47,-2.07,2.07,1.68,2.56,2.53,2.53
157,0.49,-2.04,0.44,-2.09,2.09,1.69,2.58,2.53,2.53
159,0.49,-2.04,0.42,-2.12,2.12,1.72,2.61,2.53,2.53
160,0.49,-2.04,0.39,-2.14,2.14,1.74,2.64,2.53,2.53
162,0.38,-2.15,0.36,-2.17,2.17,1.77,2.55,2.53,2.53
164,0.33,-2.20,0.34,-2.20,2.20,1.80,2.53,2.53,2.53
165,0.33,-2.20,0.31,-2.22,2.22,1.82,2.56,2.53,2.53
167,0.20,-2.33,0.28,-2.25,2.25,1.85,2.45,2.53,2.53
169,0.17,-2.36,0.26,-2.27,2.27,1.89,2.45,2.53,2.53
170,0.17,-2.36,0.24,-2.30,2.30,1.91,2.47,2.53,2.53
172,0.17,-2.36,0.22,-2.32,2.32,1.95,2.49,2.53,2.53
174,0.17,-2.36,0.20,-2.34,2.34,1.99,2.51,2.53,2.53
175,0.17,-2.36,0.18,-2.35,2.35,2.01,2.53,2.53,2.53
177,0.17,-2.36,0.16,-2.37,2.37,2.05,2.54,2.53,2.53
179,0.17,-2.36,0.14,-2.39,2.39,2.10,2.56,2.53,2.53
181,0.17,-2.36,0.12,-2.41,2.41,2.14,2.58,2.53,2.53
183,0.17,-2.36,0.10,-2.43,2.43,2.19,2.61,2.53,2.53
184,0.17,-2.36,0.07,-2.46,2.46,2.21,2.63,2.53,2.53
186,0.12,-2.41,0.04,-2.49,2.49,2.26,2.61,2.53,2.53
188,0.00,-2.53,0.01,-2.52,2.52,2.31,2.52,2.53,2.53
190,-0.12,-2.65,-0.02,-2.55,2.55,2.36,2.43,2.53,2.53
192,-0.16,-2.69,-0.05,-2.58,2.58,2.41,2.43,2.53,2.53
194,-0.16,-2.69,-0.08,-2.62,2.62,2.47,2.46,2.53,2.53
196,-0.16,-2.69,-0.12,-2.65,2.65,2.52,2.49,2.53,2.53
198,-0.16,-2.69,-0.15,-2.68,2.68,2.57,2.53,2.53,2.53
200,-0.16,-2.69,-0.18,-2.72,2.72,2.63,2.56,2.53,2.53
202,-0.16,-2.69,-0.22,-2.75,2.75,2.68,2.59,2.53,2.53
204,-0.16,-2.69,-0.25,-2.78,2.78,2.74,2.62,2.53,2.53
206,-0.22,-2.75,-0.28,-2.81,2.81,2.79,2.60,2.53,2.53
208,-0.32,-2.85,-0.31,-2.84,2.84,2.84,2.53,2.53,2.53
210,-0.32,-2.85,-0.34,-2.87,2.87,2.90,2.56,2.53,2.53
212,-0.38,-2.91,-0.37,-2.90,2.90,2.95,2.53,2.53,2.53
214,-0.48,-3.01,-0.40,-2.93,2.93,3.00,2.45,2.53,2.53
216,-0.48,-3.01,-0.42,-2.95,2.95,3.05,2.48,2.53,2.53
218,-0.48,-3.01,-0.44,-2.98,2.98,3.10,2.50,2.53,2.53
221,-0.48,-3.01,-0.46,-2.99,2.99,3.17,2.52,2.53,2.53
223,-0.48,-3.01,-0.47,-3.01,3.01,3.21,2.53,2.53,2.53
225,-0.48,-3.01,-0.48,-3.01,3.01,3.26,2.54,2.53,2.53
227,-0.48,-3.01,-0.49,-3.02,3.02,3.30,2.54,2.53,2.53
229,-0.48,-3.01,-0.49,-3.02,3.02,3.33,2.54,2.53,2.53
232,-0.48,-3.01,-0.49,-3.02,3.02,3.39,2.55,2.53,2.53
234,-0.48,-3.01,-0.49,-3.02,3.02,3.42,2.54,2.53,2.53
236,-0.48,-3.01,-0.48,-3.02,3.02,3.45,2.54,2.53,2.53
239,-0.48,-3.01,-0.48,-3.01,3.01,3.48,2.54,2.53,2.53
241,-0.48,-3.01,-0.48,-3.01,3.01,3.50,2.53,2.53,2.53
244,-0.48,-3.01,-0.47,-3.01,3.01,3.53,2.53,2.53,2.53
246,-0.48,-3.01,-0.47,-3.00,3.00,3.55,2.53,2.53,2.53
248,-0.48,-3.01,-0.47,-3.00,3.00,3.56,2.53,2.53,2.53
251,-0.48,-3.01,-0.47,-3.00,3.00,3.57,2.52,2.53,2.53
253,-0.48,-3.01,-0.47,-3.00,3.00,3.57,2.52,2.53,2.53
256,-0.48,-3.01,-0.47,-3.00,3.00,3.57,2.53,2.53,2.53
259,-0.48,-3.01,-0.48,-3.01,3.01,3.57,2.53,2.53,2.53
261,-0.48,-3.01,-0.48,-3.01,3.01,3.56,2.54,2.53,2.53
264,-0.48,-3.01,-0.49,-3.02,3.02,3.55,2.55,2.53,2.53
266,-0.48,-3.01,-0.50,-3.03,3.03,3.54,2.56,2.53,2.53
269,-0.48,-3.01,-0.51,-3.05,3.05,3.52,2.57,2.53,2.53
272,-0.48,-3.01,-0.53,-3.06,3.06,3.50,2.58,2.53,2.53
274,-0.52,-3.05,-0.54,-3.08,3.08,3.48,2.56,2.53,2.53
277,-0.64,-3.17,-0.56,-3.10,3.10,3.45,2.46,2.53,2.53
280,-0.64,-3.17,-0.58,-3.12,3.12,3.42,2.48,2.53,2.53
283,-0.64,-3.17,-0.60,-3.14,3.14,3.39,2.50,2.53,2.53
286,-0.64,-3.17,-0.63,-3.16,3.16,3.35,2.52,2.53,2.53
288,-0.64,-3.17,-0.65,-3.18,3.18,3.33,2.54,2.53,2.53
291,-0.64,-3.17,-0.67,-3.20,3.20,3.30,2.56,2.53,2.53
294,-0.64,-3.17,-0.69,-3.22,3.22,3.26,2.59,2.53,2.53
297,-0.64,-3.17,-0.71,-3.24,3.24,3.23,2.61,2.53,2.53
300,-0.74,-3.27,-0.73,-3.26,3.26,3.19,2.53,2.53,2.53
303,-0.81,-3.34,-0.75,-3.28,3.28,3.16,2.48,2.53,2.53
306,-0.81,-3.34,-0.77,-3.30,3.30,3.12,2.49,2.53,2.53
309,-0.81,-3.34,-0.78,-3.31,3.31,3.09,2.51,2.53,2.53
312,-0.81,-3.34,-0.79,-3.32,3.32,3.06,2.52,2.53,2.53
316,-0.81,-3.34,-0.80,-3.33,3.33,3.02,2.53,2.53,2.53
319,-0.81,-3.34,-0.81,-3.34,3.34,2.99,2.53,2.53,2.53
322,-0.81,-3.34,-0.81,-3.34,3.34,2.97,2.54,2.53,2.53
325,-0.81,-3.34,-0.81,-3.35,3.35,2.94,2.54,2.53,2.53
328,-0.81,-3.34,-0.81,-3.34,3.34,2.92,2.54,2.53,2.53
332,-0.81,-3.34,-0.81,-3.34,3.34,2.89,2.54,2.53,2.53
335,-0.81,-3.34,-0.81,-3.34,3.34,2.87,2.53,2.53,2.53
338,-0.81,-3.34,-0.80,-3.33,3.33,2.86,2.53,2.53,2.53
342,-0.81,-3.34,-0.80,-3.33,3.33,2.84,2.52,2.53,2.53
345,-0.81,-3.34,-0.79,-3.33,3.33,2.82,2.52,2.53,2.53
349,-0.81,-3.34,-0.79,-3.32,3.32,2.81,2.52,2.53,2.53
352,-0.81,-3.34,-0.79,-3.33,3.33,2.80,2.52,2.53,2.53
356,-0.81,-3.34,-0.80,-3.33,3.33,2.79,2.53,2.53,2.53
359,-0.81,-3.34,-0.81,-3.35,3.35,2.79,2.54,2.53,2.53
363,-0.81,-3.34,-0.83,-3.36,3.36,2.78,2.56,2.53,2.53
366,-0.81,-3.34,-0.85,-3.39,3.39,2.78,2.58,2.53,2.53
370,-0.81,-3.34,-0.88,-3.41,3.41,2.78,2.61,2.53,2.53
374,-0.81,-3.34,-0.91,-3.45,3.45,2.78,2.64,2.53,2.53
377,-0.88,-3.41,-0.95,-3.48,3.48,2.79,2.61,2.53,2.53
381,-1.00,-3.53,-0.99,-3.52,3.52,2.79,2.52,2.53,2.53
385,-1.12,-3.65,-1.02,-3.56,3.56,2.80,2.44,2.53,2.53
389,-1.13,-3.66,-1.06,-3.59,3.59,2.81,2.46,2.53,2.53
393,-1.13,-3.66,-1.08,-3.62,3.62,2.82,2.49,2.53,2.53
397,-1.13,-3.66,-1.10,-3.64,3.64,2.84,2.51,2.53,2.53
401,-1.13,-3.66,-1.12,-3.65,3.65,2.85,2.52,2.53,2.53
405,-1.13,-3.66,-1.12,-3.65,3.65,2.87,2.52,2.53,2.53
409,-1.13,-3.66,-1.11,-3.64,3.64,2.89,2.52,2.53,2.53
413,-1.13,-3.66,-1.10,-3.63,3.63,2.91,2.50,2.53,2.53
417,-1.13,-3.66,-1.07,-3.60,3.60,2.92,2.48,2.53,2.53
421,-1.11,-3.64,-1.04,-3.57,3.57,2.94,2.47,2.53,2.53
425,-1.00,-3.53,-1.00,-3.53,3.53,2.96,2.54,2.53,2.53
430,-0.87,-3.40,-0.96,-3.49,3.49,2.99,2.63,2.53,2.53
434,-0.81,-3.34,-0.91,-3.45,3.45,3.01,2.64,2.53,2.53
438,-0.81,-3.34,-0.87,-3.40,3.40,3.03,2.59,2.53,2.53
443,-0.81,-3.34,-0.81,-3.35,3.35,3.05,2.54,2.53,2.53
447,-0.81,-3.34,-0.76,-3.29,3.29,3.07,2.49,2.53,2.53
451,-0.81,-3.34,-0.71,-3.24,3.24,3.09,2.43,2.53,2.53
456,-0.69,-3.22,-0.65,-3.18,3.18,3.11,2.50,2.53,2.53
460,-0.59,-3.12,-0.60,-3.13,3.13,3.12,2.54,2.53,2.53
465,-0.48,-3.01,-0.54,-3.07,3.07,3.14,2.59,2.53,2.53
470,-0.48,-3.01,-0.48,-3.02,3.02,3.16,2.54,2.53,2.53
474,-0.48,-3.01,-0.43,-2.96,2.96,3.17,2.48,2.53,2.53
479,-0.46,-2.99,-0.38,-2.91,2.91,3.18,2.45,2.53,2.53
484,-0.34,-2.87,-0.33,-2.86,2.86,3.18,2.52,2.53,2.53
489,-0.23,-2.76,-0.28,-2.82,2.82,3.19,2.59,2.53,2.53
494,-0.16,-2.69,-0.25,-2.78,2.78,3.19,2.62,2.53,2.53
499,-0.16,-2.69,-0.21,-2.75,2.75,3.19,2.59,2.53,2.53
504,-0.16,-2.69,-0.19,-2.72,2.72,3.19,2.56,2.53,2.53
509,-0.16,-2.69,-0.17,-2.70,2.70,3.19,2.54,2.53,2.53
514,-0.16,-2.69,-0.15,-2.69,2.69,3.18,2.53,2.53,2.53
519,-0.16,-2.69,-0.15,-2.68,2.68,3.17,2.52,2.53,2.53
524,-0.16,-2.69,-0.14,-2.67,2.67,3.16,2.52,2.53,2.53
529,-0.16,-2.69,-0.14,-2.67,2.67,3.15,2.52,2.53,2.53
535,-0.16,-2.69,-0.14,-2.67,2.67,3.13,2.52,2.53,2.53
540,-0.16,-2.69,-0.14,-2.68,2.68,3.12,2.52,2.53,2.53
545,-0.16,-2.69,-0.15,-2.68,2.68,3.10,2.52,2.53,2.53
551,-0.16,-2.69,-0.15,-2.68,2.68,3.08,2.53,2.53,2.53
556,-0.16,-2.69,-0.15,-2.69,2.69,3.06,2.53,2.53,2.53
562,-0.16,-2.69,-0.16,-2.69,2.69,3.03,2.53,2.53,2.53
568,-0.16,-2.69,-0.16,-2.69,2.69,3.01,2.53,2.53,2.53
573,-0.16,-2.69,-0.16,-2.69,2.69,2.99,2.53,2.53,2.53
579,-0.16,-2.69,-0.16,-2.69,2.69,2.96,2.53,2.53,2.53
585,-0.16,-2.69,-0.16,-2.69,2.69,2.94,2.53,2.53,2.53
591,-0.16,-2.69,-0.16,-2.69,2.69,2.92,2.53,2.53,2.53
596,-0.16,-2.69,-0.16,-2.69,2.69,2.90,2.53,2.53,2.53
602,-0.16,-2.69,-0.16,-2.69,2.69,2.88,2.53,2.53,2.53
608,-0.16,-2.69,-0.16,-2.69,2.69,2.85,2.53,2.53,2.53
615,-0.16,-2.69,-0.16,-2.69,2.69,2.83,2.53,2.53,2.53
621,-0.16,-2.69,-0.16,-2.69,2.69,2.81,2.53,2.53,2.53
627,-0.16,-2.69,-0.16,-2.69,2.69,2.80,2.53,2.53,2.53
633,-0.16,-2.69,-0.16,-2.69,2.69,2.78,2.53,2.53,2.53
639,-0.16,-2.69,-0.16,-2.69,2.69,2.77,2.53,2.53,2.53
646,-0.16,-2.69,-0.16,-2.69,2.69,2.75,2.53,2.53,2.53
652,-0.16,-2.69,-0.16,-2.69,2.69,2.74,2.53,2.53,2.53
659,-0.16,-2.69,-0.16,-2.69,2.69,2.73,2.53,2.53,2.53
665,-0.16,-2.69,-0.16,-2.69,2.69,2.73,2.53,2.53,2.53
672,-0.16,-2.69,-0.16,-2.69,2.69,2.72,2.53,2.53,2.53
679,-0.16,-2.69,-0.16,-2.69,2.69,2.72,2.53,2.53,2.53
686,-0.16,-2.69,-0.16,-2.69,2.69,2.72,2.53,2.53,2.53
692,-0.16,-2.69,-0.16,-2.69,2.69,2.72,2.53,2.53,2.53
699,-0.16,-2.69,-0.16,-2.69,2.69,2.72,2.53,2.53,2.53
706,-0.16,-2.69,-0.16,-2.69,2.69,2.73,2.53,2.53,2.53
713,-0.16,-2.69,-0.16,-2.69,2.69,2.73,2.53,2.53,2.53
721,-0.16,-2.69,-0.16,-2.69,2.69,2.75,2.53,2.53,2.53
728,-0.16,-2.69,-0.16,-2.69,2.69,2.76,2.53,2.53,2.53
735,-0.16,-2.69,-0.16,-2.69,2.69,2.77,2.53,2.53,2.53
742,-0.16,-2.69,-0.16,-2.69,2.69,2.79,2.53,2.53,2.53
750,-0.16,-2.69,-0.16,-2.69,2.69,2.81,2.53,2.53,2.53
757,-0.16,-2.69,-0.16,-2.69,2.69,2.83,2.53,2.53,2.53
765,-0.16,-2.69,-0.16,-2.69,2.69,2.85,2.53,2.53,2.53
773,-0.16,-2.69,-0.16,-2.69,2.69,2.87,2.53,2.53,2.53
780,-0.16,-2.69,-0.16,-2.69,2.69,2.90,2.53,2.53,2.53
788,-0.16,-2.69,-0.16,-2.69,2.69,2.92,2.53,2.53,2.53
796,-0.16,-2.69,-0.16,-2.69,2.69,2.95,2.53,2.53,2.53
804,-0.16,-2.69,-0.16,-2.69,2.69,2.98,2.53,2.53,2.53
812,-0.16,-2.69,-0.16,-2.69,2.69,3.01,2.53,2.53,2.53
820,-0.16,-2.69,-0.16,-2.69,2.69,3.04,2.53,2.53,2.53
828,-0.16,-2.69,-0.16,-2.69,2.69,3.07,2.53,2.53,2.53
837,-0.16,-2.69,-0.16,-2.69,2.69,3.10,2.53,2.53,2.53
845,-0.16,-2.69,-0.16,-2.69,2.69,3.13,2.53,2.53,2.53
853,-0.16,-2.69,-0.16,-2.69,2.69,3.16,2.53,2.53,2.53
862,-0.16,-2.69,-0.16,-2.69,2.69,3.19,2.53,2.53,2.53
871,-0.16,-2.69,-0.16,-2.69,2.69,3.22,2.54,2.53,2.53
879,-0.16,-2.69,-0.16,-2.70,2.70,3.24,2.54,2.53,2.53
888,-0.16,-2.69,-0.17,-2.70,2.70,3.27,2.54,2.53,2.53
897,-0.16,-2.69,-0.17,-2.70,2.70,3.29,2.54,2.53,2.53
906,-0.16,-2.69,-0.17,-2.70,2.70,3.30,2.55,2.53,2.53
915,-0.16,-2.69,-0.17,-2.70,2.70,3.32,2.54,2.53,2.53
924,-0.16,-2.69,-0.17,-2.70,2.70,3.33,2.54,2.53,2.53
933,-0.16,-2.69,-0.16,-2.69,2.69,3.33,2.54,2.53,2.53
943,-0.16,-2.69,-0.15,-2.68,2.68,3.33,2.52,2.53,2.53
952,-0.16,-2.69,-0.13,-2.67,2.67,3.33,2.51,2.53,2.53
962,-0.16,-2.69,-0.12,-2.65,2.65,3.32,2.49,2.53,2.53
971,-0.16,-2.69,-0.09,-2.63,2.63,3.30,2.47,2.53,2.53
981,-0.15,-2.68,-0.07,-2.60,2.60,3.28,2.45,2.53,2.53
991,-0.03,-2.56,-0.04,-2.57,2.57,3.25,2.54,2.53,2.53
1001,0.00,-2.53,-0.01,-2.54,2.54,3.22,2.54,2.53,2.53
1011,0.03,-2.50,0.02,-2.51,2.51,3.18,2.54,2.53,2.53
1021,0.14,-2.39,0.06,-2.48,2.48,3.13,2.62,2.53,2.53
1031,0.17,-2.36,0.09,-2.44,2.44,3.08,2.62,2.53,2.53
1041,0.17,-2.36,0.12,-2.41,2.41,3.02,2.58,2.53,2.53
1052,0.17,-2.36,0.15,-2.38,2.38,2.96,2.55,2.53,2.53
1062,0.17,-2.36,0.18,-2.35,2.35,2.89,2.52,2.53,2.53
1073,0.17,-2.36,0.21,-2.32,2.32,2.81,2.49,2.53,2.53
1084,0.17,-2.36,0.24,-2.29,2.29,2.73,2.46,2.53,2.53
1094,0.17,-2.36,0.27,-2.26,2.26,2.65,2.43,2.53,2.53
1105,0.22,-2.31,0.30,-2.23,2.23,2.56,2.45,2.53,2.53
1116,0.34,-2.19,0.34,-2.20,2.20,2.46,2.54,2.53,2.53
1128,0.46,-2.07,0.37,-2.17,2.17,2.36,2.63,2.53,2.53
1139,0.49,-2.04,0.40,-2.13,2.13,2.26,2.63,2.53,2.53
1150,0.49,-2.04,0.43,-2.10,2.10,2.16,2.60,2.53,2.53
1162,0.49,-2.04,0.46,-2.07,2.07,2.04,2.57,2.53,2.53
1173,0.49,-2.04,0.49,-2.04,2.04,1.94,2.53,2.53,2.53
1185,0.49,-2.04,0.52,-2.01,2.01,1.82,2.50,2.53,2.53
1197,0.49,-2.04,0.55,-1.98,1.98,1.71,2.47,2.53,2.53
1209,0.49,-2.04,0.59,-1.95,1.95,1.59,2.44,2.53,2.53
1221,0.54,-1.99,0.62,-1.91,1.91,1.47,2.46,2.53,2.53
1233,0.65,-1.88,0.65,-1.88,1.88,1.35,2.53,2.53,2.53
1246,0.77,-1.76,0.69,-1.85,1.85,1.23,2.62,2.53,2.53
1258,0.81,-1.72,0.72,-1.81,1.81,1.11,2.62,2.53,2.53
1271,0.81,-1.72,0.76,-1.77,1.77,0.98,2.58,2.53,2.53
1283,0.81,-1.72,0.80,-1.73,1.73,0.87,2.54,2.53,2.53
1296,0.81,-1.72,0.84,-1.69,1.69,0.74,2.50,2.53,2.53
1309,0.81,-1.72,0.88,-1.65,1.65,0.62,2.46,2.53,2.53
1322,0.81,-1.72,0.93,-1.60,1.60,0.50,2.42,2.53,2.53
1335,0.98,-1.55,0.98,-1.56,1.56,0.37,2.54,2.53,2.53
1349,1.14,-1.39,1.03,-1.51,1.51,0.24,2.65,2.53,2.53
1362,1.14,-1.39,1.08,-1.45,1.45,0.12,2.60,2.53,2.53
1376,1.14,-1.39,1.13,-1.40,1.40,-0.01,2.54,2.53,2.53
1390,1.14,-1.39,1.19,-1.34,1.34,-0.14,2.48,2.53,2.53
1404,1.15,-1.38,1.25,-1.28,1.28,-0.26,2.43,2.53,2.53
1418,1.37,-1.16,1.32,-1.21,1.21,-0.39,2.59,2.53,2.53
1432,1.46,-1.07,1.39,-1.14,1.14,-0.51,2.61,2.53,2.53
1446,1.46,-1.07,1.46,-1.07,1.07,-0.64,2.53,2.53,2.53
1461,1.46,-1.07,1.54,-0.99,0.99,-0.77,2.45,2.53,2.53
1475,1.61,-0.92,1.63,-0.90,0.90,-0.89,2.52,2.53,2.53
1490,1.79,-0.74,1.72,-0.81,0.81,-1.02,2.61,2.53,2.53
1505,1.79,-0.74,1.82,-0.71,0.71,-1.15,2.51,2.53,2.53
1520,1.97,-0.56,1.92,-0.61,0.61,-1.28,2.58,2.53,2.53
1535,2.11,-0.42,2.04,-0.49,0.49,-1.41,2.61,2.53,2.53
1550,2.11,-0.42,2.16,-0.37,0.37,-1.53,2.48,2.53,2.53
1566,2.32,-0.21,2.30,-0.23,0.23,-1.66,2.55,2.53,2.53
1582,2.49,-0.04,2.46,-0.08,0.08,-1.79,2.57,2.53,2.53
1597,2.60,0.07,2.63,0.09,-0.09,-1.92,2.51,2.53,2.53
1613,2.71,0.18,2.81,0.28,-0.28,-2.04,2.43,2.53,2.53
1629,2.88,0.35,3.01,0.48,-0.48,-2.17,2.40,2.53,2.53
1646,3.13,0.60,3.23,0.70,-0.70,-2.30,2.43,2.53,2.53
1662,3.46,0.93,3.47,0.93,-0.93,-2.42,2.53,2.53,2.53
1679,3.73,1.20,3.71,1.18,-1.18,-2.55,2.55,2.53,2.53
1696,3.96,1.43,3.97,1.44,-1.44,-2.67,2.52,2.53,2.53
1713,4.18,1.65,4.24,1.70,-1.70,-2.80,2.48,2.53,2.53
1730,4.50,1.97,4.51,1.98,-1.98,-2.91,2.53,2.53,2.53
1747,4.83,2.30,4.78,2.25,-2.25,-3.03,2.58,2.53,2.53
1764,5.16,2.63,5.05,2.52,-2.52,-3.14,2.64,2.53,2.53
1782,5.40,2.87,5.32,2.79,-2.79,-3.25,2.61,2.53,2.53
1800,5.62,3.09,5.59,3.05,-3.05,-3.36,2.57,2.53,2.53
1818,5.85,3.32,5.84,3.31,-3.31,-3.46,2.54,2.53,2.53
1836,6.07,3.54,6.09,3.56,-3.56,-3.55,2.51,2.53,2.53
1854,6.29,3.76,6.33,3.80,-3.80,-3.64,2.49,2.53,2.53
1873,6.52,3.99,6.56,4.03,-4.03,-3.73,2.49,2.53,2.53
1892,6.75,4.22,6.78,4.25,-4.25,-3.82,2.50,2.53,2.53
1911,6.98,4.45,6.99,4.46,-4.46,-3.89,2.52,2.53,2.53
1930,7.20,4.67,7.20,4.66,-4.66,-3.96,2.54,2.53,2.53
1949,7.42,4.89,7.38,4.85,-4.85,-4.02,2.57,2.53,2.53
1969,7.56,5.03,7.56,5.03,-5.03,-4.08,2.53,2.53,2.53
