frequency,raw
20.00,-4.38
20.20,-4.37
20.40,-4.32
20.61,-4.27
20.81,-4.23
21.02,-4.18
21.23,-4.13
21.44,-4.07
21.66,-4.02
21.87,-3.98
22.09,-3.93
22.31,-3.88
22.54,-3.82
22.76,-3.77
22.99,-3.73
23.22,-3.67
23.45,-3.61
23.69,-3.57
23.92,-3.52
24.16,-3.49
24.40,-3.44
24.65,-3.40
24.89,-3.37
25.14,-3.32
25.39,-3.29
25.65,-3.25
25.91,-3.21
26.16,-3.17
26.43,-3.14
26.69,-3.09
26.96,-3.05
27.23,-3.02
27.50,-2.99
27.77,-2.94
28.05,-2.91
28.33,-2.87
28.62,-2.84
28.90,-2.79
29.19,-2.78
29.48,-2.74
29.78,-2.72
30.08,-2.70
30.38,-2.70
30.68,-2.65
30.99,-2.65
31.30,-2.65
31.61,-2.60
31.93,-2.60
32.24,-2.57
32.57,-2.56
32.89,-2.55
33.22,-2.51
33.55,-2.51
33.89,-2.47
34.23,-2.45
34.57,-2.42
34.92,-2.38
35.27,-2.37
35.62,-2.33
35.97,-2.31
36.33,-2.28
36.70,-2.25
37.06,-2.23
37.43,-2.21
37.81,-2.19
38.19,-2.15
38.57,-2.14
38.95,-2.09
39.34,-2.08
39.74,-2.05
40.14,-2.00
40.54,-2.00
40.94,-1.96
41.35,-1.95
41.76,-1.95
42.18,-1.91
42.60,-1.91
43.03,-1.89
43.46,-1.86
43.90,-1.86
44.33,-1.81
44.78,-1.81
45.23,-1.77
45.68,-1.77
46.13,-1.73
46.60,-1.72
47.06,-1.72
47.53,-1.72
48.01,-1.72
48.49,-1.70
48.97,-1.67
49.46,-1.67
49.96,-1.64
50.46,-1.63
50.96,-1.62
51.47,-1.58
51.99,-1.58
52.51,-1.58
53.03,-1.53
53.56,-1.53
54.10,-1.53
54.64,-1.53
55.18,-1.53
55.74,-1.53
56.29,-1.53
56.86,-1.53
57.42,-1.51
58.00,-1.49
58.58,-1.49
59.16,-1.48
59.76,-1.44
60.35,-1.44
60.96,-1.43
61.57,-1.39
62.18,-1.39
62.80,-1.39
63.43,-1.38
64.07,-1.35
64.71,-1.35
65.35,-1.35
66.01,-1.35
66.67,-1.35
67.33,-1.35
68.01,-1.35
68.69,-1.35
69.37,-1.32
70.07,-1.30
70.77,-1.30
71.48,-1.30
72.19,-1.25
72.91,-1.25
73.64,-1.23
74.38,-1.21
75.12,-1.21
75.87,-1.21
76.63,-1.21
77.40,-1.21
78.17,-1.21
78.95,-1.21
79.74,-1.21
80.54,-1.21
81.35,-1.21
82.16,-1.21
82.98,-1.17
83.81,-1.16
84.65,-1.16
85.50,-1.16
86.35,-1.16
87.22,-1.16
88.09,-1.16
88.97,-1.14
89.86,-1.12
90.76,-1.12
91.66,-1.12
92.58,-1.12
93.51,-1.12
94.44,-1.07
95.39,-1.07
96.34,-1.07
97.30,-1.07
98.28,-1.07
99.26,-1.07
100.25,-1.07
101.25,-1.07
102.27,-1.07
103.29,-1.07
104.32,-1.07
105.37,-1.07
106.42,-1.02
107.48,-1.02
108.56,-1.02
109.64,-1.02
110.74,-1.02
111.85,-1.00
112.97,-0.98
114.10,-0.98
115.24,-0.98
116.39,-0.98
117.55,-0.98
118.73,-0.98
119.92,-1.00
121.12,-1.00
122.33,-1.00
123.55,-0.98
124.79,-0.98
126.03,-0.98
127.29,-0.98
128.57,-0.98
129.85,-0.98
131.15,-0.98
132.46,-0.98
133.79,-0.98
135.12,-0.98
136.48,-0.98
137.84,-0.96
139.22,-0.93
140.61,-0.93
142.02,-0.93
143.44,-0.93
144.87,-0.93
146.32,-0.93
147.78,-0.93
149.26,-0.95
150.75,-0.95
152.26,-0.95
153.78,-0.93
155.32,-0.93
156.88,-0.93
158.44,-0.93
160.03,-0.93
161.63,-0.93
163.24,-0.93
164.88,-0.93
166.53,-0.93
168.19,-0.93
169.87,-0.93
171.57,-0.93
173.29,-0.93
175.02,-0.93
176.77,-0.93
178.54,-0.91
180.32,-0.89
182.13,-0.88
183.95,-0.88
185.79,-0.88
187.65,-0.88
189.52,-0.88
191.42,-0.88
193.33,-0.88
195.27,-0.88
197.22,-0.88
199.19,-0.88
201.18,-0.88
203.19,-0.88
205.23,-0.88
207.28,-0.88
209.35,-0.88
211.44,-0.88
213.56,-0.88
215.69,-0.88
217.85,-0.88
220.03,-0.88
222.23,-0.88
224.45,-0.88
226.70,-0.88
228.96,-0.88
231.25,-0.88
233.57,-0.88
235.90,-0.88
238.26,-0.88
240.64,-0.88
243.05,-0.88
245.48,-0.91
247.93,-0.91
250.41,-0.91
252.92,-0.91
255.45,-0.91
258.00,-0.91
260.58,-0.91
263.19,-0.93
265.82,-0.93
268.48,-0.93
271.16,-0.93
273.87,-0.93
276.61,-0.93
279.38,-0.93
282.17,-0.93
284.99,-0.93
287.84,-0.93
290.72,-0.93
293.63,-0.93
296.57,-0.93
299.53,-0.93
302.53,-0.93
305.55,-0.93
308.61,-0.93
311.69,-0.93
314.81,-0.93
317.96,-0.93
321.14,-0.93
324.35,-0.93
327.59,-0.93
330.87,-0.94
334.18,-0.97
337.52,-0.98
340.90,-0.98
344.30,-0.98
347.75,-0.98
351.23,-0.98
354.74,-0.98
358.28,-0.98
361.87,-0.98
365.49,-0.98
369.14,-0.98
372.83,-0.98
376.56,-0.98
380.33,-0.98
384.13,-0.98
387.97,-0.98
391.85,-0.98
395.77,-0.98
399.73,-1.00
403.72,-1.02
407.76,-1.02
411.84,-1.02
415.96,-1.02
420.12,-1.02
424.32,-1.02
428.56,-1.02
432.85,-1.02
437.18,-1.02
441.55,-1.02
445.96,-1.02
450.42,-1.02
454.93,-1.02
459.48,-1.02
464.07,-1.02
468.71,-1.02
473.40,-1.02
478.13,-1.02
482.91,-1.05
487.74,-1.07
492.62,-1.07
497.55,-1.07
502.52,-1.07
507.55,-1.07
512.62,-1.07
517.75,-1.07
522.93,-1.07
528.16,-1.07
533.44,-1.07
538.77,-1.07
544.16,-1.07
549.60,-1.07
555.10,-1.09
560.65,-1.09
566.25,-1.09
571.92,-1.12
577.64,-1.12
583.41,-1.12
589.25,-1.12
595.14,-1.12
601.09,-1.12
607.10,-1.12
613.17,-1.12
619.30,-1.12
625.50,-1.12
631.75,-1.12
638.07,-1.12
644.45,-1.12
650.89,-1.12
657.40,-1.12
663.98,-1.12
670.62,-1.12
677.32,-1.12
684.10,-1.12
690.94,-1.12
697.85,-1.12
704.83,-1.12
711.87,-1.12
718.99,-1.12
726.18,-1.12
733.44,-1.12
740.78,-1.12
748.19,-1.12
755.67,-1.12
763.23,-1.12
770.86,-1.12
778.57,-1.12
786.35,-1.12
794.22,-1.10
802.16,-1.07
810.18,-1.07
818.28,-1.07
826.46,-1.04
834.73,-1.02
843.08,-1.02
851.51,-0.98
860.02,-0.96
868.62,-0.93
877.31,-0.88
886.08,-0.86
894.94,-0.82
903.89,-0.77
912.93,-0.72
922.06,-0.67
931.28,-0.62
940.59,-0.54
950.00,-0.47
959.50,-0.39
969.09,-0.30
978.78,-0.21
988.57,-0.13
998.46,-0.02
1008.44,0.11
1018.53,0.22
1028.71,0.35
1039.00,0.48
1049.39,0.64
1059.88,0.79
1070.48,0.95
1081.19,1.11
1092.00,1.28
1102.92,1.48
1113.95,1.65
1125.09,1.84
1136.34,2.06
1147.70,2.23
1159.18,2.45
1170.77,2.67
1182.48,2.86
1194.30,3.08
1206.25,3.28
1218.31,3.49
1230.49,3.71
1242.80,3.88
1255.22,4.10
1267.78,4.29
1280.45,4.46
1293.26,4.65
1306.19,4.83
1319.25,5.00
1332.45,5.14
1345.77,5.29
1359.23,5.44
1372.82,5.57
1386.55,5.71
1400.41,5.86
1414.42,5.97
1428.56,6.11
1442.85,6.24
1457.28,6.37
1471.85,6.48
1486.57,6.59
1501.43,6.70
1516.45,6.80
1531.61,6.89
1546.93,7.00
1562.40,7.09
1578.02,7.17
1593.80,7.27
1609.74,7.34
1625.84,7.43
1642.10,7.50
1658.52,7.57
1675.10,7.64
1691.85,7.71
1708.77,7.78
1725.86,7.84
1743.12,7.91
1760.55,7.97
1778.15,8.03
1795.94,8.08
1813.90,8.14
1832.03,8.22
1850.36,8.27
1868.86,8.33
1887.55,8.40
1906.42,8.48
1925.49,8.55
1944.74,8.64
1964.19,8.72
1983.83,8.82
2003.67,8.92
2023.71,9.00
2043.94,9.11
2064.38,9.22
2085.03,9.31
2105.88,9.41
2126.94,9.52
2148.20,9.63
2169.69,9.74
2191.38,9.85
2213.30,9.96
2235.43,10.07
2257.78,10.18
2280.36,10.28
2303.17,10.38
2326.20,10.48
2349.46,10.57
2372.95,10.65
2396.68,10.73
2420.65,10.81
2444.86,10.87
2469.31,10.92
2494.00,11.00
2518.94,11.05
2544.13,11.08
2569.57,11.13
2595.27,11.17
2621.22,11.18
2647.43,11.18
2673.90,11.18
2700.64,11.18
2727.65,11.18
2754.93,11.14
2782.48,11.10
2810.30,11.06
2838.40,11.01
2866.79,10.94
2895.46,10.89
2924.41,10.81
2953.65,10.73
2983.19,10.64
3013.02,10.55
3043.15,10.47
3073.58,10.36
3104.32,10.27
3135.36,10.17
3166.72,10.05
3198.38,9.93
3230.37,9.80
3262.67,9.67
3295.30,9.56
3328.25,9.40
3361.53,9.29
3395.15,9.14
3429.10,9.03
3463.39,8.87
3498.03,8.75
3533.01,8.61
3568.34,8.49
3604.02,8.37
3640.06,8.24
3676.46,8.12
3713.22,8.00
3750.36,7.89
3787.86,7.77
3825.74,7.63
3864.00,7.51
3902.64,7.41
3941.66,7.30
3981.08,7.19
4020.89,7.08
4061.10,6.97
4101.71,6.89
4142.73,6.78
4184.15,6.69
4226.00,6.59
4268.26,6.50
4310.94,6.39
4354.05,6.33
4397.59,6.22
4441.56,6.15
4485.98,6.05
4530.84,5.97
4576.15,5.88
4621.91,5.81
4668.13,5.73
4714.81,5.66
4761.96,5.58
4809.58,5.51
4857.67,5.43
4906.25,5.35
4955.31,5.29
5004.87,5.20
5054.91,5.12
5105.46,5.05
5156.52,4.96
5208.08,4.88
5260.16,4.80
5312.77,4.71
5365.89,4.61
5419.55,4.52
5473.75,4.41
5528.49,4.30
5583.77,4.19
5639.61,4.08
5696.00,3.95
5752.96,3.84
5810.49,3.69
5868.60,3.55
5927.28,3.40
5986.56,3.24
6046.42,3.08
6106.89,2.92
6167.96,2.75
6229.64,2.57
6291.93,2.40
6354.85,2.20
6418.40,2.01
6482.58,1.83
6547.41,1.62
6612.88,1.45
6679.01,1.23
6745.80,1.01
6813.26,0.82
6881.39,0.60
6950.21,0.38
7019.71,0.17
7089.91,-0.03
7160.81,-0.25
7232.41,-0.46
7304.74,-0.66
7377.79,-0.90
7451.56,-1.12
7526.08,-1.36
7601.34,-1.55
7677.35,-1.77
7754.13,-1.96
7831.67,-2.11
7909.98,-2.26
7989.08,-2.35
8068.98,-2.44
8149.67,-2.47
8231.16,-2.51
8313.47,-2.56
8396.61,-2.56
8480.57,-2.54
8565.38,-2.51
8651.03,-2.44
8737.54,-2.39
8824.92,-2.30
8913.17,-2.19
9002.30,-2.09
9092.32,-1.98
9183.25,-1.87
9275.08,-1.78
9367.83,-1.70
9461.51,-1.64
9556.12,-1.64
9651.68,-1.70
9748.20,-1.81
9845.68,-1.98
9944.14,-2.19
10043.58,-2.43
10144.02,-2.75
10245.46,-3.09
10347.91,-3.47
10451.39,-3.86
10555.91,-4.28
10661.46,-4.69
10768.08,-5.13
10875.76,-5.54
10984.52,-5.98
11094.36,-6.39
11205.31,-6.78
11317.36,-7.17
11430.53,-7.54
11544.84,-7.85
11660.29,-8.17
11776.89,-8.44
11894.66,-8.66
12013.60,-8.88
12133.74,-9.06
12255.08,-9.17
12377.63,-9.24
12501.41,-9.25
12626.42,-9.17
12752.68,-9.05
12880.21,-8.86
13009.01,-8.63
13139.10,-8.32
13270.49,-7.97
13403.20,-7.57
13537.23,-7.13
13672.60,-6.66
13809.33,-6.18
13947.42,-5.69
14086.90,-5.20
14227.77,-4.76
14370.04,-4.36
14513.74,-4.04
14658.88,-3.76
14805.47,-3.60
14953.52,-3.48
15103.06,-3.47
15254.09,-3.57
15406.63,-3.71
15560.70,-3.87
15716.30,-4.06
15873.47,-4.28
16032.20,-4.50
16192.52,-4.70
16354.45,-4.89
16517.99,-5.11
16683.17,-5.30
16850.01,-5.56
17018.51,-5.83
17188.69,-6.19
17360.58,-6.63
17534.18,-7.15
17709.53,-7.79
17886.62,-8.54
18065.49,-9.38
18246.14,-10.31
18428.60,-11.29
18612.89,-12.32
18799.02,-13.36
18987.01,-14.33
19176.88,-15.22
19368.65,-15.91
19562.33,-16.55
19757.96,-16.98
19955.54,-17.20
