frequency,raw
20.00,8.68
20.20,8.69
20.40,8.71
20.61,8.72
20.81,8.74
21.02,8.75
21.23,8.77
21.44,8.79
21.66,8.80
21.87,8.82
22.09,8.84
22.31,8.85
22.54,8.87
22.76,8.88
22.99,8.90
23.22,8.91
23.45,8.93
23.69,8.94
23.92,8.96
24.16,8.97
24.40,8.98
24.65,9.00
24.89,9.01
25.14,9.03
25.39,9.04
25.65,9.05
25.91,9.06
26.16,9.07
26.43,9.08
26.69,9.09
26.96,9.11
27.23,9.12
27.50,9.13
27.77,9.13
28.05,9.14
28.33,9.15
28.62,9.15
28.90,9.16
29.19,9.16
29.48,9.17
29.78,9.18
30.08,9.18
30.38,9.18
30.68,9.18
30.99,9.18
31.30,9.17
31.61,9.17
31.93,9.16
32.24,9.15
32.57,9.14
32.89,9.12
33.22,9.11
33.55,9.10
33.89,9.09
34.23,9.08
34.57,9.07
34.92,9.05
35.27,9.04
35.62,9.03
35.97,9.01
36.33,9.00
36.70,8.98
37.06,8.97
37.43,8.95
37.81,8.93
38.19,8.91
38.57,8.89
38.95,8.87
39.34,8.85
39.74,8.83
40.14,8.81
40.54,8.79
40.94,8.77
41.35,8.75
41.76,8.73
42.18,8.71
42.60,8.68
43.03,8.66
43.46,8.64
43.90,8.62
44.33,8.59
44.78,8.57
45.23,8.55
45.68,8.52
46.13,8.49
46.60,8.47
47.06,8.45
47.53,8.42
48.01,8.39
48.49,8.36
48.97,8.33
49.46,8.31
49.96,8.28
50.46,8.25
50.96,8.22
51.47,8.20
51.99,8.17
52.51,8.14
53.03,8.12
53.56,8.09
54.10,8.07
54.64,8.04
55.18,8.01
55.74,7.98
56.29,7.95
56.86,7.93
57.42,7.90
58.00,7.87
58.58,7.85
59.16,7.82
59.76,7.80
60.35,7.78
60.96,7.76
61.57,7.75
62.18,7.74
62.80,7.72
63.43,7.72
64.07,7.72
64.71,7.70
65.35,7.68
66.01,7.66
66.67,7.63
67.33,7.61
68.01,7.59
68.69,7.56
69.37,7.54
70.07,7.52
70.77,7.50
71.48,7.50
72.19,7.49
72.91,7.49
73.64,7.50
74.38,7.50
75.12,7.50
75.87,7.50
76.63,7.49
77.40,7.48
78.17,7.48
78.95,7.49
79.74,7.50
80.54,7.51
81.35,7.52
82.16,7.53
82.98,7.54
83.81,7.55
84.65,7.56
85.50,7.56
86.35,7.56
87.22,7.57
88.09,7.58
88.97,7.60
89.86,7.60
90.76,7.61
91.66,7.62
92.58,7.63
93.51,7.64
94.44,7.64
95.39,7.63
96.34,7.64
97.30,7.65
98.28,7.63
99.26,7.61
100.25,7.59
101.25,7.55
102.27,7.52
103.29,7.48
104.32,7.45
105.37,7.42
106.42,7.39
107.48,7.36
108.56,7.32
109.64,7.28
110.74,7.24
111.85,7.18
112.97,7.13
114.10,7.07
115.24,7.01
116.39,6.94
117.55,6.87
118.73,6.80
119.92,6.75
121.12,6.70
122.33,6.65
123.55,6.60
124.79,6.54
126.03,6.46
127.29,6.37
128.57,6.27
129.85,6.16
131.15,6.07
132.46,5.98
133.79,5.91
135.12,5.85
136.48,5.78
137.84,5.70
139.22,5.61
140.61,5.52
142.02,5.42
143.44,5.33
144.87,5.25
146.32,5.17
147.78,5.11
149.26,5.04
150.75,4.97
152.26,4.89
153.78,4.80
155.32,4.69
156.88,4.60
158.44,4.50
160.03,4.41
161.63,4.33
163.24,4.25
164.88,4.17
166.53,4.08
168.19,3.98
169.87,3.88
171.57,3.77
173.29,3.66
175.02,3.56
176.77,3.44
178.54,3.34
180.32,3.24
182.13,3.14
183.95,3.04
185.79,2.96
187.65,2.88
189.52,2.78
191.42,2.66
193.33,2.53
195.27,2.40
197.22,2.26
199.19,2.12
201.18,1.98
203.19,1.84
205.23,1.71
207.28,1.58
209.35,1.45
211.44,1.32
213.56,1.20
215.69,1.08
217.85,0.96
220.03,0.83
222.23,0.69
224.45,0.54
226.70,0.39
228.96,0.23
231.25,0.09
233.57,-0.05
235.90,-0.19
238.26,-0.33
240.64,-0.47
243.05,-0.61
245.48,-0.75
247.93,-0.89
250.41,-1.03
252.92,-1.17
255.45,-1.31
258.00,-1.45
260.58,-1.60
263.19,-1.74
265.82,-1.87
268.48,-2.01
271.16,-2.15
273.87,-2.28
276.61,-2.41
279.38,-2.54
282.17,-2.67
284.99,-2.80
287.84,-2.91
290.72,-3.03
293.63,-3.14
296.57,-3.24
299.53,-3.34
302.53,-3.44
305.55,-3.53
308.61,-3.61
311.69,-3.68
314.81,-3.75
317.96,-3.81
321.14,-3.87
324.35,-3.91
327.59,-3.95
330.87,-3.97
334.18,-3.99
337.52,-4.02
340.90,-4.02
344.30,-4.03
347.75,-4.02
351.23,-4.01
354.74,-4.01
358.28,-4.03
361.87,-4.03
365.49,-4.02
369.14,-4.01
372.83,-4.00
376.56,-3.97
380.33,-3.94
384.13,-3.91
387.97,-3.86
391.85,-3.82
395.77,-3.78
399.73,-3.73
403.72,-3.68
407.76,-3.63
411.84,-3.57
415.96,-3.51
420.12,-3.46
424.32,-3.41
428.56,-3.36
432.85,-3.30
437.18,-3.25
441.55,-3.20
445.96,-3.16
450.42,-3.10
454.93,-3.03
459.48,-2.95
464.07,-2.86
468.71,-2.77
473.40,-2.70
478.13,-2.64
482.91,-2.60
487.74,-2.57
492.62,-2.54
497.55,-2.49
502.52,-2.45
507.55,-2.40
512.62,-2.35
517.75,-2.29
522.93,-2.24
528.16,-2.20
533.44,-2.15
538.77,-2.10
544.16,-2.06
549.60,-2.02
555.10,-1.97
560.65,-1.92
566.25,-1.87
571.92,-1.83
577.64,-1.78
583.41,-1.73
589.25,-1.69
595.14,-1.65
601.09,-1.61
607.10,-1.58
613.17,-1.54
619.30,-1.51
625.50,-1.47
631.75,-1.44
638.07,-1.40
644.45,-1.37
650.89,-1.34
657.40,-1.31
663.98,-1.28
670.62,-1.25
677.32,-1.21
684.10,-1.18
690.94,-1.15
697.85,-1.12
704.83,-1.10
711.87,-1.07
718.99,-1.05
726.18,-1.02
733.44,-0.98
740.78,-0.93
748.19,-0.89
755.67,-0.85
763.23,-0.82
770.86,-0.80
778.57,-0.78
786.35,-0.76
794.22,-0.74
802.16,-0.74
810.18,-0.72
818.28,-0.71
826.46,-0.70
834.73,-0.68
843.08,-0.65
851.51,-0.61
860.02,-0.56
868.62,-0.51
877.31,-0.47
886.08,-0.44
894.94,-0.41
903.89,-0.38
912.93,-0.35
922.06,-0.32
931.28,-0.30
940.59,-0.27
950.00,-0.23
959.50,-0.20
969.09,-0.15
978.78,-0.10
988.57,-0.05
998.46,-0.01
1008.44,0.04
1018.53,0.08
1028.71,0.11
1039.00,0.14
1049.39,0.16
1059.88,0.18
1070.48,0.21
1081.19,0.23
1092.00,0.26
1102.92,0.29
1113.95,0.33
1125.09,0.38
1136.34,0.43
1147.70,0.49
1159.18,0.56
1170.77,0.64
1182.48,0.73
1194.30,0.81
1206.25,0.89
1218.31,0.95
1230.49,0.98
1242.80,1.01
1255.22,1.00
1267.78,0.99
1280.45,0.97
1293.26,0.95
1306.19,0.92
1319.25,0.89
1332.45,0.86
1345.77,0.86
1359.23,0.87
1372.82,0.90
1386.55,0.96
1400.41,1.02
1414.42,1.09
1428.56,1.16
1442.85,1.21
1457.28,1.23
1471.85,1.23
1486.57,1.21
1501.43,1.18
1516.45,1.14
1531.61,1.10
1546.93,1.07
1562.40,1.04
1578.02,1.04
1593.80,1.06
1609.74,1.08
1625.84,1.15
1642.10,1.25
1658.52,1.35
1675.10,1.46
1691.85,1.57
1708.77,1.65
1725.86,1.71
1743.12,1.74
1760.55,1.77
1778.15,1.80
1795.94,1.82
1813.90,1.83
1832.03,1.82
1850.36,1.80
1868.86,1.79
1887.55,1.77
1906.42,1.75
1925.49,1.73
1944.74,1.72
1964.19,1.70
1983.83,1.68
2003.67,1.67
2023.71,1.67
2043.94,1.67
2064.38,1.68
2085.03,1.67
2105.88,1.67
2126.94,1.67
2148.20,1.67
2169.69,1.67
2191.38,1.67
2213.30,1.68
2235.43,1.69
2257.78,1.71
2280.36,1.71
2303.17,1.69
2326.20,1.66
2349.46,1.62
2372.95,1.58
2396.68,1.58
2420.65,1.59
2444.86,1.61
2469.31,1.67
2494.00,1.72
2518.94,1.76
2544.13,1.79
2569.57,1.78
2595.27,1.76
2621.22,1.71
2647.43,1.63
2673.90,1.53
2700.64,1.42
2727.65,1.26
2754.93,1.09
2782.48,0.88
2810.30,0.62
2838.40,0.32
2866.79,-0.06
2895.46,-0.54
2924.41,-1.09
2953.65,-1.71
2983.19,-2.42
3013.02,-3.20
3043.15,-4.01
3073.58,-4.88
3104.32,-5.81
3135.36,-6.77
3166.72,-7.78
3198.38,-8.80
3230.37,-9.79
3262.67,-10.76
3295.30,-11.65
3328.25,-12.46
3361.53,-13.17
3395.15,-13.66
3429.10,-13.88
3463.39,-13.86
3498.03,-13.44
3533.01,-12.74
3568.34,-11.87
3604.02,-10.88
3640.06,-9.86
3676.46,-8.84
3713.22,-7.85
3750.36,-6.90
3787.86,-5.99
3825.74,-5.13
3864.00,-4.37
3902.64,-3.70
3941.66,-3.12
3981.08,-2.68
4020.89,-2.34
4061.10,-2.08
4101.71,-1.92
4142.73,-1.84
4184.15,-1.84
4226.00,-1.90
4268.26,-2.00
4310.94,-2.10
4354.05,-2.17
4397.59,-2.17
4441.56,-2.09
4485.98,-1.91
4530.84,-1.60
4576.15,-1.18
4621.91,-0.70
4668.13,-0.17
4714.81,0.34
4761.96,0.78
4809.58,1.11
4857.67,1.24
4906.25,1.22
4955.31,1.02
5004.87,0.63
5054.91,0.11
5105.46,-0.53
5156.52,-1.27
5208.08,-2.07
5260.16,-2.93
5312.77,-3.85
5365.89,-4.81
5419.55,-5.78
5473.75,-6.70
5528.49,-7.48
5583.77,-8.11
5639.61,-8.48
5696.00,-8.60
5752.96,-8.56
5810.49,-8.38
5868.60,-8.13
5927.28,-7.90
5986.56,-7.70
6046.42,-7.57
6106.89,-7.54
6167.96,-7.63
6229.64,-7.90
6291.93,-8.40
6354.85,-9.06
6418.40,-9.93
6482.58,-10.93
6547.41,-11.95
6612.88,-12.92
6679.01,-13.65
6745.80,-14.13
6813.26,-14.29
6881.39,-14.09
6950.21,-13.63
7019.71,-12.97
7089.91,-12.17
7160.81,-11.30
7232.41,-10.44
7304.74,-9.64
7377.79,-8.88
7451.56,-8.12
7526.08,-7.34
7601.34,-6.47
7677.35,-5.54
7754.13,-4.54
7831.67,-3.53
7909.98,-2.53
7989.08,-1.57
8068.98,-0.72
8149.67,0.03
8231.16,0.66
8313.47,1.07
8396.61,1.27
8480.57,1.32
8565.38,1.20
8651.03,0.98
8737.54,0.70
8824.92,0.39
8913.17,0.22
9002.30,0.01
9092.32,-0.40
9183.25,-0.72
9275.08,-0.94
9367.83,-1.59
9461.51,-2.39
9556.12,-3.10
9651.68,-3.76
9748.20,-4.44
9845.68,-5.17
9944.14,-5.94
10043.58,-6.75
10144.02,-7.56
10245.46,-8.30
10347.91,-8.95
10451.39,-9.41
10555.91,-9.64
10661.46,-9.61
10768.08,-9.37
10875.76,-9.05
10984.52,-8.73
11094.36,-8.47
11205.31,-8.25
11317.36,-7.99
11430.53,-7.71
11544.84,-7.97
11660.29,-8.51
11776.89,-8.51
11894.66,-8.72
12013.60,-9.23
12133.74,-9.56
12255.08,-10.22
12377.63,-11.09
12501.41,-12.03
12626.42,-13.02
12752.68,-13.99
12880.21,-14.88
13009.01,-15.55
13139.10,-16.05
13270.49,-16.30
13403.20,-16.23
13537.23,-15.97
13672.60,-15.59
13809.33,-15.19
13947.42,-14.72
14086.90,-14.18
14227.77,-13.62
14370.04,-13.05
14513.74,-12.52
14658.88,-12.04
14805.47,-11.67
14953.52,-11.37
15103.06,-11.15
15254.09,-10.98
15406.63,-10.84
15560.70,-10.72
15716.30,-10.62
15873.47,-10.55
16032.20,-10.48
16192.52,-10.45
16354.45,-10.42
16517.99,-10.39
16683.17,-10.36
16850.01,-10.38
17018.51,-10.47
17188.69,-10.63
17360.58,-11.05
17534.18,-11.72
17709.53,-12.61
17886.62,-13.76
18065.49,-15.02
18246.14,-16.25
18428.60,-17.34
18612.89,-18.12
18799.02,-18.68
18987.01,-18.99
19176.88,-19.15
19368.65,-19.27
19562.33,-19.39
19757.96,-19.58
19955.54,-19.79
