frequency,raw,error,smoothed,error_smoothed,equalization,parametric_eq,equalized_raw,equalized_smoothed,target
20,-5.95,-3.59,-5.96,-3.61,3.61,-0.71,-2.34,-2.35,-2.35
21,-5.27,-2.91,-5.25,-2.90,2.90,-0.79,-2.37,-2.35,-2.35
22,-4.57,-2.22,-4.58,-2.23,2.23,-0.88,-2.34,-2.35,-2.35
23,-3.91,-1.55,-3.94,-1.59,1.59,-0.97,-2.32,-2.35,-2.35
24,-3.44,-1.09,-3.34,-0.99,0.99,-1.07,-2.45,-2.35,-2.35
25,-2.81,-0.46,-2.77,-0.42,0.42,-1.18,-2.39,-2.35,-2.35
26,-2.23,0.12,-2.24,0.11,-0.11,-1.30,-2.34,-2.35,-2.35
27,-1.70,0.65,-1.75,0.60,-0.60,-1.43,-2.30,-2.35,-2.35
28,-1.20,1.15,-1.30,1.05,-1.05,-1.56,-2.25,-2.35,-2.35
29,-0.96,1.39,-0.89,1.46,-1.46,-1.71,-2.42,-2.35,-2.35
30,-0.51,1.85,-0.53,1.82,-1.82,-1.87,-2.33,-2.35,-2.35
31,-0.13,2.22,-0.20,2.15,-2.15,-2.05,-2.28,-2.35,-2.35
32,0.16,2.51,0.10,2.45,-2.45,-2.23,-2.29,-2.35,-2.35
33,0.38,2.73,0.38,2.73,-2.73,-2.44,-2.35,-2.35,-2.35
34,0.60,2.95,0.65,3.00,-3.00,-2.67,-2.40,-2.35,-2.35
35,0.82,3.17,0.92,3.27,-3.27,-2.91,-2.45,-2.35,-2.35
36,1.26,3.61,1.19,3.54,-3.54,-3.18,-2.29,-2.35,-2.35
37,1.29,3.64,1.48,3.83,-3.83,-3.48,-2.55,-2.35,-2.35
38,1.75,4.10,1.78,4.13,-4.13,-3.80,-2.38,-2.35,-2.35
39,2.15,4.51,2.10,4.45,-4.45,-4.15,-2.30,-2.35,-2.35
40,2.41,4.76,2.43,4.78,-4.78,-4.53,-2.37,-2.35,-2.35
41,2.83,5.19,2.76,5.11,-5.11,-4.93,-2.28,-2.35,-2.35
42,3.02,5.37,3.08,5.44,-5.44,-5.35,-2.42,-2.35,-2.35
43,3.30,5.65,3.40,5.75,-5.75,-5.78,-2.45,-2.35,-2.35
44,3.76,6.11,3.69,6.04,-6.04,-6.19,-2.28,-2.35,-2.35
45,3.99,6.35,3.96,6.31,-6.31,-6.57,-2.31,-2.35,-2.35
46,4.22,6.58,4.18,6.54,-6.54,-6.90,-2.31,-2.35,-2.35
47,4.45,6.81,4.37,6.73,-6.73,-7.16,-2.27,-2.35,-2.35
48,4.50,6.85,4.52,6.87,-6.87,-7.34,-2.37,-2.35,-2.35
49,4.69,7.04,4.63,6.98,-6.98,-7.43,-2.29,-2.35,-2.35
50,4.69,7.04,4.69,7.05,-7.05,-7.44,-2.36,-2.35,-2.35
51,4.69,7.04,4.72,7.08,-7.08,-7.40,-2.39,-2.35,-2.35
52,4.69,7.04,4.72,7.07,-7.07,-7.32,-2.39,-2.35,-2.35
53,4.69,7.04,4.69,7.04,-7.04,-7.22,-2.36,-2.35,-2.35
54,4.69,7.04,4.64,6.99,-6.99,-7.11,-2.31,-2.35,-2.35
55,4.68,7.04,4.57,6.93,-6.93,-7.01,-2.24,-2.35,-2.35
56,4.46,6.81,4.50,6.85,-6.85,-6.91,-2.40,-2.35,-2.35
57,4.46,6.81,4.42,6.77,-6.77,-6.84,-2.32,-2.35,-2.35
58,4.23,6.58,4.35,6.70,-6.70,-6.78,-2.47,-2.35,-2.35
59,4.23,6.58,4.28,6.64,-6.64,-6.74,-2.41,-2.35,-2.35
60,4.23,6.58,4.23,6.58,-6.58,-6.72,-2.36,-2.35,-2.35
61,4.23,6.58,4.20,6.55,-6.55,-6.71,-2.32,-2.35,-2.35
62,4.23,6.58,4.18,6.54,-6.54,-6.72,-2.31,-2.35,-2.35
63,4.23,6.58,4.19,6.54,-6.54,-6.75,-2.32,-2.35,-2.35
64,4.23,6.58,4.22,6.57,-6.57,-6.78,-2.34,-2.35,-2.35
65,4.23,6.58,4.28,6.63,-6.63,-6.83,-2.40,-2.35,-2.35
66,4.23,6.59,4.36,6.72,-6.72,-6.89,-2.48,-2.35,-2.35
67,4.46,6.82,4.47,6.83,-6.83,-6.96,-2.36,-2.35,-2.35
68,4.69,7.04,4.61,6.96,-6.96,-7.04,-2.27,-2.35,-2.35
69,4.71,7.06,4.76,7.12,-7.12,-7.13,-2.41,-2.35,-2.35
70,4.90,7.25,4.93,7.29,-7.29,-7.22,-2.39,-2.35,-2.35
71,5.11,7.47,5.11,7.46,-7.46,-7.31,-2.35,-2.35,-2.35
72,5.33,7.69,5.29,7.65,-7.65,-7.41,-2.31,-2.35,-2.35
73,5.54,7.89,5.47,7.82,-7.82,-7.52,-2.28,-2.35,-2.35
74,5.75,8.10,5.64,7.99,-7.99,-7.63,-2.24,-2.35,-2.35
75,5.74,8.09,5.80,8.15,-8.15,-7.74,-2.41,-2.35,-2.35
76,5.80,8.15,5.95,8.30,-8.30,-7.86,-2.50,-2.35,-2.35
77,6.14,8.49,6.08,8.43,-8.43,-7.97,-2.30,-2.35,-2.35
78,6.25,8.60,6.21,8.56,-8.56,-8.09,-2.31,-2.35,-2.35
79,6.41,8.76,6.32,8.68,-8.68,-8.21,-2.27,-2.35,-2.35
80,6.40,8.75,6.43,8.78,-8.78,-8.32,-2.39,-2.35,-2.35
81,6.53,8.88,6.53,8.88,-8.88,-8.44,-2.36,-2.35,-2.35
82,6.59,8.94,6.63,8.98,-8.98,-8.56,-2.39,-2.35,-2.35
83,6.67,9.03,6.72,9.07,-9.07,-8.67,-2.40,-2.35,-2.35
84,6.78,9.13,6.81,9.16,-9.16,-8.78,-2.38,-2.35,-2.35
85,6.98,9.34,6.89,9.24,-9.24,-8.89,-2.25,-2.35,-2.35
86,6.97,9.32,6.96,9.31,-9.31,-9.00,-2.35,-2.35,-2.35
87,6.95,9.31,7.03,9.38,-9.38,-9.11,-2.43,-2.35,-2.35
88,7.17,9.52,7.09,9.45,-9.45,-9.21,-2.27,-2.35,-2.35
89,7.16,9.52,7.15,9.50,-9.50,-9.30,-2.34,-2.35,-2.35
90,7.16,9.51,7.20,9.55,-9.55,-9.40,-2.39,-2.35,-2.35
91,7.17,9.52,7.24,9.59,-9.59,-9.48,-2.43,-2.35,-2.35
92,7.37,9.72,7.28,9.63,-9.63,-9.56,-2.26,-2.35,-2.35
93,7.35,9.70,7.31,9.66,-9.66,-9.64,-2.31,-2.35,-2.35
94,7.34,9.69,7.33,9.69,-9.69,-9.71,-2.35,-2.35,-2.35
95,7.32,9.67,7.36,9.71,-9.71,-9.78,-2.40,-2.35,-2.35
96,7.30,9.65,7.38,9.73,-9.73,-9.83,-2.44,-2.35,-2.35
97,7.38,9.73,7.40,9.75,-9.75,-9.89,-2.38,-2.35,-2.35
98,7.48,9.84,7.42,9.77,-9.77,-9.93,-2.29,-2.36,-2.36
99,7.46,9.82,7.43,9.78,-9.78,-9.97,-2.32,-2.36,-2.36
100,7.44,9.80,7.43,9.79,-9.79,-10.00,-2.35,-2.36,-2.36
101,7.43,9.78,7.43,9.79,-9.79,-10.02,-2.36,-2.36,-2.36
102,7.41,9.76,7.42,9.78,-9.78,-10.04,-2.37,-2.36,-2.36
104,7.39,9.74,7.40,9.76,-9.76,-10.05,-2.37,-2.36,-2.36
105,7.36,9.72,7.37,9.73,-9.73,-10.05,-2.36,-2.36,-2.36
106,7.34,9.69,7.33,9.68,-9.68,-10.04,-2.35,-2.36,-2.36
107,7.31,9.67,7.28,9.63,-9.63,-10.02,-2.33,-2.36,-2.36
108,7.28,9.64,7.22,9.58,-9.58,-10.00,-2.30,-2.35,-2.35
109,7.25,9.61,7.17,9.52,-9.52,-9.97,-2.27,-2.35,-2.35
110,7.00,9.36,7.11,9.46,-9.46,-9.94,-2.46,-2.35,-2.35
111,6.98,9.33,7.06,9.41,-9.41,-9.90,-2.43,-2.35,-2.35
112,6.96,9.31,7.01,9.36,-9.36,-9.85,-2.40,-2.35,-2.35
113,6.95,9.29,6.97,9.32,-9.32,-9.80,-2.37,-2.34,-2.34
114,6.94,9.28,6.94,9.28,-9.28,-9.75,-2.34,-2.34,-2.34
115,6.93,9.27,6.90,9.24,-9.24,-9.69,-2.31,-2.33,-2.33
117,6.93,9.26,6.87,9.20,-9.20,-9.57,-2.27,-2.33,-2.33
118,6.91,9.23,6.82,9.15,-9.15,-9.50,-2.24,-2.32,-2.32
119,6.71,9.02,6.77,9.09,-9.09,-9.43,-2.38,-2.32,-2.32
120,6.71,9.02,6.71,9.02,-9.02,-9.36,-2.31,-2.31,-2.31
121,6.72,9.02,6.65,8.95,-8.95,-9.28,-2.23,-2.30,-2.30
123,6.50,8.79,6.58,8.88,-8.88,-9.12,-2.38,-2.30,-2.30
124,6.50,8.79,6.52,8.81,-8.81,-9.04,-2.31,-2.29,-2.29
125,6.51,8.79,6.46,8.74,-8.74,-8.96,-2.23,-2.28,-2.28
126,6.36,8.64,6.41,8.68,-8.68,-8.88,-2.32,-2.28,-2.28
128,6.29,8.56,6.36,8.63,-8.63,-8.71,-2.34,-2.27,-2.27
129,6.29,8.55,6.32,8.58,-8.58,-8.63,-2.29,-2.26,-2.26
130,6.30,8.55,6.28,8.53,-8.53,-8.54,-2.23,-2.25,-2.25
131,6.30,8.54,6.23,8.48,-8.48,-8.45,-2.18,-2.24,-2.24
133,6.30,8.53,6.18,8.42,-8.42,-8.28,-2.12,-2.24,-2.24
134,6.12,8.35,6.13,8.36,-8.36,-8.20,-2.24,-2.23,-2.23
135,6.07,8.29,6.07,8.29,-8.29,-8.11,-2.22,-2.22,-2.22
137,5.99,8.21,6.01,8.23,-8.23,-7.94,-2.23,-2.22,-2.22
138,5.84,8.05,5.95,8.16,-8.16,-7.86,-2.32,-2.21,-2.21
140,5.84,8.04,5.90,8.10,-8.10,-7.69,-2.27,-2.21,-2.21
141,5.84,8.04,5.85,8.05,-8.05,-7.61,-2.21,-2.20,-2.20
142,5.84,8.03,5.80,8.00,-8.00,-7.53,-2.16,-2.20,-2.20
144,5.81,8.01,5.75,7.94,-7.94,-7.37,-2.13,-2.19,-2.19
145,5.63,7.82,5.68,7.87,-7.87,-7.29,-2.24,-2.19,-2.19
147,5.61,7.80,5.60,7.79,-7.79,-7.13,-2.18,-2.19,-2.19
148,5.55,7.73,5.50,7.68,-7.68,-7.05,-2.13,-2.18,-2.18
150,5.38,7.56,5.37,7.56,-7.56,-6.90,-2.17,-2.18,-2.18
151,5.25,7.43,5.22,7.40,-7.40,-6.83,-2.16,-2.18,-2.18
153,5.13,7.31,5.05,7.23,-7.23,-6.68,-2.10,-2.18,-2.18
154,4.95,7.13,4.86,7.03,-7.03,-6.61,-2.08,-2.18,-2.18
156,4.61,6.79,4.66,6.84,-6.84,-6.47,-2.23,-2.18,-2.18
157,4.44,6.61,4.46,6.64,-6.64,-6.40,-2.20,-2.18,-2.18
159,4.22,6.40,4.28,6.46,-6.46,-6.27,-2.24,-2.18,-2.18
160,4.16,6.33,4.13,6.31,-6.31,-6.21,-2.15,-2.18,-2.18
162,3.98,6.16,4.01,6.19,-6.19,-6.08,-2.21,-2.18,-2.18
164,3.75,5.92,3.93,6.10,-6.10,-5.95,-2.36,-2.18,-2.18
165,3.74,5.91,3.87,6.05,-6.05,-5.89,-2.31,-2.17,-2.17
167,3.78,5.95,3.84,6.01,-6.01,-5.77,-2.24,-2.17,-2.17
169,3.95,6.12,3.82,5.99,-5.99,-5.66,-2.04,-2.17,-2.17
170,3.94,6.11,3.80,5.97,-5.97,-5.60,-2.03,-2.17,-2.17
172,3.94,6.10,3.77,5.93,-5.93,-5.49,-2.00,-2.16,-2.16
174,3.72,5.88,3.73,5.89,-5.89,-5.39,-2.17,-2.16,-2.16
175,3.71,5.86,3.67,5.82,-5.82,-5.34,-2.12,-2.15,-2.15
177,3.49,5.64,3.60,5.74,-5.74,-5.24,-2.25,-2.15,-2.15
179,3.48,5.62,3.51,5.66,-5.66,-5.14,-2.18,-2.14,-2.14
181,3.37,5.50,3.43,5.56,-5.56,-5.04,-2.20,-2.13,-2.13
183,3.26,5.39,3.34,5.46,-5.46,-4.95,-2.20,-2.13,-2.13
184,3.27,5.39,3.24,5.36,-5.36,-4.91,-2.09,-2.12,-2.12
186,3.28,5.39,3.14,5.25,-5.25,-4.82,-1.97,-2.11,-2.11
188,3.08,5.18,3.03,5.13,-5.13,-4.74,-2.05,-2.10,-2.10
190,2.84,4.93,2.90,5.00,-5.00,-4.65,-2.16,-2.09,-2.09
192,2.77,4.86,2.77,4.85,-4.85,-4.58,-2.08,-2.08,-2.08
194,2.63,4.70,2.62,4.70,-4.70,-4.50,-2.07,-2.07,-2.07
196,2.47,4.53,2.47,4.54,-4.54,-4.43,-2.07,-2.07,-2.07
198,2.41,4.46,2.32,4.38,-4.38,-4.35,-1.97,-2.06,-2.06
200,2.17,4.22,2.17,4.22,-4.22,-4.29,-2.05,-2.05,-2.05
202,1.95,3.99,2.04,4.08,-4.08,-4.22,-2.13,-2.04,-2.04
204,1.87,3.90,1.91,3.94,-3.94,-4.16,-2.08,-2.03,-2.03
206,1.71,3.74,1.80,3.83,-3.83,-4.09,-2.11,-2.02,-2.02
208,1.71,3.73,1.70,3.72,-3.72,-4.04,-2.01,-2.02,-2.02
210,1.71,3.72,1.62,3.63,-3.63,-3.98,-1.92,-2.01,-2.01
212,1.53,3.53,1.54,3.54,-3.54,-3.92,-2.01,-2.00,-2.00
214,1.48,3.47,1.46,3.46,-3.46,-3.87,-1.98,-2.00,-2.00
216,1.47,3.46,1.39,3.38,-3.38,-3.82,-1.91,-1.99,-1.99
218,1.24,3.22,1.31,3.30,-3.30,-3.77,-2.06,-1.98,-1.98
221,1.23,3.21,1.24,3.22,-3.22,-3.70,-1.99,-1.98,-1.98
223,1.22,3.19,1.17,3.14,-3.14,-3.66,-1.91,-1.97,-1.97
225,1.07,3.03,1.10,3.06,-3.06,-3.62,-1.99,-1.96,-1.96
227,0.98,2.93,1.03,2.98,-2.98,-3.58,-2.00,-1.95,-1.95
229,0.98,2.92,0.97,2.91,-2.91,-3.54,-1.94,-1.95,-1.95
232,0.98,2.91,0.92,2.85,-2.85,-3.48,-1.88,-1.94,-1.94
234,0.94,2.86,0.87,2.80,-2.80,-3.45,-1.86,-1.93,-1.93
236,0.75,2.67,0.84,2.76,-2.76,-3.42,-2.01,-1.92,-1.92
239,0.76,2.66,0.81,2.72,-2.72,-3.37,-1.97,-1.91,-1.91
241,0.76,2.66,0.80,2.70,-2.70,-3.35,-1.93,-1.90,-1.90
244,0.77,2.66,0.79,2.67,-2.67,-3.31,-1.90,-1.89,-1.89
246,0.79,2.66,0.78,2.66,-2.66,-3.29,-1.87,-1.87,-1.87
248,0.81,2.67,0.77,2.63,-2.63,-3.27,-1.83,-1.86,-1.86
251,0.82,2.67,0.75,2.60,-2.60,-3.24,-1.78,-1.85,-1.85
253,0.79,2.63,0.72,2.57,-2.57,-3.22,-1.77,-1.84,-1.84
256,0.62,2.45,0.68,2.51,-2.51,-3.20,-1.90,-1.83,-1.83
259,0.62,2.44,0.63,2.45,-2.45,-3.18,-1.83,-1.82,-1.82
261,0.62,2.43,0.57,2.38,-2.38,-3.17,-1.75,-1.81,-1.81
264,0.59,2.39,0.50,2.30,-2.30,-3.16,-1.70,-1.80,-1.80
266,0.39,2.17,0.43,2.22,-2.22,-3.15,-1.83,-1.78,-1.78
269,0.37,2.15,0.37,2.14,-2.14,-3.15,-1.77,-1.77,-1.77
272,0.37,2.13,0.33,2.09,-2.09,-3.15,-1.73,-1.76,-1.76
274,0.36,2.12,0.32,2.08,-2.08,-3.15,-1.72,-1.75,-1.75
277,0.36,2.10,0.37,2.11,-2.11,-3.15,-1.75,-1.74,-1.74
280,0.36,2.09,0.47,2.20,-2.20,-3.16,-1.85,-1.74,-1.74
283,0.58,2.31,0.64,2.36,-2.36,-3.17,-1.78,-1.73,-1.73
286,0.70,2.42,0.88,2.59,-2.59,-3.19,-1.89,-1.72,-1.72
288,0.97,2.68,1.18,2.89,-2.89,-3.20,-1.92,-1.71,-1.71
291,1.42,3.12,1.53,3.23,-3.23,-3.23,-1.81,-1.70,-1.70
294,1.89,3.58,1.90,3.59,-3.59,-3.25,-1.70,-1.69,-1.69
297,2.37,4.05,2.26,3.95,-3.95,-3.28,-1.58,-1.68,-1.68
300,2.69,4.36,2.59,4.26,-4.26,-3.32,-1.58,-1.68,-1.68
303,3.05,4.72,2.85,4.52,-4.52,-3.35,-1.46,-1.67,-1.67
306,3.27,4.93,3.03,4.69,-4.69,-3.39,-1.42,-1.66,-1.66
309,3.26,4.91,3.13,4.78,-4.78,-3.43,-1.52,-1.65,-1.65
312,3.25,4.89,3.15,4.79,-4.79,-3.48,-1.55,-1.65,-1.65
316,3.04,4.68,3.10,4.74,-4.74,-3.53,-1.70,-1.64,-1.64
319,2.77,4.41,3.00,4.63,-4.63,-3.58,-1.86,-1.63,-1.63
322,2.76,4.38,2.87,4.50,-4.50,-3.62,-1.75,-1.63,-1.63
325,2.74,4.36,2.73,4.35,-4.35,-3.66,-1.62,-1.62,-1.62
328,2.67,4.29,2.59,4.20,-4.20,-3.70,-1.53,-1.61,-1.61
332,2.46,4.07,2.45,4.06,-4.06,-3.75,-1.60,-1.61,-1.61
335,2.29,3.90,2.33,3.93,-3.93,-3.78,-1.63,-1.60,-1.60
338,2.19,3.78,2.21,3.81,-3.81,-3.81,-1.63,-1.60,-1.60
342,2.16,3.75,2.11,3.71,-3.71,-3.83,-1.55,-1.59,-1.59
345,1.92,3.51,2.03,3.62,-3.62,-3.85,-1.70,-1.59,-1.59
349,1.90,3.49,1.96,3.54,-3.54,-3.85,-1.64,-1.58,-1.58
352,1.89,3.47,1.90,3.48,-3.48,-3.84,-1.59,-1.58,-1.58
356,1.88,3.45,1.85,3.42,-3.42,-3.82,-1.55,-1.58,-1.58
359,1.86,3.44,1.80,3.37,-3.37,-3.80,-1.51,-1.57,-1.57
363,1.85,3.42,1.75,3.32,-3.32,-3.76,-1.47,-1.57,-1.57
366,1.65,3.22,1.70,3.27,-3.27,-3.71,-1.62,-1.57,-1.57
370,1.60,3.17,1.65,3.21,-3.21,-3.65,-1.61,-1.57,-1.57
374,1.60,3.16,1.59,3.16,-3.16,-3.57,-1.56,-1.56,-1.56
377,1.59,3.15,1.54,3.10,-3.10,-3.51,-1.51,-1.56,-1.56
381,1.48,3.04,1.49,3.04,-3.04,-3.43,-1.57,-1.56,-1.56
385,1.36,2.91,1.43,2.99,-2.99,-3.33,-1.63,-1.55,-1.55
389,1.35,2.90,1.38,2.93,-2.93,-3.24,-1.58,-1.55,-1.55
393,1.35,2.89,1.33,2.87,-2.87,-3.14,-1.53,-1.54,-1.54
397,1.34,2.87,1.28,2.81,-2.81,-3.04,-1.48,-1.53,-1.53
401,1.32,2.85,1.23,2.75,-2.75,-2.94,-1.43,-1.52,-1.52
405,1.19,2.70,1.18,2.70,-2.70,-2.84,-1.51,-1.51,-1.51
409,1.07,2.57,1.14,2.64,-2.64,-2.75,-1.57,-1.50,-1.50
413,1.06,2.54,1.11,2.59,-2.59,-2.65,-1.53,-1.48,-1.48
417,1.05,2.51,1.08,2.54,-2.54,-2.56,-1.49,-1.46,-1.46
421,1.05,2.49,1.07,2.50,-2.50,-2.48,-1.45,-1.44,-1.44
425,1.05,2.46,1.05,2.46,-2.46,-2.39,-1.41,-1.41,-1.41
430,1.06,2.44,1.05,2.43,-2.43,-2.29,-1.37,-1.38,-1.38
434,1.08,2.43,1.04,2.39,-2.39,-2.22,-1.31,-1.35,-1.35
438,1.10,2.42,1.04,2.36,-2.36,-2.14,-1.25,-1.31,-1.32
443,1.14,2.42,1.04,2.32,-2.32,-2.06,-1.18,-1.28,-1.28
447,0.96,2.20,1.05,2.29,-2.29,-1.99,-1.33,-1.24,-1.24
451,0.99,2.19,1.06,2.26,-2.26,-1.93,-1.27,-1.20,-1.20
456,1.04,2.20,1.08,2.24,-2.24,-1.86,-1.20,-1.16,-1.16
460,1.09,2.20,1.11,2.23,-2.23,-1.80,-1.14,-1.12,-1.12
465,1.14,2.21,1.14,2.22,-2.22,-1.73,-1.08,-1.08,-1.08
470,1.19,2.22,1.17,2.21,-2.21,-1.67,-1.02,-1.04,-1.04
474,1.23,2.23,1.20,2.20,-2.20,-1.63,-0.97,-1.00,-1.00
479,1.28,2.23,1.22,2.18,-2.18,-1.57,-0.90,-0.96,-0.96
484,1.31,2.24,1.23,2.15,-2.15,-1.52,-0.84,-0.93,-0.92
489,1.27,2.16,1.23,2.12,-2.12,-1.47,-0.85,-0.89,-0.89
494,1.14,2.00,1.22,2.09,-2.09,-1.42,-0.95,-0.87,-0.87
499,1.15,2.00,1.21,2.05,-2.05,-1.38,-0.90,-0.84,-0.84
504,1.16,1.99,1.19,2.02,-2.02,-1.33,-0.85,-0.82,-0.82
509,1.17,1.97,1.18,1.99,-1.99,-1.29,-0.82,-0.81,-0.81
514,1.16,1.96,1.16,1.96,-1.96,-1.26,-0.80,-0.80,-0.80
519,1.15,1.94,1.15,1.94,-1.94,-1.22,-0.79,-0.79,-0.79
524,1.13,1.92,1.13,1.92,-1.92,-1.19,-0.78,-0.79,-0.79
529,1.10,1.89,1.10,1.89,-1.89,-1.15,-0.78,-0.79,-0.79
535,1.06,1.86,1.05,1.84,-1.84,-1.12,-0.78,-0.79,-0.79
540,1.01,1.81,0.99,1.79,-1.79,-1.09,-0.78,-0.80,-0.80
545,0.95,1.76,0.91,1.72,-1.72,-1.06,-0.77,-0.81,-0.81
551,0.89,1.71,0.82,1.64,-1.64,-1.03,-0.75,-0.82,-0.82
556,0.79,1.62,0.73,1.56,-1.56,-1.00,-0.77,-0.83,-0.83
562,0.53,1.37,0.63,1.47,-1.47,-0.98,-0.94,-0.84,-0.84
568,0.47,1.32,0.54,1.39,-1.39,-0.95,-0.92,-0.85,-0.85
573,0.42,1.28,0.46,1.32,-1.32,-0.93,-0.90,-0.86,-0.86
579,0.37,1.24,0.39,1.26,-1.26,-0.90,-0.89,-0.87,-0.87
585,0.33,1.20,0.34,1.21,-1.21,-0.88,-0.88,-0.87,-0.87
591,0.30,1.17,0.30,1.17,-1.17,-0.86,-0.87,-0.87,-0.87
596,0.28,1.14,0.27,1.14,-1.14,-0.84,-0.86,-0.87,-0.87
602,0.26,1.12,0.25,1.10,-1.10,-0.82,-0.84,-0.86,-0.86
608,0.26,1.11,0.22,1.07,-1.07,-0.80,-0.81,-0.85,-0.85
615,0.26,1.09,0.20,1.03,-1.03,-0.77,-0.77,-0.83,-0.83
621,0.27,1.08,0.17,0.99,-0.99,-0.76,-0.72,-0.81,-0.81
627,0.05,0.84,0.15,0.94,-0.94,-0.74,-0.89,-0.79,-0.79
633,0.07,0.83,0.14,0.90,-0.90,-0.72,-0.84,-0.76,-0.76
639,0.08,0.82,0.13,0.87,-0.87,-0.71,-0.78,-0.74,-0.74
646,0.11,0.81,0.13,0.83,-0.83,-0.69,-0.73,-0.71,-0.71
652,0.14,0.81,0.13,0.81,-0.81,-0.67,-0.67,-0.67,-0.67
659,0.18,0.82,0.14,0.78,-0.78,-0.66,-0.61,-0.64,-0.64
665,0.22,0.82,0.15,0.76,-0.76,-0.64,-0.54,-0.61,-0.60
672,0.26,0.83,0.16,0.73,-0.73,-0.63,-0.48,-0.57,-0.57
679,0.08,0.62,0.17,0.71,-0.71,-0.61,-0.63,-0.54,-0.54
686,0.13,0.63,0.18,0.68,-0.68,-0.60,-0.56,-0.50,-0.50
692,0.16,0.63,0.19,0.66,-0.66,-0.58,-0.50,-0.47,-0.47
699,0.18,0.62,0.19,0.63,-0.63,-0.57,-0.45,-0.44,-0.44
706,0.19,0.60,0.18,0.59,-0.59,-0.56,-0.41,-0.41,-0.41
713,0.18,0.57,0.17,0.55,-0.55,-0.54,-0.37,-0.39,-0.39
721,0.17,0.53,0.14,0.50,-0.50,-0.53,-0.34,-0.36,-0.36
728,0.14,0.48,0.10,0.44,-0.44,-0.52,-0.30,-0.34,-0.34
735,0.11,0.43,0.05,0.37,-0.37,-0.50,-0.26,-0.32,-0.32
742,0.07,0.37,-0.01,0.29,-0.29,-0.49,-0.22,-0.30,-0.30
750,-0.13,0.16,-0.08,0.21,-0.21,-0.48,-0.33,-0.29,-0.29
757,-0.22,0.05,-0.14,0.13,-0.13,-0.47,-0.35,-0.27,-0.27
765,-0.25,0.01,-0.20,0.06,-0.06,-0.45,-0.31,-0.26,-0.26
773,-0.27,-0.03,-0.25,-0.00,0.00,-0.44,-0.27,-0.25,-0.25
780,-0.29,-0.05,-0.28,-0.04,0.04,-0.43,-0.24,-0.24,-0.24
788,-0.30,-0.07,-0.30,-0.07,0.07,-0.42,-0.22,-0.23,-0.23
796,-0.30,-0.08,-0.31,-0.09,0.09,-0.40,-0.21,-0.22,-0.22
804,-0.30,-0.09,-0.30,-0.09,0.09,-0.39,-0.21,-0.21,-0.21
812,-0.29,-0.09,-0.29,-0.09,0.09,-0.38,-0.20,-0.20,-0.20
820,-0.29,-0.09,-0.28,-0.09,0.09,-0.36,-0.20,-0.20,-0.20
828,-0.28,-0.09,-0.27,-0.08,0.08,-0.35,-0.20,-0.19,-0.19
837,-0.28,-0.09,-0.27,-0.09,0.09,-0.33,-0.19,-0.18,-0.18
845,-0.27,-0.09,-0.27,-0.10,0.10,-0.32,-0.17,-0.18,-0.18
853,-0.25,-0.08,-0.29,-0.12,0.12,-0.30,-0.14,-0.17,-0.17
862,-0.24,-0.08,-0.31,-0.15,0.15,-0.29,-0.09,-0.16,-0.16
871,-0.23,-0.08,-0.34,-0.19,0.19,-0.27,-0.05,-0.15,-0.15
879,-0.45,-0.31,-0.37,-0.23,0.23,-0.25,-0.23,-0.15,-0.15
888,-0.45,-0.31,-0.40,-0.27,0.27,-0.23,-0.18,-0.14,-0.14
897,-0.45,-0.32,-0.43,-0.30,0.30,-0.21,-0.15,-0.13,-0.13
906,-0.45,-0.32,-0.44,-0.32,0.32,-0.19,-0.13,-0.12,-0.12
915,-0.45,-0.34,-0.43,-0.32,0.32,-0.17,-0.13,-0.11,-0.11
924,-0.45,-0.35,-0.41,-0.30,0.30,-0.14,-0.15,-0.10,-0.10
933,-0.45,-0.36,-0.36,-0.27,0.27,-0.12,-0.18,-0.09,-0.09
943,-0.23,-0.15,-0.31,-0.23,0.23,-0.09,0.00,-0.08,-0.08
952,-0.23,-0.16,-0.25,-0.18,0.18,-0.07,-0.05,-0.07,-0.07
962,-0.23,-0.18,-0.19,-0.13,0.13,-0.03,-0.10,-0.05,-0.05
971,-0.11,-0.07,-0.13,-0.09,0.09,-0.00,-0.02,-0.04,-0.04
981,-0.01,0.02,-0.08,-0.05,0.05,0.03,0.05,-0.02,-0.02
991,-0.01,0.00,-0.03,-0.03,0.03,0.06,0.02,-0.01,-0.01
1001,0.00,-0.01,-0.00,-0.01,0.01,0.10,0.02,0.01,0.01
1011,0.01,-0.02,0.02,-0.01,0.01,0.14,0.02,0.03,0.03
1021,0.02,-0.03,0.04,-0.02,0.02,0.18,0.04,0.06,0.05
1031,0.04,-0.04,0.05,-0.03,0.03,0.21,0.07,0.08,0.08
1041,0.05,-0.05,0.06,-0.05,0.05,0.25,0.10,0.10,0.10
1052,0.06,-0.07,0.06,-0.07,0.07,0.29,0.13,0.13,0.13
1062,0.07,-0.09,0.07,-0.09,0.09,0.32,0.16,0.16,0.16
1073,0.08,-0.11,0.08,-0.11,0.11,0.35,0.19,0.19,0.19
1084,0.09,-0.13,0.09,-0.13,0.13,0.38,0.22,0.22,0.22
1094,0.10,-0.15,0.11,-0.15,0.15,0.40,0.25,0.25,0.25
1105,0.11,-0.17,0.12,-0.17,0.17,0.41,0.28,0.29,0.29
1116,0.13,-0.19,0.13,-0.19,0.19,0.42,0.32,0.32,0.32
1128,0.15,-0.21,0.15,-0.21,0.21,0.41,0.36,0.36,0.36
1139,0.17,-0.22,0.16,-0.23,0.23,0.40,0.40,0.39,0.39
1150,0.18,-0.24,0.17,-0.26,0.26,0.38,0.44,0.42,0.42
1162,0.20,-0.26,0.18,-0.28,0.28,0.35,0.48,0.46,0.46
1173,0.20,-0.29,0.19,-0.30,0.30,0.32,0.50,0.49,0.49
1185,0.20,-0.31,0.20,-0.32,0.32,0.27,0.52,0.52,0.52
1197,0.21,-0.34,0.22,-0.32,0.32,0.22,0.53,0.55,0.55
1209,0.21,-0.37,0.25,-0.32,0.32,0.17,0.53,0.57,0.57
1221,0.21,-0.39,0.28,-0.32,0.32,0.11,0.53,0.60,0.60
1233,0.25,-0.37,0.32,-0.30,0.30,0.05,0.55,0.62,0.62
1246,0.46,-0.18,0.36,-0.28,0.28,-0.01,0.74,0.64,0.64
1258,0.47,-0.18,0.40,-0.26,0.26,-0.07,0.73,0.65,0.65
1271,0.48,-0.19,0.43,-0.23,0.23,-0.14,0.71,0.67,0.67
1283,0.49,-0.19,0.47,-0.21,0.21,-0.20,0.70,0.68,0.68
1296,0.50,-0.18,0.50,-0.18,0.18,-0.26,0.68,0.68,0.68
1309,0.51,-0.18,0.54,-0.14,0.14,-0.32,0.65,0.69,0.69
1322,0.52,-0.17,0.59,-0.09,0.09,-0.38,0.61,0.69,0.69
1335,0.61,-0.08,0.66,-0.03,0.03,-0.44,0.64,0.68,0.68
1349,0.77,0.09,0.73,0.05,-0.05,-0.50,0.72,0.68,0.68
1362,0.78,0.11,0.82,0.15,-0.15,-0.56,0.64,0.67,0.67
1376,0.98,0.31,0.93,0.26,-0.26,-0.62,0.72,0.67,0.67
1390,1.02,0.36,1.05,0.39,-0.39,-0.68,0.63,0.66,0.66
1404,1.25,0.60,1.17,0.52,-0.52,-0.73,0.72,0.65,0.65
1418,1.24,0.60,1.30,0.66,-0.66,-0.79,0.58,0.64,0.64
1432,1.29,0.66,1.44,0.80,-0.80,-0.85,0.49,0.63,0.63
1446,1.55,0.92,1.57,0.94,-0.94,-0.90,0.60,0.63,0.63
1461,1.87,1.25,1.69,1.07,-1.07,-0.96,0.80,0.62,0.62
1475,1.93,1.31,1.80,1.18,-1.18,-1.02,0.74,0.62,0.62
1490,1.93,1.31,1.91,1.29,-1.29,-1.08,0.64,0.62,0.61
1505,1.96,1.35,2.01,1.39,-1.39,-1.14,0.58,0.62,0.62
1520,2.15,1.53,2.11,1.48,-1.48,-1.20,0.67,0.62,0.62
1535,2.15,1.52,2.22,1.59,-1.59,-1.27,0.57,0.63,0.63
1550,2.29,1.64,2.35,1.70,-1.70,-1.33,0.59,0.65,0.65
1566,2.39,1.73,2.49,1.83,-1.83,-1.40,0.57,0.67,0.67
1582,2.62,1.93,2.66,1.97,-1.97,-1.47,0.65,0.69,0.69
1597,2.89,2.17,2.86,2.14,-2.14,-1.54,0.76,0.72,0.72
1613,3.14,2.38,3.07,2.31,-2.31,-1.61,0.83,0.76,0.75
1629,3.23,2.44,3.29,2.49,-2.49,-1.69,0.74,0.80,0.79
1646,3.46,2.62,3.51,2.67,-2.67,-1.77,0.79,0.84,0.84
1662,3.75,2.86,3.73,2.84,-2.84,-1.85,0.91,0.89,0.89
1679,4.07,3.12,3.94,2.99,-2.99,-1.94,1.08,0.95,0.95
1696,4.13,3.12,4.13,3.12,-3.12,-2.03,1.00,1.01,1.01
1713,4.37,3.29,4.32,3.24,-3.24,-2.12,1.13,1.08,1.08
1730,4.45,3.30,4.49,3.34,-3.34,-2.21,1.11,1.15,1.15
1747,4.62,3.40,4.64,3.42,-3.42,-2.31,1.20,1.23,1.23
1764,4.74,3.44,4.79,3.49,-3.49,-2.41,1.26,1.31,1.31
