frequency,raw,error,smoothed,error_smoothed,equalization,parametric_eq,equalized_raw,equalized_smoothed,target
20,-5.95,-7.59,-5.96,-7.61,6.00,6.18,0.05,0.04,1.65
21,-5.27,-6.91,-5.25,-6.90,5.79,6.69,0.52,0.54,1.65
22,-4.57,-6.22,-4.58,-6.23,5.51,6.66,0.94,0.93,1.65
23,-3.91,-5.55,-3.94,-5.59,5.18,6.13,1.27,1.24,1.65
24,-3.44,-5.09,-3.34,-4.99,4.79,5.35,1.35,1.45,1.65
25,-2.81,-4.46,-2.77,-4.42,4.36,4.53,1.55,1.59,1.65
26,-2.23,-3.88,-2.24,-3.89,3.89,3.77,1.66,1.65,1.65
27,-1.70,-3.35,-1.75,-3.40,3.40,3.12,1.70,1.65,1.65
28,-1.20,-2.85,-1.30,-2.95,2.95,2.55,1.75,1.65,1.65
29,-0.96,-2.60,-0.89,-2.54,2.54,2.08,1.58,1.65,1.65
30,-0.51,-2.15,-0.53,-2.17,2.17,1.68,1.67,1.65,1.65
31,-0.13,-1.77,-0.20,-1.85,1.85,1.33,1.72,1.65,1.65
32,0.16,-1.48,0.10,-1.55,1.55,1.03,1.71,1.65,1.65
33,0.38,-1.27,0.38,-1.27,1.27,0.77,1.65,1.65,1.65
34,0.60,-1.05,0.65,-1.00,1.00,0.53,1.60,1.65,1.65
35,0.82,-0.83,0.92,-0.73,0.73,0.32,1.55,1.65,1.65
36,1.26,-0.39,1.19,-0.46,0.46,0.13,1.71,1.65,1.65
37,1.29,-0.36,1.48,-0.17,0.17,-0.04,1.45,1.64,1.64
38,1.75,0.11,1.78,0.14,-0.14,-0.21,1.61,1.64,1.64
39,2.15,0.51,2.10,0.46,-0.46,-0.36,1.70,1.64,1.64
40,2.41,0.77,2.43,0.78,-0.78,-0.50,1.63,1.64,1.64
41,2.83,1.19,2.76,1.12,-1.12,-0.64,1.72,1.64,1.64
42,3.02,1.37,3.08,1.44,-1.44,-0.77,1.57,1.64,1.64
43,3.30,1.66,3.40,1.76,-1.76,-0.90,1.54,1.64,1.64
44,3.76,2.12,3.69,2.05,-2.05,-1.02,1.71,1.64,1.64
45,3.99,2.36,3.96,2.32,-2.32,-1.14,1.67,1.64,1.64
46,4.22,2.59,4.18,2.55,-2.55,-1.26,1.68,1.64,1.64
47,4.45,2.82,4.37,2.74,-2.74,-1.38,1.71,1.63,1.63
48,4.50,2.87,4.52,2.89,-2.89,-1.49,1.61,1.63,1.63
49,4.69,3.06,4.63,3.00,-3.00,-1.61,1.69,1.63,1.63
50,4.69,3.06,4.69,3.07,-3.07,-1.72,1.62,1.63,1.63
51,4.69,3.07,4.72,3.10,-3.10,-1.83,1.59,1.62,1.62
52,4.69,3.07,4.72,3.10,-3.10,-1.94,1.59,1.62,1.62
53,4.69,3.07,4.69,3.08,-3.08,-2.06,1.61,1.62,1.62
54,4.69,3.07,4.64,3.03,-3.03,-2.17,1.66,1.61,1.61
55,4.68,3.08,4.57,2.97,-2.97,-2.28,1.72,1.61,1.61
56,4.46,2.85,4.50,2.90,-2.90,-2.39,1.56,1.60,1.60
57,4.46,2.86,4.42,2.83,-2.83,-2.50,1.63,1.60,1.60
58,4.23,2.64,4.35,2.76,-2.76,-2.62,1.47,1.59,1.59
59,4.23,2.64,4.28,2.70,-2.70,-2.73,1.53,1.58,1.58
60,4.23,2.65,4.23,2.66,-2.66,-2.85,1.57,1.58,1.58
61,4.23,2.66,4.20,2.63,-2.63,-2.96,1.60,1.57,1.57
62,4.23,2.67,4.18,2.62,-2.62,-3.08,1.60,1.56,1.56
63,4.23,2.68,4.19,2.64,-2.64,-3.19,1.59,1.55,1.55
64,4.23,2.69,4.22,2.68,-2.68,-3.31,1.55,1.54,1.54
65,4.23,2.71,4.28,2.75,-2.75,-3.42,1.48,1.53,1.53
66,4.23,2.72,4.36,2.85,-2.85,-3.54,1.39,1.51,1.51
67,4.46,2.96,4.47,2.97,-2.97,-3.66,1.49,1.50,1.50
68,4.69,3.20,4.61,3.12,-3.12,-3.78,1.57,1.49,1.49
69,4.71,3.24,4.76,3.29,-3.29,-3.90,1.41,1.47,1.47
70,4.90,3.45,4.93,3.48,-3.48,-4.01,1.42,1.45,1.45
71,5.11,3.68,5.11,3.68,-3.68,-4.13,1.44,1.44,1.44
72,5.33,3.92,5.29,3.88,-3.88,-4.25,1.46,1.42,1.42
73,5.54,4.14,5.47,4.08,-4.08,-4.37,1.46,1.40,1.40
74,5.75,4.38,5.64,4.27,-4.27,-4.49,1.49,1.37,1.37
75,5.74,4.39,5.80,4.45,-4.45,-4.61,1.29,1.35,1.35
76,5.80,4.47,5.95,4.62,-4.62,-4.73,1.18,1.32,1.32
77,6.14,4.84,6.08,4.78,-4.78,-4.85,1.35,1.30,1.30
78,6.25,4.98,6.21,4.94,-4.94,-4.97,1.31,1.27,1.27
79,6.41,5.17,6.32,5.08,-5.08,-5.09,1.32,1.24,1.24
80,6.40,5.19,6.43,5.22,-5.22,-5.21,1.17,1.21,1.21
81,6.53,5.36,6.53,5.36,-5.36,-5.33,1.17,1.17,1.17
82,6.59,5.45,6.63,5.49,-5.49,-5.44,1.10,1.14,1.14
83,6.67,5.57,6.72,5.62,-5.62,-5.56,1.06,1.10,1.10
84,6.78,5.71,6.81,5.74,-5.74,-5.68,1.03,1.06,1.06
85,6.98,5.96,6.89,5.86,-5.86,-5.79,1.12,1.02,1.02
86,6.97,5.99,6.96,5.98,-5.98,-5.90,0.98,0.98,0.98
87,6.95,6.02,7.03,6.10,-6.10,-6.01,0.86,0.94,0.94
88,7.17,6.28,7.09,6.20,-6.20,-6.12,0.97,0.89,0.89
89,7.16,6.32,7.15,6.31,-6.31,-6.23,0.86,0.84,0.84
90,7.16,6.36,7.20,6.40,-6.40,-6.33,0.75,0.79,0.80
91,7.17,6.42,7.24,6.50,-6.50,-6.44,0.67,0.74,0.74
92,7.37,6.67,7.28,6.58,-6.58,-6.54,0.78,0.69,0.69
93,7.35,6.71,7.31,6.67,-6.67,-6.64,0.68,0.64,0.64
94,7.34,6.75,7.33,6.75,-6.75,-6.73,0.59,0.59,0.58
95,7.32,6.79,7.36,6.83,-6.83,-6.82,0.49,0.53,0.53
96,7.30,6.82,7.38,6.91,-6.91,-6.91,0.39,0.47,0.47
97,7.38,6.97,7.40,6.99,-6.99,-7.00,0.39,0.41,0.41
98,7.48,7.13,7.42,7.06,-7.06,-7.08,0.42,0.35,0.35
99,7.46,7.17,7.43,7.14,-7.14,-7.16,0.32,0.29,0.29
100,7.44,7.21,7.43,7.21,-7.21,-7.24,0.23,0.22,0.23
101,7.43,7.25,7.43,7.28,-7.28,-7.31,0.15,0.15,0.17
102,7.41,7.30,7.42,7.34,-7.34,-7.38,0.07,0.08,0.11
104,7.39,7.40,7.40,7.39,-7.39,-7.50,-0.00,0.01,-0.01
105,7.36,7.44,7.37,7.43,-7.43,-7.56,-0.07,-0.06,-0.08
106,7.34,7.48,7.33,7.46,-7.46,-7.61,-0.12,-0.13,-0.14
107,7.31,7.51,7.28,7.47,-7.47,-7.65,-0.16,-0.20,-0.20
108,7.28,7.54,7.22,7.48,-7.48,-7.69,-0.20,-0.26,-0.26
109,7.25,7.57,7.17,7.49,-7.49,-7.73,-0.23,-0.32,-0.32
110,7.00,7.38,7.11,7.49,-7.49,-7.77,-0.48,-0.38,-0.38
111,6.98,7.42,7.06,7.50,-7.50,-7.79,-0.52,-0.44,-0.44
112,6.96,7.46,7.01,7.51,-7.51,-7.82,-0.55,-0.50,-0.49
113,6.95,7.50,6.97,7.53,-7.53,-7.84,-0.58,-0.56,-0.55
114,6.94,7.54,6.94,7.55,-7.55,-7.85,-0.61,-0.61,-0.60
115,6.93,7.59,6.90,7.58,-7.58,-7.86,-0.65,-0.67,-0.65
117,6.93,7.69,6.87,7.60,-7.60,-7.87,-0.67,-0.73,-0.76
118,6.91,7.72,6.82,7.62,-7.62,-7.87,-0.71,-0.79,-0.81
119,6.71,7.56,6.77,7.62,-7.62,-7.87,-0.92,-0.85,-0.85
120,6.71,7.61,6.71,7.62,-7.62,-7.86,-0.91,-0.91,-0.90
121,6.72,7.66,6.65,7.61,-7.61,-7.84,-0.89,-0.96,-0.94
123,6.50,7.53,6.58,7.59,-7.59,-7.81,-1.10,-1.01,-1.03
124,6.50,7.57,6.52,7.58,-7.58,-7.79,-1.08,-1.06,-1.07
125,6.51,7.62,6.46,7.57,-7.57,-7.76,-1.06,-1.11,-1.11
126,6.36,7.50,6.41,7.57,-7.57,-7.73,-1.21,-1.16,-1.14
128,6.29,7.51,6.36,7.57,-7.57,-7.67,-1.27,-1.20,-1.22
129,6.29,7.54,6.32,7.57,-7.57,-7.63,-1.27,-1.24,-1.25
130,6.30,7.58,6.28,7.56,-7.56,-7.59,-1.27,-1.28,-1.28
131,6.30,7.61,6.23,7.56,-7.56,-7.55,-1.26,-1.32,-1.31
133,6.30,7.67,6.18,7.55,-7.55,-7.46,-1.25,-1.36,-1.37
134,6.12,7.52,6.13,7.53,-7.53,-7.42,-1.41,-1.40,-1.40
135,6.07,7.49,6.07,7.50,-7.50,-7.37,-1.43,-1.44,-1.42
137,5.99,7.47,6.01,7.48,-7.48,-7.27,-1.49,-1.47,-1.48
138,5.84,7.34,5.95,7.46,-7.46,-7.22,-1.62,-1.51,-1.50
140,5.84,7.39,5.90,7.44,-7.44,-7.11,-1.60,-1.54,-1.55
141,5.84,7.41,5.85,7.42,-7.42,-7.06,-1.58,-1.57,-1.57
142,5.84,7.43,5.80,7.40,-7.40,-7.00,-1.56,-1.60,-1.59
144,5.81,7.45,5.75,7.38,-7.38,-6.89,-1.56,-1.63,-1.63
145,5.63,7.28,5.68,7.34,-7.34,-6.83,-1.71,-1.66,-1.65
147,5.61,7.30,5.60,7.29,-7.29,-6.72,-1.68,-1.69,-1.69
148,5.55,7.26,5.50,7.21,-7.21,-6.66,-1.66,-1.71,-1.71
150,5.38,7.12,5.37,7.11,-7.11,-6.55,-1.73,-1.74,-1.74
151,5.25,7.00,5.22,6.98,-6.98,-6.49,-1.74,-1.76,-1.76
153,5.13,6.91,5.05,6.83,-6.83,-6.37,-1.71,-1.78,-1.79
154,4.95,6.75,4.86,6.66,-6.66,-6.32,-1.71,-1.81,-1.80
156,4.61,6.44,4.66,6.48,-6.48,-6.20,-1.88,-1.83,-1.83
157,4.44,6.28,4.46,6.31,-6.31,-6.15,-1.87,-1.85,-1.84
159,4.22,6.09,4.28,6.15,-6.15,-6.04,-1.93,-1.87,-1.87
160,4.16,6.04,4.13,6.01,-6.01,-5.98,-1.86,-1.88,-1.88
162,3.98,5.88,4.01,5.91,-5.91,-5.87,-1.93,-1.90,-1.90
164,3.75,5.66,3.93,5.84,-5.84,-5.76,-2.10,-1.92,-1.92
165,3.74,5.66,3.87,5.80,-5.80,-5.71,-2.07,-1.93,-1.93
167,3.78,5.72,3.84,5.78,-5.78,-5.61,-2.01,-1.94,-1.94
169,3.95,5.91,3.82,5.78,-5.78,-5.51,-1.83,-1.95,-1.96
170,3.94,5.90,3.80,5.76,-5.76,-5.46,-1.82,-1.96,-1.96
172,3.94,5.91,3.77,5.74,-5.74,-5.36,-1.81,-1.97,-1.97
174,3.72,5.70,3.73,5.71,-5.71,-5.26,-1.99,-1.98,-1.98
175,3.71,5.69,3.67,5.65,-5.65,-5.21,-1.95,-1.99,-1.98
177,3.49,5.48,3.60,5.59,-5.59,-5.12,-2.09,-1.99,-1.99
179,3.48,5.47,3.51,5.51,-5.51,-5.03,-2.03,-1.99,-1.99
181,3.37,5.36,3.43,5.42,-5.42,-4.94,-2.06,-2.00,-2.00
183,3.26,5.26,3.34,5.33,-5.33,-4.85,-2.07,-2.00,-2.00
184,3.27,5.26,3.24,5.24,-5.24,-4.81,-1.97,-2.00,-2.00
186,3.28,5.27,3.14,5.13,-5.13,-4.73,-1.86,-2.00,-2.00
188,3.08,5.08,3.03,5.02,-5.02,-4.65,-1.94,-1.99,-1.99
190,2.84,4.83,2.90,4.90,-4.90,-4.57,-2.06,-1.99,-1.99
192,2.77,4.76,2.77,4.76,-4.76,-4.50,-1.98,-1.99,-1.99
194,2.63,4.61,2.62,4.61,-4.61,-4.42,-1.98,-1.99,-1.99
196,2.47,4.45,2.47,4.45,-4.45,-4.35,-1.99,-1.98,-1.98
198,2.41,4.39,2.32,4.30,-4.30,-4.29,-1.89,-1.98,-1.98
200,2.17,4.14,2.17,4.15,-4.15,-4.22,-1.98,-1.98,-1.98
202,1.95,3.92,2.04,4.01,-4.01,-4.16,-2.06,-1.97,-1.97
204,1.87,3.84,1.91,3.88,-3.88,-4.09,-2.01,-1.97,-1.97
206,1.71,3.68,1.80,3.77,-3.77,-4.03,-2.06,-1.97,-1.97
208,1.71,3.67,1.70,3.67,-3.67,-3.98,-1.96,-1.96,-1.96
210,1.71,3.66,1.62,3.58,-3.58,-3.92,-1.87,-1.96,-1.96
212,1.53,3.48,1.54,3.49,-3.49,-3.87,-1.96,-1.95,-1.95
214,1.48,3.43,1.46,3.41,-3.41,-3.81,-1.94,-1.95,-1.95
216,1.47,3.42,1.39,3.33,-3.33,-3.77,-1.86,-1.95,-1.95
218,1.24,3.18,1.31,3.26,-3.26,-3.72,-2.02,-1.94,-1.94
221,1.23,3.17,1.24,3.18,-3.18,-3.65,-1.95,-1.94,-1.94
223,1.22,3.16,1.17,3.10,-3.10,-3.61,-1.88,-1.93,-1.93
225,1.07,2.99,1.10,3.02,-3.02,-3.57,-1.96,-1.93,-1.93
227,0.98,2.90,1.03,2.95,-2.95,-3.53,-1.97,-1.92,-1.92
229,0.98,2.89,0.97,2.89,-2.89,-3.49,-1.91,-1.92,-1.92
232,0.98,2.89,0.92,2.83,-2.83,-3.44,-1.85,-1.91,-1.91
234,0.94,2.84,0.87,2.77,-2.77,-3.40,-1.84,-1.90,-1.90
236,0.75,2.64,0.84,2.73,-2.73,-3.37,-1.98,-1.89,-1.89
239,0.76,2.64,0.81,2.70,-2.70,-3.33,-1.94,-1.88,-1.89
241,0.76,2.64,0.80,2.67,-2.67,-3.30,-1.91,-1.88,-1.88
244,0.77,2.64,0.79,2.66,-2.66,-3.26,-1.88,-1.87,-1.87
246,0.79,2.65,0.78,2.64,-2.64,-3.24,-1.85,-1.86,-1.86
248,0.81,2.65,0.77,2.62,-2.62,-3.22,-1.81,-1.85,-1.85
251,0.82,2.66,0.75,2.59,-2.59,-3.19,-1.77,-1.84,-1.84
253,0.79,2.62,0.72,2.55,-2.55,-3.18,-1.76,-1.83,-1.83
256,0.62,2.43,0.68,2.50,-2.50,-3.15,-1.88,-1.81,-1.81
259,0.62,2.43,0.63,2.44,-2.44,-3.14,-1.81,-1.80,-1.80
261,0.62,2.42,0.57,2.36,-2.36,-3.13,-1.74,-1.79,-1.79
264,0.59,2.38,0.50,2.28,-2.28,-3.12,-1.69,-1.78,-1.78
266,0.39,2.16,0.43,2.20,-2.20,-3.11,-1.82,-1.77,-1.77
269,0.37,2.14,0.37,2.13,-2.13,-3.11,-1.76,-1.76,-1.76
272,0.37,2.12,0.33,2.09,-2.09,-3.10,-1.72,-1.75,-1.75
274,0.36,2.11,0.32,2.07,-2.07,-3.11,-1.71,-1.75,-1.74
277,0.36,2.09,0.37,2.10,-2.10,-3.11,-1.74,-1.74,-1.74
280,0.36,2.08,0.47,2.19,-2.19,-3.12,-1.84,-1.73,-1.73
283,0.58,2.30,0.64,2.35,-2.35,-3.14,-1.77,-1.72,-1.72
286,0.70,2.41,0.88,2.59,-2.59,-3.15,-1.89,-1.71,-1.71
288,0.97,2.67,1.18,2.88,-2.88,-3.17,-1.91,-1.70,-1.70
291,1.42,3.11,1.53,3.22,-3.22,-3.19,-1.81,-1.69,-1.69
294,1.89,3.58,1.90,3.59,-3.59,-3.22,-1.70,-1.69,-1.69
297,2.37,4.04,2.26,3.94,-3.94,-3.25,-1.57,-1.68,-1.68
300,2.69,4.36,2.59,4.26,-4.26,-3.28,-1.57,-1.67,-1.67
303,3.05,4.72,2.85,4.51,-4.51,-3.32,-1.46,-1.66,-1.66
306,3.27,4.92,3.03,4.69,-4.69,-3.36,-1.42,-1.66,-1.66
309,3.26,4.91,3.13,4.78,-4.78,-3.40,-1.52,-1.65,-1.65
312,3.25,4.89,3.15,4.79,-4.79,-3.44,-1.54,-1.64,-1.64
316,3.04,4.67,3.10,4.73,-4.73,-3.50,-1.70,-1.64,-1.64
319,2.77,4.40,3.00,4.63,-4.63,-3.55,-1.86,-1.63,-1.63
322,2.76,4.38,2.87,4.50,-4.50,-3.59,-1.74,-1.62,-1.62
325,2.74,4.35,2.73,4.35,-4.35,-3.64,-1.61,-1.62,-1.62
328,2.67,4.28,2.59,4.20,-4.20,-3.68,-1.53,-1.61,-1.61
332,2.46,4.07,2.45,4.06,-4.06,-3.73,-1.59,-1.61,-1.61
335,2.29,3.89,2.33,3.93,-3.93,-3.76,-1.63,-1.60,-1.60
338,2.19,3.78,2.21,3.81,-3.81,-3.79,-1.62,-1.60,-1.60
342,2.16,3.75,2.11,3.71,-3.71,-3.82,-1.55,-1.59,-1.59
345,1.92,3.50,2.03,3.62,-3.62,-3.84,-1.70,-1.59,-1.59
349,1.90,3.48,1.96,3.54,-3.54,-3.84,-1.64,-1.58,-1.58
352,1.89,3.47,1.90,3.48,-3.48,-3.84,-1.59,-1.58,-1.58
356,1.88,3.45,1.85,3.42,-3.42,-3.82,-1.55,-1.58,-1.58
359,1.86,3.44,1.80,3.37,-3.37,-3.80,-1.51,-1.57,-1.57
363,1.85,3.42,1.75,3.32,-3.32,-3.76,-1.47,-1.57,-1.57
366,1.65,3.21,1.70,3.27,-3.27,-3.72,-1.62,-1.57,-1.57
370,1.60,3.17,1.65,3.21,-3.21,-3.66,-1.61,-1.57,-1.57
374,1.60,3.16,1.59,3.16,-3.16,-3.59,-1.56,-1.56,-1.56
377,1.59,3.15,1.54,3.10,-3.10,-3.53,-1.51,-1.56,-1.56
381,1.48,3.03,1.49,3.04,-3.04,-3.44,-1.56,-1.56,-1.56
385,1.36,2.91,1.43,2.99,-2.99,-3.35,-1.63,-1.55,-1.55
389,1.35,2.90,1.38,2.93,-2.93,-3.25,-1.57,-1.55,-1.55
393,1.35,2.89,1.33,2.87,-2.87,-3.16,-1.52,-1.54,-1.54
397,1.34,2.87,1.28,2.81,-2.81,-3.06,-1.48,-1.53,-1.53
401,1.32,2.85,1.23,2.75,-2.75,-2.96,-1.43,-1.52,-1.52
405,1.19,2.70,1.18,2.69,-2.69,-2.86,-1.51,-1.51,-1.51
409,1.07,2.57,1.14,2.64,-2.64,-2.76,-1.57,-1.49,-1.50
413,1.06,2.54,1.11,2.59,-2.59,-2.67,-1.53,-1.48,-1.48
417,1.05,2.51,1.08,2.54,-2.54,-2.58,-1.49,-1.46,-1.46
421,1.05,2.49,1.07,2.50,-2.50,-2.49,-1.45,-1.43,-1.44
425,1.05,2.46,1.05,2.46,-2.46,-2.40,-1.41,-1.41,-1.41
430,1.06,2.44,1.05,2.43,-2.43,-2.30,-1.37,-1.38,-1.38
434,1.08,2.43,1.04,2.39,-2.39,-2.23,-1.31,-1.35,-1.35
438,1.10,2.42,1.04,2.36,-2.36,-2.15,-1.25,-1.31,-1.32
443,1.14,2.42,1.04,2.32,-2.32,-2.06,-1.18,-1.28,-1.28
447,0.96,2.20,1.05,2.29,-2.29,-2.00,-1.33,-1.24,-1.24
451,0.99,2.19,1.06,2.26,-2.26,-1.93,-1.27,-1.20,-1.20
456,1.04,2.20,1.08,2.24,-2.24,-1.86,-1.20,-1.16,-1.16
460,1.09,2.20,1.11,2.23,-2.23,-1.80,-1.14,-1.12,-1.12
465,1.14,2.21,1.14,2.22,-2.22,-1.74,-1.08,-1.08,-1.08
470,1.19,2.22,1.17,2.21,-2.21,-1.67,-1.02,-1.04,-1.03
474,1.23,2.23,1.20,2.20,-2.20,-1.63,-0.97,-1.00,-1.00
479,1.28,2.23,1.22,2.18,-2.18,-1.57,-0.90,-0.96,-0.96
484,1.31,2.24,1.23,2.15,-2.15,-1.52,-0.84,-0.92,-0.92
489,1.27,2.16,1.23,2.12,-2.12,-1.46,-0.85,-0.89,-0.89
494,1.14,2.00,1.22,2.09,-2.09,-1.42,-0.95,-0.87,-0.86
499,1.15,2.00,1.21,2.05,-2.05,-1.37,-0.90,-0.84,-0.84
504,1.16,1.98,1.19,2.02,-2.02,-1.33,-0.85,-0.82,-0.82
509,1.17,1.97,1.18,1.99,-1.99,-1.29,-0.82,-0.81,-0.81
514,1.16,1.96,1.16,1.96,-1.96,-1.25,-0.80,-0.80,-0.80
519,1.15,1.94,1.15,1.94,-1.94,-1.22,-0.79,-0.79,-0.79
524,1.13,1.92,1.13,1.92,-1.92,-1.18,-0.78,-0.79,-0.79
529,1.10,1.89,1.10,1.89,-1.89,-1.15,-0.78,-0.79,-0.79
535,1.06,1.86,1.05,1.84,-1.84,-1.11,-0.78,-0.79,-0.79
540,1.01,1.81,0.99,1.79,-1.79,-1.08,-0.78,-0.80,-0.80
545,0.95,1.76,0.91,1.72,-1.72,-1.05,-0.77,-0.81,-0.81
551,0.89,1.71,0.82,1.64,-1.64,-1.02,-0.75,-0.82,-0.82
556,0.79,1.62,0.73,1.56,-1.56,-1.00,-0.77,-0.83,-0.83
562,0.53,1.37,0.63,1.47,-1.47,-0.97,-0.94,-0.84,-0.84
568,0.47,1.32,0.54,1.39,-1.39,-0.94,-0.92,-0.85,-0.85
573,0.42,1.28,0.46,1.32,-1.32,-0.92,-0.90,-0.86,-0.86
579,0.37,1.24,0.39,1.26,-1.26,-0.89,-0.89,-0.87,-0.87
585,0.33,1.20,0.34,1.21,-1.21,-0.87,-0.88,-0.87,-0.87
591,0.30,1.17,0.30,1.17,-1.17,-0.85,-0.87,-0.87,-0.87
596,0.28,1.14,0.27,1.14,-1.14,-0.83,-0.86,-0.87,-0.87
602,0.26,1.12,0.25,1.10,-1.10,-0.81,-0.84,-0.86,-0.86
608,0.26,1.11,0.22,1.07,-1.07,-0.79,-0.81,-0.85,-0.85
615,0.26,1.09,0.20,1.03,-1.03,-0.77,-0.77,-0.83,-0.83
621,0.27,1.08,0.17,0.99,-0.99,-0.75,-0.72,-0.81,-0.81
627,0.05,0.84,0.15,0.94,-0.94,-0.73,-0.89,-0.79,-0.79
633,0.07,0.83,0.14,0.90,-0.90,-0.72,-0.84,-0.76,-0.76
639,0.08,0.82,0.13,0.87,-0.87,-0.70,-0.78,-0.74,-0.74
646,0.11,0.81,0.13,0.83,-0.83,-0.68,-0.73,-0.71,-0.71
652,0.14,0.81,0.13,0.81,-0.81,-0.67,-0.67,-0.67,-0.67
659,0.18,0.82,0.14,0.78,-0.78,-0.65,-0.61,-0.64,-0.64
665,0.22,0.82,0.15,0.76,-0.76,-0.64,-0.54,-0.61,-0.60
672,0.26,0.83,0.16,0.73,-0.73,-0.62,-0.48,-0.57,-0.57
679,0.08,0.62,0.17,0.71,-0.71,-0.61,-0.63,-0.54,-0.54
686,0.13,0.63,0.18,0.68,-0.68,-0.59,-0.56,-0.50,-0.50
692,0.16,0.63,0.19,0.66,-0.66,-0.58,-0.50,-0.47,-0.47
699,0.18,0.62,0.19,0.63,-0.63,-0.57,-0.45,-0.44,-0.44
706,0.19,0.60,0.18,0.59,-0.59,-0.55,-0.41,-0.41,-0.41
713,0.18,0.57,0.17,0.55,-0.55,-0.54,-0.37,-0.39,-0.39
721,0.17,0.53,0.14,0.50,-0.50,-0.52,-0.34,-0.36,-0.36
728,0.14,0.48,0.10,0.44,-0.44,-0.51,-0.30,-0.34,-0.34
735,0.11,0.43,0.05,0.37,-0.37,-0.50,-0.26,-0.32,-0.32
742,0.07,0.37,-0.01,0.29,-0.29,-0.49,-0.22,-0.30,-0.30
750,-0.13,0.16,-0.08,0.21,-0.21,-0.48,-0.33,-0.29,-0.28
757,-0.22,0.05,-0.14,0.13,-0.13,-0.46,-0.35,-0.27,-0.27
765,-0.25,0.01,-0.20,0.06,-0.06,-0.45,-0.31,-0.26,-0.26
773,-0.27,-0.03,-0.25,-0.00,0.00,-0.44,-0.27,-0.25,-0.25
780,-0.29,-0.05,-0.28,-0.04,0.04,-0.43,-0.24,-0.24,-0.24
788,-0.30,-0.07,-0.30,-0.07,0.07,-0.41,-0.22,-0.23,-0.23
796,-0.30,-0.08,-0.31,-0.09,0.09,-0.40,-0.21,-0.22,-0.22
804,-0.30,-0.09,-0.30,-0.09,0.09,-0.39,-0.21,-0.21,-0.21
812,-0.29,-0.09,-0.29,-0.09,0.09,-0.38,-0.20,-0.20,-0.20
820,-0.29,-0.09,-0.28,-0.09,0.09,-0.36,-0.20,-0.20,-0.20
828,-0.28,-0.09,-0.27,-0.08,0.08,-0.35,-0.20,-0.19,-0.19
837,-0.28,-0.09,-0.27,-0.09,0.09,-0.34,-0.19,-0.18,-0.18
845,-0.27,-0.09,-0.27,-0.10,0.10,-0.32,-0.17,-0.18,-0.18
853,-0.25,-0.08,-0.29,-0.12,0.12,-0.31,-0.14,-0.17,-0.17
862,-0.24,-0.08,-0.31,-0.15,0.15,-0.29,-0.09,-0.16,-0.16
871,-0.23,-0.08,-0.34,-0.19,0.19,-0.27,-0.05,-0.15,-0.15
879,-0.45,-0.31,-0.37,-0.23,0.23,-0.26,-0.23,-0.15,-0.15
888,-0.45,-0.31,-0.40,-0.27,0.27,-0.24,-0.18,-0.14,-0.14
897,-0.45,-0.32,-0.43,-0.30,0.30,-0.22,-0.15,-0.13,-0.13
906,-0.45,-0.32,-0.44,-0.32,0.32,-0.20,-0.13,-0.12,-0.12
915,-0.45,-0.34,-0.43,-0.32,0.32,-0.18,-0.13,-0.11,-0.11
924,-0.45,-0.35,-0.41,-0.30,0.30,-0.16,-0.15,-0.10,-0.10
933,-0.45,-0.36,-0.36,-0.27,0.27,-0.13,-0.18,-0.09,-0.09
943,-0.23,-0.15,-0.31,-0.23,0.23,-0.11,0.00,-0.08,-0.08
952,-0.23,-0.16,-0.25,-0.18,0.18,-0.08,-0.05,-0.07,-0.07
962,-0.23,-0.18,-0.19,-0.13,0.13,-0.05,-0.10,-0.05,-0.05
971,-0.11,-0.07,-0.13,-0.09,0.09,-0.02,-0.02,-0.04,-0.04
981,-0.01,0.02,-0.08,-0.05,0.05,0.01,0.05,-0.02,-0.02
991,-0.01,0.00,-0.03,-0.03,0.03,0.05,0.02,-0.01,-0.01
1001,0.00,-0.01,-0.00,-0.01,0.01,0.08,0.02,0.01,0.01
1011,0.01,-0.02,0.02,-0.01,0.01,0.12,0.02,0.03,0.03
1021,0.02,-0.03,0.04,-0.02,0.02,0.16,0.04,0.06,0.05
1031,0.04,-0.04,0.05,-0.03,0.03,0.20,0.07,0.08,0.08
1041,0.05,-0.05,0.06,-0.05,0.05,0.23,0.10,0.10,0.10
1052,0.06,-0.07,0.06,-0.07,0.07,0.27,0.13,0.13,0.13
1062,0.07,-0.09,0.07,-0.09,0.09,0.31,0.16,0.16,0.16
1073,0.08,-0.11,0.08,-0.11,0.11,0.34,0.19,0.19,0.19
1084,0.09,-0.13,0.09,-0.13,0.13,0.37,0.22,0.22,0.22
1094,0.10,-0.15,0.11,-0.15,0.15,0.39,0.25,0.25,0.25
1105,0.11,-0.17,0.12,-0.17,0.17,0.41,0.28,0.29,0.29
1116,0.13,-0.19,0.13,-0.19,0.19,0.42,0.32,0.32,0.32
1128,0.15,-0.21,0.15,-0.21,0.21,0.42,0.36,0.36,0.36
1139,0.17,-0.22,0.16,-0.23,0.23,0.41,0.40,0.39,0.39
1150,0.18,-0.24,0.17,-0.26,0.26,0.39,0.44,0.42,0.42
1162,0.20,-0.26,0.18,-0.28,0.28,0.37,0.48,0.46,0.46
1173,0.20,-0.29,0.19,-0.30,0.30,0.33,0.50,0.49,0.49
1185,0.20,-0.31,0.20,-0.32,0.32,0.29,0.52,0.52,0.52
1197,0.21,-0.34,0.22,-0.32,0.32,0.24,0.53,0.55,0.55
1209,0.21,-0.37,0.25,-0.32,0.32,0.18,0.53,0.57,0.57
1221,0.21,-0.39,0.28,-0.32,0.32,0.13,0.53,0.60,0.60
1233,0.25,-0.37,0.32,-0.30,0.30,0.07,0.55,0.62,0.62
1246,0.46,-0.18,0.36,-0.28,0.28,-0.00,0.74,0.64,0.64
1258,0.47,-0.18,0.40,-0.26,0.26,-0.06,0.73,0.65,0.65
1271,0.48,-0.19,0.43,-0.23,0.23,-0.13,0.71,0.67,0.67
1283,0.49,-0.19,0.47,-0.21,0.21,-0.19,0.70,0.68,0.68
1296,0.50,-0.18,0.50,-0.18,0.18,-0.25,0.68,0.68,0.68
1309,0.51,-0.18,0.54,-0.14,0.14,-0.32,0.65,0.69,0.69
1322,0.52,-0.17,0.59,-0.09,0.09,-0.38,0.61,0.69,0.69
1335,0.61,-0.08,0.66,-0.03,0.03,-0.44,0.64,0.68,0.68
1349,0.77,0.09,0.73,0.05,-0.05,-0.50,0.72,0.68,0.68
1362,0.78,0.11,0.82,0.15,-0.15,-0.56,0.64,0.67,0.67
1376,0.98,0.31,0.93,0.26,-0.26,-0.62,0.72,0.67,0.67
1390,1.02,0.36,1.05,0.39,-0.39,-0.67,0.63,0.66,0.66
1404,1.25,0.60,1.17,0.52,-0.52,-0.73,0.72,0.65,0.65
1418,1.24,0.60,1.30,0.66,-0.66,-0.79,0.58,0.64,0.64
1432,1.29,0.66,1.44,0.80,-0.80,-0.85,0.49,0.63,0.63
1446,1.55,0.92,1.57,0.94,-0.94,-0.90,0.60,0.63,0.63
1461,1.87,1.25,1.69,1.07,-1.07,-0.96,0.80,0.62,0.62
1475,1.93,1.31,1.80,1.18,-1.18,-1.02,0.74,0.62,0.62
1490,1.93,1.31,1.91,1.29,-1.29,-1.08,0.64,0.62,0.61
1505,1.96,1.35,2.01,1.39,-1.39,-1.14,0.58,0.62,0.62
1520,2.15,1.53,2.11,1.48,-1.48,-1.20,0.67,0.62,0.62
1535,2.15,1.52,2.22,1.59,-1.59,-1.27,0.57,0.63,0.63
1550,2.29,1.64,2.35,1.70,-1.70,-1.33,0.59,0.65,0.65
1566,2.39,1.73,2.49,1.83,-1.83,-1.40,0.57,0.67,0.67
1582,2.62,1.93,2.66,1.97,-1.97,-1.47,0.65,0.69,0.69
1597,2.89,2.17,2.86,2.14,-2.14,-1.54,0.76,0.72,0.72
1613,3.14,2.38,3.07,2.31,-2.31,-1.61,0.83,0.76,0.75
1629,3.23,2.44,3.29,2.49,-2.49,-1.69,0.74,0.80,0.79
1646,3.46,2.62,3.51,2.67,-2.67,-1.77,0.79,0.84,0.84
1662,3.75,2.86,3.73,2.84,-2.84,-1.85,0.91,0.89,0.89
1679,4.07,3.12,3.94,2.99,-2.99,-1.94,1.08,0.95,0.95
1696,4.13,3.12,4.13,3.12,-3.12,-2.03,1.00,1.01,1.01
1713,4.37,3.29,4.32,3.24,-3.24,-2.12,1.13,1.08,1.08
1730,4.45,3.30,4.49,3.34,-3.34,-2.21,1.11,1.15,1.15
1747,4.62,3.40,4.64,3.42,-3.42,-2.31,1.20,1.23,1.23
1764,4.74,3.44,4.79,3.49,-3.49,-2.41,1.26,1.31,1.31
1782,5.00,3.61,4.93,3.54,-3.54,-2.52,1.46,1.39,1.39
1800,5.06,3.58,5.07,3.60,-3.60,-2.63,1.46,1.48,1.48
1818,5.27,3.70,5.21,3.64,-3.64,-2.74,1.63,1.57,1.57
1836,5.29,3.62,5.35,3.69,-3.69,-2.85,1.60,1.66,1.66
1854,5.47,3.71,5.49,3.73,-3.73,-2.97,1.74,1.76,1.76
