frequency,raw,error,smoothed,error_smoothed,equalization,parametric_eq,fixed_band_eq,equalized_raw,equalized_smoothed,target
20.00,-0.40,-0.37,-0.38,-0.36,0.36,-0.18,-0.64,-0.04,-0.02,-0.03
20.20,-0.32,-0.33,-0.31,-0.32,0.32,-0.19,-0.65,0.00,0.01,0.01
20.40,-0.24,-0.27,-0.24,-0.28,0.28,-0.19,-0.67,0.04,0.04,0.04
20.61,-0.16,-0.23,-0.17,-0.24,0.24,-0.19,-0.69,0.08,0.07,0.06
20.81,-0.08,-0.18,-0.10,-0.19,0.19,-0.20,-0.71,0.11,0.10,0.11
21.02,0.00,-0.14,-0.03,-0.15,0.15,-0.20,-0.73,0.15,0.12,0.14
21.23,0.06,-0.09,0.04,-0.10,0.10,-0.21,-0.75,0.16,0.14,0.15
21.44,0.13,-0.04,0.11,-0.05,0.05,-0.21,-0.78,0.18,0.16,0.17
21.66,0.20,0.01,0.18,0.00,-0.00,-0.22,-0.80,0.20,0.18,0.19
21.87,0.26,0.06,0.25,0.06,-0.06,-0.22,-0.82,0.21,0.20,0.20
22.09,0.32,0.10,0.32,0.11,-0.11,-0.23,-0.85,0.21,0.21,0.22
22.31,0.38,0.16,0.39,0.17,-0.17,-0.23,-0.87,0.22,0.23,0.22
22.54,0.44,0.21,0.46,0.23,-0.23,-0.24,-0.89,0.21,0.24,0.23
22.76,0.50,0.26,0.53,0.29,-0.29,-0.24,-0.92,0.21,0.25,0.24
22.99,0.56,0.32,0.60,0.35,-0.35,-0.25,-0.95,0.21,0.26,0.24
23.22,0.65,0.40,0.67,0.41,-0.41,-0.25,-0.97,0.24,0.26,0.25
23.45,0.74,0.48,0.74,0.48,-0.48,-0.26,-1.00,0.27,0.27,0.26
23.69,0.84,0.57,0.81,0.54,-0.54,-0.27,-1.03,0.30,0.27,0.27
23.92,0.93,0.65,0.88,0.61,-0.61,-0.27,-1.06,0.32,0.28,0.28
24.16,0.99,0.70,0.96,0.67,-0.67,-0.28,-1.09,0.32,0.28,0.29
24.40,1.04,0.74,1.02,0.74,-0.74,-0.28,-1.12,0.30,0.28,0.30
24.65,1.09,0.80,1.09,0.80,-0.80,-0.29,-1.15,0.29,0.29,0.29
24.89,1.14,0.85,1.15,0.86,-0.86,-0.30,-1.18,0.28,0.29,0.29
25.14,1.20,0.91,1.21,0.92,-0.92,-0.30,-1.21,0.28,0.29,0.29
25.39,1.26,0.97,1.27,0.98,-0.98,-0.31,-1.24,0.28,0.29,0.29
25.65,1.33,1.04,1.34,1.05,-1.05,-0.32,-1.27,0.28,0.29,0.29
25.91,1.40,1.12,1.40,1.11,-1.11,-0.33,-1.30,0.29,0.29,0.28
26.16,1.45,1.16,1.45,1.16,-1.16,-0.33,-1.33,0.29,0.29,0.29
26.43,1.49,1.20,1.50,1.22,-1.22,-0.34,-1.37,0.27,0.29,0.29
26.69,1.54,1.26,1.56,1.27,-1.27,-0.35,-1.40,0.27,0.28,0.29
26.96,1.58,1.30,1.61,1.33,-1.33,-0.36,-1.43,0.25,0.28,0.28
27.23,1.65,1.37,1.66,1.38,-1.38,-0.37,-1.46,0.27,0.28,0.28
27.50,1.73,1.45,1.71,1.43,-1.43,-0.37,-1.49,0.30,0.28,0.28
27.77,1.80,1.53,1.76,1.49,-1.49,-0.38,-1.52,0.32,0.28,0.27
28.05,1.86,1.59,1.81,1.54,-1.54,-0.39,-1.55,0.33,0.27,0.27
28.33,1.87,1.61,1.86,1.58,-1.58,-0.40,-1.58,0.29,0.27,0.26
28.62,1.87,1.60,1.90,1.63,-1.63,-0.41,-1.60,0.24,0.27,0.27
28.90,1.88,1.61,1.93,1.66,-1.66,-0.42,-1.63,0.22,0.27,0.27
29.19,1.92,1.66,1.96,1.70,-1.70,-0.43,-1.66,0.22,0.27,0.26
29.48,1.99,1.72,1.99,1.72,-1.72,-0.44,-1.68,0.27,0.26,0.27
29.78,2.05,1.78,2.01,1.75,-1.75,-0.45,-1.70,0.30,0.26,0.27
30.08,2.10,1.83,2.03,1.77,-1.77,-0.46,-1.72,0.33,0.26,0.27
30.38,2.10,1.85,2.05,1.79,-1.79,-0.47,-1.74,0.31,0.25,0.25
30.68,2.10,1.85,2.06,1.82,-1.82,-0.49,-1.76,0.28,0.25,0.25
30.99,2.10,1.86,2.09,1.84,-1.84,-0.50,-1.78,0.26,0.24,0.24
31.30,2.10,1.86,2.11,1.87,-1.87,-0.51,-1.79,0.23,0.24,0.24
31.61,2.10,1.86,2.15,1.92,-1.92,-0.52,-1.80,0.19,0.24,0.24
31.93,2.10,1.87,2.19,1.96,-1.96,-0.53,-1.81,0.14,0.23,0.23
32.24,2.16,1.94,2.24,2.01,-2.01,-0.55,-1.82,0.15,0.23,0.22
32.57,2.23,2.01,2.29,2.06,-2.06,-0.56,-1.83,0.17,0.22,0.22
32.89,2.31,2.10,2.33,2.12,-2.12,-0.57,-1.84,0.20,0.22,0.21
33.22,2.38,2.17,2.38,2.17,-2.17,-0.59,-1.84,0.21,0.21,0.21
33.55,2.46,2.25,2.44,2.23,-2.23,-0.60,-1.85,0.23,0.21,0.21
33.89,2.53,2.32,2.51,2.30,-2.30,-0.62,-1.85,0.23,0.20,0.21
34.23,2.61,2.40,2.57,2.37,-2.37,-0.63,-1.85,0.24,0.20,0.21
34.57,2.69,2.50,2.64,2.44,-2.44,-0.65,-1.85,0.25,0.20,0.20
34.92,2.77,2.58,2.71,2.51,-2.51,-0.66,-1.85,0.26,0.19,0.19
35.27,2.79,2.60,2.77,2.58,-2.58,-0.68,-1.85,0.21,0.19,0.19
35.62,2.79,2.61,2.82,2.64,-2.64,-0.70,-1.85,0.15,0.19,0.18
35.97,2.79,2.61,2.87,2.69,-2.69,-0.72,-1.85,0.10,0.18,0.18
36.33,2.87,2.70,2.91,2.74,-2.74,-0.73,-1.85,0.13,0.17,0.18
36.70,2.95,2.78,2.95,2.78,-2.78,-0.75,-1.85,0.17,0.17,0.17
37.06,3.02,2.86,2.98,2.82,-2.82,-0.77,-1.85,0.20,0.16,0.16
37.43,3.02,2.86,3.00,2.84,-2.84,-0.79,-1.85,0.18,0.16,0.16
37.81,3.02,2.86,3.01,2.86,-2.86,-0.81,-1.85,0.16,0.15,0.16
38.19,3.02,2.88,3.02,2.87,-2.87,-0.83,-1.85,0.15,0.15,0.14
38.57,3.02,2.88,3.02,2.88,-2.88,-0.85,-1.85,0.14,0.14,0.14
38.95,3.02,2.88,3.02,2.88,-2.88,-0.88,-1.86,0.14,0.14,0.14
39.34,3.02,2.90,3.01,2.88,-2.88,-0.90,-1.86,0.14,0.13,0.12
39.74,3.02,2.91,2.99,2.86,-2.86,-0.92,-1.86,0.16,0.13,0.11
40.14,2.99,2.87,2.95,2.83,-2.83,-0.95,-1.87,0.16,0.12,0.12
40.54,2.90,2.79,2.90,2.79,-2.79,-0.97,-1.88,0.11,0.11,0.12
40.94,2.80,2.69,2.85,2.75,-2.75,-0.99,-1.88,0.05,0.10,0.11
41.35,2.79,2.69,2.79,2.71,-2.71,-1.02,-1.89,0.08,0.09,0.10
41.76,2.79,2.71,2.74,2.67,-2.67,-1.05,-1.90,0.12,0.07,0.08
42.18,2.75,2.68,2.69,2.63,-2.63,-1.08,-1.92,0.12,0.05,0.07
42.60,2.65,2.60,2.64,2.61,-2.61,-1.10,-1.93,0.04,0.03,0.05
43.03,2.55,2.52,2.60,2.59,-2.59,-1.13,-1.95,-0.04,0.01,0.03
43.46,2.45,2.44,2.57,2.58,-2.58,-1.16,-1.96,-0.13,-0.01,0.01
43.90,2.35,2.39,2.53,2.57,-2.57,-1.19,-1.98,-0.22,-0.03,-0.04
44.33,2.33,2.39,2.50,2.55,-2.55,-1.23,-2.00,-0.22,-0.06,-0.06
44.78,2.33,2.43,2.45,2.53,-2.53,-1.26,-2.02,-0.20,-0.08,-0.10
45.23,2.32,2.44,2.38,2.48,-2.48,-1.29,-2.05,-0.16,-0.11,-0.12
45.68,2.29,2.44,2.27,2.39,-2.39,-1.33,-2.07,-0.10,-0.13,-0.15
46.13,2.25,2.41,2.12,2.27,-2.27,-1.36,-2.10,-0.02,-0.15,-0.16
46.60,2.17,2.34,1.95,2.11,-2.11,-1.40,-2.12,0.06,-0.16,-0.17
47.06,2.07,2.25,1.74,1.92,-1.92,-1.44,-2.15,0.15,-0.17,-0.18
47.53,1.82,2.01,1.51,1.69,-1.69,-1.48,-2.18,0.13,-0.18,-0.19
48.01,1.57,1.76,1.24,1.43,-1.43,-1.52,-2.21,0.15,-0.19,-0.19
48.49,1.15,1.35,0.94,1.13,-1.13,-1.56,-2.25,0.02,-0.19,-0.19
48.97,0.72,0.92,0.64,0.83,-0.83,-1.60,-2.28,-0.11,-0.19,-0.20
49.46,0.26,0.47,0.33,0.52,-0.52,-1.65,-2.32,-0.26,-0.19,-0.21
49.96,-0.21,-0.00,0.04,0.22,-0.22,-1.69,-2.35,-0.43,-0.19,-0.20
50.46,-0.45,-0.26,-0.24,-0.05,0.05,-1.74,-2.39,-0.40,-0.19,-0.19
50.96,-0.66,-0.48,-0.47,-0.28,0.28,-1.78,-2.43,-0.38,-0.19,-0.18
51.47,-0.87,-0.68,-0.66,-0.46,0.46,-1.83,-2.47,-0.41,-0.20,-0.19
51.99,-1.08,-0.88,-0.79,-0.58,0.58,-1.88,-2.51,-0.50,-0.21,-0.20
52.51,-1.09,-0.88,-0.85,-0.63,0.63,-1.94,-2.55,-0.46,-0.23,-0.21
53.03,-1.08,-0.85,-0.85,-0.60,0.60,-1.99,-2.59,-0.47,-0.25,-0.22
53.56,-0.86,-0.61,-0.79,-0.52,0.52,-2.04,-2.63,-0.34,-0.27,-0.25
54.10,-0.65,-0.36,-0.68,-0.38,0.38,-2.10,-2.67,-0.27,-0.30,-0.29
54.64,-0.50,-0.17,-0.53,-0.20,0.20,-2.16,-2.71,-0.30,-0.34,-0.33
55.18,-0.32,0.06,-0.35,0.02,-0.02,-2.22,-2.74,-0.34,-0.37,-0.37
55.74,-0.07,0.35,-0.15,0.26,-0.26,-2.28,-2.78,-0.33,-0.42,-0.42
56.29,0.19,0.66,0.04,0.51,-0.51,-2.34,-2.82,-0.32,-0.47,-0.47
56.86,0.44,0.96,0.25,0.77,-0.77,-2.40,-2.85,-0.33,-0.52,-0.52
57.42,0.61,1.19,0.45,1.02,-1.02,-2.47,-2.89,-0.41,-0.57,-0.58
58.00,0.74,1.37,0.64,1.27,-1.27,-2.53,-2.92,-0.53,-0.63,-0.63
58.58,0.87,1.56,0.82,1.50,-1.50,-2.60,-2.95,-0.63,-0.68,-0.68
59.16,1.00,1.73,0.99,1.72,-1.72,-2.67,-2.97,-0.72,-0.74,-0.73
59.76,1.13,1.91,1.15,1.94,-1.94,-2.74,-3.00,-0.81,-0.79,-0.78
60.35,1.27,2.12,1.32,2.16,-2.16,-2.81,-3.02,-0.89,-0.84,-0.85
60.96,1.41,2.30,1.47,2.37,-2.37,-2.88,-3.04,-0.96,-0.90,-0.89
61.57,1.55,2.50,1.63,2.57,-2.57,-2.96,-3.06,-1.02,-0.95,-0.95
62.18,1.69,2.70,1.78,2.77,-2.77,-3.03,-3.07,-1.08,-1.00,-1.01
62.80,1.84,2.89,1.93,2.97,-2.97,-3.11,-3.08,-1.13,-1.04,-1.05
63.43,2.02,3.11,2.08,3.17,-3.17,-3.18,-3.09,-1.15,-1.09,-1.09
64.07,2.23,3.36,2.24,3.36,-3.36,-3.26,-3.10,-1.13,-1.13,-1.13
64.71,2.49,3.66,2.39,3.56,-3.56,-3.34,-3.10,-1.07,-1.16,-1.17
65.35,2.67,3.88,2.55,3.75,-3.75,-3.41,-3.10,-1.07,-1.20,-1.21
66.01,2.79,4.02,2.69,3.92,-3.92,-3.49,-3.10,-1.13,-1.23,-1.23
66.67,2.79,4.05,2.83,4.09,-4.09,-3.57,-3.09,-1.30,-1.26,-1.26
67.33,2.90,4.18,2.96,4.24,-4.24,-3.64,-3.09,-1.34,-1.28,-1.28
68.01,3.11,4.41,3.07,4.37,-4.37,-3.72,-3.08,-1.26,-1.30,-1.30
68.69,3.20,4.52,3.17,4.49,-4.49,-3.79,-3.07,-1.29,-1.32,-1.32
69.37,3.24,4.59,3.25,4.60,-4.60,-3.87,-3.06,-1.35,-1.34,-1.34
70.07,3.26,4.63,3.32,4.68,-4.68,-3.94,-3.05,-1.42,-1.36,-1.37
70.77,3.42,4.79,3.37,4.75,-4.75,-4.01,-3.03,-1.33,-1.38,-1.37
71.48,3.47,4.86,3.40,4.81,-4.81,-4.08,-3.02,-1.33,-1.40,-1.39
72.19,3.47,4.88,3.44,4.85,-4.85,-4.14,-3.00,-1.38,-1.42,-1.41
72.91,3.47,4.90,3.47,4.90,-4.90,-4.20,-2.99,-1.43,-1.43,-1.43
73.64,3.47,4.92,3.50,4.95,-4.95,-4.26,-2.97,-1.48,-1.45,-1.44
74.38,3.47,4.93,3.53,5.00,-5.00,-4.32,-2.96,-1.53,-1.47,-1.46
75.12,3.47,4.96,3.54,5.02,-5.02,-4.37,-2.95,-1.55,-1.49,-1.49
75.87,3.47,4.97,3.54,5.04,-5.04,-4.41,-2.93,-1.57,-1.50,-1.50
76.63,3.47,4.99,3.53,5.05,-5.05,-4.45,-2.92,-1.58,-1.51,-1.52
77.40,3.47,5.00,3.51,5.04,-5.04,-4.49,-2.91,-1.57,-1.53,-1.53
78.17,3.47,5.02,3.47,5.00,-5.00,-4.52,-2.90,-1.53,-1.54,-1.55
78.95,3.47,5.02,3.40,4.94,-4.94,-4.54,-2.90,-1.47,-1.54,-1.54
79.74,3.47,5.01,3.32,4.87,-4.87,-4.56,-2.89,-1.40,-1.55,-1.54
80.54,3.39,4.95,3.23,4.78,-4.78,-4.57,-2.89,-1.39,-1.55,-1.55
81.35,3.30,4.86,3.14,4.68,-4.68,-4.58,-2.88,-1.38,-1.54,-1.56
82.16,3.18,4.73,3.04,4.58,-4.58,-4.57,-2.88,-1.40,-1.54,-1.55
82.98,2.92,4.45,2.94,4.46,-4.46,-4.57,-2.88,-1.54,-1.53,-1.53
83.81,2.81,4.33,2.84,4.35,-4.35,-4.55,-2.89,-1.54,-1.52,-1.52
84.65,2.61,4.12,2.74,4.24,-4.24,-4.53,-2.89,-1.63,-1.50,-1.51
85.50,2.42,3.91,2.64,4.13,-4.13,-4.51,-2.90,-1.71,-1.49,-1.49
86.35,2.33,3.80,2.54,4.01,-4.01,-4.48,-2.91,-1.68,-1.47,-1.47
87.22,2.33,3.79,2.45,3.91,-3.91,-4.44,-2.92,-1.57,-1.45,-1.46
88.09,2.33,3.77,2.37,3.81,-3.81,-4.40,-2.94,-1.48,-1.43,-1.44
88.97,2.33,3.74,2.31,3.72,-3.72,-4.35,-2.96,-1.39,-1.42,-1.41
89.86,2.33,3.72,2.25,3.66,-3.66,-4.30,-2.98,-1.33,-1.40,-1.39
90.76,2.33,3.72,2.22,3.60,-3.60,-4.25,-3.00,-1.27,-1.39,-1.39
91.66,2.33,3.69,2.19,3.57,-3.57,-4.19,-3.02,-1.24,-1.38,-1.36
92.58,2.25,3.62,2.18,3.55,-3.55,-4.12,-3.05,-1.30,-1.37,-1.37
93.51,2.15,3.50,2.17,3.53,-3.53,-4.06,-3.08,-1.38,-1.36,-1.35
94.44,2.10,3.45,2.17,3.53,-3.53,-3.99,-3.11,-1.42,-1.35,-1.35
95.39,2.10,3.44,2.17,3.52,-3.52,-3.92,-3.14,-1.42,-1.35,-1.34
96.34,2.10,3.46,2.16,3.51,-3.51,-3.84,-3.18,-1.41,-1.35,-1.36
97.30,2.10,3.46,2.13,3.49,-3.49,-3.77,-3.21,-1.39,-1.35,-1.36
98.28,2.10,3.47,2.12,3.48,-3.48,-3.69,-3.25,-1.38,-1.36,-1.37
99.26,2.10,3.48,2.10,3.48,-3.48,-3.61,-3.29,-1.38,-1.37,-1.38
100.25,2.10,3.49,2.09,3.48,-3.48,-3.53,-3.33,-1.38,-1.39,-1.39
101.25,2.10,3.51,2.08,3.48,-3.48,-3.45,-3.37,-1.38,-1.41,-1.41
102.27,2.10,3.53,2.07,3.50,-3.50,-3.37,-3.41,-1.40,-1.43,-1.43
103.29,2.10,3.56,2.06,3.51,-3.51,-3.29,-3.46,-1.41,-1.45,-1.45
104.32,2.05,3.52,2.03,3.52,-3.52,-3.21,-3.50,-1.47,-1.49,-1.47
105.37,1.93,3.43,2.00,3.52,-3.52,-3.14,-3.54,-1.59,-1.52,-1.50
106.42,1.88,3.42,1.95,3.51,-3.51,-3.06,-3.58,-1.62,-1.56,-1.54
107.48,1.88,3.47,1.88,3.49,-3.49,-2.98,-3.62,-1.60,-1.60,-1.59
108.56,1.88,3.53,1.80,3.45,-3.45,-2.90,-3.66,-1.57,-1.65,-1.65
109.64,1.73,3.43,1.69,3.39,-3.39,-2.82,-3.70,-1.66,-1.70,-1.70
110.74,1.64,3.39,1.55,3.31,-3.31,-2.75,-3.74,-1.67,-1.76,-1.75
111.85,1.45,3.25,1.39,3.20,-3.20,-2.68,-3.77,-1.75,-1.81,-1.80
112.97,1.40,3.27,1.21,3.08,-3.08,-2.60,-3.80,-1.68,-1.86,-1.87
114.10,1.15,3.07,1.03,2.95,-2.95,-2.53,-3.83,-1.80,-1.92,-1.92
115.24,0.93,2.91,0.85,2.82,-2.82,-2.46,-3.85,-1.89,-1.97,-1.97
116.39,0.79,2.82,0.69,2.70,-2.70,-2.39,-3.87,-1.91,-2.02,-2.03
117.55,0.59,2.67,0.54,2.60,-2.60,-2.32,-3.88,-2.01,-2.06,-2.08
118.73,0.32,2.45,0.41,2.51,-2.51,-2.26,-3.89,-2.19,-2.10,-2.13
119.92,0.06,2.22,0.30,2.44,-2.44,-2.19,-3.89,-2.38,-2.14,-2.15
121.12,-0.17,2.02,0.22,2.39,-2.39,-2.13,-3.89,-2.56,-2.17,-2.19
122.33,-0.18,2.04,0.17,2.37,-2.37,-2.06,-3.88,-2.55,-2.20,-2.22
123.55,-0.08,2.14,0.15,2.38,-2.38,-2.00,-3.86,-2.46,-2.23,-2.22
124.79,0.04,2.29,0.15,2.40,-2.40,-1.94,-3.84,-2.36,-2.25,-2.25
126.03,0.21,2.47,0.17,2.44,-2.44,-1.88,-3.81,-2.22,-2.27,-2.26
127.29,0.33,2.61,0.21,2.50,-2.50,-1.83,-3.77,-2.16,-2.29,-2.28
128.57,0.46,2.76,0.26,2.56,-2.56,-1.77,-3.73,-2.10,-2.30,-2.30
129.85,0.51,2.83,0.31,2.63,-2.63,-1.72,-3.68,-2.12,-2.32,-2.32
131.15,0.51,2.84,0.36,2.69,-2.69,-1.66,-3.63,-2.18,-2.34,-2.33
132.46,0.51,2.86,0.40,2.76,-2.76,-1.61,-3.57,-2.25,-2.35,-2.35
133.79,0.51,2.87,0.44,2.81,-2.81,-1.56,-3.50,-2.30,-2.37,-2.36
135.12,0.50,2.90,0.46,2.84,-2.84,-1.51,-3.43,-2.34,-2.39,-2.39
136.48,0.45,2.86,0.44,2.85,-2.85,-1.46,-3.35,-2.40,-2.41,-2.41
137.84,0.30,2.73,0.40,2.83,-2.83,-1.41,-3.27,-2.53,-2.43,-2.43
139.22,0.28,2.75,0.35,2.79,-2.79,-1.37,-3.18,-2.51,-2.45,-2.47
140.61,0.28,2.78,0.28,2.76,-2.76,-1.32,-3.09,-2.48,-2.47,-2.49
142.02,0.17,2.67,0.22,2.72,-2.72,-1.27,-3.00,-2.55,-2.50,-2.50
143.44,0.08,2.61,0.15,2.69,-2.69,-1.23,-2.90,-2.61,-2.53,-2.53
144.87,0.05,2.61,0.09,2.66,-2.66,-1.19,-2.80,-2.61,-2.57,-2.56
146.32,0.05,2.65,0.03,2.64,-2.64,-1.14,-2.70,-2.59,-2.61,-2.60
147.78,0.00,2.62,-0.04,2.62,-2.62,-1.10,-2.60,-2.62,-2.66,-2.62
149.26,-0.12,2.56,-0.13,2.58,-2.58,-1.06,-2.49,-2.70,-2.71,-2.68
150.75,-0.28,2.46,-0.24,2.52,-2.52,-1.02,-2.39,-2.80,-2.76,-2.74
152.26,-0.37,2.43,-0.37,2.45,-2.45,-0.98,-2.28,-2.82,-2.82,-2.80
153.78,-0.40,2.46,-0.49,2.38,-2.38,-0.94,-2.17,-2.78,-2.88,-2.86
155.32,-0.45,2.49,-0.63,2.30,-2.30,-0.91,-2.06,-2.75,-2.94,-2.94
156.88,-0.63,2.38,-0.77,2.23,-2.23,-0.87,-1.95,-2.85,-3.00,-3.01
158.44,-0.80,2.27,-0.89,2.16,-2.16,-0.83,-1.84,-2.96,-3.06,-3.07
160.03,-0.92,2.21,-1.01,2.09,-2.09,-0.79,-1.73,-3.01,-3.11,-3.13
161.63,-1.19,1.99,-1.13,2.02,-2.02,-0.76,-1.62,-3.21,-3.16,-3.18
163.24,-1.45,1.77,-1.24,1.96,-1.96,-0.72,-1.51,-3.41,-3.20,-3.22
164.88,-1.71,1.54,-1.33,1.90,-1.90,-0.69,-1.40,-3.61,-3.23,-3.25
166.53,-1.72,1.56,-1.42,1.84,-1.84,-0.65,-1.29,-3.56,-3.26,-3.28
168.19,-1.61,1.69,-1.50,1.78,-1.78,-0.61,-1.19,-3.39,-3.27,-3.30
169.87,-1.54,1.77,-1.57,1.71,-1.71,-0.58,-1.08,-3.25,-3.28,-3.31
171.57,-1.54,1.76,-1.64,1.64,-1.64,-0.54,-0.97,-3.18,-3.29,-3.30
173.29,-1.54,1.75,-1.71,1.58,-1.58,-0.51,-0.86,-3.11,-3.28,-3.29
175.02,-1.54,1.73,-1.76,1.52,-1.52,-0.47,-0.75,-3.06,-3.28,-3.27
176.77,-1.73,1.53,-1.81,1.46,-1.46,-0.44,-0.65,-3.19,-3.27,-3.26
178.54,-1.77,1.48,-1.85,1.41,-1.41,-0.40,-0.54,-3.18,-3.26,-3.25
180.32,-1.85,1.39,-1.88,1.37,-1.37,-0.37,-0.44,-3.22,-3.25,-3.23
182.13,-1.95,1.27,-1.93,1.31,-1.31,-0.33,-0.33,-3.26,-3.25,-3.22
183.95,-2.09,1.12,-2.00,1.24,-1.24,-0.30,-0.22,-3.33,-3.24,-3.21
185.79,-2.22,1.00,-2.10,1.14,-1.14,-0.26,-0.12,-3.36,-3.24,-3.22
187.65,-2.23,1.00,-2.20,1.04,-1.04,-0.22,-0.02,-3.27,-3.24,-3.23
189.52,-2.40,0.84,-2.31,0.93,-0.93,-0.19,0.09,-3.33,-3.24,-3.24
191.42,-2.45,0.81,-2.42,0.83,-0.83,-0.15,0.19,-3.28,-3.25,-3.26
193.33,-2.45,0.82,-2.53,0.73,-0.73,-0.11,0.29,-3.18,-3.26,-3.27
195.27,-2.56,0.71,-2.65,0.62,-0.62,-0.07,0.39,-3.18,-3.27,-3.27
197.22,-2.66,0.62,-2.77,0.51,-0.51,-0.03,0.49,-3.17,-3.28,-3.28
199.19,-2.82,0.49,-2.90,0.39,-0.39,0.01,0.59,-3.21,-3.30,-3.31
201.18,-3.05,0.26,-3.04,0.27,-0.27,0.05,0.69,-3.32,-3.31,-3.31
203.19,-3.18,0.14,-3.17,0.15,-0.15,0.10,0.79,-3.33,-3.32,-3.32
205.23,-3.31,0.03,-3.30,0.03,-0.03,0.14,0.89,-3.34,-3.34,-3.34
207.28,-3.45,-0.11,-3.44,-0.09,0.09,0.19,0.98,-3.36,-3.35,-3.34
209.35,-3.56,-0.20,-3.57,-0.21,0.21,0.24,1.08,-3.35,-3.36,-3.36
211.44,-3.72,-0.34,-3.69,-0.32,0.32,0.29,1.17,-3.40,-3.37,-3.38
213.56,-3.97,-0.59,-3.81,-0.43,0.43,0.34,1.26,-3.54,-3.38,-3.38
215.69,-4.05,-0.67,-3.93,-0.54,0.54,0.39,1.35,-3.51,-3.39,-3.38
217.85,-4.05,-0.65,-4.02,-0.63,0.63,0.45,1.44,-3.42,-3.40,-3.40
220.03,-4.14,-0.74,-4.11,-0.71,0.71,0.51,1.52,-3.43,-3.40,-3.40
222.23,-4.24,-0.82,-4.20,-0.79,0.79,0.57,1.61,-3.45,-3.41,-3.42
224.45,-4.28,-0.86,-4.28,-0.86,0.86,0.64,1.69,-3.42,-3.42,-3.42
226.70,-4.28,-0.86,-4.37,-0.95,0.95,0.71,1.76,-3.33,-3.42,-3.41
228.96,-4.43,-1.01,-4.46,-1.04,1.04,0.78,1.83,-3.39,-3.42,-3.42
231.25,-4.49,-1.07,-4.55,-1.13,1.13,0.85,1.90,-3.36,-3.42,-3.42
233.57,-4.54,-1.12,-4.65,-1.22,1.22,0.93,1.97,-3.32,-3.42,-3.42
235.90,-4.72,-1.29,-4.75,-1.32,1.32,1.02,2.03,-3.39,-3.42,-3.43
238.26,-4.84,-1.41,-4.85,-1.44,1.44,1.11,2.09,-3.40,-3.42,-3.43
240.64,-4.95,-1.53,-4.99,-1.57,1.57,1.20,2.14,-3.38,-3.41,-3.42
243.05,-5.12,-1.71,-5.14,-1.73,1.73,1.30,2.19,-3.39,-3.41,-3.41
245.48,-5.35,-1.95,-5.29,-1.89,1.89,1.41,2.23,-3.46,-3.40,-3.40
247.93,-5.42,-2.03,-5.44,-2.05,2.05,1.52,2.27,-3.37,-3.39,-3.39
250.41,-5.61,-2.22,-5.59,-2.21,2.21,1.64,2.31,-3.40,-3.39,-3.39
252.92,-5.69,-2.31,-5.75,-2.37,2.37,1.77,2.34,-3.32,-3.38,-3.38
255.45,-5.84,-2.49,-5.89,-2.53,2.53,1.90,2.36,-3.31,-3.36,-3.35
258.00,-6.01,-2.67,-6.03,-2.68,2.68,2.04,2.39,-3.33,-3.35,-3.34
260.58,-6.24,-2.90,-6.17,-2.83,2.83,2.18,2.40,-3.41,-3.34,-3.34
263.19,-6.34,-3.02,-6.28,-2.96,2.96,2.34,2.42,-3.38,-3.32,-3.32
265.82,-6.53,-3.21,-6.39,-3.09,3.09,2.50,2.42,-3.44,-3.31,-3.32
268.48,-6.56,-3.27,-6.49,-3.20,3.20,2.66,2.43,-3.36,-3.29,-3.29
271.16,-6.56,-3.29,-6.57,-3.30,3.30,2.83,2.43,-3.26,-3.27,-3.27
273.87,-6.56,-3.30,-6.63,-3.38,3.38,3.00,2.43,-3.18,-3.25,-3.26
276.61,-6.69,-3.47,-6.69,-3.47,3.47,3.17,2.43,-3.22,-3.22,-3.22
279.38,-6.77,-3.57,-6.74,-3.54,3.54,3.34,2.42,-3.23,-3.20,-3.20
282.17,-6.78,-3.60,-6.78,-3.61,3.61,3.50,2.41,-3.17,-3.17,-3.18
284.99,-6.78,-3.63,-6.80,-3.66,3.66,3.66,2.40,-3.12,-3.15,-3.15
287.84,-6.78,-3.66,-6.82,-3.70,3.70,3.80,2.39,-3.08,-3.12,-3.12
290.72,-6.78,-3.69,-6.81,-3.72,3.72,3.93,2.38,-3.06,-3.09,-3.08
293.63,-6.78,-3.72,-6.80,-3.74,3.74,4.04,2.36,-3.04,-3.06,-3.06
296.57,-6.78,-3.75,-6.79,-3.76,3.76,4.12,2.35,-3.02,-3.03,-3.03
299.53,-6.78,-3.78,-6.77,-3.76,3.76,4.17,2.33,-3.02,-3.00,-3.00
302.53,-6.78,-3.79,-6.74,-3.76,3.76,4.20,2.32,-3.02,-2.98,-2.98
305.55,-6.78,-3.83,-6.71,-3.75,3.75,4.19,2.30,-3.03,-2.96,-2.95
308.61,-6.73,-3.80,-6.65,-3.71,3.71,4.16,2.29,-3.02,-2.94,-2.93
311.69,-6.58,-3.67,-6.60,-3.67,3.67,4.10,2.27,-2.91,-2.92,-2.91
314.81,-6.56,-3.68,-6.54,-3.63,3.63,4.01,2.26,-2.93,-2.91,-2.88
317.96,-6.41,-3.52,-6.48,-3.58,3.58,3.91,2.25,-2.83,-2.90,-2.88
321.14,-6.33,-3.44,-6.41,-3.53,3.53,3.78,2.23,-2.80,-2.88,-2.89
324.35,-6.33,-3.45,-6.34,-3.46,3.46,3.64,2.22,-2.87,-2.87,-2.88
327.59,-6.30,-3.43,-6.26,-3.40,3.40,3.50,2.21,-2.90,-2.86,-2.87
330.87,-6.15,-3.29,-6.18,-3.32,3.32,3.34,2.21,-2.82,-2.85,-2.86
334.18,-6.10,-3.25,-6.09,-3.25,3.25,3.19,2.20,-2.85,-2.84,-2.85
337.52,-5.97,-3.12,-6.01,-3.18,3.18,3.03,2.20,-2.79,-2.83,-2.84
340.90,-5.89,-3.07,-5.93,-3.12,3.12,2.88,2.19,-2.77,-2.81,-2.82
344.30,-5.87,-3.06,-5.85,-3.05,3.05,2.73,2.19,-2.82,-2.80,-2.81
347.75,-5.81,-3.02,-5.77,-2.99,2.99,2.59,2.19,-2.82,-2.78,-2.79
351.23,-5.69,-2.93,-5.68,-2.92,2.92,2.45,2.20,-2.77,-2.76,-2.76
354.74,-5.55,-2.81,-5.57,-2.83,2.83,2.33,2.20,-2.72,-2.74,-2.74
358.28,-5.44,-2.73,-5.45,-2.74,2.74,2.20,2.21,-2.70,-2.71,-2.71
361.87,-5.42,-2.73,-5.33,-2.65,2.65,2.09,2.22,-2.77,-2.69,-2.69
365.49,-5.25,-2.59,-5.21,-2.55,2.55,1.98,2.23,-2.70,-2.67,-2.66
369.14,-5.18,-2.53,-5.10,-2.45,2.45,1.89,2.24,-2.72,-2.64,-2.65
372.83,-5.02,-2.40,-4.98,-2.36,2.36,1.79,2.25,-2.66,-2.62,-2.62
376.56,-4.91,-2.31,-4.85,-2.25,2.25,1.71,2.27,-2.66,-2.60,-2.60
380.33,-4.67,-2.10,-4.72,-2.14,2.14,1.63,2.28,-2.53,-2.58,-2.57
384.13,-4.53,-1.98,-4.60,-2.04,2.04,1.56,2.30,-2.49,-2.56,-2.55
387.97,-4.35,-1.81,-4.49,-1.95,1.95,1.50,2.32,-2.40,-2.55,-2.54
391.85,-4.29,-1.76,-4.39,-1.85,1.85,1.45,2.34,-2.44,-2.53,-2.53
395.77,-4.28,-1.76,-4.29,-1.77,1.77,1.40,2.36,-2.51,-2.52,-2.52
399.73,-4.22,-1.71,-4.18,-1.68,1.68,1.35,2.39,-2.54,-2.51,-2.51
403.72,-4.09,-1.59,-4.09,-1.58,1.58,1.31,2.41,-2.50,-2.50,-2.50
407.76,-4.05,-1.56,-4.00,-1.50,1.50,1.28,2.44,-2.55,-2.49,-2.49
411.84,-3.92,-1.43,-3.91,-1.42,1.42,1.26,2.46,-2.50,-2.49,-2.48
415.96,-3.83,-1.35,-3.83,-1.35,1.35,1.24,2.49,-2.48,-2.48,-2.48
420.12,-3.82,-1.34,-3.76,-1.28,1.28,1.23,2.51,-2.54,-2.48,-2.48
424.32,-3.80,-1.32,-3.70,-1.23,1.23,1.22,2.54,-2.57,-2.48,-2.48
428.56,-3.65,-1.17,-3.64,-1.17,1.17,1.23,2.56,-2.48,-2.47,-2.48
432.85,-3.59,-1.11,-3.58,-1.11,1.11,1.24,2.59,-2.48,-2.47,-2.48
437.18,-3.49,-1.02,-3.50,-1.03,1.03,1.26,2.61,-2.45,-2.47,-2.47
441.55,-3.40,-0.94,-3.42,-0.96,0.96,1.28,2.63,-2.44,-2.46,-2.46
445.96,-3.37,-0.91,-3.36,-0.90,0.90,1.32,2.65,-2.47,-2.45,-2.46
450.42,-3.37,-0.92,-3.30,-0.85,0.85,1.37,2.67,-2.52,-2.45,-2.45
454.93,-3.37,-0.93,-3.25,-0.81,0.81,1.43,2.69,-2.55,-2.43,-2.44
459.48,-3.37,-0.94,-3.22,-0.80,0.80,1.50,2.70,-2.57,-2.42,-2.43
464.07,-3.37,-0.96,-3.23,-0.82,0.82,1.59,2.71,-2.55,-2.41,-2.41
468.71,-3.37,-0.98,-3.29,-0.90,0.90,1.70,2.71,-2.47,-2.39,-2.39
