frequency,raw,smoothed,error,error_smoothed,equalization,parametric_eq,fixed_band_eq,equalized_raw,equalized_smoothed,target
20.00,4.01,4.01,-3.95,-3.95,3.95,3.78,1.11,7.96,7.96,7.95
20.20,4.04,4.03,-3.92,-3.92,3.92,3.75,1.14,7.95,7.95,7.95
20.40,4.07,4.07,-3.89,-3.89,3.88,3.72,1.18,7.95,7.95,7.95
20.61,4.10,4.10,-3.86,-3.85,3.85,3.68,1.21,7.94,7.95,7.95
20.81,4.14,4.14,-3.81,-3.81,3.81,3.65,1.25,7.95,7.95,7.95
21.02,4.18,4.17,-3.77,-3.77,3.78,3.62,1.29,7.95,7.95,7.95
21.23,4.22,4.21,-3.73,-3.74,3.74,3.59,1.33,7.96,7.95,7.95
21.44,4.25,4.25,-3.70,-3.70,3.70,3.55,1.37,7.95,7.95,7.95
21.66,4.29,4.28,-3.66,-3.66,3.67,3.52,1.41,7.95,7.95,7.95
21.87,4.32,4.32,-3.63,-3.63,3.63,3.49,1.45,7.94,7.95,7.95
22.09,4.36,4.36,-3.59,-3.59,3.59,3.45,1.50,7.95,7.95,7.95
22.31,4.40,4.39,-3.55,-3.55,3.55,3.42,1.54,7.94,7.94,7.94
22.54,4.44,4.44,-3.51,-3.51,3.51,3.39,1.59,7.94,7.94,7.94
22.76,4.48,4.48,-3.47,-3.46,3.46,3.35,1.64,7.94,7.94,7.94
22.99,4.53,4.52,-3.42,-3.42,3.41,3.32,1.69,7.94,7.94,7.94
23.22,4.58,4.58,-3.37,-3.37,3.36,3.28,1.74,7.94,7.94,7.94
23.45,4.63,4.63,-3.31,-3.31,3.31,3.25,1.79,7.94,7.94,7.94
23.69,4.69,4.68,-3.25,-3.26,3.26,3.21,1.84,7.95,7.94,7.94
23.92,4.74,4.73,-3.20,-3.20,3.21,3.18,1.89,7.95,7.95,7.94
24.16,4.78,4.78,-3.16,-3.16,3.16,3.14,1.95,7.94,7.94,7.94
24.40,4.83,4.82,-3.11,-3.11,3.12,3.10,2.00,7.94,7.94,7.94
24.65,4.86,4.86,-3.08,-3.07,3.07,3.07,2.06,7.93,7.93,7.93
24.89,4.90,4.90,-3.04,-3.03,3.03,3.03,2.11,7.93,7.93,7.93
25.14,4.94,4.94,-2.99,-3.00,2.99,2.99,2.17,7.93,7.93,7.93
25.39,4.98,4.98,-2.95,-2.95,2.95,2.96,2.23,7.93,7.93,7.93
25.65,5.02,5.02,-2.91,-2.91,2.91,2.92,2.28,7.93,7.93,7.93
25.91,5.06,5.06,-2.87,-2.87,2.87,2.88,2.34,7.93,7.93,7.93
26.16,5.10,5.10,-2.83,-2.83,2.83,2.85,2.39,7.93,7.93,7.93
26.43,5.14,5.14,-2.79,-2.79,2.79,2.81,2.45,7.93,7.93,7.92
26.69,5.18,5.17,-2.75,-2.75,2.76,2.77,2.50,7.93,7.93,7.92
26.96,5.21,5.21,-2.71,-2.71,2.72,2.73,2.56,7.92,7.93,7.92
27.23,5.25,5.24,-2.67,-2.68,2.68,2.69,2.61,7.92,7.92,7.92
27.50,5.28,5.27,-2.64,-2.64,2.64,2.65,2.66,7.91,7.91,7.92
27.77,5.31,5.31,-2.61,-2.60,2.59,2.61,2.70,7.90,7.90,7.91
28.05,5.36,5.35,-2.56,-2.56,2.54,2.58,2.75,7.90,7.90,7.91
28.33,5.41,5.41,-2.50,-2.50,2.49,2.54,2.79,7.90,7.90,7.91
28.62,5.47,5.47,-2.44,-2.44,2.44,2.50,2.83,7.91,7.91,7.91
28.90,5.53,5.52,-2.38,-2.38,2.39,2.46,2.86,7.92,7.91,7.91
29.19,5.58,5.58,-2.33,-2.33,2.34,2.42,2.89,7.91,7.92,7.90
29.48,5.63,5.63,-2.28,-2.28,2.29,2.38,2.92,7.91,7.91,7.90
29.78,5.67,5.67,-2.23,-2.23,2.24,2.34,2.94,7.91,7.91,7.90
30.08,5.71,5.70,-2.19,-2.19,2.19,2.30,2.96,7.90,7.90,7.90
30.38,5.74,5.74,-2.16,-2.15,2.15,2.26,2.97,7.89,7.89,7.89
30.68,5.78,5.78,-2.11,-2.11,2.11,2.22,2.97,7.89,7.89,7.89
30.99,5.82,5.81,-2.07,-2.07,2.07,2.17,2.98,7.88,7.88,7.89
31.30,5.86,5.86,-2.03,-2.03,2.03,2.13,2.97,7.88,7.88,7.88
31.61,5.90,5.90,-1.99,-1.98,1.98,2.09,2.96,7.88,7.88,7.88
31.93,5.95,5.94,-1.93,-1.94,1.94,2.05,2.95,7.88,7.88,7.88
32.24,5.99,5.99,-1.89,-1.89,1.89,2.01,2.93,7.88,7.88,7.88
32.57,6.03,6.03,-1.85,-1.84,1.85,1.97,2.91,7.87,7.87,7.87
32.89,6.07,6.07,-1.80,-1.80,1.80,1.93,2.88,7.87,7.87,7.87
33.22,6.11,6.11,-1.76,-1.76,1.76,1.89,2.84,7.86,7.86,7.86
33.55,6.15,6.15,-1.71,-1.71,1.71,1.84,2.80,7.86,7.86,7.86
33.89,6.19,6.19,-1.67,-1.67,1.67,1.80,2.76,7.86,7.86,7.86
34.23,6.23,6.22,-1.63,-1.63,1.63,1.76,2.71,7.86,7.85,7.85
34.57,6.26,6.26,-1.59,-1.59,1.59,1.72,2.66,7.85,7.85,7.85
34.92,6.30,6.29,-1.55,-1.55,1.55,1.68,2.61,7.85,7.84,7.84
35.27,6.33,6.33,-1.51,-1.51,1.51,1.63,2.55,7.83,7.84,7.84
35.62,6.37,6.36,-1.47,-1.47,1.47,1.59,2.49,7.83,7.83,7.83
35.97,6.40,6.40,-1.43,-1.43,1.43,1.55,2.43,7.82,7.82,7.83
36.33,6.44,6.44,-1.39,-1.39,1.38,1.51,2.37,7.82,7.82,7.82
36.70,6.48,6.48,-1.34,-1.34,1.34,1.47,2.30,7.82,7.82,7.82
37.06,6.52,6.52,-1.30,-1.30,1.30,1.42,2.24,7.81,7.81,7.81
37.43,6.56,6.55,-1.25,-1.25,1.26,1.38,2.17,7.81,7.81,7.81
37.81,6.59,6.59,-1.21,-1.21,1.21,1.34,2.10,7.80,7.80,7.80
38.19,6.63,6.62,-1.17,-1.17,1.17,1.30,2.03,7.80,7.79,7.79
38.57,6.66,6.66,-1.13,-1.13,1.13,1.25,1.96,7.79,7.79,7.79
38.95,6.69,6.69,-1.09,-1.09,1.09,1.21,1.89,7.78,7.78,7.78
39.34,6.73,6.72,-1.05,-1.05,1.05,1.17,1.82,7.78,7.78,7.77
39.74,6.76,6.76,-1.01,-1.01,1.01,1.12,1.75,7.77,7.77,7.77
40.14,6.79,6.78,-0.97,-0.97,0.98,1.08,1.69,7.76,7.76,7.76
40.54,6.81,6.81,-0.94,-0.94,0.94,1.04,1.62,7.75,7.75,7.75
40.94,6.84,6.84,-0.91,-0.90,0.90,1.00,1.55,7.74,7.74,7.74
41.35,6.87,6.86,-0.87,-0.87,0.87,0.95,1.48,7.73,7.73,7.73
41.76,6.90,6.89,-0.83,-0.83,0.83,0.91,1.41,7.73,7.72,7.73
42.18,6.92,6.92,-0.80,-0.80,0.80,0.87,1.35,7.71,7.72,7.72
42.60,6.95,6.95,-0.76,-0.76,0.76,0.83,1.28,7.71,7.71,7.71
43.03,6.98,6.97,-0.72,-0.72,0.73,0.78,1.22,7.70,7.70,7.70
43.46,7.00,7.00,-0.69,-0.69,0.69,0.74,1.15,7.69,7.69,7.69
43.90,7.03,7.02,-0.65,-0.65,0.65,0.70,1.09,7.68,7.68,7.68
44.33,7.05,7.05,-0.62,-0.62,0.62,0.65,1.03,7.67,7.67,7.67
44.78,7.07,7.07,-0.59,-0.59,0.58,0.61,0.97,7.65,7.65,7.65
45.23,7.10,7.09,-0.55,-0.55,0.55,0.57,0.91,7.64,7.64,7.64
45.68,7.12,7.12,-0.51,-0.51,0.51,0.53,0.85,7.63,7.63,7.63
46.13,7.15,7.14,-0.47,-0.47,0.47,0.48,0.79,7.62,7.62,7.62
46.60,7.17,7.17,-0.44,-0.44,0.44,0.44,0.73,7.60,7.61,7.61
47.06,7.20,7.19,-0.40,-0.40,0.40,0.40,0.67,7.60,7.60,7.59
47.53,7.22,7.22,-0.36,-0.36,0.37,0.35,0.62,7.58,7.58,7.58
48.01,7.24,7.24,-0.33,-0.33,0.33,0.31,0.56,7.57,7.57,7.56
48.49,7.26,7.26,-0.29,-0.29,0.29,0.27,0.51,7.55,7.55,7.55
48.97,7.28,7.28,-0.26,-0.26,0.26,0.23,0.45,7.53,7.53,7.53
49.46,7.30,7.30,-0.22,-0.22,0.22,0.18,0.40,7.52,7.51,7.52
49.96,7.32,7.32,-0.19,-0.19,0.18,0.14,0.35,7.50,7.50,7.50
50.46,7.34,7.34,-0.15,-0.15,0.14,0.10,0.30,7.48,7.48,7.48
50.96,7.37,7.36,-0.10,-0.10,0.11,0.06,0.25,7.47,7.47,7.47
51.47,7.39,7.39,-0.06,-0.06,0.07,0.01,0.19,7.45,7.45,7.45
51.99,7.41,7.40,-0.02,-0.03,0.03,-0.03,0.15,7.44,7.43,7.43
52.51,7.42,7.42,0.00,0.01,-0.01,-0.07,0.10,7.41,7.41,7.41
53.03,7.44,7.44,0.04,0.05,-0.05,-0.11,0.05,7.39,7.39,7.39
53.56,7.46,7.45,0.09,0.08,-0.09,-0.16,-0.00,7.37,7.37,7.37
54.10,7.48,7.47,0.13,0.12,-0.12,-0.20,-0.05,7.35,7.35,7.35
54.64,7.49,7.49,0.16,0.16,-0.16,-0.24,-0.09,7.32,7.33,7.33
55.18,7.51,7.51,0.20,0.20,-0.20,-0.29,-0.14,7.30,7.30,7.30
55.74,7.53,7.53,0.24,0.24,-0.24,-0.33,-0.19,7.28,7.28,7.28
56.29,7.55,7.54,0.29,0.29,-0.28,-0.37,-0.23,7.26,7.26,7.26
56.86,7.56,7.56,0.32,0.32,-0.32,-0.41,-0.27,7.23,7.23,7.23
57.42,7.57,7.57,0.36,0.36,-0.36,-0.46,-0.32,7.20,7.21,7.21
58.00,7.58,7.58,0.40,0.40,-0.40,-0.50,-0.36,7.17,7.18,7.18
58.58,7.60,7.59,0.44,0.44,-0.44,-0.54,-0.40,7.15,7.15,7.15
59.16,7.61,7.61,0.48,0.48,-0.48,-0.58,-0.44,7.13,7.13,7.13
59.76,7.62,7.62,0.52,0.52,-0.52,-0.63,-0.48,7.10,7.10,7.10
60.35,7.63,7.63,0.56,0.56,-0.56,-0.67,-0.52,7.07,7.07,7.07
60.96,7.64,7.63,0.60,0.60,-0.60,-0.71,-0.56,7.04,7.04,7.04
61.57,7.64,7.64,0.63,0.63,-0.63,-0.76,-0.60,7.00,7.00,7.00
62.18,7.65,7.64,0.67,0.67,-0.67,-0.80,-0.64,6.97,6.97,6.97
62.80,7.65,7.65,0.71,0.71,-0.71,-0.84,-0.68,6.94,6.94,6.94
63.43,7.66,7.65,0.75,0.75,-0.75,-0.88,-0.72,6.91,6.90,6.90
64.07,7.66,7.66,0.79,0.79,-0.79,-0.93,-0.75,6.87,6.87,6.87
64.71,7.66,7.66,0.82,0.83,-0.83,-0.97,-0.79,6.83,6.83,6.83
65.35,7.67,7.66,0.87,0.87,-0.87,-1.01,-0.82,6.80,6.80,6.80
66.01,7.67,7.67,0.91,0.91,-0.91,-1.06,-0.86,6.76,6.76,6.76
66.67,7.67,7.67,0.95,0.95,-0.95,-1.10,-0.90,6.72,6.72,6.72
67.33,7.67,7.67,0.99,0.99,-0.99,-1.14,-0.93,6.68,6.68,6.68
68.01,7.67,7.67,1.03,1.03,-1.03,-1.19,-0.97,6.64,6.64,6.64
68.69,7.67,7.66,1.07,1.07,-1.07,-1.23,-1.00,6.60,6.60,6.60
69.37,7.66,7.66,1.10,1.11,-1.11,-1.27,-1.04,6.55,6.55,6.55
70.07,7.66,7.66,1.15,1.15,-1.15,-1.32,-1.07,6.51,6.51,6.51
70.77,7.66,7.65,1.19,1.19,-1.19,-1.36,-1.11,6.47,6.46,6.46
71.48,7.65,7.65,1.23,1.23,-1.23,-1.40,-1.15,6.42,6.42,6.42
72.19,7.64,7.64,1.27,1.27,-1.27,-1.45,-1.18,6.37,6.37,6.37
72.91,7.64,7.63,1.31,1.31,-1.31,-1.49,-1.22,6.33,6.32,6.32
73.64,7.63,7.63,1.35,1.35,-1.35,-1.53,-1.26,6.27,6.27,6.27
74.38,7.62,7.62,1.39,1.39,-1.39,-1.58,-1.30,6.22,6.22,6.22
75.12,7.61,7.61,1.43,1.43,-1.44,-1.62,-1.34,6.17,6.17,6.17
75.87,7.60,7.60,1.48,1.48,-1.48,-1.66,-1.38,6.12,6.12,6.12
76.63,7.59,7.59,1.52,1.52,-1.52,-1.71,-1.42,6.07,6.07,6.07
77.40,7.58,7.58,1.56,1.56,-1.56,-1.75,-1.46,6.01,6.01,6.01
78.17,7.57,7.56,1.61,1.61,-1.61,-1.79,-1.51,5.96,5.96,5.96
78.95,7.55,7.55,1.65,1.65,-1.65,-1.83,-1.55,5.90,5.90,5.90
79.74,7.54,7.54,1.69,1.69,-1.70,-1.88,-1.60,5.84,5.84,5.84
80.54,7.53,7.52,1.74,1.74,-1.74,-1.92,-1.65,5.79,5.78,5.78
81.35,7.51,7.51,1.78,1.78,-1.78,-1.96,-1.70,5.72,5.73,5.73
82.16,7.50,7.49,1.83,1.83,-1.83,-2.00,-1.75,5.67,5.67,5.66
82.98,7.48,7.48,1.87,1.87,-1.87,-2.05,-1.80,5.61,5.61,5.60
83.81,7.46,7.46,1.91,1.91,-1.91,-2.09,-1.86,5.54,5.54,5.54
84.65,7.44,7.44,1.96,1.96,-1.96,-2.13,-1.91,5.48,5.48,5.48
85.50,7.42,7.42,2.00,2.00,-2.00,-2.17,-1.97,5.41,5.41,5.42
86.35,7.40,7.40,2.04,2.04,-2.05,-2.21,-2.03,5.35,5.35,5.35
87.22,7.38,7.38,2.09,2.09,-2.09,-2.25,-2.09,5.29,5.29,5.29
88.09,7.36,7.36,2.14,2.14,-2.13,-2.29,-2.15,5.22,5.22,5.22
88.97,7.34,7.33,2.18,2.18,-2.18,-2.33,-2.22,5.16,5.16,5.15
89.86,7.31,7.31,2.22,2.22,-2.22,-2.37,-2.29,5.08,5.09,5.09
90.76,7.29,7.28,2.27,2.27,-2.27,-2.41,-2.35,5.02,5.02,5.02
91.66,7.26,7.26,2.31,2.31,-2.31,-2.45,-2.42,4.94,4.95,4.95
92.58,7.24,7.23,2.36,2.35,-2.35,-2.49,-2.50,4.88,4.88,4.88
93.51,7.21,7.21,2.40,2.40,-2.40,-2.53,-2.57,4.81,4.81,4.81
94.44,7.19,7.18,2.45,2.44,-2.44,-2.56,-2.64,4.74,4.74,4.74
95.39,7.16,7.16,2.49,2.49,-2.49,-2.60,-2.72,4.67,4.67,4.67
96.34,7.13,7.13,2.53,2.53,-2.53,-2.64,-2.80,4.60,4.60,4.60
97.30,7.10,7.10,2.57,2.57,-2.57,-2.67,-2.88,4.52,4.52,4.53
98.28,7.07,7.07,2.61,2.61,-2.61,-2.71,-2.96,4.45,4.45,4.45
99.26,7.04,7.04,2.65,2.65,-2.65,-2.74,-3.04,4.38,4.38,4.38
100.25,7.01,7.00,2.70,2.69,-2.69,-2.77,-3.12,4.32,4.31,4.31
101.25,6.97,6.97,2.73,2.73,-2.73,-2.80,-3.20,4.24,4.24,4.24
102.27,6.93,6.93,2.76,2.76,-2.76,-2.83,-3.28,4.16,4.16,4.16
103.29,6.89,6.89,2.79,2.79,-2.80,-2.86,-3.36,4.09,4.09,4.09
104.32,6.85,6.85,2.83,2.83,-2.83,-2.89,-3.44,4.02,4.02,4.02
105.37,6.81,6.81,2.86,2.86,-2.86,-2.92,-3.53,3.94,3.95,3.95
106.42,6.77,6.77,2.89,2.89,-2.89,-2.94,-3.60,3.87,3.87,3.87
107.48,6.73,6.72,2.93,2.92,-2.92,-2.97,-3.68,3.80,3.80,3.80
108.56,6.68,6.68,2.95,2.95,-2.95,-2.99,-3.76,3.72,3.73,3.73
109.64,6.64,6.63,2.98,2.98,-2.98,-3.02,-3.83,3.66,3.65,3.65
110.74,6.59,6.59,3.00,3.01,-3.01,-3.04,-3.90,3.58,3.58,3.58
111.85,6.55,6.54,3.04,3.03,-3.03,-3.06,-3.97,3.51,3.51,3.51
112.97,6.50,6.50,3.06,3.06,-3.06,-3.08,-4.03,3.44,3.44,3.44
114.10,6.45,6.45,3.08,3.08,-3.08,-3.09,-4.09,3.36,3.37,3.37
115.24,6.40,6.40,3.10,3.10,-3.10,-3.11,-4.14,3.29,3.29,3.29
116.39,6.35,6.35,3.12,3.12,-3.12,-3.12,-4.18,3.22,3.22,3.22
117.55,6.30,6.30,3.14,3.14,-3.14,-3.14,-4.22,3.15,3.15,3.15
118.73,6.25,6.24,3.16,3.16,-3.16,-3.15,-4.26,3.09,3.08,3.08
119.92,6.19,6.19,3.17,3.18,-3.17,-3.16,-4.28,3.01,3.02,3.01
121.12,6.14,6.13,3.19,3.19,-3.19,-3.16,-4.30,2.95,2.95,2.94
122.33,6.08,6.08,3.20,3.20,-3.20,-3.17,-4.31,2.88,2.88,2.88
123.55,6.02,6.02,3.21,3.21,-3.21,-3.17,-4.31,2.81,2.81,2.81
124.79,5.96,5.96,3.21,3.21,-3.22,-3.18,-4.30,2.74,2.74,2.74
126.03,5.90,5.90,3.22,3.22,-3.22,-3.18,-4.29,2.67,2.68,2.68
127.29,5.84,5.84,3.23,3.23,-3.22,-3.18,-4.26,2.61,2.61,2.61
128.57,5.78,5.77,3.23,3.23,-3.22,-3.17,-4.24,2.55,2.55,2.55
129.85,5.71,5.71,3.22,3.22,-3.22,-3.17,-4.19,2.48,2.48,2.48
131.15,5.64,5.64,3.22,3.22,-3.22,-3.16,-4.15,2.42,2.42,2.42
132.46,5.57,5.57,3.21,3.21,-3.22,-3.15,-4.09,2.35,2.35,2.36
133.79,5.51,5.50,3.21,3.21,-3.21,-3.14,-4.03,2.30,2.30,2.30
135.12,5.44,5.44,3.20,3.20,-3.20,-3.13,-3.96,2.24,2.24,2.24
136.48,5.37,5.36,3.19,3.19,-3.19,-3.12,-3.89,2.18,2.18,2.18
137.84,5.29,5.29,3.17,3.17,-3.17,-3.10,-3.81,2.11,2.12,2.12
139.22,5.22,5.22,3.16,3.16,-3.16,-3.08,-3.73,2.06,2.06,2.06
140.61,5.15,5.14,3.14,3.14,-3.14,-3.06,-3.63,2.01,2.00,2.00
142.02,5.07,5.07,3.12,3.12,-3.12,-3.04,-3.54,1.95,1.95,1.95
143.44,4.99,4.99,3.09,3.10,-3.10,-3.01,-3.44,1.89,1.89,1.89
144.87,4.92,4.91,3.08,3.07,-3.07,-2.99,-3.34,1.85,1.84,1.84
146.32,4.83,4.83,3.04,3.04,-3.04,-2.96,-3.24,1.78,1.79,1.79
147.78,4.75,4.75,3.01,3.01,-3.01,-2.93,-3.13,1.73,1.73,1.73
149.26,4.67,4.66,2.98,2.98,-2.98,-2.89,-3.02,1.68,1.68,1.68
150.75,4.59,4.58,2.95,2.95,-2.95,-2.86,-2.91,1.64,1.64,1.63
152.26,4.50,4.50,2.91,2.91,-2.91,-2.82,-2.80,1.58,1.59,1.59
153.78,4.42,4.41,2.88,2.87,-2.87,-2.78,-2.69,1.54,1.54,1.54
155.32,4.33,4.33,2.83,2.83,-2.84,-2.74,-2.58,1.49,1.49,1.49
156.88,4.24,4.24,2.79,2.79,-2.80,-2.70,-2.47,1.44,1.44,1.45
158.44,4.16,4.15,2.75,2.75,-2.75,-2.65,-2.36,1.40,1.40,1.40
160.03,4.07,4.07,2.71,2.71,-2.71,-2.60,-2.24,1.36,1.36,1.36
161.63,3.98,3.98,2.67,2.67,-2.66,-2.55,-2.13,1.31,1.31,1.31
163.24,3.89,3.88,2.62,2.62,-2.61,-2.50,-2.02,1.27,1.27,1.27
164.88,3.79,3.79,2.56,2.56,-2.56,-2.45,-1.91,1.22,1.23,1.22
166.53,3.70,3.69,2.51,2.51,-2.51,-2.39,-1.80,1.19,1.18,1.19
168.19,3.60,3.60,2.45,2.45,-2.46,-2.33,-1.69,1.14,1.14,1.15
169.87,3.51,3.50,2.40,2.39,-2.40,-2.27,-1.58,1.11,1.11,1.11
171.57,3.41,3.41,2.33,2.34,-2.34,-2.21,-1.48,1.07,1.07,1.07
173.29,3.32,3.31,2.28,2.28,-2.27,-2.15,-1.37,1.04,1.04,1.04
175.02,3.22,3.21,2.21,2.21,-2.21,-2.08,-1.27,1.01,1.01,1.00
176.77,3.11,3.11,2.14,2.14,-2.14,-2.01,-1.16,0.97,0.97,0.97
178.54,3.01,3.00,2.07,2.07,-2.07,-1.94,-1.06,0.94,0.94,0.94
180.32,2.90,2.90,1.99,1.99,-2.00,-1.87,-0.96,0.90,0.90,0.91
182.13,2.80,2.79,1.92,1.92,-1.92,-1.80,-0.86,0.87,0.87,0.87
183.95,2.69,2.69,1.84,1.84,-1.85,-1.72,-0.75,0.84,0.84,0.84
185.79,2.59,2.58,1.77,1.77,-1.77,-1.65,-0.66,0.82,0.81,0.82
187.65,2.48,2.48,1.69,1.69,-1.69,-1.57,-0.56,0.78,0.79,0.79
189.52,2.38,2.37,1.62,1.61,-1.61,-1.49,-0.46,0.76,0.76,0.76
191.42,2.27,2.27,1.53,1.53,-1.53,-1.40,-0.36,0.74,0.74,0.73
193.33,2.16,2.15,1.45,1.45,-1.45,-1.32,-0.27,0.71,0.71,0.71
195.27,2.04,2.04,1.35,1.36,-1.36,-1.23,-0.17,0.68,0.68,0.68
197.22,1.93,1.93,1.27,1.27,-1.27,-1.15,-0.08,0.66,0.66,0.66
199.19,1.81,1.81,1.17,1.17,-1.17,-1.06,0.02,0.63,0.63,0.63
201.18,1.70,1.69,1.08,1.08,-1.08,-0.97,0.11,0.62,0.61,0.61
203.19,1.57,1.57,0.98,0.98,-0.98,-0.87,0.20,0.59,0.59,0.59
205.23,1.45,1.45,0.88,0.88,-0.88,-0.78,0.29,0.57,0.57,0.57
207.28,1.33,1.32,0.78,0.77,-0.78,-0.68,0.38,0.55,0.55,0.55
209.35,1.20,1.20,0.67,0.67,-0.67,-0.59,0.46,0.53,0.53,0.53
211.44,1.07,1.07,0.56,0.56,-0.56,-0.49,0.55,0.50,0.51,0.51
213.56,0.95,0.94,0.46,0.45,-0.46,-0.39,0.64,0.49,0.49,0.49
215.69,0.82,0.82,0.35,0.35,-0.35,-0.29,0.72,0.47,0.47,0.47
217.85,0.69,0.69,0.23,0.23,-0.23,-0.18,0.80,0.45,0.45,0.45
220.03,0.56,0.56,0.12,0.12,-0.12,-0.08,0.88,0.44,0.44,0.44
222.23,0.43,0.43,0.01,0.01,-0.01,0.02,0.96,0.42,0.42,0.42
224.45,0.30,0.30,-0.11,-0.11,0.11,0.13,1.04,0.41,0.41,0.40
226.70,0.17,0.16,-0.22,-0.22,0.22,0.24,1.11,0.39,0.39,0.39
228.96,0.03,0.03,-0.35,-0.34,0.34,0.35,1.18,0.37,0.37,0.37
231.25,-0.10,-0.10,-0.46,-0.46,0.46,0.45,1.25,0.35,0.35,0.36
233.57,-0.23,-0.23,-0.58,-0.58,0.57,0.56,1.32,0.34,0.34,0.34
235.90,-0.36,-0.36,-0.68,-0.69,0.69,0.68,1.39,0.32,0.32,0.32
238.26,-0.49,-0.49,-0.80,-0.80,0.80,0.79,1.45,0.31,0.31,0.31
240.64,-0.62,-0.62,-0.92,-0.92,0.92,0.90,1.51,0.30,0.30,0.30
243.05,-0.75,-0.75,-1.04,-1.04,1.04,1.01,1.57,0.28,0.28,0.28
245.48,-0.88,-0.88,-1.16,-1.16,1.15,1.12,1.62,0.27,0.27,0.27
247.93,-1.01,-1.01,-1.27,-1.27,1.27,1.24,1.68,0.26,0.26,0.26
250.41,-1.14,-1.14,-1.39,-1.39,1.39,1.35,1.73,0.25,0.25,0.25
252.92,-1.27,-1.27,-1.51,-1.51,1.51,1.47,1.78,0.24,0.24,0.24
255.45,-1.40,-1.40,-1.63,-1.63,1.64,1.58,1.82,0.23,0.23,0.23
258.00,-1.53,-1.54,-1.75,-1.76,1.76,1.69,1.86,0.22,0.22,0.22
260.58,-1.67,-1.67,-1.88,-1.88,1.88,1.81,1.90,0.21,0.21,0.21
263.19,-1.80,-1.80,-2.00,-2.00,2.00,1.92,1.94,0.20,0.20,0.20
265.82,-1.93,-1.94,-2.12,-2.13,2.12,2.04,1.98,0.19,0.19,0.19
268.48,-2.06,-2.06,-2.25,-2.25,2.24,2.15,2.01,0.18,0.18,0.18
271.16,-2.19,-2.19,-2.37,-2.37,2.36,2.26,2.05,0.17,0.17,0.17
273.87,-2.31,-2.31,-2.48,-2.48,2.48,2.37,2.08,0.17,0.16,0.17
276.61,-2.43,-2.44,-2.59,-2.59,2.60,2.48,2.11,0.16,0.16,0.16
279.38,-2.55,-2.55,-2.70,-2.70,2.71,2.59,2.14,0.16,0.16,0.15
282.17,-2.67,-2.68,-2.82,-2.82,2.83,2.70,2.17,0.15,0.15,0.14
284.99,-2.79,-2.79,-2.94,-2.94,2.94,2.81,2.20,0.15,0.15,0.15
287.84,-2.91,-2.91,-3.06,-3.06,3.05,2.92,2.22,0.14,0.14,0.15
290.72,-3.02,-3.02,-3.17,-3.17,3.17,3.02,2.25,0.14,0.14,0.14
293.63,-3.13,-3.14,-3.27,-3.28,3.28,3.12,2.28,0.14,0.14,0.14
296.57,-3.24,-3.24,-3.39,-3.39,3.39,3.22,2.31,0.14,0.14,0.14
299.53,-3.35,-3.35,-3.50,-3.49,3.49,3.32,2.34,0.14,0.14,0.15
302.53,-3.45,-3.45,-3.59,-3.60,3.60,3.42,2.37,0.14,0.14,0.14
305.55,-3.55,-3.55,-3.70,-3.70,3.70,3.52,2.40,0.14,0.14,0.15
308.61,-3.64,-3.65,-3.78,-3.79,3.79,3.61,2.43,0.15,0.14,0.14
311.69,-3.74,-3.74,-3.89,-3.89,3.88,3.70,2.46,0.14,0.14,0.15
314.81,-3.83,-3.83,-3.97,-3.97,3.97,3.79,2.50,0.14,0.14,0.14
317.96,-3.91,-3.92,-4.06,-4.06,4.06,3.87,2.53,0.14,0.14,0.15
321.14,-3.99,-4.00,-4.14,-4.14,4.14,3.95,2.57,0.15,0.14,0.14
324.35,-4.07,-4.07,-4.22,-4.22,4.22,4.03,2.61,0.14,0.15,0.15
327.59,-4.14,-4.14,-4.30,-4.29,4.29,4.11,2.65,0.15,0.15,0.15
330.87,-4.20,-4.21,-4.35,-4.36,4.36,4.18,2.69,0.16,0.15,0.15
334.18,-4.27,-4.27,-4.43,-4.42,4.43,4.25,2.74,0.15,0.16,0.16
337.52,-4.33,-4.33,-4.49,-4.49,4.49,4.32,2.78,0.16,0.16,0.15
340.90,-4.39,-4.39,-4.55,-4.55,4.55,4.38,2.83,0.16,0.16,0.16
344.30,-4.44,-4.44,-4.61,-4.61,4.61,4.44,2.89,0.16,0.16,0.16
347.75,-4.49,-4.49,-4.67,-4.66,4.66,4.50,2.94,0.17,0.17,0.17
351.23,-4.53,-4.53,-4.70,-4.71,4.71,4.55,3.00,0.17,0.17,0.17
354.74,-4.57,-4.57,-4.76,-4.75,4.75,4.60,3.06,0.18,0.18,0.19
358.28,-4.60,-4.60,-4.79,-4.79,4.79,4.64,3.12,0.18,0.18,0.18
361.87,-4.63,-4.63,-4.82,-4.82,4.82,4.68,3.18,0.19,0.19,0.19
365.49,-4.65,-4.65,-4.85,-4.85,4.85,4.72,3.25,0.20,0.20,0.20
369.14,-4.67,-4.67,-4.87,-4.87,4.87,4.76,3.32,0.20,0.20,0.19
372.83,-4.68,-4.69,-4.90,-4.89,4.89,4.79,3.39,0.21,0.21,0.21
376.56,-4.70,-4.70,-4.91,-4.91,4.91,4.81,3.46,0.21,0.21,0.21
380.33,-4.71,-4.71,-4.93,-4.92,4.93,4.84,3.53,0.21,0.21,0.22
384.13,-4.71,-4.72,-4.93,-4.93,4.94,4.86,3.61,0.22,0.22,0.21
387.97,-4.71,-4.72,-4.94,-4.94,4.94,4.88,3.69,0.23,0.23,0.22
391.85,-4.71,-4.71,-4.95,-4.94,4.94,4.89,3.77,0.23,0.23,0.24
395.77,-4.70,-4.70,-4.94,-4.95,4.94,4.90,3.85,0.24,0.24,0.24
399.73,-4.69,-4.69,-4.94,-4.94,4.94,4.91,3.94,0.24,0.24,0.25
403.72,-4.67,-4.68,-4.93,-4.93,4.93,4.91,4.02,0.25,0.25,0.25
407.76,-4.66,-4.66,-4.92,-4.91,4.92,4.91,4.11,0.25,0.26,0.25
411.84,-4.63,-4.64,-4.89,-4.90,4.90,4.91,4.20,0.27,0.26,0.26
415.96,-4.61,-4.62,-4.88,-4.88,4.88,4.90,4.28,0.27,0.27,0.27
420.12,-4.59,-4.59,-4.86,-4.86,4.87,4.90,4.37,0.27,0.27,0.27
424.32,-4.57,-4.57,-4.85,-4.85,4.85,4.89,4.46,0.27,0.27,0.28
428.56,-4.54,-4.54,-4.83,-4.83,4.82,4.88,4.54,0.28,0.28,0.28
432.85,-4.51,-4.52,-4.81,-4.81,4.80,4.86,4.62,0.29,0.29,0.29
437.18,-4.48,-4.48,-4.78,-4.78,4.78,4.84,4.71,0.30,0.30,0.29
441.55,-4.45,-4.45,-4.75,-4.75,4.76,4.82,4.78,0.30,0.31,0.30
445.96,-4.41,-4.41,-4.72,-4.73,4.73,4.80,4.86,0.32,0.31,0.31
450.42,-4.37,-4.38,-4.70,-4.70,4.70,4.78,4.93,0.33,0.32,0.33
454.93,-4.34,-4.34,-4.68,-4.68,4.67,4.75,5.00,0.33,0.33,0.34
459.48,-4.30,-4.30,-4.65,-4.65,4.64,4.73,5.07,0.34,0.34,0.34
464.07,-4.26,-4.27,-4.61,-4.61,4.61,4.70,5.12,0.35,0.35,0.34
468.71,-4.22,-4.22,-4.58,-4.58,4.58,4.67,5.18,0.35,0.35,0.35
473.40,-4.18,-4.18,-4.55,-4.54,4.54,4.64,5.22,0.36,0.36,0.36
478.13,-4.13,-4.14,-4.50,-4.51,4.51,4.61,5.26,0.37,0.37,0.37
482.91,-4.09,-4.09,-4.47,-4.47,4.47,4.57,5.29,0.38,0.38,0.38
487.74,-4.04,-4.04,-4.43,-4.43,4.43,4.54,5.32,0.39,0.39,0.39
492.62,-3.99,-4.00,-4.39,-4.39,4.40,4.50,5.34,0.40,0.40,0.40
497.55,-3.94,-3.95,-4.35,-4.35,4.36,4.46,5.34,0.41,0.41,0.41
502.52,-3.90,-3.90,-4.32,-4.32,4.32,4.42,5.35,0.42,0.42,0.42
507.55,-3.85,-3.85,-4.29,-4.29,4.28,4.39,5.34,0.43,0.43,0.44
512.62,-3.80,-3.80,-4.25,-4.25,4.24,4.35,5.32,0.44,0.44,0.44
517.75,-3.75,-3.75,-4.21,-4.21,4.20,4.31,5.30,0.45,0.45,0.45
522.93,-3.70,-3.70,-4.17,-4.17,4.16,4.26,5.27,0.46,0.46,0.46
528.16,-3.65,-3.65,-4.13,-4.12,4.12,4.22,5.23,0.47,0.47,0.47
533.44,-3.60,-3.60,-4.09,-4.08,4.08,4.18,5.19,0.48,0.48,0.48
538.77,-3.55,-3.55,-4.03,-4.04,4.05,4.14,5.14,0.49,0.49,0.48
544.16,-3.50,-3.50,-4.00,-4.00,4.01,4.09,5.08,0.50,0.50,0.50
549.60,-3.45,-3.46,-3.96,-3.97,3.97,4.05,5.02,0.52,0.52,0.51
