frequency,raw,error,smoothed,error_smoothed,equalization,parametric_eq,equalized_raw,equalized_smoothed,target
20,-6.00,-2.90,-5.96,-2.82,2.82,0.13,-3.18,-3.13,-3.11
21,-5.61,-2.50,-5.60,-2.47,2.47,0.16,-3.15,-3.13,-3.11
22,-5.25,-2.14,-5.25,-2.13,2.13,0.20,-3.12,-3.13,-3.11
23,-4.92,-1.81,-4.93,-1.81,1.81,0.24,-3.11,-3.12,-3.11
24,-4.61,-1.50,-4.63,-1.51,1.51,0.28,-3.10,-3.12,-3.12
25,-4.32,-1.21,-4.35,-1.23,1.23,0.32,-3.09,-3.12,-3.12
26,-4.07,-0.95,-4.09,-0.97,0.97,0.36,-3.11,-3.12,-3.12
27,-3.83,-0.71,-3.85,-0.73,0.73,0.40,-3.11,-3.12,-3.13
28,-3.60,-0.47,-3.63,-0.50,0.50,0.42,-3.10,-3.13,-3.13
29,-3.40,-0.27,-3.43,-0.30,0.30,0.43,-3.10,-3.13,-3.13
30,-3.22,-0.08,-3.25,-0.12,0.12,0.42,-3.11,-3.13,-3.14
31,-3.07,0.07,-3.10,0.04,-0.04,0.40,-3.11,-3.14,-3.14
32,-2.95,0.20,-2.98,0.17,-0.17,0.36,-3.13,-3.15,-3.15
33,-2.85,0.30,-2.87,0.29,-0.29,0.30,-3.14,-3.16,-3.16
34,-2.78,0.38,-2.78,0.39,-0.39,0.24,-3.17,-3.17,-3.16
35,-2.71,0.46,-2.71,0.47,-0.47,0.16,-3.18,-3.18,-3.17
36,-2.65,0.52,-2.64,0.54,-0.54,0.07,-3.20,-3.19,-3.18
37,-2.60,0.58,-2.59,0.61,-0.61,-0.02,-3.21,-3.20,-3.19
38,-2.55,0.64,-2.54,0.66,-0.66,-0.12,-3.22,-3.21,-3.20
39,-2.51,0.69,-2.50,0.71,-0.71,-0.21,-3.23,-3.22,-3.21
40,-2.48,0.73,-2.47,0.76,-0.76,-0.31,-3.25,-3.23,-3.22
41,-2.45,0.78,-2.43,0.81,-0.81,-0.41,-3.26,-3.24,-3.23
42,-2.40,0.84,-2.39,0.86,-0.86,-0.52,-3.26,-3.25,-3.24
43,-2.36,0.89,-2.36,0.91,-0.91,-0.62,-3.27,-3.26,-3.25
44,-2.31,0.95,-2.32,0.96,-0.96,-0.72,-3.27,-3.28,-3.27
45,-2.27,1.01,-2.28,1.01,-1.01,-0.82,-3.29,-3.29,-3.28
46,-2.23,1.06,-2.23,1.07,-1.07,-0.93,-3.30,-3.30,-3.30
47,-2.20,1.11,-2.19,1.13,-1.13,-1.03,-3.33,-3.32,-3.31
48,-2.15,1.18,-2.14,1.19,-1.19,-1.13,-3.34,-3.33,-3.33
49,-2.10,1.25,-2.10,1.25,-1.25,-1.24,-3.36,-3.35,-3.35
50,-2.05,1.31,-2.05,1.32,-1.32,-1.34,-3.37,-3.37,-3.37
51,-2.00,1.38,-2.00,1.39,-1.39,-1.44,-3.39,-3.39,-3.39
52,-1.94,1.46,-1.95,1.46,-1.46,-1.54,-3.40,-3.41,-3.41
53,-1.89,1.54,-1.91,1.53,-1.53,-1.64,-3.42,-3.43,-3.43
54,-1.85,1.60,-1.86,1.60,-1.60,-1.74,-3.45,-3.46,-3.45
55,-1.80,1.67,-1.81,1.67,-1.67,-1.83,-3.47,-3.48,-3.48
56,-1.76,1.74,-1.76,1.74,-1.74,-1.92,-3.51,-3.51,-3.50
57,-1.71,1.81,-1.71,1.82,-1.82,-2.01,-3.53,-3.53,-3.53
58,-1.67,1.88,-1.66,1.90,-1.90,-2.09,-3.57,-3.56,-3.55
59,-1.62,1.96,-1.61,1.97,-1.97,-2.17,-3.60,-3.58,-3.58
60,-1.58,2.02,-1.56,2.05,-2.05,-2.24,-3.63,-3.61,-3.61
61,-1.53,2.10,-1.52,2.12,-2.12,-2.31,-3.66,-3.64,-3.64
62,-1.47,2.19,-1.47,2.20,-2.20,-2.37,-3.67,-3.67,-3.67
63,-1.42,2.27,-1.43,2.27,-2.27,-2.43,-3.70,-3.70,-3.70
64,-1.36,2.36,-1.39,2.34,-2.34,-2.48,-3.71,-3.73,-3.73
65,-1.32,2.44,-1.35,2.41,-2.41,-2.53,-3.74,-3.77,-3.76
66,-1.28,2.51,-1.32,2.48,-2.48,-2.58,-3.77,-3.80,-3.79
67,-1.26,2.56,-1.28,2.55,-2.55,-2.62,-3.82,-3.83,-3.83
68,-1.24,2.62,-1.25,2.62,-2.62,-2.66,-3.86,-3.87,-3.86
69,-1.23,2.66,-1.22,2.68,-2.68,-2.71,-3.92,-3.90,-3.90
70,-1.21,2.72,-1.19,2.75,-2.75,-2.75,-3.96,-3.94,-3.93
71,-1.18,2.79,-1.16,2.82,-2.82,-2.79,-4.00,-3.98,-3.97
72,-1.15,2.85,-1.13,2.88,-2.88,-2.83,-4.04,-4.02,-4.01
73,-1.11,2.93,-1.10,2.95,-2.95,-2.87,-4.06,-4.05,-4.05
74,-1.06,3.02,-1.07,3.02,-3.02,-2.91,-4.08,-4.09,-4.08
75,-1.02,3.10,-1.04,3.09,-3.09,-2.95,-4.12,-4.13,-4.12
76,-0.99,3.17,-1.00,3.16,-3.16,-3.00,-4.16,-4.17,-4.16
77,-0.96,3.24,-0.97,3.24,-3.24,-3.05,-4.20,-4.20,-4.20
78,-0.93,3.31,-0.93,3.32,-3.32,-3.10,-4.25,-4.24,-4.24
79,-0.89,3.39,-0.89,3.39,-3.39,-3.15,-4.29,-4.28,-4.28
80,-0.85,3.47,-0.85,3.47,-3.47,-3.21,-4.32,-4.32,-4.32
81,-0.81,3.55,-0.82,3.54,-3.54,-3.27,-4.36,-4.36,-4.36
82,-0.77,3.63,-0.78,3.62,-3.62,-3.33,-4.39,-4.40,-4.40
83,-0.74,3.70,-0.75,3.70,-3.70,-3.39,-4.44,-4.45,-4.45
84,-0.71,3.77,-0.72,3.77,-3.77,-3.46,-4.49,-4.49,-4.49
85,-0.68,3.84,-0.69,3.85,-3.85,-3.53,-4.53,-4.53,-4.53
86,-0.65,3.92,-0.65,3.92,-3.92,-3.61,-4.57,-4.57,-4.57
87,-0.62,3.99,-0.62,3.99,-3.99,-3.68,-4.62,-4.61,-4.61
88,-0.60,4.05,-0.59,4.06,-4.06,-3.76,-4.67,-4.66,-4.65
89,-0.56,4.13,-0.56,4.13,-4.13,-3.85,-4.70,-4.70,-4.70
90,-0.53,4.20,-0.53,4.21,-4.21,-3.93,-4.74,-4.74,-4.74
91,-0.50,4.27,-0.50,4.27,-4.27,-4.02,-4.78,-4.78,-4.78
92,-0.47,4.34,-0.48,4.34,-4.34,-4.11,-4.82,-4.82,-4.82
93,-0.45,4.41,-0.45,4.41,-4.41,-4.20,-4.86,-4.86,-4.86
94,-0.42,4.48,-0.42,4.48,-4.48,-4.30,-4.90,-4.90,-4.90
95,-0.40,4.54,-0.40,4.54,-4.54,-4.40,-4.94,-4.94,-4.94
96,-0.37,4.61,-0.38,4.60,-4.60,-4.50,-4.98,-4.98,-4.98
97,-0.34,4.68,-0.36,4.67,-4.67,-4.60,-5.01,-5.02,-5.02
98,-0.32,4.74,-0.34,4.73,-4.73,-4.70,-5.05,-5.07,-5.06
99,-0.31,4.79,-0.32,4.79,-4.79,-4.80,-5.10,-5.11,-5.10
100,-0.29,4.84,-0.31,4.84,-4.84,-4.90,-5.14,-5.15,-5.14
101,-0.29,4.88,-0.29,4.90,-4.90,-5.01,-5.20,-5.19,-5.18
102,-0.29,4.92,-0.28,4.96,-4.96,-5.11,-5.25,-5.24,-5.21
104,-0.28,5.00,-0.26,5.01,-5.01,-5.32,-5.30,-5.28,-5.29
105,-0.26,5.06,-0.25,5.07,-5.07,-5.42,-5.33,-5.32,-5.32
106,-0.25,5.11,-0.24,5.12,-5.12,-5.52,-5.37,-5.35,-5.36
107,-0.23,5.16,-0.22,5.17,-5.17,-5.62,-5.40,-5.39,-5.40
108,-0.21,5.22,-0.22,5.21,-5.21,-5.72,-5.43,-5.43,-5.43
109,-0.19,5.27,-0.21,5.26,-5.26,-5.81,-5.45,-5.47,-5.47
110,-0.18,5.32,-0.21,5.30,-5.30,-5.90,-5.48,-5.50,-5.50
111,-0.18,5.35,-0.20,5.34,-5.34,-5.99,-5.52,-5.54,-5.53
112,-0.19,5.37,-0.21,5.37,-5.37,-6.07,-5.56,-5.58,-5.57
113,-0.19,5.40,-0.21,5.40,-5.40,-6.15,-5.59,-5.61,-5.60
114,-0.21,5.41,-0.22,5.43,-5.43,-6.22,-5.64,-5.65,-5.63
115,-0.21,5.45,-0.22,5.46,-5.46,-6.29,-5.67,-5.68,-5.66
117,-0.25,5.47,-0.23,5.48,-5.48,-6.41,-5.74,-5.71,-5.72
118,-0.27,5.48,-0.24,5.51,-5.51,-6.46,-5.78,-5.75,-5.75
119,-0.28,5.49,-0.26,5.52,-5.52,-6.50,-5.81,-5.78,-5.78
120,-0.29,5.51,-0.27,5.54,-5.54,-6.53,-5.84,-5.82,-5.81
121,-0.29,5.54,-0.29,5.56,-5.56,-6.56,-5.85,-5.85,-5.83
123,-0.30,5.58,-0.32,5.57,-5.57,-6.59,-5.87,-5.89,-5.89
124,-0.30,5.61,-0.34,5.58,-5.58,-6.60,-5.88,-5.92,-5.92
125,-0.33,5.61,-0.37,5.59,-5.59,-6.60,-5.92,-5.95,-5.94
126,-0.35,5.61,-0.39,5.59,-5.59,-6.59,-5.94,-5.98,-5.97
128,-0.42,5.59,-0.42,5.59,-5.59,-6.56,-6.02,-6.01,-6.01
129,-0.46,5.57,-0.45,5.59,-5.59,-6.53,-6.05,-6.04,-6.04
130,-0.51,5.55,-0.48,5.59,-5.59,-6.50,-6.10,-6.07,-6.06
131,-0.54,5.54,-0.52,5.58,-5.58,-6.46,-6.12,-6.10,-6.08
133,-0.59,5.53,-0.56,5.57,-5.57,-6.36,-6.17,-6.13,-6.13
134,-0.60,5.54,-0.60,5.56,-5.56,-6.31,-6.17,-6.16,-6.15
135,-0.61,5.55,-0.64,5.55,-5.55,-6.25,-6.16,-6.19,-6.17
137,-0.65,5.55,-0.68,5.54,-5.54,-6.13,-6.19,-6.22,-6.21
138,-0.68,5.54,-0.72,5.52,-5.52,-6.06,-6.21,-6.24,-6.23
140,-0.75,5.51,-0.76,5.51,-5.51,-5.92,-6.26,-6.27,-6.26
141,-0.79,5.49,-0.79,5.50,-5.50,-5.84,-6.29,-6.29,-6.28
142,-0.83,5.47,-0.83,5.48,-5.48,-5.77,-6.31,-6.31,-6.30
144,-0.90,5.43,-0.87,5.46,-5.46,-5.61,-6.37,-6.33,-6.33
145,-0.93,5.42,-0.91,5.44,-5.44,-5.53,-6.38,-6.36,-6.35
147,-0.98,5.40,-0.96,5.42,-5.42,-5.37,-6.41,-6.38,-6.38
148,-0.99,5.40,-1.00,5.40,-5.40,-5.29,-6.40,-6.41,-6.40
150,-1.03,5.39,-1.05,5.38,-5.38,-5.13,-6.42,-6.43,-6.43
151,-1.05,5.39,-1.10,5.36,-5.36,-5.05,-6.41,-6.45,-6.44
153,-1.11,5.35,-1.14,5.34,-5.34,-4.89,-6.45,-6.47,-6.47
154,-1.15,5.33,-1.18,5.32,-5.32,-4.81,-6.47,-6.49,-6.48
156,-1.23,5.27,-1.22,5.30,-5.30,-4.66,-6.53,-6.51,-6.51
157,-1.26,5.25,-1.25,5.28,-5.28,-4.59,-6.54,-6.53,-6.52
159,-1.32,5.22,-1.29,5.26,-5.26,-4.44,-6.58,-6.55,-6.54
160,-1.35,5.20,-1.32,5.24,-5.24,-4.37,-6.60,-6.57,-6.55
162,-1.37,5.20,-1.35,5.23,-5.23,-4.22,-6.61,-6.59,-6.58
164,-1.39,5.20,-1.39,5.22,-5.22,-4.09,-6.61,-6.60,-6.60
165,-1.41,5.19,-1.41,5.21,-5.21,-4.02,-6.62,-6.62,-6.61
167,-1.42,5.20,-1.44,5.20,-5.20,-3.89,-6.62,-6.64,-6.63
169,-1.46,5.18,-1.46,5.19,-5.19,-3.77,-6.65,-6.65,-6.65
170,-1.47,5.18,-1.49,5.18,-5.18,-3.71,-6.65,-6.66,-6.65
172,-1.51,5.16,-1.51,5.16,-5.16,-3.59,-6.68,-6.68,-6.67
174,-1.54,5.14,-1.54,5.15,-5.15,-3.48,-6.69,-6.69,-6.69
175,-1.55,5.14,-1.57,5.13,-5.13,-3.42,-6.69,-6.70,-6.70
177,-1.60,5.11,-1.60,5.11,-5.11,-3.32,-6.71,-6.71,-6.71
179,-1.65,5.07,-1.65,5.08,-5.08,-3.22,-6.73,-6.73,-6.73
181,-1.71,5.03,-1.70,5.04,-5.04,-3.12,-6.76,-6.74,-6.74
183,-1.77,4.98,-1.76,4.99,-4.99,-3.03,-6.77,-6.75,-6.76
184,-1.81,4.95,-1.82,4.94,-4.94,-2.98,-6.75,-6.76,-6.76
186,-1.87,4.90,-1.90,4.87,-4.87,-2.90,-6.74,-6.77,-6.77
188,-1.95,4.83,-1.99,4.79,-4.79,-2.81,-6.75,-6.79,-6.79
190,-2.05,4.74,-2.09,4.71,-4.71,-2.73,-6.76,-6.80,-6.80
192,-2.17,4.63,-2.20,4.61,-4.61,-2.66,-6.79,-6.81,-6.81
194,-2.29,4.53,-2.32,4.51,-4.51,-2.59,-6.80,-6.83,-6.82
196,-2.43,4.40,-2.44,4.40,-4.40,-2.52,-6.83,-6.84,-6.83
198,-2.58,4.26,-2.57,4.28,-4.28,-2.45,-6.87,-6.85,-6.84
200,-2.72,4.12,-2.70,4.16,-4.16,-2.38,-6.89,-6.86,-6.85
202,-2.86,3.99,-2.83,4.04,-4.04,-2.32,-6.91,-6.87,-6.86
204,-2.99,3.87,-2.96,3.92,-3.92,-2.26,-6.92,-6.88,-6.87
206,-3.11,3.76,-3.09,3.80,-3.80,-2.20,-6.91,-6.89,-6.87
208,-3.24,3.64,-3.22,3.68,-3.68,-2.15,-6.92,-6.90,-6.88
210,-3.35,3.54,-3.35,3.55,-3.55,-2.10,-6.91,-6.90,-6.89
212,-3.47,3.42,-3.47,3.43,-3.43,-2.04,-6.91,-6.91,-6.90
214,-3.58,3.32,-3.60,3.31,-3.31,-1.99,-6.90,-6.91,-6.90
216,-3.69,3.22,-3.72,3.19,-3.19,-1.95,-6.89,-6.92,-6.91
218,-3.80,3.11,-3.85,3.07,-3.07,-1.90,-6.88,-6.92,-6.92
221,-3.97,2.95,-3.97,2.95,-2.95,-1.83,-6.92,-6.92,-6.92
223,-4.10,2.83,-4.10,2.83,-2.83,-1.79,-6.93,-6.93,-6.93
225,-4.23,2.70,-4.24,2.70,-2.70,-1.75,-6.93,-6.94,-6.94
227,-4.36,2.58,-4.37,2.58,-2.58,-1.70,-6.94,-6.94,-6.94
229,-4.48,2.46,-4.50,2.45,-2.45,-1.66,-6.93,-6.95,-6.95
232,-4.67,2.28,-4.64,2.32,-2.32,-1.60,-7.00,-6.96,-6.95
234,-4.78,2.17,-4.77,2.19,-2.19,-1.57,-6.98,-6.96,-6.96
236,-4.89,2.07,-4.90,2.07,-2.07,-1.53,-6.96,-6.97,-6.96
239,-5.05,1.91,-5.03,1.94,-1.94,-1.47,-7.00,-6.97,-6.97
241,-5.15,1.82,-5.16,1.82,-1.82,-1.44,-6.97,-6.98,-6.97
244,-5.30,1.67,-5.29,1.70,-1.70,-1.38,-7.00,-6.98,-6.98
246,-5.41,1.57,-5.41,1.57,-1.57,-1.35,-6.99,-6.98,-6.98
248,-5.51,1.47,-5.54,1.45,-1.45,-1.31,-6.97,-6.99,-6.99
251,-5.65,1.34,-5.66,1.34,-1.34,-1.26,-6.99,-6.99,-6.99
253,-5.75,1.24,-5.78,1.22,-1.22,-1.23,-6.97,-7.00,-6.99
256,-5.90,1.09,-5.90,1.10,-1.10,-1.18,-7.00,-7.00,-7.00
259,-6.04,0.96,-6.02,0.98,-0.98,-1.12,-7.03,-7.00,-7.00
261,-6.13,0.87,-6.14,0.86,-0.86,-1.09,-7.00,-7.01,-7.01
264,-6.27,0.74,-6.26,0.75,-0.75,-1.04,-7.02,-7.01,-7.01
266,-6.36,0.65,-6.38,0.63,-0.63,-1.01,-6.99,-7.01,-7.01
269,-6.50,0.51,-6.50,0.51,-0.51,-0.96,-7.02,-7.02,-7.02
272,-6.63,0.38,-6.63,0.39,-0.39,-0.91,-7.03,-7.02,-7.02
274,-6.72,0.30,-6.75,0.28,-0.28,-0.88,-7.00,-7.02,-7.02
277,-6.86,0.16,-6.87,0.16,-0.16,-0.83,-7.02,-7.03,-7.02
280,-6.99,0.03,-6.99,0.04,-0.04,-0.78,-7.04,-7.03,-7.03
283,-7.12,-0.09,-7.11,-0.08,0.08,-0.74,-7.05,-7.03,-7.03
286,-7.24,-0.21,-7.22,-0.19,0.19,-0.69,-7.05,-7.03,-7.03
288,-7.33,-0.30,-7.34,-0.31,0.31,-0.66,-7.03,-7.04,-7.03
291,-7.45,-0.42,-7.46,-0.42,0.42,-0.61,-7.03,-7.04,-7.04
294,-7.57,-0.53,-7.58,-0.54,0.54,-0.57,-7.03,-7.04,-7.04
297,-7.69,-0.65,-7.70,-0.66,0.66,-0.52,-7.04,-7.04,-7.04
300,-7.81,-0.77,-7.82,-0.77,0.77,-0.47,-7.04,-7.04,-7.04
303,-7.93,-0.89,-7.93,-0.88,0.88,-0.43,-7.05,-7.05,-7.05
306,-8.04,-1.00,-8.05,-1.00,1.00,-0.38,-7.05,-7.05,-7.05
309,-8.15,-1.10,-8.16,-1.11,1.11,-0.34,-7.04,-7.05,-7.05
312,-8.26,-1.21,-8.27,-1.22,1.22,-0.29,-7.04,-7.05,-7.05
316,-8.40,-1.35,-8.38,-1.33,1.33,-0.23,-7.07,-7.05,-7.05
319,-8.50,-1.45,-8.50,-1.44,1.44,-0.19,-7.06,-7.05,-7.06
322,-8.60,-1.55,-8.61,-1.55,1.55,-0.14,-7.05,-7.06,-7.06
325,-8.70,-1.65,-8.71,-1.66,1.66,-0.10,-7.05,-7.06,-7.06
328,-8.80,-1.74,-8.82,-1.76,1.76,-0.05,-7.04,-7.06,-7.06
332,-8.92,-1.86,-8.93,-1.86,1.86,0.01,-7.06,-7.06,-7.06
335,-9.01,-1.95,-9.03,-1.96,1.96,0.05,-7.05,-7.07,-7.06
338,-9.10,-2.04,-9.12,-2.05,2.05,0.09,-7.05,-7.07,-7.06
342,-9.21,-2.15,-9.21,-2.14,2.14,0.15,-7.07,-7.07,-7.07
345,-9.29,-2.23,-9.30,-2.22,2.22,0.20,-7.07,-7.07,-7.07
349,-9.39,-2.33,-9.37,-2.30,2.30,0.26,-7.09,-7.07,-7.07
352,-9.46,-2.40,-9.44,-2.37,2.37,0.30,-7.10,-7.08,-7.07
356,-9.53,-2.46,-9.51,-2.43,2.43,0.36,-7.11,-7.08,-7.07
359,-9.57,-2.50,-9.56,-2.48,2.48,0.40,-7.09,-7.08,-7.07
363,-9.60,-2.53,-9.60,-2.52,2.52,0.46,-7.08,-7.08,-7.07
366,-9.63,-2.56,-9.64,-2.56,2.56,0.50,-7.08,-7.08,-7.07
370,-9.65,-2.58,-9.66,-2.58,2.58,0.56,-7.07,-7.08,-7.07
374,-9.67,-2.60,-9.68,-2.60,2.60,0.62,-7.07,-7.08,-7.08
377,-9.68,-2.61,-9.69,-2.61,2.61,0.66,-7.08,-7.08,-7.08
381,-9.68,-2.61,-9.69,-2.61,2.61,0.72,-7.08,-7.08,-7.08
385,-9.68,-2.61,-9.68,-2.60,2.60,0.78,-7.08,-7.08,-7.08
389,-9.66,-2.59,-9.67,-2.59,2.59,0.83,-7.08,-7.08,-7.08
393,-9.65,-2.57,-9.65,-2.56,2.56,0.89,-7.09,-7.08,-7.08
397,-9.62,-2.54,-9.62,-2.54,2.54,0.94,-7.09,-7.08,-7.08
401,-9.59,-2.51,-9.59,-2.50,2.50,1.00,-7.09,-7.09,-7.08
405,-9.55,-2.47,-9.55,-2.46,2.46,1.05,-7.09,-7.09,-7.08
409,-9.51,-2.43,-9.51,-2.42,2.42,1.10,-7.09,-7.09,-7.08
413,-9.46,-2.38,-9.46,-2.37,2.37,1.15,-7.09,-7.09,-7.08
417,-9.41,-2.33,-9.41,-2.33,2.33,1.20,-7.09,-7.09,-7.08
421,-9.36,-2.28,-9.36,-2.27,2.27,1.25,-7.09,-7.09,-7.09
425,-9.31,-2.23,-9.31,-2.22,2.22,1.29,-7.09,-7.09,-7.09
430,-9.24,-2.16,-9.26,-2.17,2.17,1.35,-7.07,-7.09,-7.09
434,-9.19,-2.11,-9.21,-2.12,2.12,1.39,-7.07,-7.09,-7.09
438,-9.14,-2.06,-9.16,-2.07,2.07,1.43,-7.08,-7.09,-7.09
443,-9.08,-2.00,-9.11,-2.02,2.02,1.47,-7.06,-7.09,-7.09
447,-9.05,-1.97,-9.06,-1.97,1.97,1.50,-7.08,-7.08,-7.08
451,-9.03,-1.95,-9.01,-1.93,1.93,1.53,-7.10,-7.08,-7.08
456,-8.98,-1.91,-8.96,-1.89,1.89,1.56,-7.09,-7.07,-7.08
460,-8.94,-1.87,-8.92,-1.86,1.86,1.58,-7.09,-7.07,-7.07
465,-8.87,-1.81,-8.89,-1.83,1.83,1.60,-7.05,-7.06,-7.06
470,-8.81,-1.76,-8.85,-1.80,1.80,1.62,-7.02,-7.05,-7.05
474,-8.78,-1.74,-8.82,-1.77,1.77,1.63,-7.01,-7.05,-7.04
479,-8.74,-1.71,-8.78,-1.75,1.75,1.63,-7.00,-7.04,-7.03
484,-8.72,-1.70,-8.75,-1.72,1.72,1.63,-7.00,-7.03,-7.02
489,-8.70,-1.70,-8.71,-1.69,1.69,1.62,-7.01,-7.01,-7.01
494,-8.68,-1.69,-8.66,-1.66,1.66,1.61,-7.02,-7.00,-6.99
499,-8.63,-1.66,-8.61,-1.63,1.63,1.59,-7.00,-6.98,-6.98
504,-8.58,-1.62,-8.56,-1.59,1.59,1.56,-6.99,-6.97,-6.96
509,-8.52,-1.58,-8.50,-1.55,1.55,1.53,-6.98,-6.95,-6.94
514,-8.43,-1.51,-8.43,-1.49,1.49,1.49,-6.94,-6.94,-6.93
519,-8.34,-1.43,-8.35,-1.43,1.43,1.45,-6.92,-6.92,-6.91
524,-8.25,-1.36,-8.26,-1.35,1.35,1.40,-6.90,-6.90,-6.89
529,-8.15,-1.28,-8.15,-1.26,1.26,1.35,-6.89,-6.88,-6.87
535,-8.00,-1.15,-8.02,-1.16,1.16,1.28,-6.84,-6.86,-6.85
540,-7.88,-1.05,-7.88,-1.05,1.05,1.21,-6.84,-6.84,-6.83
545,-7.75,-0.95,-7.73,-0.92,0.92,1.15,-6.83,-6.81,-6.81
551,-7.57,-0.79,-7.57,-0.78,0.78,1.06,-6.80,-6.79,-6.78
556,-7.41,-0.66,-7.39,-0.62,0.62,0.99,-6.79,-6.77,-6.76
562,-7.20,-0.47,-7.19,-0.45,0.45,0.90,-6.75,-6.74,-6.73
568,-6.98,-0.28,-6.98,-0.27,0.27,0.80,-6.72,-6.72,-6.70
573,-6.77,-0.10,-6.76,-0.07,0.07,0.72,-6.71,-6.69,-6.67
579,-6.53,0.11,-6.52,0.14,-0.14,0.62,-6.67,-6.66,-6.65
585,-6.26,0.35,-6.27,0.36,-0.36,0.52,-6.63,-6.63,-6.62
591,-5.99,0.59,-6.01,0.59,-0.59,0.41,-6.59,-6.60,-6.59
596,-5.76,0.79,-5.73,0.83,-0.83,0.32,-6.60,-6.57,-6.55
602,-5.48,1.04,-5.45,1.08,-1.08,0.22,-6.56,-6.53,-6.52
608,-5.19,1.30,-5.17,1.33,-1.33,0.11,-6.52,-6.50,-6.49
615,-4.86,1.60,-4.89,1.58,-1.58,-0.02,-6.44,-6.46,-6.46
621,-4.58,1.84,-4.60,1.83,-1.83,-0.13,-6.41,-6.43,-6.43
627,-4.30,2.09,-4.32,2.07,-2.07,-0.25,-6.38,-6.40,-6.40
633,-4.04,2.32,-4.05,2.32,-2.32,-0.36,-6.36,-6.36,-6.36
639,-3.78,2.55,-3.78,2.55,-2.55,-0.47,-6.33,-6.33,-6.33
646,-3.50,2.80,-3.52,2.77,-2.77,-0.60,-6.27,-6.29,-6.30
652,-3.26,3.00,-3.28,2.98,-2.98,-0.72,-6.24,-6.26,-6.27
659,-3.01,3.22,-3.04,3.18,-3.18,-0.85,-6.19,-6.22,-6.23
665,-2.82,3.37,-2.83,3.36,-3.36,-0.96,-6.18,-6.19,-6.20
672,-2.61,3.55,-2.63,3.53,-3.53,-1.09,-6.14,-6.15,-6.16
679,-2.41,3.71,-2.44,3.68,-3.68,-1.23,-6.10,-6.12,-6.12
686,-2.23,3.85,-2.27,3.82,-3.82,-1.36,-6.06,-6.09,-6.09
692,-2.09,3.95,-2.10,3.95,-3.95,-1.47,-6.04,-6.05,-6.05
699,-1.95,4.06,-1.95,4.06,-4.06,-1.61,-6.02,-6.01,-6.01
706,-1.82,4.15,-1.81,4.16,-4.16,-1.74,-5.99,-5.98,-5.97
713,-1.70,4.23,-1.68,4.25,-4.25,-1.87,-5.96,-5.94,-5.93
721,-1.58,4.31,-1.56,4.33,-4.33,-2.02,-5.92,-5.90,-5.89
728,-1.47,4.38,-1.45,4.40,-4.40,-2.15,-5.88,-5.86,-5.86
735,-1.37,4.44,-1.35,4.47,-4.47,-2.29,-5.84,-5.82,-5.82
742,-1.26,4.51,-1.26,4.52,-4.52,-2.42,-5.78,-5.78,-5.78
750,-1.16,4.57,-1.18,4.56,-4.56,-2.57,-5.72,-5.74,-5.74
757,-1.08,4.61,-1.10,4.60,-4.60,-2.70,-5.68,-5.70,-5.70
765,-1.01,4.65,-1.03,4.62,-4.62,-2.85,-5.64,-5.66,-5.66
773,-0.95,4.67,-0.98,4.64,-4.64,-3.00,-5.60,-5.62,-5.62
780,-0.91,4.67,-0.93,4.66,-4.66,-3.13,-5.57,-5.59,-5.59
788,-0.87,4.68,-0.89,4.67,-4.67,-3.28,-5.54,-5.55,-5.55
796,-0.84,4.67,-0.85,4.67,-4.67,-3.43,-5.51,-5.52,-5.52
804,-0.82,4.66,-0.82,4.67,-4.67,-3.57,-5.49,-5.49,-5.48
812,-0.79,4.65,-0.79,4.67,-4.67,-3.72,-5.46,-5.46,-5.45
820,-0.78,4.63,-0.77,4.66,-4.66,-3.86,-5.45,-5.43,-5.42
828,-0.77,4.61,-0.74,4.65,-4.65,-4.00,-5.43,-5.39,-5.38
837,-0.74,4.61,-0.71,4.65,-4.65,-4.15,-5.39,-5.36,-5.35
845,-0.71,4.61,-0.69,4.64,-4.64,-4.29,-5.36,-5.33,-5.32
853,-0.67,4.62,-0.66,4.64,-4.64,-4.42,-5.31,-5.30,-5.29
862,-0.62,4.64,-0.63,4.63,-4.63,-4.56,-5.26,-5.27,-5.26
871,-0.57,4.66,-0.61,4.63,-4.63,-4.70,-5.20,-5.24,-5.23
879,-0.55,4.65,-0.58,4.63,-4.63,-4.82,-5.18,-5.21,-5.20
888,-0.52,4.65,-0.55,4.63,-4.63,-4.95,-5.16,-5.18,-5.17
897,-0.50,4.64,-0.52,4.64,-4.64,-5.07,-5.14,-5.16,-5.15
906,-0.48,4.63,-0.49,4.64,-4.64,-5.18,-5.13,-5.13,-5.12
915,-0.45,4.64,-0.45,4.65,-4.65,-5.29,-5.11,-5.10,-5.09
924,-0.43,4.63,-0.41,4.67,-4.67,-5.38,-5.10,-5.08,-5.06
933,-0.40,4.63,-0.37,4.68,-4.68,-5.47,-5.09,-5.05,-5.04
943,-0.35,4.66,-0.32,4.70,-4.70,-5.56,-5.06,-5.03,-5.01
952,-0.30,4.68,-0.28,4.72,-4.72,-5.62,-5.03,-5.00,-4.99
962,-0.25,4.71,-0.23,4.75,-4.75,-5.69,-5.00,-4.97,-4.96
971,-0.19,4.74,-0.17,4.77,-4.77,-5.73,-4.96,-4.94,-4.93
981,-0.11,4.79,-0.12,4.79,-4.79,-5.77,-4.91,-4.92,-4.91
991,-0.05,4.83,-0.07,4.82,-4.82,-5.80,-4.87,-4.89,-4.88
1001,0.01,4.86,-0.02,4.83,-4.83,-5.81,-4.83,-4.86,-4.85
1011,0.06,4.88,0.02,4.85,-4.85,-5.81,-4.79,-4.83,-4.83
1021,0.08,4.88,0.06,4.86,-4.86,-5.80,-4.78,-4.80,-4.80
1031,0.11,4.88,0.09,4.86,-4.86,-5.78,-4.75,-4.77,-4.77
1041,0.11,4.85,0.11,4.85,-4.85,-5.75,-4.74,-4.74,-4.75
1052,0.11,4.82,0.12,4.83,-4.83,-5.70,-4.73,-4.71,-4.72
1062,0.11,4.79,0.12,4.80,-4.80,-5.65,-4.70,-4.68,-4.69
1073,0.11,4.77,0.11,4.77,-4.77,-5.59,-4.66,-4.65,-4.66
1084,0.10,4.73,0.09,4.72,-4.72,-5.51,-4.62,-4.63,-4.63
1094,0.08,4.68,0.06,4.65,-4.65,-5.44,-4.58,-4.60,-4.60
1105,0.04,4.61,0.02,4.58,-4.58,-5.35,-4.55,-4.57,-4.57
1116,-0.00,4.54,-0.03,4.50,-4.50,-5.25,-4.50,-4.53,-4.54
1128,-0.07,4.43,-0.09,4.41,-4.41,-5.15,-4.48,-4.50,-4.51
1139,-0.14,4.33,-0.16,4.31,-4.31,-5.04,-4.45,-4.47,-4.48
1150,-0.23,4.21,-0.24,4.20,-4.20,-4.94,-4.44,-4.44,-4.44
1162,-0.32,4.09,-0.32,4.09,-4.09,-4.82,-4.41,-4.41,-4.41
1173,-0.41,3.97,-0.41,3.97,-3.97,-4.71,-4.39,-4.39,-4.38
1185,-0.50,3.84,-0.50,3.86,-3.86,-4.59,-4.36,-4.36,-4.35
1197,-0.59,3.72,-0.59,3.74,-3.74,-4.47,-4.33,-4.33,-4.32
1209,-0.68,3.60,-0.68,3.62,-3.62,-4.34,-4.31,-4.30,-4.28
1221,-0.77,3.48,-0.76,3.51,-3.51,-4.22,-4.28,-4.27,-4.25
1233,-0.86,3.36,-0.84,3.40,-3.40,-4.10,-4.26,-4.24,-4.22
1246,-0.94,3.24,-0.91,3.29,-3.29,-3.97,-4.24,-4.20,-4.19
1258,-1.00,3.15,-0.97,3.19,-3.19,-3.86,-4.20,-4.17,-4.16
1271,-1.05,3.07,-1.03,3.10,-3.10,-3.73,-4.15,-4.13,-4.12
1283,-1.08,3.00,-1.09,3.01,-3.01,-3.62,-4.10,-4.10,-4.09
1296,-1.12,2.93,-1.14,2.93,-2.93,-3.50,-4.05,-4.07,-4.05
1309,-1.16,2.85,-1.18,2.85,-2.85,-3.38,-4.01,-4.03,-4.02
1322,-1.20,2.78,-1.22,2.77,-2.77,-3.27,-3.98,-3.99,-3.98
1335,-1.24,2.70,-1.25,2.70,-2.70,-3.16,-3.94,-3.95,-3.94
1349,-1.28,2.62,-1.28,2.63,-2.63,-3.04,-3.91,-3.91,-3.91
1362,-1.33,2.54,-1.31,2.56,-2.56,-2.93,-3.89,-3.87,-3.87
1376,-1.36,2.47,-1.34,2.49,-2.49,-2.82,-3.85,-3.83,-3.83
1390,-1.39,2.40,-1.37,2.42,-2.42,-2.71,-3.81,-3.79,-3.79
1404,-1.41,2.34,-1.41,2.35,-2.35,-2.61,-3.76,-3.75,-3.75
1418,-1.43,2.28,-1.44,2.27,-2.27,-2.51,-3.71,-3.72,-3.72
1432,-1.45,2.22,-1.48,2.20,-2.20,-2.41,-3.65,-3.68,-3.68
1446,-1.48,2.15,-1.52,2.12,-2.12,-2.31,-3.60,-3.64,-3.64
1461,-1.53,2.07,-1.57,2.04,-2.04,-2.21,-3.57,-3.60,-3.60
1475,-1.58,1.98,-1.61,1.95,-1.95,-2.12,-3.54,-3.56,-3.56
1490,-1.64,1.88,-1.65,1.87,-1.87,-2.03,-3.51,-3.52,-3.52
1505,-1.70,1.78,-1.70,1.78,-1.78,-1.94,-3.49,-3.48,-3.48
1520,-1.76,1.68,-1.75,1.70,-1.70,-1.85,-3.46,-3.45,-3.44
1535,-1.80,1.59,-1.80,1.62,-1.62,-1.76,-3.42,-3.41,-3.40
1550,-1.85,1.50,-1.84,1.54,-1.54,-1.68,-3.39,-3.38,-3.36
