frequency,raw,smoothed,error,error_smoothed,equalization,parametric_eq,fixed_band_eq,equalized_raw,equalized_smoothed,target
20.00,-9.97,-9.97,-11.24,-11.24,6.00,6.34,2.77,-3.97,-3.97,1.27
20.20,-9.87,-9.87,-11.19,-11.19,6.00,6.33,2.85,-3.87,-3.87,1.32
20.40,-9.77,-9.77,-11.14,-11.13,6.00,6.33,2.93,-3.77,-3.77,1.37
20.61,-9.68,-9.68,-11.08,-11.08,6.00,6.32,3.02,-3.68,-3.68,1.39
20.81,-9.58,-9.58,-11.03,-11.02,6.00,6.32,3.10,-3.58,-3.58,1.44
21.02,-9.48,-9.49,-10.97,-10.97,6.00,6.31,3.19,-3.48,-3.49,1.48
21.23,-9.40,-9.40,-10.90,-10.91,6.00,6.31,3.28,-3.40,-3.40,1.50
21.44,-9.32,-9.32,-10.84,-10.84,6.00,6.31,3.37,-3.32,-3.32,1.52
21.66,-9.23,-9.24,-10.77,-10.78,6.00,6.30,3.47,-3.23,-3.24,1.54
21.87,-9.15,-9.15,-10.70,-10.71,6.00,6.30,3.57,-3.15,-3.15,1.55
22.09,-9.07,-9.07,-10.64,-10.64,6.00,6.29,3.67,-3.07,-3.07,1.57
22.31,-8.98,-8.99,-10.56,-10.56,6.00,6.29,3.78,-2.98,-2.99,1.58
22.54,-8.90,-8.90,-10.48,-10.48,6.00,6.28,3.88,-2.90,-2.90,1.58
22.76,-8.82,-8.82,-10.40,-10.39,6.00,6.28,3.99,-2.82,-2.82,1.58
22.99,-8.73,-8.74,-10.30,-10.31,6.00,6.27,4.10,-2.73,-2.74,1.57
23.22,-8.66,-8.66,-10.23,-10.23,6.00,6.27,4.22,-2.66,-2.66,1.57
23.45,-8.59,-8.59,-10.16,-10.16,6.00,6.26,4.34,-2.59,-2.59,1.57
23.69,-8.52,-8.52,-10.10,-10.09,6.00,6.26,4.46,-2.52,-2.52,1.58
23.92,-8.44,-8.44,-10.02,-10.02,6.00,6.25,4.58,-2.44,-2.44,1.58
24.16,-8.34,-8.34,-9.93,-9.92,6.00,6.24,4.71,-2.34,-2.34,1.58
24.40,-8.23,-8.23,-9.82,-9.81,6.00,6.24,4.83,-2.23,-2.23,1.59
24.65,-8.11,-8.11,-9.70,-9.70,6.00,6.23,4.96,-2.11,-2.11,1.58
24.89,-8.00,-8.01,-9.58,-9.59,6.00,6.23,5.09,-2.00,-2.01,1.58
25.14,-7.92,-7.92,-9.50,-9.51,6.00,6.22,5.23,-1.92,-1.92,1.58
25.39,-7.85,-7.85,-9.44,-9.44,6.00,6.21,5.36,-1.85,-1.85,1.59
25.65,-7.79,-7.79,-9.38,-9.38,6.00,6.21,5.49,-1.79,-1.79,1.59
25.91,-7.73,-7.73,-9.31,-9.31,6.00,6.20,5.63,-1.73,-1.73,1.58
26.16,-7.66,-7.66,-9.24,-9.24,6.00,6.19,5.76,-1.66,-1.66,1.58
26.43,-7.58,-7.58,-9.16,-9.15,6.00,6.19,5.90,-1.58,-1.58,1.58
26.69,-7.49,-7.49,-9.07,-9.07,6.00,6.18,6.03,-1.49,-1.49,1.57
26.96,-7.41,-7.42,-9.00,-9.00,6.00,6.17,6.17,-1.41,-1.42,1.58
27.23,-7.34,-7.34,-8.92,-8.92,6.00,6.16,6.29,-1.34,-1.34,1.58
27.50,-7.28,-7.28,-8.86,-8.86,6.00,6.16,6.42,-1.28,-1.28,1.58
27.77,-7.21,-7.21,-8.78,-8.79,6.00,6.15,6.54,-1.21,-1.21,1.57
28.05,-7.15,-7.15,-8.72,-8.72,6.00,6.14,6.66,-1.15,-1.15,1.57
28.33,-7.10,-7.10,-8.66,-8.66,6.00,6.13,6.77,-1.10,-1.10,1.56
28.62,-7.05,-7.05,-8.61,-8.61,6.00,6.12,6.88,-1.05,-1.05,1.55
28.90,-7.00,-7.00,-8.56,-8.56,6.00,6.11,6.98,-1.00,-1.00,1.56
29.19,-6.94,-6.95,-8.49,-8.50,6.00,6.11,7.08,-0.94,-0.95,1.55
29.48,-6.89,-6.89,-8.46,-8.45,6.00,6.10,7.16,-0.89,-0.89,1.57
29.78,-6.83,-6.83,-8.39,-8.39,6.00,6.09,7.23,-0.83,-0.83,1.56
30.08,-6.77,-6.77,-8.34,-8.34,6.00,6.08,7.30,-0.77,-0.77,1.57
30.38,-6.71,-6.71,-8.27,-8.27,6.00,6.07,7.35,-0.71,-0.71,1.55
30.68,-6.65,-6.65,-8.20,-8.20,6.00,6.06,7.39,-0.65,-0.65,1.55
30.99,-6.58,-6.58,-8.13,-8.13,6.00,6.05,7.43,-0.58,-0.58,1.55
31.30,-6.51,-6.51,-8.06,-8.06,6.00,6.04,7.45,-0.51,-0.51,1.55
31.61,-6.43,-6.43,-7.98,-7.98,6.00,6.03,7.46,-0.43,-0.43,1.55
31.93,-6.36,-6.36,-7.91,-7.90,6.00,6.02,7.46,-0.36,-0.36,1.54
32.24,-6.29,-6.29,-7.82,-7.83,6.00,6.01,7.45,-0.29,-0.29,1.53
32.57,-6.23,-6.23,-7.77,-7.76,6.00,5.99,7.42,-0.23,-0.23,1.54
32.89,-6.16,-6.16,-7.70,-7.70,6.00,5.98,7.39,-0.16,-0.16,1.54
33.22,-6.10,-6.11,-7.62,-7.63,6.00,5.97,7.34,-0.10,-0.11,1.52
33.55,-6.05,-6.05,-7.57,-7.57,6.00,5.96,7.29,-0.05,-0.05,1.52
33.89,-5.99,-5.99,-7.50,-7.50,6.00,5.95,7.23,0.01,0.01,1.51
34.23,-5.92,-5.92,-7.44,-7.43,6.00,5.93,7.17,0.08,0.08,1.51
34.57,-5.85,-5.85,-7.35,-7.36,6.00,5.92,7.09,0.15,0.15,1.50
34.92,-5.78,-5.78,-7.28,-7.28,6.00,5.91,7.02,0.22,0.22,1.50
35.27,-5.70,-5.70,-7.20,-7.20,6.00,5.89,6.93,0.30,0.30,1.49
35.62,-5.62,-5.62,-7.11,-7.12,6.00,5.88,6.85,0.38,0.38,1.49
35.97,-5.54,-5.54,-7.03,-7.03,6.00,5.86,6.76,0.46,0.46,1.49
36.33,-5.46,-5.45,-6.95,-6.94,6.00,5.85,6.66,0.54,0.55,1.49
36.70,-5.38,-5.38,-6.86,-6.87,6.00,5.83,6.57,0.62,0.62,1.48
37.06,-5.32,-5.34,-6.80,-6.83,6.00,5.82,6.48,0.68,0.66,1.48
37.43,-5.33,-5.33,-6.82,-6.82,6.00,5.80,6.38,0.67,0.67,1.49
37.81,-5.34,-5.33,-6.83,-6.81,6.00,5.79,6.29,0.66,0.67,1.49
38.19,-5.31,-5.30,-6.79,-6.79,6.00,5.77,6.19,0.69,0.70,1.48
38.57,-5.24,-5.25,-6.73,-6.73,6.00,5.75,6.10,0.76,0.75,1.49
38.95,-5.17,-5.17,-6.66,-6.66,6.00,5.74,6.01,0.83,0.83,1.49
39.34,-5.10,-5.10,-6.59,-6.59,6.00,5.72,5.92,0.90,0.90,1.49
39.74,-5.04,-5.04,-6.52,-6.53,6.00,5.70,5.84,0.96,0.96,1.48
40.14,-4.98,-4.99,-6.47,-6.48,6.00,5.68,5.75,1.02,1.01,1.49
40.54,-4.94,-4.94,-6.42,-6.42,6.00,5.66,5.67,1.06,1.06,1.48
40.94,-4.89,-4.87,-6.37,-6.35,6.01,5.64,5.60,1.12,1.13,1.48
41.35,-4.80,-4.79,-6.27,-6.26,6.01,5.62,5.52,1.21,1.22,1.47
41.76,-4.70,-4.72,-6.16,-6.18,6.02,5.60,5.45,1.31,1.30,1.46
42.18,-4.65,-4.68,-6.12,-6.14,6.01,5.58,5.39,1.36,1.33,1.47
42.60,-4.66,-4.66,-6.11,-6.11,6.00,5.56,5.33,1.33,1.34,1.45
43.03,-4.67,-4.63,-6.11,-6.07,5.97,5.54,5.27,1.30,1.34,1.44
43.46,-4.57,-4.57,-6.01,-6.00,5.94,5.52,5.21,1.37,1.37,1.44
43.90,-4.47,-4.50,-5.88,-5.91,5.90,5.49,5.16,1.43,1.40,1.41
44.33,-4.43,-4.43,-5.82,-5.83,5.85,5.47,5.12,1.42,1.41,1.39
44.78,-4.40,-4.39,-5.77,-5.77,5.79,5.45,5.08,1.39,1.40,1.37
45.23,-4.35,-4.35,-5.72,-5.71,5.72,5.42,5.04,1.37,1.37,1.36
45.68,-4.30,-4.30,-5.65,-5.65,5.65,5.40,5.00,1.35,1.35,1.35
46.13,-4.25,-4.25,-5.58,-5.58,5.58,5.37,4.97,1.33,1.33,1.33
46.60,-4.19,-4.20,-5.52,-5.51,5.51,5.34,4.94,1.32,1.32,1.33
47.06,-4.14,-4.15,-5.45,-5.46,5.46,5.32,4.92,1.32,1.31,1.31
47.53,-4.10,-4.10,-5.40,-5.40,5.40,5.29,4.90,1.30,1.31,1.30
48.01,-4.05,-4.05,-5.35,-5.34,5.35,5.26,4.88,1.29,1.30,1.30
48.49,-4.00,-4.00,-5.28,-5.28,5.28,5.23,4.87,1.28,1.28,1.28
48.97,-3.95,-3.97,-5.21,-5.23,5.22,5.20,4.86,1.27,1.25,1.26
49.46,-3.95,-3.95,-5.19,-5.19,5.17,5.17,4.85,1.21,1.21,1.23
49.96,-3.95,-3.91,-5.16,-5.13,5.11,5.14,4.84,1.16,1.20,1.21
50.46,-3.86,-3.86,-5.07,-5.06,5.06,5.11,4.84,1.20,1.20,1.21
50.96,-3.76,-3.80,-4.96,-4.99,5.02,5.08,4.84,1.26,1.22,1.20
51.47,-3.75,-3.75,-4.93,-4.93,4.97,5.04,4.84,1.22,1.22,1.18
51.99,-3.75,-3.75,-4.91,-4.92,4.93,5.01,4.84,1.18,1.18,1.16
52.51,-3.76,-3.76,-4.92,-4.92,4.89,4.97,4.85,1.13,1.14,1.16
53.03,-3.76,-3.74,-4.91,-4.89,4.86,4.94,4.85,1.10,1.12,1.15
53.56,-3.71,-3.72,-4.85,-4.85,4.83,4.90,4.86,1.12,1.12,1.14
54.10,-3.67,-3.68,-4.79,-4.81,4.81,4.87,4.86,1.14,1.13,1.12
54.64,-3.66,-3.66,-4.77,-4.77,4.79,4.83,4.87,1.13,1.13,1.11
55.18,-3.65,-3.65,-4.75,-4.75,4.76,4.79,4.87,1.11,1.11,1.10
55.74,-3.65,-3.65,-4.74,-4.74,4.74,4.75,4.88,1.09,1.09,1.08
56.29,-3.65,-3.65,-4.73,-4.72,4.72,4.71,4.88,1.06,1.06,1.08
56.86,-3.65,-3.65,-4.71,-4.71,4.70,4.67,4.88,1.05,1.05,1.06
57.42,-3.65,-3.65,-4.68,-4.69,4.69,4.62,4.88,1.04,1.04,1.03
58.00,-3.65,-3.65,-4.67,-4.67,4.68,4.58,4.87,1.03,1.03,1.02
58.58,-3.65,-3.65,-4.66,-4.66,4.67,4.54,4.86,1.02,1.02,1.01
59.16,-3.66,-3.66,-4.65,-4.65,4.67,4.49,4.85,1.01,1.01,0.99
59.76,-3.68,-3.69,-4.65,-4.65,4.66,4.45,4.83,0.98,0.97,0.97
60.35,-3.71,-3.72,-4.64,-4.65,4.65,4.40,4.81,0.93,0.93,0.93
60.96,-3.76,-3.74,-4.66,-4.63,4.62,4.35,4.79,0.86,0.88,0.89
61.57,-3.75,-3.76,-4.60,-4.61,4.59,4.30,4.76,0.83,0.83,0.85
62.18,-3.75,-3.76,-4.56,-4.57,4.54,4.25,4.72,0.78,0.77,0.81
62.80,-3.75,-3.74,-4.51,-4.50,4.48,4.20,4.68,0.73,0.74,0.76
63.43,-3.71,-3.70,-4.43,-4.42,4.41,4.15,4.64,0.70,0.71,0.72
64.07,-3.64,-3.65,-4.31,-4.32,4.34,4.10,4.59,0.70,0.69,0.67
64.71,-3.58,-3.59,-4.21,-4.22,4.26,4.04,4.53,0.68,0.67,0.63
65.35,-3.55,-3.56,-4.14,-4.15,4.18,3.99,4.47,0.62,0.61,0.59
66.01,-3.55,-3.55,-4.09,-4.09,4.09,3.93,4.41,0.54,0.54,0.54
66.67,-3.55,-3.54,-4.04,-4.04,4.00,3.88,4.34,0.45,0.46,0.49
67.33,-3.52,-3.51,-3.96,-3.95,3.93,3.82,4.26,0.41,0.42,0.44
68.01,-3.46,-3.45,-3.86,-3.85,3.85,3.76,4.19,0.39,0.40,0.40
68.69,-3.38,-3.40,-3.73,-3.75,3.77,3.70,4.10,0.39,0.38,0.35
69.37,-3.35,-3.36,-3.65,-3.66,3.69,3.64,4.02,0.34,0.33,0.30
70.07,-3.35,-3.35,-3.60,-3.60,3.60,3.58,3.93,0.25,0.25,0.24
70.77,-3.35,-3.34,-3.55,-3.54,3.51,3.52,3.84,0.16,0.16,0.20
71.48,-3.32,-3.30,-3.47,-3.45,3.42,3.45,3.75,0.09,0.11,0.15
72.19,-3.25,-3.25,-3.33,-3.33,3.32,3.39,3.66,0.07,0.08,0.08
72.91,-3.16,-3.19,-3.19,-3.22,3.24,3.32,3.56,0.07,0.04,0.02
73.64,-3.15,-3.15,-3.12,-3.12,3.15,3.26,3.47,-0.01,-0.01,-0.03
74.38,-3.14,-3.13,-3.05,-3.03,3.05,3.19,3.37,-0.09,-0.07,-0.09
75.12,-3.11,-3.11,-2.96,-2.96,2.95,3.12,3.27,-0.16,-0.15,-0.15
75.87,-3.06,-3.08,-2.85,-2.88,2.86,3.05,3.17,-0.20,-0.22,-0.21
76.63,-3.05,-3.04,-2.79,-2.78,2.77,2.98,3.08,-0.28,-0.27,-0.26
77.40,-3.01,-3.00,-2.70,-2.69,2.69,2.91,2.98,-0.33,-0.31,-0.31
78.17,-2.94,-2.95,-2.57,-2.59,2.60,2.84,2.88,-0.34,-0.36,-0.37
78.95,-2.90,-2.90,-2.50,-2.49,2.50,2.77,2.78,-0.40,-0.40,-0.40
79.74,-2.86,-2.87,-2.41,-2.41,2.40,2.70,2.69,-0.46,-0.46,-0.46
80.54,-2.84,-2.84,-2.34,-2.33,2.31,2.62,2.59,-0.53,-0.53,-0.50
81.35,-2.80,-2.78,-2.25,-2.23,2.22,2.55,2.49,-0.58,-0.56,-0.56
82.16,-2.73,-2.73,-2.13,-2.13,2.15,2.48,2.40,-0.59,-0.58,-0.60
82.98,-2.65,-2.68,-2.01,-2.03,2.07,2.40,2.31,-0.58,-0.61,-0.64
83.81,-2.65,-2.65,-1.96,-1.96,2.00,2.33,2.22,-0.65,-0.65,-0.69
84.65,-2.65,-2.65,-1.91,-1.91,1.92,2.25,2.12,-0.73,-0.73,-0.74
85.50,-2.65,-2.66,-1.87,-1.87,1.84,2.18,2.04,-0.81,-0.82,-0.78
86.35,-2.65,-2.65,-1.82,-1.82,1.76,2.10,1.95,-0.89,-0.89,-0.83
87.22,-2.63,-2.60,-1.75,-1.72,1.68,2.02,1.86,-0.95,-0.92,-0.88
88.09,-2.53,-2.54,-1.60,-1.61,1.61,1.95,1.77,-0.92,-0.93,-0.93
88.97,-2.44,-2.47,-1.46,-1.49,1.53,1.87,1.69,-0.91,-0.94,-0.98
89.86,-2.44,-2.44,-1.41,-1.41,1.45,1.79,1.61,-0.99,-0.99,-1.03
90.76,-2.44,-2.44,-1.36,-1.35,1.37,1.72,1.52,-1.08,-1.07,-1.08
91.66,-2.44,-2.44,-1.31,-1.31,1.28,1.64,1.44,-1.16,-1.16,-1.13
92.58,-2.44,-2.42,-1.25,-1.24,1.21,1.57,1.36,-1.23,-1.21,-1.19
93.51,-2.39,-2.39,-1.16,-1.16,1.14,1.49,1.28,-1.25,-1.25,-1.23
94.44,-2.34,-2.36,-1.06,-1.08,1.09,1.41,1.21,-1.25,-1.27,-1.28
95.39,-2.34,-2.34,-1.02,-1.01,1.04,1.34,1.13,-1.31,-1.30,-1.32
96.34,-2.34,-2.34,-0.96,-0.97,0.99,1.26,1.06,-1.35,-1.35,-1.38
97.30,-2.35,-2.35,-0.93,-0.93,0.94,1.19,0.98,-1.41,-1.41,-1.42
98.28,-2.36,-2.36,-0.89,-0.89,0.90,1.11,0.91,-1.47,-1.47,-1.47
99.26,-2.37,-2.38,-0.86,-0.86,0.85,1.04,0.84,-1.52,-1.52,-1.51
100.25,-2.39,-2.40,-0.83,-0.84,0.81,0.97,0.77,-1.58,-1.58,-1.56
101.25,-2.41,-2.40,-0.81,-0.80,0.77,0.89,0.70,-1.64,-1.63,-1.61
102.27,-2.41,-2.40,-0.76,-0.74,0.73,0.82,0.63,-1.68,-1.67,-1.65
103.29,-2.37,-2.38,-0.66,-0.68,0.69,0.75,0.57,-1.69,-1.69,-1.71
104.32,-2.35,-2.37,-0.61,-0.62,0.64,0.68,0.50,-1.71,-1.72,-1.74
105.37,-2.37,-2.37,-0.58,-0.58,0.60,0.61,0.44,-1.77,-1.77,-1.79
106.42,-2.40,-2.39,-0.56,-0.56,0.56,0.55,0.38,-1.84,-1.83,-1.84
107.48,-2.42,-2.42,-0.53,-0.53,0.53,0.48,0.32,-1.89,-1.89,-1.89
108.56,-2.45,-2.45,-0.50,-0.50,0.50,0.41,0.26,-1.95,-1.95,-1.95
109.64,-2.47,-2.47,-0.48,-0.48,0.47,0.35,0.20,-2.00,-2.01,-2.00
110.74,-2.49,-2.49,-0.44,-0.45,0.44,0.29,0.15,-2.06,-2.06,-2.05
111.85,-2.51,-2.51,-0.42,-0.41,0.40,0.23,0.09,-2.11,-2.10,-2.09
112.97,-2.51,-2.52,-0.36,-0.37,0.36,0.17,0.04,-2.15,-2.15,-2.15
114.10,-2.52,-2.52,-0.32,-0.32,0.32,0.11,-0.01,-2.20,-2.20,-2.20
115.24,-2.52,-2.52,-0.28,-0.27,0.28,0.05,-0.05,-2.24,-2.24,-2.24
116.39,-2.52,-2.52,-0.22,-0.23,0.24,-0.01,-0.10,-2.28,-2.28,-2.30
117.55,-2.52,-2.52,-0.19,-0.19,0.20,-0.06,-0.14,-2.33,-2.32,-2.33
118.73,-2.51,-2.52,-0.14,-0.14,0.15,-0.11,-0.18,-2.36,-2.37,-2.37
119.92,-2.51,-2.51,-0.11,-0.11,0.10,-0.16,-0.22,-2.41,-2.41,-2.40
121.12,-2.50,-2.51,-0.06,-0.07,0.04,-0.21,-0.25,-2.46,-2.46,-2.44
122.33,-2.49,-2.48,-0.02,-0.01,-0.01,-0.26,-0.28,-2.50,-2.49,-2.47
123.55,-2.45,-2.44,0.04,0.06,-0.06,-0.31,-0.31,-2.52,-2.51,-2.49
124.79,-2.38,-2.40,0.14,0.12,-0.12,-0.35,-0.34,-2.50,-2.52,-2.53
126.03,-2.37,-2.37,0.19,0.18,-0.17,-0.39,-0.36,-2.54,-2.54,-2.56
127.29,-2.36,-2.35,0.22,0.23,-0.21,-0.43,-0.38,-2.57,-2.56,-2.58
128.57,-2.35,-2.35,0.26,0.26,-0.24,-0.47,-0.40,-2.60,-2.60,-2.62
129.85,-2.35,-2.36,0.29,0.28,-0.27,-0.51,-0.42,-2.63,-2.63,-2.64
131.15,-2.37,-2.38,0.30,0.29,-0.29,-0.55,-0.44,-2.67,-2.68,-2.67
132.46,-2.42,-2.41,0.28,0.29,-0.31,-0.58,-0.45,-2.73,-2.71,-2.70
133.79,-2.43,-2.42,0.30,0.31,-0.31,-0.61,-0.46,-2.75,-2.74,-2.73
135.12,-2.43,-2.44,0.33,0.32,-0.32,-0.64,-0.47,-2.75,-2.75,-2.76
136.48,-2.43,-2.45,0.35,0.33,-0.33,-0.67,-0.47,-2.76,-2.78,-2.78
137.84,-2.48,-2.48,0.33,0.34,-0.34,-0.70,-0.48,-2.82,-2.81,-2.81
139.22,-2.51,-2.50,0.33,0.34,-0.35,-0.72,-0.48,-2.86,-2.85,-2.85
140.61,-2.52,-2.52,0.36,0.35,-0.36,-0.74,-0.48,-2.89,-2.89,-2.88
142.02,-2.52,-2.52,0.37,0.37,-0.38,-0.77,-0.48,-2.90,-2.90,-2.89
143.44,-2.52,-2.52,0.40,0.41,-0.39,-0.79,-0.48,-2.91,-2.91,-2.92
144.87,-2.52,-2.53,0.44,0.43,-0.41,-0.80,-0.48,-2.93,-2.94,-2.96
146.32,-2.53,-2.55,0.47,0.45,-0.43,-0.82,-0.48,-2.96,-2.98,-3.00
147.78,-2.59,-2.58,0.44,0.46,-0.46,-0.84,-0.47,-3.06,-3.04,-3.03
149.26,-2.61,-2.61,0.47,0.48,-0.50,-0.85,-0.47,-3.12,-3.11,-3.08
150.75,-2.62,-2.62,0.52,0.52,-0.55,-0.86,-0.46,-3.17,-3.18,-3.15
152.26,-2.62,-2.62,0.59,0.59,-0.61,-0.87,-0.46,-3.23,-3.23,-3.21
153.78,-2.62,-2.62,0.66,0.66,-0.67,-0.88,-0.45,-3.29,-3.29,-3.28
155.32,-2.62,-2.62,0.73,0.73,-0.73,-0.89,-0.45,-3.35,-3.35,-3.35
156.88,-2.62,-2.62,0.80,0.81,-0.79,-0.89,-0.44,-3.41,-3.41,-3.43
158.44,-2.62,-2.63,0.89,0.88,-0.84,-0.90,-0.43,-3.46,-3.47,-3.51
160.03,-2.65,-2.66,0.94,0.93,-0.89,-0.90,-0.43,-3.54,-3.55,-3.59
161.63,-2.71,-2.72,0.95,0.94,-0.93,-0.90,-0.42,-3.65,-3.65,-3.66
163.24,-2.79,-2.78,0.93,0.95,-0.97,-0.91,-0.42,-3.76,-3.74,-3.72
164.88,-2.83,-2.82,0.94,0.96,-0.99,-0.90,-0.41,-3.82,-3.81,-3.77
166.53,-2.83,-2.84,0.99,0.98,-1.01,-0.90,-0.41,-3.84,-3.85,-3.82
168.19,-2.84,-2.84,1.02,1.02,-1.02,-0.90,-0.40,-3.86,-3.86,-3.86
169.87,-2.85,-2.84,1.05,1.05,-1.02,-0.89,-0.40,-3.87,-3.86,-3.90
171.57,-2.85,-2.86,1.06,1.05,-1.02,-0.89,-0.39,-3.87,-3.88,-3.92
173.29,-2.88,-2.90,1.05,1.03,-1.02,-0.88,-0.39,-3.90,-3.92,-3.93
175.02,-2.95,-2.93,0.99,1.01,-1.02,-0.87,-0.39,-3.97,-3.95,-3.94
176.77,-2.97,-2.97,0.98,0.98,-1.01,-0.87,-0.38,-3.99,-3.98,-3.95
178.54,-2.97,-2.98,0.98,0.97,-1.01,-0.86,-0.38,-3.98,-3.98,-3.96
180.32,-2.97,-2.97,0.98,0.98,-0.99,-0.85,-0.38,-3.96,-3.96,-3.95
182.13,-2.96,-2.96,0.98,0.99,-0.98,-0.83,-0.38,-3.94,-3.93,-3.94
183.95,-2.95,-2.95,1.00,1.00,-0.96,-0.82,-0.37,-3.91,-3.92,-3.95
185.79,-2.95,-2.97,1.00,0.99,-0.96,-0.81,-0.37,-3.91,-3.93,-3.95
187.65,-3.01,-3.01,0.96,0.96,-0.96,-0.79,-0.37,-3.97,-3.97,-3.98
189.52,-3.07,-3.06,0.91,0.93,-0.96,-0.78,-0.37,-4.03,-4.02,-3.99
191.42,-3.09,-3.09,0.91,0.92,-0.97,-0.76,-0.37,-4.06,-4.06,-4.01
193.33,-3.08,-3.09,0.94,0.94,-0.98,-0.74,-0.37,-4.06,-4.06,-4.02
195.27,-3.07,-3.07,0.97,0.97,-0.98,-0.73,-0.37,-4.05,-4.05,-4.04
197.22,-3.05,-3.05,1.01,1.02,-0.99,-0.71,-0.37,-4.04,-4.03,-4.06
199.19,-3.04,-3.04,1.05,1.04,-0.99,-0.69,-0.37,-4.03,-4.03,-4.09
201.18,-3.04,-3.07,1.06,1.04,-0.99,-0.67,-0.38,-4.04,-4.06,-4.10
203.19,-3.12,-3.12,1.00,1.00,-0.99,-0.65,-0.38,-4.11,-4.12,-4.12
205.23,-3.21,-3.18,0.93,0.95,-0.98,-0.63,-0.38,-4.19,-4.16,-4.15
207.28,-3.23,-3.22,0.92,0.94,-0.96,-0.60,-0.38,-4.19,-4.18,-4.15
209.35,-3.23,-3.25,0.94,0.93,-0.95,-0.58,-0.38,-4.18,-4.19,-4.18
211.44,-3.25,-3.28,0.96,0.92,-0.93,-0.56,-0.38,-4.18,-4.21,-4.21
213.56,-3.34,-3.31,0.87,0.91,-0.91,-0.53,-0.38,-4.25,-4.22,-4.21
215.69,-3.36,-3.34,0.86,0.89,-0.89,-0.51,-0.38,-4.25,-4.23,-4.23
217.85,-3.33,-3.37,0.91,0.87,-0.87,-0.48,-0.38,-4.20,-4.24,-4.24
220.03,-3.38,-3.38,0.87,0.88,-0.85,-0.46,-0.38,-4.23,-4.23,-4.25
222.23,-3.43,-3.42,0.84,0.85,-0.83,-0.43,-0.38,-4.26,-4.25,-4.27
224.45,-3.45,-3.48,0.81,0.79,-0.80,-0.40,-0.38,-4.25,-4.28,-4.26
226.70,-3.53,-3.52,0.73,0.75,-0.77,-0.37,-0.38,-4.30,-4.29,-4.27
228.96,-3.57,-3.53,0.68,0.73,-0.73,-0.35,-0.37,-4.30,-4.26,-4.26
231.25,-3.53,-3.55,0.72,0.70,-0.69,-0.32,-0.37,-4.22,-4.24,-4.25
233.57,-3.53,-3.59,0.71,0.65,-0.64,-0.29,-0.36,-4.17,-4.22,-4.24
235.90,-3.66,-3.63,0.56,0.60,-0.58,-0.26,-0.36,-4.24,-4.21,-4.23
238.26,-3.71,-3.67,0.50,0.54,-0.53,-0.23,-0.35,-4.24,-4.20,-4.22
240.64,-3.68,-3.72,0.51,0.47,-0.48,-0.19,-0.34,-4.16,-4.20,-4.19
243.05,-3.72,-3.75,0.44,0.41,-0.43,-0.16,-0.33,-4.15,-4.19,-4.16
245.48,-3.83,-3.80,0.31,0.34,-0.38,-0.13,-0.32,-4.21,-4.17,-4.14
247.93,-3.84,-3.82,0.27,0.30,-0.32,-0.10,-0.31,-4.16,-4.14,-4.11
250.41,-3.81,-3.81,0.29,0.28,-0.27,-0.06,-0.29,-4.08,-4.08,-4.10
252.92,-3.77,-3.82,0.29,0.25,-0.22,-0.03,-0.28,-3.99,-4.03,-4.07
255.45,-3.85,-3.86,0.19,0.19,-0.16,0.01,-0.26,-4.01,-4.02,-4.04
258.00,-3.95,-3.91,0.07,0.11,-0.11,0.04,-0.24,-4.06,-4.02,-4.02
260.58,-3.98,-3.98,0.03,0.02,-0.04,0.08,-0.22,-4.03,-4.03,-4.01
263.19,-3.99,-4.02,-0.02,-0.04,0.03,0.11,-0.20,-3.96,-3.99,-3.97
265.82,-4.08,-4.04,-0.12,-0.08,0.11,0.15,-0.18,-3.98,-3.93,-3.96
268.48,-4.07,-4.09,-0.14,-0.15,0.18,0.19,-0.15,-3.89,-3.90,-3.94
271.16,-4.10,-4.16,-0.20,-0.25,0.25,0.23,-0.13,-3.85,-3.91,-3.90
273.87,-4.27,-4.23,-0.38,-0.34,0.32,0.27,-0.10,-3.95,-3.91,-3.89
276.61,-4.31,-4.28,-0.46,-0.43,0.38,0.31,-0.07,-3.93,-3.90,-3.85
279.38,-4.29,-4.31,-0.46,-0.48,0.44,0.35,-0.04,-3.85,-3.86,-3.83
282.17,-4.28,-4.31,-0.48,-0.51,0.51,0.39,-0.01,-3.77,-3.79,-3.80
284.99,-4.32,-4.31,-0.55,-0.53,0.58,0.43,0.02,-3.74,-3.72,-3.77
287.84,-4.36,-4.34,-0.61,-0.59,0.65,0.47,0.05,-3.71,-3.69,-3.75
290.72,-4.35,-4.42,-0.63,-0.70,0.71,0.51,0.09,-3.64,-3.71,-3.72
293.63,-4.50,-4.48,-0.81,-0.79,0.77,0.56,0.12,-3.73,-3.71,-3.69
296.57,-4.58,-4.52,-0.93,-0.86,0.83,0.60,0.16,-3.75,-3.70,-3.66
299.53,-4.53,-4.58,-0.90,-0.95,0.89,0.65,0.19,-3.64,-3.69,-3.63
302.53,-4.56,-4.58,-0.95,-0.97,0.97,0.69,0.23,-3.60,-3.61,-3.61
305.55,-4.64,-4.57,-1.07,-0.99,1.04,0.74,0.27,-3.60,-3.53,-3.57
308.61,-4.55,-4.59,-1.00,-1.05,1.10,0.78,0.31,-3.45,-3.49,-3.55
311.69,-4.61,-4.64,-1.09,-1.12,1.15,0.83,0.35,-3.46,-3.49,-3.53
314.81,-4.71,-4.71,-1.21,-1.20,1.20,0.88,0.39,-3.52,-3.51,-3.50
317.96,-4.82,-4.78,-1.34,-1.30,1.23,0.93,0.43,-3.59,-3.55,-3.48
321.14,-4.82,-4.81,-1.35,-1.34,1.27,0.97,0.47,-3.55,-3.55,-3.47
324.35,-4.78,-4.81,-1.32,-1.35,1.32,1.02,0.52,-3.47,-3.49,-3.46
327.59,-4.78,-4.77,-1.34,-1.32,1.37,1.07,0.56,-3.42,-3.40,-3.44
330.87,-4.77,-4.74,-1.34,-1.31,1.40,1.12,0.61,-3.37,-3.34,-3.43
334.18,-4.72,-4.79,-1.31,-1.37,1.43,1.17,0.65,-3.29,-3.35,-3.42
337.52,-4.84,-4.87,-1.43,-1.46,1.46,1.22,0.70,-3.38,-3.40,-3.41
340.90,-5.02,-4.96,-1.63,-1.56,1.50,1.27,0.75,-3.52,-3.46,-3.39
344.30,-5.03,-5.02,-1.65,-1.63,1.55,1.32,0.79,-3.49,-3.47,-3.38
347.75,-5.00,-4.99,-1.62,-1.61,1.60,1.37,0.84,-3.40,-3.39,-3.39
351.23,-4.94,-4.96,-1.56,-1.58,1.66,1.42,0.89,-3.28,-3.31,-3.38
354.74,-4.94,-5.01,-1.56,-1.64,1.70,1.47,0.94,-3.24,-3.31,-3.38
358.28,-5.13,-5.10,-1.76,-1.72,1.73,1.52,0.99,-3.40,-3.37,-3.37
361.87,-5.23,-5.17,-1.86,-1.80,1.74,1.57,1.04,-3.49,-3.43,-3.38
365.49,-5.18,-5.21,-1.81,-1.83,1.75,1.62,1.10,-3.43,-3.45,-3.37
369.14,-5.16,-5.18,-1.78,-1.80,1.77,1.67,1.15,-3.39,-3.41,-3.38
372.83,-5.15,-5.15,-1.77,-1.77,1.79,1.72,1.20,-3.37,-3.36,-3.38
376.56,-5.14,-5.14,-1.76,-1.76,1.80,1.77,1.26,-3.34,-3.34,-3.38
380.33,-5.14,-5.14,-1.77,-1.77,1.80,1.81,1.31,-3.34,-3.34,-3.37
384.13,-5.16,-5.17,-1.79,-1.79,1.81,1.86,1.37,-3.35,-3.36,-3.38
387.97,-5.20,-5.21,-1.81,-1.83,1.83,1.90,1.42,-3.37,-3.38,-3.39
391.85,-5.28,-5.26,-1.88,-1.87,1.86,1.94,1.48,-3.42,-3.40,-3.40
395.77,-5.31,-5.29,-1.92,-1.90,1.90,1.99,1.53,-3.42,-3.40,-3.39
399.73,-5.32,-5.33,-1.92,-1.93,1.93,2.02,1.59,-3.39,-3.40,-3.40
403.72,-5.34,-5.39,-1.94,-1.98,1.97,2.06,1.64,-3.37,-3.41,-3.40
407.76,-5.47,-5.44,-2.06,-2.03,2.01,2.10,1.70,-3.46,-3.43,-3.41
411.84,-5.50,-5.46,-2.09,-2.04,2.05,2.13,1.75,-3.46,-3.41,-3.42
415.96,-5.45,-5.47,-2.03,-2.06,2.07,2.16,1.81,-3.38,-3.41,-3.42
420.12,-5.43,-5.50,-2.01,-2.08,2.08,2.18,1.86,-3.35,-3.41,-3.42
424.32,-5.56,-5.53,-2.14,-2.11,2.09,2.21,1.91,-3.47,-3.43,-3.42
428.56,-5.60,-5.55,-2.19,-2.14,2.10,2.23,1.96,-3.50,-3.45,-3.41
432.85,-5.52,-5.55,-2.12,-2.14,2.11,2.24,2.01,-3.41,-3.43,-3.40
437.18,-5.47,-5.48,-2.08,-2.10,2.13,2.26,2.06,-3.35,-3.35,-3.39
441.55,-5.44,-5.42,-2.09,-2.07,2.14,2.27,2.10,-3.31,-3.29,-3.35
445.96,-5.39,-5.43,-2.07,-2.11,2.14,2.27,2.14,-3.25,-3.29,-3.32
450.42,-5.43,-5.44,-2.14,-2.16,2.14,2.27,2.18,-3.29,-3.30,-3.30
454.93,-5.50,-5.43,-2.26,-2.18,2.14,2.27,2.21,-3.36,-3.29,-3.25
