frequency,raw
20,-8.16
21,-7.78
22,-7.42
23,-7.12
24,-6.84
25,-6.54
26,-6.27
27,-6.18
28,-5.92
29,-5.62
30,-5.57
31,-5.37
32,-5.15
33,-4.95
34,-4.76
35,-4.55
36,-4.34
37,-4.26
38,-4.16
39,-4.03
40,-3.82
41,-3.77
42,-3.65
43,-3.55
44,-3.39
45,-3.37
46,-3.25
47,-3.16
48,-3.05
49,-2.95
50,-2.85
51,-2.85
52,-2.85
53,-2.84
54,-2.75
55,-2.75
56,-2.75
57,-2.85
58,-2.93
59,-3.05
60,-3.19
61,-3.35
62,-3.67
63,-4.09
64,-4.17
65,-4.44
66,-4.30
67,-4.22
68,-3.97
69,-3.72
70,-3.40
71,-3.15
72,-2.96
73,-2.81
74,-2.60
75,-2.44
76,-2.44
77,-2.44
78,-2.32
79,-2.33
80,-2.36
81,-2.36
82,-2.24
83,-2.24
84,-2.24
85,-2.24
86,-2.24
87,-2.29
88,-2.34
89,-2.26
90,-2.12
91,-2.06
92,-2.04
93,-2.04
94,-1.93
95,-1.84
96,-1.84
97,-1.84
98,-1.77
99,-1.66
100,-1.68
101,-1.69
102,-1.71
104,-1.64
105,-1.66
106,-1.68
107,-1.63
108,-1.63
109,-1.65
110,-1.67
111,-1.69
112,-1.70
113,-1.71
114,-1.65
115,-1.62
117,-1.51
118,-1.51
119,-1.51
120,-1.50
121,-1.49
123,-1.48
124,-1.48
125,-1.47
126,-1.47
128,-1.41
129,-1.35
130,-1.34
131,-1.34
133,-1.33
134,-1.30
135,-1.22
137,-1.22
138,-1.22
140,-1.22
141,-1.22
142,-1.21
144,-1.21
145,-1.21
147,-1.21
148,-1.21
150,-1.22
151,-1.19
153,-1.11
154,-1.11
156,-1.11
157,-1.11
159,-1.11
160,-1.11
162,-1.11
164,-1.12
165,-1.14
167,-1.22
169,-1.23
170,-1.23
172,-1.04
174,-1.05
175,-1.05
177,-1.06
179,-1.06
181,-1.05
183,-1.05
184,-1.04
186,-1.03
188,-1.01
190,-1.00
192,-0.98
194,-0.97
196,-0.93
198,-0.84
200,-0.83
202,-0.82
204,-0.82
206,-0.82
208,-0.82
210,-0.82
212,-0.82
214,-0.82
216,-0.83
218,-0.83
221,-0.83
223,-0.84
225,-0.84
227,-0.84
229,-0.83
232,-0.83
234,-0.82
236,-0.80
239,-0.79
241,-0.77
244,-0.75
246,-0.73
248,-0.71
251,-0.69
253,-0.67
256,-0.66
259,-0.65
261,-0.65
264,-0.65
266,-0.65
269,-0.65
272,-0.66
274,-0.73
277,-0.76
280,-0.76
283,-0.76
286,-0.75
288,-0.74
291,-0.73
294,-0.78
297,-0.83
300,-0.80
303,-0.78
306,-0.77
309,-0.76
312,-0.75
316,-0.73
319,-0.83
322,-0.85
325,-0.85
328,-0.85
332,-0.86
335,-0.86
338,-0.86
342,-0.86
345,-0.86
349,-0.97
352,-0.98
356,-0.96
359,-0.95
363,-0.95
366,-0.94
370,-0.92
374,-0.97
377,-1.11
381,-1.12
385,-1.11
389,-1.10
393,-1.10
397,-1.10
401,-1.10
405,-1.10
409,-1.10
413,-1.11
417,-1.11
421,-1.11
425,-1.10
430,-1.09
434,-1.07
438,-1.04
443,-1.10
447,-1.10
451,-1.01
456,-0.95
460,-0.89
465,-0.88
470,-0.93
474,-0.84
479,-0.74
484,-0.65
489,-0.87
494,-0.90
499,-0.81
504,-0.78
509,-0.77
514,-0.75
519,-0.75
524,-0.75
529,-0.76
535,-0.92
540,-0.99
545,-0.95
551,-1.00
556,-1.14
562,-1.30
568,-1.26
573,-1.30
579,-1.29
585,-1.29
591,-1.51
596,-1.45
602,-1.37
608,-1.36
615,-1.28
621,-1.34
627,-1.43
633,-1.37
639,-1.31
646,-1.27
652,-1.16
659,-1.11
665,-1.06
672,-1.11
679,-1.06
686,-1.01
692,-0.97
699,-0.94
706,-0.93
713,-0.98
721,-0.93
728,-0.95
735,-0.98
742,-1.00
750,-0.87
757,-0.76
765,-0.64
773,-0.60
780,-0.52
788,-0.46
796,-0.40
804,-0.33
812,-0.26
820,-0.20
828,-0.20
837,-0.21
845,-0.22
853,-0.10
862,-0.10
871,-0.11
879,-0.02
888,-0.03
897,-0.03
906,-0.04
915,-0.05
924,-0.05
933,-0.05
943,-0.05
952,-0.05
962,0.03
971,0.06
981,0.05
991,-0.01
1001,0.00
1011,0.02
1021,0.04
1031,0.07
1041,0.10
1052,0.24
1062,0.28
1073,0.29
1084,0.27
1094,0.32
1105,0.32
1116,0.34
1128,0.40
1139,0.38
1150,0.37
1162,0.36
1173,0.32
1185,0.26
1197,0.25
1209,0.36
1221,0.41
1233,0.41
1246,0.42
1258,0.42
1271,0.41
1283,0.47
1296,0.51
1309,0.57
1322,0.67
1335,0.73
1349,0.66
1362,0.73
1376,0.74
1390,0.79
1404,0.89
1418,0.93
1432,0.92
1446,0.94
1461,1.07
1475,1.21
1490,1.31
1505,1.40
1520,1.48
1535,1.55
1550,1.53
1566,1.65
1582,1.81
1597,1.92
1613,2.07
1629,2.15
1646,2.22
1662,2.28
1679,2.35
1696,2.51
1713,2.72
1730,3.00
1747,3.32
1764,3.56
1782,3.77
1800,4.01
1818,4.24
1836,4.41
1854,4.58
1873,4.83
1892,5.09
1911,5.22
1930,5.41
1949,5.68
1969,6.04
1988,6.25
2008,6.35
2028,6.39
2048,6.49
2069,6.68
2090,6.73
2111,6.89
2132,7.22
2153,7.47
2175,7.55
2196,7.54
2218,7.53
2240,7.49
2263,7.55
2285,7.60
2308,7.69
2331,7.87
2355,8.01
2378,8.16
2402,8.33
2426,8.69
2450,8.93
2475,9.34
2500,9.54
2525,9.61
2550,9.61
2575,9.54
2601,9.71
2627,9.99
2653,10.37
2680,10.66
2707,10.75
2734,10.73
2761,10.71
2789,10.72
2817,10.64
2845,10.69
2873,10.75
2902,10.89
2931,10.95
2960,11.23
2990,11.46
3020,11.67
3050,11.50
3080,11.47
3111,11.24
3142,10.96
3174,10.89
3206,10.79
3238,10.71
3270,10.58
3303,10.45
3336,10.24
3369,10.12
3403,10.23
3437,10.49
3471,10.76
3506,11.03
3541,11.18
3576,11.28
3612,11.37
3648,11.37
3685,11.21
3721,10.86
3759,10.72
3796,10.62
3834,10.50
3873,10.28
3911,10.08
3950,9.87
3990,9.66
4030,9.47
4070,9.36
4111,9.11
4152,8.80
4193,8.57
4235,8.40
4278,8.20
4321,8.08
4364,7.90
4407,7.79
4451,7.75
4496,7.95
4541,7.91
4586,7.82
4632,7.78
4679,7.69
4725,7.55
4773,7.39
4820,7.30
4868,7.14
4917,6.94
4966,6.68
5016,6.42
5066,6.24
5117,6.01
5168,5.81
5220,5.75
5272,5.76
5325,5.81
5378,5.92
5432,6.15
5486,6.36
5541,6.65
5596,6.78
5652,6.90
5709,7.12
5766,7.83
5823,8.15
5882,8.66
5940,9.14
6000,9.36
6060,9.70
6120,9.71
6182,9.51
6244,9.21
6306,8.67
6369,7.99
6433,7.41
6497,6.70
6562,5.95
6628,5.38
6694,4.74
6761,4.23
6828,3.78
6897,3.39
6966,3.01
7035,2.63
7106,2.37
7177,2.21
7249,2.06
7321,1.91
7394,1.79
7468,1.78
7543,1.87
7618,1.88
7694,1.94
7771,2.17
7849,2.39
7928,2.76
8007,3.21
8087,3.66
8168,3.97
8250,4.53
8332,5.04
8415,5.26
8499,5.43
8584,5.35
8670,5.30
8757,5.13
8845,4.92
8933,4.66
9022,4.10
9113,3.77
9204,3.89
9296,3.99
9389,4.04
9483,4.20
9577,4.41
9673,4.58
9770,4.25
9868,3.98
9966,3.72
10066,2.95
10167,2.16
10268,1.66
10371,1.13
10475,1.11
10579,1.22
10685,1.52
10792,2.14
10900,2.38
11009,2.85
11119,3.28
11230,3.42
11343,3.29
11456,3.75
11571,4.33
11686,4.57
11803,3.92
11921,2.59
12040,1.10
12161,-0.15
12282,-1.57
12405,-3.27
12529,-4.17
12655,-4.99
12781,-5.77
12909,-6.38
13038,-6.79
13168,-7.00
13300,-7.96
13433,-9.23
13567,-10.71
13703,-11.56
13840,-12.96
13978,-12.97
14118,-12.75
14259,-12.49
14402,-11.98
14546,-11.12
14692,-10.31
14838,-9.69
14987,-9.24
15137,-8.83
15288,-8.52
15441,-7.68
15595,-7.20
15751,-6.95
15909,-7.07
16068,-7.35
16229,-7.48
16391,-7.64
16555,-7.85
16720,-9.79
16888,-11.27
17056,-13.27
17227,-13.68
17399,-12.41
17573,-10.81
17749,-8.56
17926,-6.69
18106,-5.68
18287,-4.88
18470,-4.17
18654,-3.59
18841,-3.97
19029,-6.32
19220,-7.28
19412,-8.58
19606,-7.39
19802,-6.55
20000,-6.14
