frequency,raw,error,smoothed,error_smoothed,equalization,parametric_eq,equalized_raw,equalized_smoothed,target
20.00,1.96,-6.51,1.96,-6.51,6.00,1.74,7.96,7.96,8.47
20.20,2.04,-6.43,2.03,-6.44,6.00,1.79,8.04,8.03,8.47
20.40,2.10,-6.37,2.11,-6.36,6.00,1.84,8.10,8.11,8.47
20.61,2.18,-6.29,2.19,-6.28,6.00,1.90,8.18,8.19,8.47
20.81,2.26,-6.21,2.26,-6.21,5.99,1.95,8.25,8.25,8.47
21.02,2.33,-6.14,2.34,-6.13,5.97,2.01,8.30,8.31,8.47
21.23,2.41,-6.06,2.41,-6.05,5.95,2.07,8.36,8.36,8.47
21.44,2.49,-5.97,2.49,-5.98,5.91,2.14,8.40,8.39,8.47
21.66,2.56,-5.90,2.56,-5.90,5.86,2.20,8.42,8.42,8.46
21.87,2.63,-5.83,2.63,-5.83,5.81,2.27,8.44,8.44,8.46
22.09,2.71,-5.75,2.71,-5.75,5.75,2.33,8.46,8.46,8.46
22.31,2.78,-5.68,2.78,-5.68,5.68,2.40,8.46,8.46,8.46
22.54,2.85,-5.61,2.85,-5.61,5.61,2.48,8.46,8.46,8.46
22.76,2.93,-5.53,2.93,-5.53,5.53,2.55,8.46,8.46,8.46
22.99,3.00,-5.46,3.00,-5.46,5.46,2.62,8.46,8.46,8.46
23.22,3.07,-5.39,3.07,-5.39,5.39,2.70,8.46,8.46,8.46
23.45,3.14,-5.31,3.14,-5.32,5.32,2.78,8.46,8.45,8.46
23.69,3.21,-5.24,3.21,-5.24,5.24,2.86,8.45,8.45,8.45
23.92,3.28,-5.17,3.28,-5.17,5.17,2.94,8.45,8.45,8.45
24.16,3.35,-5.10,3.35,-5.10,5.10,3.02,8.45,8.45,8.45
24.40,3.41,-5.04,3.42,-5.03,5.03,3.10,8.44,8.45,8.45
24.65,3.48,-4.97,3.49,-4.96,4.96,3.19,8.44,8.45,8.45
24.89,3.56,-4.89,3.56,-4.88,4.88,3.27,8.45,8.45,8.45
25.14,3.63,-4.81,3.63,-4.81,4.81,3.36,8.44,8.44,8.45
25.39,3.70,-4.74,3.70,-4.74,4.74,3.45,8.44,8.44,8.44
25.65,3.77,-4.67,3.77,-4.67,4.67,3.53,8.44,8.44,8.44
25.91,3.85,-4.59,3.85,-4.59,4.59,3.62,8.44,8.44,8.44
26.16,3.92,-4.52,3.92,-4.52,4.52,3.70,8.44,8.44,8.44
26.43,3.99,-4.45,3.99,-4.45,4.45,3.79,8.44,8.44,8.44
26.69,4.06,-4.38,4.06,-4.37,4.37,3.87,8.44,8.44,8.44
26.96,4.13,-4.30,4.13,-4.30,4.30,3.95,8.43,8.43,8.43
27.23,4.20,-4.23,4.20,-4.23,4.23,4.03,8.43,8.43,8.43
27.50,4.27,-4.16,4.27,-4.16,4.16,4.10,8.43,8.43,8.43
27.77,4.34,-4.09,4.34,-4.09,4.09,4.18,8.43,8.43,8.43
28.05,4.41,-4.02,4.41,-4.02,4.02,4.24,8.43,8.43,8.43
28.33,4.47,-3.95,4.47,-3.95,3.95,4.31,8.42,8.42,8.42
28.62,4.54,-3.88,4.54,-3.88,3.88,4.37,8.42,8.42,8.42
28.90,4.60,-3.82,4.60,-3.82,3.82,4.42,8.42,8.42,8.42
29.19,4.66,-3.76,4.67,-3.75,3.75,4.47,8.41,8.42,8.42
29.48,4.73,-3.68,4.73,-3.69,3.69,4.51,8.42,8.42,8.42
29.78,4.79,-3.62,4.79,-3.63,3.63,4.55,8.42,8.41,8.41
30.08,4.85,-3.56,4.85,-3.56,3.56,4.58,8.41,8.41,8.41
30.38,4.90,-3.51,4.90,-3.50,3.50,4.60,8.40,8.41,8.41
30.68,4.96,-3.44,4.96,-3.45,3.45,4.61,8.41,8.41,8.41
30.99,5.02,-3.38,5.01,-3.39,3.39,4.61,8.41,8.40,8.40
31.30,5.07,-3.33,5.06,-3.34,3.34,4.61,8.41,8.40,8.40
31.61,5.12,-3.28,5.11,-3.28,3.28,4.60,8.40,8.40,8.40
31.93,5.16,-3.23,5.16,-3.23,3.23,4.58,8.39,8.39,8.39
32.24,5.21,-3.18,5.21,-3.18,3.18,4.55,8.39,8.39,8.39
32.57,5.26,-3.13,5.26,-3.13,3.13,4.52,8.39,8.39,8.39
32.89,5.30,-3.08,5.31,-3.08,3.08,4.48,8.38,8.38,8.39
33.22,5.35,-3.03,5.35,-3.03,3.03,4.43,8.38,8.38,8.38
33.55,5.39,-2.99,5.40,-2.98,2.98,4.38,8.37,8.38,8.38
33.89,5.44,-2.93,5.44,-2.93,2.93,4.31,8.37,8.37,8.38
34.23,5.48,-2.89,5.49,-2.88,2.88,4.25,8.36,8.37,8.37
34.57,5.53,-2.84,5.53,-2.83,2.83,4.18,8.37,8.37,8.37
34.92,5.58,-2.78,5.58,-2.79,2.79,4.10,8.37,8.36,8.36
35.27,5.62,-2.74,5.62,-2.74,2.74,4.02,8.36,8.36,8.36
35.62,5.67,-2.69,5.67,-2.69,2.69,3.93,8.36,8.36,8.36
35.97,5.71,-2.64,5.71,-2.64,2.64,3.85,8.35,8.35,8.35
36.33,5.76,-2.59,5.76,-2.59,2.59,3.76,8.35,8.35,8.35
36.70,5.79,-2.55,5.80,-2.54,2.54,3.67,8.33,8.34,8.34
37.06,5.84,-2.50,5.84,-2.50,2.50,3.57,8.34,8.34,8.34
37.43,5.89,-2.44,5.89,-2.45,2.45,3.48,8.34,8.34,8.34
37.81,5.93,-2.40,5.93,-2.40,2.40,3.38,8.33,8.33,8.33
38.19,5.98,-2.35,5.97,-2.35,2.35,3.28,8.33,8.33,8.33
38.57,6.01,-2.31,6.02,-2.30,2.30,3.19,8.31,8.32,8.32
38.95,6.06,-2.25,6.06,-2.26,2.26,3.09,8.32,8.32,8.32
39.34,6.10,-2.21,6.10,-2.21,2.21,2.99,8.31,8.31,8.31
39.74,6.14,-2.16,6.14,-2.16,2.16,2.90,8.30,8.30,8.30
40.14,6.18,-2.12,6.18,-2.12,2.12,2.80,8.30,8.30,8.30
40.54,6.22,-2.07,6.22,-2.07,2.07,2.71,8.29,8.29,8.29
40.94,6.26,-2.03,6.26,-2.03,2.03,2.61,8.29,8.29,8.29
41.35,6.30,-1.98,6.30,-1.98,1.98,2.52,8.28,8.28,8.28
41.76,6.34,-1.93,6.34,-1.94,1.94,2.43,8.28,8.27,8.28
42.18,6.38,-1.89,6.37,-1.89,1.89,2.34,8.27,8.27,8.27
42.60,6.41,-1.85,6.41,-1.85,1.85,2.25,8.26,8.26,8.26
43.03,6.44,-1.81,6.45,-1.81,1.81,2.16,8.25,8.25,8.26
43.46,6.48,-1.77,6.49,-1.76,1.76,2.08,8.24,8.25,8.25
43.90,6.52,-1.72,6.52,-1.72,1.72,1.99,8.24,8.24,8.24
44.33,6.56,-1.67,6.56,-1.67,1.67,1.91,8.24,8.23,8.23
44.78,6.59,-1.64,6.59,-1.63,1.63,1.83,8.22,8.23,8.23
45.23,6.63,-1.59,6.63,-1.59,1.59,1.75,8.22,8.22,8.22
45.68,6.66,-1.55,6.67,-1.54,1.54,1.67,8.20,8.21,8.21
46.13,6.70,-1.50,6.70,-1.50,1.50,1.59,8.20,8.20,8.20
46.60,6.74,-1.45,6.73,-1.46,1.46,1.52,8.20,8.19,8.19
47.06,6.77,-1.41,6.77,-1.41,1.41,1.44,8.19,8.18,8.18
47.53,6.80,-1.37,6.80,-1.37,1.37,1.37,8.17,8.18,8.18
48.01,6.84,-1.33,6.84,-1.33,1.33,1.30,8.17,8.17,8.17
48.49,6.87,-1.29,6.87,-1.29,1.29,1.23,8.16,8.16,8.16
48.97,6.90,-1.25,6.90,-1.25,1.25,1.16,8.15,8.15,8.15
49.46,6.93,-1.21,6.93,-1.21,1.21,1.09,8.14,8.14,8.14
49.96,6.96,-1.17,6.96,-1.16,1.16,1.02,8.12,8.13,8.13
50.46,6.99,-1.13,6.99,-1.12,1.12,0.96,8.11,8.12,8.12
50.96,7.02,-1.08,7.02,-1.08,1.08,0.89,8.10,8.10,8.10
51.47,7.05,-1.04,7.05,-1.04,1.04,0.83,8.09,8.09,8.09
51.99,7.08,-1.00,7.08,-1.00,1.00,0.77,8.08,8.08,8.08
52.51,7.11,-0.96,7.11,-0.96,0.96,0.71,8.07,8.07,8.07
53.03,7.13,-0.93,7.13,-0.92,0.92,0.65,8.05,8.06,8.06
53.56,7.16,-0.88,7.16,-0.88,0.88,0.59,8.04,8.05,8.05
54.10,7.20,-0.83,7.19,-0.84,0.84,0.53,8.04,8.03,8.03
54.64,7.21,-0.81,7.22,-0.80,0.80,0.48,8.01,8.02,8.02
55.18,7.24,-0.77,7.24,-0.76,0.76,0.42,8.00,8.01,8.01
55.74,7.27,-0.72,7.27,-0.72,0.72,0.37,7.99,7.99,7.99
56.29,7.30,-0.68,7.30,-0.68,0.68,0.32,7.98,7.98,7.98
56.86,7.33,-0.63,7.33,-0.63,0.63,0.26,7.96,7.96,7.96
57.42,7.36,-0.59,7.36,-0.59,0.59,0.21,7.95,7.95,7.95
58.00,7.39,-0.54,7.39,-0.54,0.54,0.16,7.93,7.93,7.93
58.58,7.42,-0.50,7.42,-0.49,0.49,0.11,7.92,7.92,7.92
59.16,7.45,-0.45,7.45,-0.45,0.45,0.07,7.90,7.90,7.90
59.76,7.48,-0.40,7.49,-0.40,0.40,0.02,7.88,7.88,7.89
60.35,7.52,-0.35,7.52,-0.35,0.35,-0.03,7.87,7.87,7.87
60.96,7.55,-0.30,7.55,-0.30,0.30,-0.07,7.85,7.85,7.85
61.57,7.59,-0.24,7.59,-0.24,0.24,-0.11,7.83,7.83,7.83
62.18,7.63,-0.18,7.63,-0.19,0.19,-0.16,7.82,7.81,7.82
62.80,7.66,-0.14,7.66,-0.13,0.13,-0.20,7.80,7.80,7.80
63.43,7.70,-0.08,7.70,-0.08,0.08,-0.24,7.78,7.78,7.78
64.07,7.73,-0.03,7.73,-0.02,0.02,-0.28,7.75,7.76,7.76
64.71,7.77,0.03,7.77,0.03,-0.03,-0.32,7.74,7.74,7.74
65.35,7.81,0.09,7.81,0.09,-0.09,-0.36,7.72,7.72,7.72
66.01,7.84,0.14,7.85,0.15,-0.15,-0.40,7.69,7.70,7.70
66.67,7.89,0.21,7.89,0.21,-0.21,-0.43,7.68,7.68,7.68
67.33,7.93,0.28,7.92,0.27,-0.27,-0.47,7.66,7.65,7.66
68.01,7.96,0.33,7.96,0.33,-0.33,-0.51,7.63,7.63,7.63
68.69,8.00,0.39,8.00,0.39,-0.39,-0.54,7.61,7.61,7.61
69.37,8.03,0.44,8.04,0.45,-0.45,-0.58,7.58,7.59,7.59
70.07,8.07,0.50,8.07,0.51,-0.51,-0.61,7.56,7.57,7.57
70.77,8.11,0.57,8.11,0.57,-0.57,-0.65,7.55,7.54,7.54
71.48,8.15,0.63,8.14,0.62,-0.62,-0.69,7.53,7.52,7.52
72.19,8.17,0.68,8.18,0.68,-0.68,-0.72,7.49,7.49,7.49
72.91,8.21,0.74,8.21,0.74,-0.74,-0.76,7.47,7.47,7.47
73.64,8.24,0.80,8.24,0.80,-0.80,-0.79,7.44,7.44,7.44
74.38,8.27,0.85,8.27,0.86,-0.86,-0.83,7.42,7.42,7.42
75.12,8.31,0.92,8.30,0.91,-0.91,-0.87,7.40,7.39,7.39
75.87,8.33,0.97,8.33,0.97,-0.97,-0.91,7.36,7.36,7.36
76.63,8.36,1.02,8.36,1.03,-1.03,-0.94,7.33,7.34,7.34
77.40,8.39,1.08,8.39,1.08,-1.08,-0.98,7.31,7.31,7.31
78.17,8.42,1.14,8.42,1.14,-1.14,-1.02,7.28,7.28,7.28
78.95,8.45,1.20,8.45,1.19,-1.19,-1.06,7.26,7.25,7.25
79.74,8.47,1.24,8.47,1.25,-1.25,-1.10,7.22,7.23,7.23
80.54,8.49,1.29,8.50,1.30,-1.30,-1.15,7.19,7.20,7.20
81.35,8.53,1.36,8.53,1.36,-1.36,-1.19,7.17,7.17,7.17
82.16,8.55,1.41,8.55,1.41,-1.41,-1.23,7.14,7.14,7.14
82.98,8.58,1.47,8.57,1.46,-1.46,-1.28,7.12,7.11,7.11
83.81,8.60,1.52,8.60,1.52,-1.52,-1.33,7.08,7.08,7.08
84.65,8.61,1.56,8.62,1.57,-1.57,-1.37,7.04,7.05,7.05
85.50,8.64,1.62,8.64,1.62,-1.62,-1.42,7.02,7.02,7.02
86.35,8.66,1.67,8.66,1.67,-1.67,-1.47,6.99,6.99,6.99
87.22,8.67,1.72,8.68,1.72,-1.72,-1.52,6.95,6.95,6.96
88.09,8.70,1.78,8.70,1.77,-1.77,-1.58,6.93,6.92,6.92
88.97,8.71,1.82,8.71,1.82,-1.82,-1.63,6.89,6.89,6.89
89.86,8.73,1.87,8.73,1.87,-1.87,-1.68,6.86,6.86,6.86
90.76,8.75,1.92,8.75,1.92,-1.92,-1.74,6.83,6.83,6.83
91.66,8.76,1.97,8.76,1.97,-1.97,-1.80,6.79,6.79,6.80
92.58,8.78,2.02,8.78,2.02,-2.02,-1.86,6.76,6.76,6.76
93.51,8.79,2.06,8.80,2.07,-2.07,-1.92,6.72,6.73,6.73
94.44,8.81,2.11,8.81,2.11,-2.11,-1.98,6.70,6.70,6.70
95.39,8.83,2.17,8.83,2.16,-2.16,-2.04,6.67,6.66,6.66
96.34,8.84,2.21,8.84,2.21,-2.21,-2.10,6.63,6.63,6.63
97.30,8.85,2.25,8.85,2.25,-2.25,-2.17,6.60,6.60,6.60
98.28,8.86,2.30,8.86,2.30,-2.30,-2.23,6.56,6.56,6.57
99.26,8.87,2.34,8.87,2.34,-2.34,-2.30,6.53,6.53,6.53
100.25,8.89,2.39,8.89,2.39,-2.39,-2.37,6.50,6.50,6.50
101.25,8.90,2.43,8.90,2.43,-2.43,-2.43,6.47,6.47,6.47
102.27,8.91,2.48,8.91,2.47,-2.47,-2.50,6.44,6.43,6.43
103.29,8.91,2.51,8.91,2.51,-2.51,-2.57,6.40,6.40,6.40
104.32,8.92,2.55,8.92,2.56,-2.56,-2.64,6.36,6.37,6.37
105.37,8.93,2.60,8.93,2.60,-2.60,-2.70,6.33,6.33,6.33
106.42,8.93,2.63,8.94,2.64,-2.64,-2.77,6.29,6.30,6.30
107.48,8.94,2.67,8.94,2.68,-2.68,-2.84,6.26,6.27,6.27
108.56,8.95,2.72,8.95,2.72,-2.72,-2.90,6.23,6.24,6.24
109.64,8.96,2.76,8.96,2.75,-2.75,-2.97,6.21,6.20,6.20
110.74,8.96,2.79,8.96,2.79,-2.79,-3.03,6.17,6.17,6.17
111.85,8.97,2.83,8.97,2.83,-2.83,-3.09,6.14,6.14,6.14
112.97,8.97,2.86,8.97,2.87,-2.87,-3.15,6.10,6.11,6.11
114.10,8.98,2.91,8.98,2.91,-2.91,-3.20,6.08,6.07,6.07
115.24,8.99,2.95,8.98,2.94,-2.94,-3.26,6.05,6.04,6.04
116.39,8.99,2.98,8.99,2.98,-2.98,-3.31,6.01,6.01,6.01
117.55,8.99,3.01,8.99,3.01,-3.01,-3.35,5.98,5.98,5.98
118.73,9.00,3.05,9.00,3.05,-3.05,-3.40,5.95,5.95,5.95
119.92,9.00,3.08,9.00,3.08,-3.08,-3.44,5.92,5.92,5.92
121.12,9.00,3.11,9.01,3.12,-3.12,-3.47,5.88,5.89,5.89
122.33,9.01,3.15,9.01,3.15,-3.15,-3.50,5.86,5.86,5.86
123.55,9.01,3.18,9.01,3.18,-3.18,-3.53,5.83,5.83,5.83
124.79,9.01,3.21,9.02,3.21,-3.21,-3.55,5.80,5.80,5.80
126.03,9.02,3.25,9.02,3.25,-3.25,-3.57,5.78,5.77,5.77
127.29,9.02,3.28,9.02,3.28,-3.28,-3.58,5.74,5.74,5.75
128.57,9.02,3.30,9.02,3.31,-3.31,-3.59,5.71,5.72,5.72
129.85,9.03,3.34,9.03,3.34,-3.34,-3.60,5.69,5.69,5.69
131.15,9.03,3.37,9.03,3.36,-3.36,-3.60,5.67,5.66,5.66
132.46,9.03,3.39,9.03,3.39,-3.39,-3.60,5.64,5.64,5.64
133.79,9.03,3.42,9.03,3.42,-3.42,-3.60,5.61,5.61,5.61
135.12,9.03,3.45,9.03,3.45,-3.45,-3.59,5.58,5.58,5.58
136.48,9.03,3.47,9.03,3.47,-3.47,-3.58,5.56,5.56,5.56
137.84,9.02,3.49,9.03,3.50,-3.50,-3.56,5.52,5.53,5.53
139.22,9.03,3.52,9.03,3.52,-3.52,-3.55,5.51,5.51,5.51
140.61,9.02,3.54,9.03,3.54,-3.54,-3.53,5.48,5.48,5.48
142.02,9.03,3.57,9.03,3.57,-3.57,-3.51,5.47,5.46,5.46
143.44,9.02,3.58,9.02,3.59,-3.59,-3.49,5.43,5.44,5.44
144.87,9.02,3.61,9.02,3.61,-3.61,-3.47,5.41,5.41,5.41
146.32,9.02,3.63,9.02,3.63,-3.63,-3.45,5.39,5.39,5.39
147.78,9.01,3.64,9.01,3.65,-3.65,-3.43,5.37,5.37,5.37
149.26,9.02,3.67,9.01,3.66,-3.66,-3.41,5.36,5.35,5.35
150.75,9.00,3.67,9.01,3.68,-3.68,-3.39,5.32,5.33,5.33
152.26,9.00,3.69,9.00,3.70,-3.70,-3.37,5.31,5.31,5.31
153.78,9.00,3.72,9.00,3.71,-3.71,-3.35,5.29,5.29,5.29
155.32,8.99,3.72,8.99,3.72,-3.72,-3.33,5.27,5.27,5.27
156.88,8.98,3.73,8.98,3.74,-3.74,-3.31,5.24,5.25,5.25
158.44,8.97,3.74,8.97,3.75,-3.75,-3.30,5.22,5.23,5.23
160.03,8.97,3.76,8.97,3.76,-3.76,-3.28,5.21,5.21,5.21
161.63,8.95,3.76,8.96,3.77,-3.77,-3.27,5.18,5.19,5.19
163.24,8.95,3.78,8.95,3.78,-3.78,-3.26,5.17,5.17,5.17
164.88,8.94,3.79,8.94,3.79,-3.79,-3.26,5.15,5.15,5.15
166.53,8.93,3.79,8.93,3.79,-3.79,-3.25,5.14,5.14,5.14
168.19,8.92,3.80,8.92,3.80,-3.80,-3.25,5.12,5.12,5.12
169.87,8.90,3.80,8.91,3.80,-3.80,-3.25,5.10,5.10,5.10
171.57,8.89,3.80,8.89,3.80,-3.80,-3.25,5.09,5.09,5.09
173.29,8.88,3.81,8.88,3.81,-3.81,-3.26,5.08,5.07,5.07
175.02,8.87,3.81,8.86,3.80,-3.80,-3.26,5.07,5.06,5.06
176.77,8.85,3.81,8.85,3.80,-3.80,-3.27,5.05,5.04,5.04
178.54,8.83,3.80,8.83,3.80,-3.80,-3.29,5.03,5.03,5.03
180.32,8.81,3.80,8.81,3.79,-3.79,-3.30,5.02,5.02,5.02
182.13,8.79,3.79,8.79,3.79,-3.79,-3.32,5.00,5.00,5.00
183.95,8.76,3.77,8.77,3.78,-3.78,-3.34,4.98,4.99,4.99
185.79,8.75,3.78,8.74,3.77,-3.77,-3.36,4.98,4.97,4.98
187.65,8.72,3.76,8.72,3.76,-3.76,-3.39,4.96,4.96,4.96
189.52,8.69,3.74,8.70,3.75,-3.75,-3.42,4.94,4.95,4.95
191.42,8.67,3.73,8.67,3.74,-3.74,-3.45,4.94,4.94,4.94
193.33,8.65,3.72,8.65,3.72,-3.72,-3.48,4.93,4.92,4.93
195.27,8.62,3.71,8.62,3.71,-3.71,-3.51,4.91,4.91,4.92
197.22,8.59,3.69,8.60,3.70,-3.70,-3.55,4.89,4.90,4.90
199.19,8.57,3.68,8.58,3.68,-3.68,-3.59,4.89,4.89,4.89
201.18,8.56,3.68,8.55,3.67,-3.67,-3.63,4.89,4.88,4.88
203.19,8.53,3.66,8.53,3.66,-3.66,-3.67,4.87,4.87,4.87
205.23,8.50,3.64,8.51,3.64,-3.64,-3.71,4.86,4.86,4.86
207.28,8.48,3.63,8.48,3.63,-3.63,-3.75,4.85,4.85,4.85
209.35,8.46,3.62,8.46,3.61,-3.61,-3.79,4.85,4.84,4.84
211.44,8.44,3.61,8.44,3.60,-3.60,-3.83,4.84,4.84,4.83
213.56,8.41,3.59,8.41,3.58,-3.58,-3.88,4.83,4.83,4.83
215.69,8.39,3.57,8.39,3.57,-3.57,-3.92,4.82,4.82,4.82
217.85,8.36,3.55,8.36,3.56,-3.56,-3.96,4.81,4.81,4.81
220.03,8.34,3.54,8.34,3.54,-3.54,-4.00,4.80,4.80,4.80
222.23,8.32,3.53,8.32,3.53,-3.53,-4.03,4.79,4.79,4.79
224.45,8.29,3.51,8.29,3.51,-3.51,-4.07,4.78,4.78,4.78
226.70,8.27,3.49,8.27,3.50,-3.50,-4.10,4.77,4.77,4.78
228.96,8.25,3.48,8.25,3.49,-3.49,-4.13,4.77,4.77,4.77
231.25,8.22,3.46,8.23,3.47,-3.47,-4.15,4.75,4.76,4.76
233.57,8.20,3.44,8.21,3.46,-3.46,-4.17,4.74,4.75,4.76
235.90,8.18,3.43,8.19,3.45,-3.45,-4.19,4.73,4.75,4.75
238.26,8.17,3.43,8.17,3.43,-3.43,-4.20,4.74,4.74,4.74
240.64,8.15,3.41,8.15,3.42,-3.42,-4.21,4.73,4.73,4.74
243.05,8.14,3.41,8.13,3.41,-3.41,-4.21,4.73,4.73,4.73
245.48,8.11,3.39,8.11,3.39,-3.39,-4.20,4.72,4.72,4.72
247.93,8.09,3.37,8.09,3.37,-3.37,-4.19,4.72,4.72,4.72
250.41,8.08,3.37,8.06,3.35,-3.35,-4.17,4.73,4.71,4.71
252.92,8.05,3.34,8.04,3.33,-3.33,-4.15,4.72,4.71,4.71
255.45,8.01,3.31,8.01,3.30,-3.30,-4.12,4.71,4.70,4.70
258.00,7.99,3.29,7.97,3.27,-3.27,-4.08,4.72,4.70,4.70
260.58,7.95,3.26,7.94,3.24,-3.24,-4.04,4.71,4.69,4.69
263.19,7.91,3.22,7.90,3.21,-3.21,-4.00,4.70,4.69,4.69
265.82,7.87,3.19,7.86,3.18,-3.18,-3.94,4.69,4.68,4.68
268.48,7.82,3.14,7.82,3.15,-3.15,-3.89,4.67,4.68,4.68
271.16,7.79,3.12,7.78,3.11,-3.11,-3.83,4.68,4.67,4.67
273.87,7.74,3.07,7.75,3.08,-3.08,-3.76,4.66,4.66,4.67
276.61,7.70,3.04,7.71,3.05,-3.05,-3.69,4.65,4.66,4.66
279.38,7.67,3.01,7.68,3.03,-3.03,-3.62,4.64,4.65,4.66
282.17,7.64,2.98,7.65,3.01,-3.01,-3.54,4.64,4.64,4.66
284.99,7.61,2.96,7.63,2.99,-2.99,-3.46,4.62,4.64,4.65
287.84,7.59,2.94,7.61,2.98,-2.98,-3.38,4.61,4.63,4.65
290.72,7.58,2.94,7.60,2.97,-2.97,-3.30,4.61,4.63,4.64
293.63,7.58,2.94,7.60,2.97,-2.97,-3.21,4.61,4.63,4.64
296.57,7.58,2.94,7.60,2.97,-2.97,-3.13,4.61,4.63,4.64
299.53,7.59,2.96,7.60,2.98,-2.98,-3.04,4.61,4.63,4.63
302.53,7.60,2.97,7.61,2.99,-2.99,-2.95,4.61,4.62,4.63
305.55,7.62,2.99,7.62,3.00,-3.00,-2.86,4.62,4.62,4.63
308.61,7.65,3.03,7.63,3.01,-3.01,-2.77,4.64,4.62,4.62
311.69,7.66,3.04,7.64,3.03,-3.03,-2.69,4.64,4.62,4.62
314.81,7.68,3.06,7.65,3.04,-3.04,-2.60,4.64,4.62,4.62
317.96,7.68,3.06,7.66,3.05,-3.05,-2.51,4.63,4.61,4.62
321.14,7.69,3.08,7.67,3.06,-3.06,-2.43,4.63,4.61,4.61
324.35,7.68,3.07,7.68,3.07,-3.07,-2.34,4.62,4.61,4.61
327.59,7.68,3.07,7.68,3.07,-3.07,-2.26,4.61,4.61,4.61
330.87,7.67,3.07,7.68,3.07,-3.07,-2.17,4.60,4.61,4.61
334.18,7.66,3.06,7.67,3.07,-3.07,-2.09,4.59,4.60,4.60
337.52,7.65,3.05,7.66,3.06,-3.06,-2.01,4.59,4.60,4.60
340.90,7.64,3.04,7.65,3.05,-3.05,-1.93,4.59,4.60,4.60
344.30,7.63,3.03,7.63,3.04,-3.04,-1.85,4.59,4.59,4.60
347.75,7.61,3.02,7.62,3.03,-3.03,-1.78,4.58,4.59,4.59
351.23,7.61,3.02,7.60,3.01,-3.01,-1.70,4.60,4.59,4.59
354.74,7.59,3.00,7.57,2.99,-2.99,-1.63,4.60,4.59,4.59
358.28,7.55,2.96,7.55,2.96,-2.96,-1.55,4.59,4.58,4.59
361.87,7.52,2.94,7.52,2.94,-2.94,-1.48,4.58,4.58,4.59
365.49,7.48,2.90,7.49,2.91,-2.91,-1.41,4.58,4.58,4.58
369.14,7.44,2.86,7.45,2.87,-2.87,-1.34,4.57,4.58,4.58
372.83,7.40,2.82,7.41,2.83,-2.83,-1.28,4.57,4.58,4.58
376.56,7.37,2.79,7.37,2.79,-2.79,-1.21,4.58,4.58,4.58
380.33,7.31,2.73,7.32,2.75,-2.75,-1.14,4.56,4.57,4.58
384.13,7.27,2.70,7.27,2.70,-2.70,-1.08,4.57,4.57,4.57
387.97,7.21,2.64,7.22,2.64,-2.64,-1.02,4.57,4.57,4.57
391.85,7.16,2.59,7.15,2.58,-2.58,-0.95,4.58,4.57,4.57
395.77,7.09,2.52,7.09,2.52,-2.52,-0.89,4.57,4.57,4.57
399.73,7.03,2.46,7.02,2.45,-2.45,-0.83,4.58,4.57,4.57
403.72,6.95,2.38,6.94,2.37,-2.37,-0.77,4.58,4.57,4.57
407.76,6.86,2.30,6.85,2.29,-2.29,-0.72,4.57,4.57,4.56
411.84,6.77,2.21,6.76,2.20,-2.20,-0.66,4.57,4.56,4.56
415.96,6.68,2.12,6.66,2.11,-2.11,-0.60,4.58,4.56,4.56
420.12,6.58,2.02,6.56,2.01,-2.01,-0.55,4.57,4.55,4.56
424.32,6.46,1.90,6.45,1.90,-1.90,-0.49,4.56,4.55,4.56
428.56,6.35,1.80,6.34,1.79,-1.79,-0.44,4.56,4.55,4.56
432.85,6.22,1.67,6.23,1.68,-1.68,-0.38,4.54,4.55,4.55
437.18,6.09,1.54,6.11,1.56,-1.56,-0.33,4.53,4.55,4.55
441.55,5.97,1.42,5.99,1.45,-1.45,-0.27,4.53,4.55,4.55
445.96,5.82,1.26,5.87,1.32,-1.32,-0.22,4.50,4.55,4.56
450.42,5.72,1.16,5.75,1.19,-1.19,-0.17,4.53,4.56,4.56
454.93,5.61,1.05,5.63,1.06,-1.06,-0.12,4.55,4.56,4.56
459.48,5.51,0.94,5.50,0.93,-0.93,-0.06,4.58,4.57,4.57
464.07,5.39,0.81,5.37,0.79,-0.79,-0.01,4.60,4.57,4.58
468.71,5.26,0.68,5.23,0.65,-0.65,0.04,4.61,4.58,4.58
473.40,5.13,0.54,5.10,0.51,-0.51,0.09,4.62,4.59,4.59
478.13,4.99,0.39,4.96,0.36,-0.36,0.15,4.63,4.60,4.60
482.91,4.84,0.23,4.82,0.21,-0.21,0.20,4.63,4.61,4.62
487.74,4.69,0.06,4.68,0.05,-0.05,0.25,4.64,4.63,4.63
492.62,4.54,-0.10,4.54,-0.10,0.10,0.30,4.64,4.64,4.64
497.55,4.39,-0.26,4.39,-0.26,0.26,0.36,4.65,4.65,4.66
502.52,4.23,-0.44,4.25,-0.42,0.42,0.41,4.65,4.66,4.67
507.55,4.08,-0.61,4.10,-0.57,0.57,0.46,4.65,4.68,4.69
512.62,3.94,-0.76,3.96,-0.73,0.73,0.52,4.67,4.69,4.70
517.75,3.81,-0.91,3.83,-0.88,0.88,0.57,4.69,4.71,4.72
522.93,3.68,-1.06,3.70,-1.03,1.03,0.63,4.71,4.73,4.74
528.16,3.56,-1.19,3.57,-1.17,1.17,0.68,4.74,4.75,4.75
533.44,3.45,-1.32,3.45,-1.32,1.32,0.74,4.77,4.77,4.77
538.77,3.33,-1.46,3.33,-1.45,1.45,0.79,4.79,4.79,4.79
544.16,3.23,-1.58,3.22,-1.59,1.59,0.85,4.82,4.81,4.82
549.60,3.12,-1.72,3.12,-1.72,1.72,0.91,4.84,4.84,4.84
555.10,3.02,-1.84,3.02,-1.85,1.85,0.97,4.87,4.87,4.87
560.65,2.92,-1.97,2.92,-1.97,1.97,1.03,4.89,4.89,4.89
566.25,2.83,-2.09,2.83,-2.09,2.09,1.09,4.93,4.92,4.92
571.92,2.74,-2.21,2.73,-2.21,2.21,1.15,4.96,4.95,4.95
577.64,2.64,-2.33,2.65,-2.33,2.33,1.21,4.97,4.98,4.98
583.41,2.56,-2.44,2.56,-2.45,2.45,1.28,5.01,5.01,5.00
589.25,2.48,-2.55,2.48,-2.56,2.56,1.34,5.04,5.03,5.03
595.14,2.39,-2.67,2.39,-2.67,2.67,1.41,5.06,5.06,5.06
601.09,2.32,-2.77,2.32,-2.78,2.78,1.48,5.10,5.09,5.09
607.10,2.24,-2.88,2.24,-2.88,2.88,1.55,5.12,5.12,5.12
613.17,2.17,-2.99,2.17,-2.98,2.98,1.62,5.16,5.15,5.16
619.30,2.10,-3.09,2.10,-3.08,3.08,1.69,5.19,5.19,5.19
625.50,2.04,-3.18,2.03,-3.18,3.18,1.77,5.22,5.22,5.22
631.75,1.97,-3.28,1.97,-3.28,3.28,1.84,5.25,5.25,5.25
638.07,1.91,-3.37,1.91,-3.37,3.37,1.92,5.28,5.28,5.28
644.45,1.85,-3.47,1.86,-3.45,3.45,2.00,5.31,5.31,5.32
650.89,1.80,-3.55,1.81,-3.54,3.54,2.08,5.34,5.35,5.35
657.40,1.75,-3.63,1.76,-3.62,3.62,2.17,5.37,5.38,5.38
663.98,1.71,-3.71,1.72,-3.70,3.70,2.25,5.41,5.42,5.42
670.62,1.67,-3.78,1.67,-3.78,3.78,2.34,5.45,5.45,5.45
677.32,1.63,-3.86,1.64,-3.85,3.85,2.43,5.48,5.49,5.49
684.10,1.60,-3.92,1.60,-3.92,3.92,2.52,5.52,5.52,5.52
690.94,1.56,-4.00,1.57,-3.99,3.99,2.61,5.55,5.56,5.56
697.85,1.53,-4.07,1.54,-4.06,4.06,2.71,5.59,5.60,5.60
704.83,1.51,-4.13,1.51,-4.13,4.13,2.81,5.64,5.64,5.64
711.87,1.47,-4.21,1.48,-4.20,4.20,2.91,5.67,5.68,5.68
718.99,1.45,-4.27,1.45,-4.27,4.27,3.01,5.72,5.72,5.72
726.18,1.41,-4.34,1.42,-4.34,4.34,3.11,5.75,5.76,5.76
733.44,1.38,-4.41,1.38,-4.41,4.41,3.22,5.80,5.80,5.79
740.78,1.34,-4.49,1.34,-4.49,4.49,3.33,5.83,5.84,5.83
748.19,1.30,-4.57,1.30,-4.58,4.58,3.44,5.88,5.88,5.87
755.67,1.27,-4.64,1.25,-4.67,4.67,3.55,5.94,5.92,5.91
763.23,1.22,-4.73,1.20,-4.76,4.76,3.67,5.98,5.96,5.95
770.86,1.16,-4.82,1.14,-4.86,4.86,3.79,6.02,5.99,5.99
778.57,1.10,-4.92,1.07,-4.96,4.96,3.90,6.06,6.03,6.02
786.35,1.03,-5.03,0.99,-5.07,5.07,4.02,6.10,6.06,6.06
794.22,0.95,-5.14,0.92,-5.18,5.18,4.15,6.13,6.09,6.09
