frequency,raw,error,smoothed,error_smoothed,equalization,parametric_eq,equalized_raw,equalized_smoothed,target
20,-1.79,-3.77,-1.83,-3.81,3.81,1.48,2.03,1.98,1.98
21,-1.79,-3.77,-1.79,-3.77,3.77,1.71,1.99,1.98,1.98
22,-1.77,-3.75,-1.75,-3.73,3.73,1.95,1.96,1.98,1.98
23,-1.77,-3.74,-1.69,-3.67,3.67,2.22,1.90,1.98,1.98
24,-1.71,-3.68,-1.63,-3.61,3.61,2.50,1.90,1.98,1.97
25,-1.61,-3.58,-1.56,-3.53,3.53,2.80,1.92,1.97,1.97
26,-1.49,-3.45,-1.48,-3.45,3.45,3.08,1.96,1.97,1.97
27,-1.37,-3.33,-1.40,-3.36,3.36,3.35,1.99,1.97,1.97
28,-1.26,-3.22,-1.32,-3.28,3.28,3.59,2.02,1.96,1.96
29,-1.21,-3.16,-1.25,-3.21,3.21,3.77,2.00,1.96,1.96
30,-1.16,-3.11,-1.19,-3.15,3.15,3.90,1.99,1.95,1.95
31,-1.12,-3.06,-1.15,-3.10,3.10,3.96,1.98,1.95,1.95
32,-1.12,-3.06,-1.12,-3.06,3.06,3.95,1.95,1.94,1.94
33,-1.12,-3.05,-1.10,-3.04,3.04,3.89,1.92,1.93,1.93
34,-1.12,-3.04,-1.08,-3.01,3.01,3.79,1.90,1.93,1.93
35,-1.12,-3.04,-1.07,-2.99,2.99,3.65,1.87,1.92,1.92
36,-1.07,-2.98,-1.04,-2.95,2.95,3.49,1.89,1.91,1.91
37,-1.02,-2.92,-1.01,-2.91,2.91,3.33,1.90,1.90,1.90
38,-0.98,-2.87,-0.98,-2.87,2.87,3.17,1.89,1.89,1.89
39,-0.93,-2.81,-0.94,-2.82,2.82,3.01,1.89,1.88,1.88
40,-0.88,-2.75,-0.89,-2.77,2.77,2.86,1.89,1.87,1.87
41,-0.84,-2.70,-0.85,-2.71,2.71,2.73,1.88,1.86,1.86
42,-0.79,-2.64,-0.81,-2.66,2.66,2.60,1.87,1.85,1.85
43,-0.77,-2.60,-0.77,-2.60,2.60,2.49,1.84,1.84,1.84
44,-0.74,-2.56,-0.72,-2.55,2.55,2.39,1.81,1.82,1.82
45,-0.70,-2.50,-0.68,-2.49,2.49,2.31,1.79,1.81,1.81
46,-0.65,-2.44,-0.64,-2.43,2.43,2.24,1.78,1.79,1.79
47,-0.60,-2.37,-0.59,-2.36,2.36,2.17,1.77,1.78,1.78
48,-0.55,-2.31,-0.54,-2.29,2.29,2.12,1.75,1.76,1.76
49,-0.49,-2.23,-0.48,-2.22,2.22,2.07,1.74,1.74,1.74
50,-0.42,-2.14,-0.43,-2.15,2.15,2.03,1.74,1.72,1.72
51,-0.37,-2.07,-0.38,-2.08,2.08,2.00,1.72,1.70,1.70
52,-0.33,-2.01,-0.33,-2.01,2.01,1.97,1.69,1.68,1.68
53,-0.28,-1.94,-0.29,-1.95,1.95,1.94,1.67,1.66,1.66
54,-0.24,-1.87,-0.24,-1.88,1.88,1.92,1.65,1.64,1.64
55,-0.23,-1.84,-0.21,-1.82,1.82,1.90,1.60,1.61,1.61
56,-0.18,-1.77,-0.17,-1.76,1.76,1.88,1.59,1.59,1.59
57,-0.14,-1.70,-0.14,-1.71,1.71,1.85,1.57,1.56,1.56
58,-0.14,-1.67,-0.12,-1.66,1.66,1.83,1.52,1.54,1.54
59,-0.09,-1.60,-0.09,-1.61,1.61,1.80,1.52,1.51,1.51
60,-0.09,-1.57,-0.07,-1.56,1.56,1.77,1.47,1.48,1.48
61,-0.04,-1.49,-0.06,-1.51,1.51,1.74,1.48,1.45,1.45
62,-0.04,-1.46,-0.05,-1.47,1.47,1.70,1.43,1.42,1.42
63,-0.04,-1.43,-0.04,-1.43,1.43,1.66,1.40,1.39,1.39
64,-0.04,-1.40,-0.03,-1.40,1.40,1.62,1.36,1.36,1.36
65,-0.04,-1.37,-0.03,-1.36,1.36,1.57,1.32,1.33,1.33
66,-0.04,-1.33,-0.03,-1.33,1.33,1.52,1.29,1.30,1.30
67,-0.04,-1.30,-0.03,-1.29,1.29,1.47,1.26,1.26,1.26
68,-0.04,-1.26,-0.03,-1.26,1.26,1.41,1.23,1.23,1.23
69,-0.04,-1.23,-0.04,-1.23,1.23,1.36,1.20,1.19,1.19
70,-0.04,-1.19,-0.04,-1.20,1.20,1.30,1.16,1.16,1.16
71,-0.04,-1.16,-0.05,-1.17,1.17,1.24,1.13,1.12,1.12
72,-0.04,-1.12,-0.05,-1.13,1.13,1.18,1.10,1.08,1.08
73,-0.07,-1.11,-0.05,-1.10,1.10,1.12,1.03,1.05,1.05
74,-0.07,-1.07,-0.05,-1.06,1.06,1.05,1.00,1.01,1.01
75,-0.07,-1.03,-0.05,-1.02,1.02,0.99,0.96,0.97,0.97
76,-0.07,-1.00,-0.05,-0.98,0.98,0.93,0.92,0.93,0.93
77,-0.04,-0.93,-0.05,-0.94,0.94,0.87,0.90,0.89,0.89
78,-0.04,-0.89,-0.05,-0.90,0.90,0.81,0.86,0.85,0.85
79,-0.04,-0.85,-0.04,-0.85,0.85,0.75,0.82,0.81,0.81
80,-0.04,-0.80,-0.04,-0.81,0.81,0.69,0.77,0.77,0.77
81,-0.04,-0.76,-0.04,-0.76,0.76,0.64,0.73,0.73,0.73
82,-0.04,-0.72,-0.04,-0.72,0.72,0.58,0.69,0.69,0.69
83,-0.04,-0.68,-0.03,-0.68,0.68,0.52,0.64,0.65,0.65
84,-0.04,-0.64,-0.03,-0.64,0.64,0.47,0.60,0.60,0.60
85,-0.04,-0.60,-0.03,-0.60,0.60,0.41,0.56,0.56,0.56
86,-0.04,-0.56,-0.03,-0.55,0.55,0.36,0.52,0.52,0.52
87,-0.04,-0.51,-0.03,-0.51,0.51,0.31,0.48,0.48,0.48
88,-0.04,-0.47,-0.03,-0.47,0.47,0.25,0.44,0.44,0.44
89,-0.04,-0.43,-0.04,-0.43,0.43,0.20,0.40,0.40,0.40
90,-0.04,-0.39,-0.04,-0.40,0.40,0.15,0.36,0.35,0.35
91,-0.04,-0.35,-0.05,-0.36,0.36,0.10,0.32,0.31,0.31
92,-0.04,-0.31,-0.05,-0.33,0.33,0.05,0.29,0.27,0.27
93,-0.07,-0.30,-0.06,-0.29,0.29,0.01,0.23,0.23,0.23
94,-0.09,-0.28,-0.07,-0.26,0.26,-0.04,0.17,0.19,0.19
95,-0.09,-0.24,-0.08,-0.23,0.23,-0.09,0.14,0.15,0.15
96,-0.09,-0.20,-0.08,-0.19,0.19,-0.13,0.11,0.11,0.11
97,-0.09,-0.16,-0.09,-0.16,0.16,-0.18,0.07,0.07,0.07
98,-0.09,-0.12,-0.09,-0.12,0.12,-0.22,0.03,0.03,0.03
99,-0.09,-0.08,-0.09,-0.08,0.08,-0.27,-0.01,-0.01,-0.01
100,-0.09,-0.04,-0.09,-0.04,0.04,-0.31,-0.05,-0.05,-0.05
101,-0.09,-0.00,-0.09,0.01,-0.01,-0.35,-0.09,-0.10,-0.09
102,-0.09,0.04,-0.09,0.05,-0.05,-0.40,-0.14,-0.14,-0.12
104,-0.09,0.11,-0.09,0.10,-0.10,-0.48,-0.18,-0.18,-0.20
105,-0.09,0.15,-0.09,0.14,-0.14,-0.52,-0.22,-0.22,-0.23
106,-0.09,0.18,-0.09,0.18,-0.18,-0.55,-0.26,-0.26,-0.27
107,-0.09,0.22,-0.09,0.22,-0.22,-0.59,-0.30,-0.30,-0.30
108,-0.09,0.25,-0.09,0.25,-0.25,-0.63,-0.34,-0.34,-0.34
109,-0.09,0.29,-0.09,0.29,-0.29,-0.66,-0.37,-0.37,-0.37
110,-0.09,0.32,-0.09,0.32,-0.32,-0.70,-0.41,-0.41,-0.41
111,-0.09,0.36,-0.09,0.36,-0.36,-0.73,-0.44,-0.44,-0.44
112,-0.09,0.39,-0.09,0.39,-0.39,-0.76,-0.48,-0.48,-0.47
113,-0.09,0.42,-0.09,0.42,-0.42,-0.79,-0.51,-0.51,-0.51
114,-0.09,0.45,-0.09,0.46,-0.46,-0.82,-0.54,-0.54,-0.54
115,-0.09,0.48,-0.09,0.49,-0.49,-0.85,-0.58,-0.58,-0.57
117,-0.09,0.54,-0.09,0.53,-0.53,-0.90,-0.61,-0.62,-0.63
118,-0.09,0.57,-0.09,0.56,-0.56,-0.92,-0.65,-0.65,-0.66
119,-0.09,0.60,-0.09,0.60,-0.60,-0.94,-0.68,-0.69,-0.69
120,-0.09,0.63,-0.09,0.63,-0.63,-0.96,-0.72,-0.72,-0.72
121,-0.09,0.66,-0.09,0.67,-0.67,-0.98,-0.75,-0.75,-0.74
123,-0.09,0.71,-0.08,0.71,-0.71,-1.02,-0.79,-0.79,-0.80
124,-0.09,0.74,-0.08,0.74,-0.74,-1.03,-0.83,-0.82,-0.82
125,-0.09,0.76,-0.07,0.78,-0.78,-1.05,-0.87,-0.85,-0.85
126,-0.08,0.80,-0.06,0.82,-0.82,-1.06,-0.89,-0.88,-0.87
128,-0.04,0.89,-0.06,0.86,-0.86,-1.08,-0.89,-0.91,-0.92
129,-0.04,0.91,-0.05,0.89,-0.89,-1.09,-0.93,-0.94,-0.95
130,-0.04,0.93,-0.04,0.93,-0.93,-1.09,-0.97,-0.97,-0.97
131,-0.04,0.96,-0.04,0.96,-0.96,-1.10,-1.00,-1.00,-0.99
133,-0.04,1.00,-0.03,1.00,-1.00,-1.11,-1.04,-1.03,-1.04
134,-0.04,1.02,-0.02,1.03,-1.03,-1.11,-1.07,-1.06,-1.06
135,-0.04,1.04,-0.02,1.07,-1.07,-1.12,-1.10,-1.09,-1.08
137,-0.01,1.11,-0.01,1.10,-1.10,-1.12,-1.10,-1.11,-1.12
138,0.00,1.14,-0.01,1.13,-1.13,-1.12,-1.13,-1.14,-1.14
140,0.00,1.18,-0.00,1.16,-1.16,-1.12,-1.16,-1.17,-1.17
141,0.00,1.20,-0.00,1.19,-1.19,-1.12,-1.19,-1.19,-1.19
142,0.00,1.21,0.00,1.22,-1.22,-1.12,-1.22,-1.22,-1.21
144,0.00,1.25,0.01,1.25,-1.25,-1.11,-1.24,-1.24,-1.24
145,0.00,1.26,0.01,1.28,-1.28,-1.11,-1.27,-1.26,-1.26
147,0.00,1.29,0.02,1.31,-1.31,-1.11,-1.30,-1.29,-1.29
148,0.01,1.32,0.03,1.34,-1.34,-1.10,-1.32,-1.31,-1.31
150,0.04,1.38,0.03,1.36,-1.36,-1.10,-1.32,-1.33,-1.34
151,0.05,1.40,0.04,1.39,-1.39,-1.10,-1.34,-1.35,-1.35
153,0.05,1.43,0.05,1.42,-1.42,-1.09,-1.36,-1.37,-1.38
154,0.05,1.44,0.05,1.44,-1.44,-1.09,-1.39,-1.39,-1.39
156,0.05,1.47,0.05,1.46,-1.46,-1.09,-1.41,-1.41,-1.42
157,0.05,1.48,0.05,1.48,-1.48,-1.08,-1.43,-1.43,-1.43
159,0.05,1.51,0.05,1.50,-1.50,-1.08,-1.45,-1.45,-1.45
160,0.05,1.52,0.06,1.52,-1.52,-1.08,-1.47,-1.47,-1.46
162,0.05,1.54,0.06,1.54,-1.54,-1.08,-1.49,-1.49,-1.49
164,0.05,1.56,0.06,1.57,-1.57,-1.08,-1.51,-1.50,-1.51
165,0.05,1.57,0.07,1.59,-1.59,-1.08,-1.54,-1.52,-1.52
167,0.07,1.61,0.08,1.61,-1.61,-1.08,-1.54,-1.54,-1.54
169,0.10,1.66,0.09,1.64,-1.64,-1.08,-1.53,-1.55,-1.55
170,0.10,1.67,0.09,1.66,-1.66,-1.09,-1.55,-1.57,-1.56
172,0.10,1.68,0.10,1.68,-1.68,-1.09,-1.57,-1.58,-1.58
174,0.10,1.70,0.10,1.70,-1.70,-1.10,-1.59,-1.60,-1.60
175,0.10,1.71,0.10,1.71,-1.71,-1.10,-1.61,-1.61,-1.61
177,0.10,1.73,0.11,1.73,-1.73,-1.11,-1.62,-1.62,-1.62
179,0.10,1.74,0.11,1.74,-1.74,-1.11,-1.64,-1.64,-1.64
181,0.10,1.75,0.11,1.76,-1.76,-1.12,-1.66,-1.65,-1.65
183,0.10,1.77,0.12,1.78,-1.78,-1.13,-1.67,-1.66,-1.66
184,0.12,1.80,0.12,1.79,-1.79,-1.14,-1.67,-1.67,-1.67
186,0.12,1.81,0.13,1.81,-1.81,-1.15,-1.69,-1.69,-1.68
188,0.14,1.84,0.13,1.83,-1.83,-1.16,-1.69,-1.70,-1.70
190,0.14,1.85,0.14,1.85,-1.85,-1.18,-1.70,-1.71,-1.71
192,0.14,1.86,0.14,1.86,-1.86,-1.19,-1.72,-1.72,-1.72
194,0.14,1.88,0.14,1.88,-1.88,-1.21,-1.73,-1.73,-1.73
196,0.14,1.89,0.15,1.89,-1.89,-1.22,-1.75,-1.74,-1.74
198,0.14,1.90,0.15,1.90,-1.90,-1.24,-1.76,-1.75,-1.75
200,0.14,1.91,0.15,1.91,-1.91,-1.25,-1.77,-1.76,-1.76
202,0.14,1.92,0.15,1.92,-1.92,-1.27,-1.77,-1.77,-1.77
204,0.14,1.92,0.14,1.92,-1.92,-1.28,-1.78,-1.78,-1.78
206,0.14,1.93,0.14,1.93,-1.93,-1.30,-1.78,-1.79,-1.79
208,0.14,1.94,0.13,1.93,-1.93,-1.32,-1.79,-1.80,-1.80
210,0.13,1.94,0.13,1.93,-1.93,-1.33,-1.80,-1.80,-1.80
212,0.10,1.91,0.12,1.93,-1.93,-1.35,-1.83,-1.81,-1.81
214,0.10,1.92,0.11,1.93,-1.93,-1.37,-1.83,-1.82,-1.82
216,0.10,1.92,0.11,1.93,-1.93,-1.38,-1.82,-1.82,-1.82
218,0.10,1.93,0.10,1.92,-1.92,-1.40,-1.82,-1.83,-1.82
221,0.10,1.93,0.09,1.92,-1.92,-1.42,-1.81,-1.83,-1.83
223,0.06,1.90,0.08,1.91,-1.91,-1.43,-1.84,-1.83,-1.83
225,0.05,1.89,0.06,1.90,-1.90,-1.44,-1.84,-1.83,-1.83
227,0.05,1.89,0.05,1.89,-1.89,-1.45,-1.83,-1.83,-1.83
229,0.05,1.89,0.04,1.87,-1.87,-1.46,-1.82,-1.83,-1.83
232,0.00,1.84,0.02,1.86,-1.86,-1.48,-1.85,-1.83,-1.83
234,0.00,1.84,0.01,1.84,-1.84,-1.48,-1.83,-1.83,-1.83
236,0.00,1.83,-0.01,1.82,-1.82,-1.49,-1.81,-1.83,-1.83
239,-0.04,1.79,-0.03,1.80,-1.80,-1.49,-1.83,-1.82,-1.82
241,-0.04,1.78,-0.04,1.77,-1.77,-1.50,-1.81,-1.82,-1.82
244,-0.08,1.74,-0.06,1.75,-1.75,-1.50,-1.83,-1.81,-1.81
246,-0.09,1.72,-0.08,1.72,-1.72,-1.50,-1.81,-1.81,-1.81
248,-0.09,1.71,-0.10,1.70,-1.70,-1.49,-1.78,-1.80,-1.80
251,-0.14,1.65,-0.13,1.66,-1.66,-1.49,-1.80,-1.79,-1.79
253,-0.14,1.64,-0.15,1.63,-1.63,-1.48,-1.77,-1.78,-1.78
256,-0.18,1.59,-0.18,1.59,-1.59,-1.47,-1.77,-1.77,-1.77
259,-0.22,1.54,-0.20,1.55,-1.55,-1.46,-1.77,-1.76,-1.76
261,-0.23,1.52,-0.23,1.51,-1.51,-1.45,-1.74,-1.75,-1.74
264,-0.28,1.46,-0.27,1.47,-1.47,-1.43,-1.74,-1.73,-1.73
266,-0.30,1.42,-0.30,1.42,-1.42,-1.42,-1.71,-1.72,-1.72
269,-0.34,1.37,-0.34,1.36,-1.36,-1.40,-1.70,-1.70,-1.70
272,-0.38,1.31,-0.38,1.31,-1.31,-1.37,-1.68,-1.69,-1.69
274,-0.42,1.26,-0.42,1.25,-1.25,-1.36,-1.67,-1.67,-1.67
277,-0.48,1.18,-0.47,1.19,-1.19,-1.33,-1.66,-1.66,-1.66
280,-0.53,1.12,-0.52,1.12,-1.12,-1.30,-1.65,-1.64,-1.64
283,-0.58,1.05,-0.57,1.05,-1.05,-1.27,-1.63,-1.62,-1.62
286,-0.63,0.98,-0.62,0.98,-0.98,-1.24,-1.61,-1.61,-1.61
288,-0.67,0.92,-0.68,0.91,-0.91,-1.23,-1.58,-1.59,-1.59
291,-0.73,0.84,-0.74,0.84,-0.84,-1.20,-1.56,-1.57,-1.57
294,-0.79,0.77,-0.79,0.76,-0.76,-1.16,-1.54,-1.55,-1.55
297,-0.86,0.68,-0.85,0.68,-0.68,-1.13,-1.53,-1.53,-1.53
300,-0.92,0.60,-0.91,0.60,-0.60,-1.10,-1.52,-1.51,-1.51
303,-0.98,0.52,-0.97,0.52,-0.52,-1.07,-1.50,-1.49,-1.49
306,-1.04,0.44,-1.03,0.44,-0.44,-1.04,-1.48,-1.47,-1.47
309,-1.09,0.37,-1.09,0.37,-0.37,-1.01,-1.45,-1.45,-1.45
312,-1.14,0.30,-1.14,0.29,-0.29,-0.98,-1.43,-1.43,-1.43
316,-1.20,0.21,-1.19,0.22,-0.22,-0.94,-1.42,-1.41,-1.41
319,-1.23,0.16,-1.23,0.16,-0.16,-0.91,-1.38,-1.39,-1.39
322,-1.28,0.09,-1.27,0.10,-0.10,-0.88,-1.37,-1.37,-1.37
325,-1.31,0.04,-1.31,0.04,-0.04,-0.86,-1.34,-1.35,-1.35
328,-1.35,-0.02,-1.35,-0.02,0.02,-0.83,-1.33,-1.33,-1.33
332,-1.40,-0.09,-1.38,-0.07,0.07,-0.79,-1.33,-1.31,-1.31
335,-1.40,-0.11,-1.41,-0.12,0.12,-0.77,-1.28,-1.29,-1.29
338,-1.44,-0.17,-1.43,-0.16,0.16,-0.74,-1.27,-1.27,-1.27
342,-1.44,-0.19,-1.45,-0.21,0.21,-0.71,-1.23,-1.25,-1.25
345,-1.49,-0.26,-1.47,-0.24,0.24,-0.68,-1.24,-1.23,-1.23
349,-1.49,-0.28,-1.49,-0.28,0.28,-0.65,-1.21,-1.21,-1.21
352,-1.49,-0.30,-1.50,-0.31,0.31,-0.63,-1.17,-1.19,-1.19
356,-1.54,-0.36,-1.52,-0.35,0.35,-0.60,-1.19,-1.17,-1.17
359,-1.54,-0.38,-1.53,-0.38,0.38,-0.57,-1.16,-1.16,-1.16
363,-1.54,-0.40,-1.55,-0.41,0.41,-0.55,-1.13,-1.14,-1.14
366,-1.56,-0.43,-1.56,-0.43,0.43,-0.53,-1.12,-1.12,-1.12
370,-1.58,-0.47,-1.57,-0.46,0.46,-0.50,-1.11,-1.11,-1.11
374,-1.58,-0.48,-1.58,-0.49,0.49,-0.47,-1.09,-1.10,-1.10
377,-1.58,-0.49,-1.59,-0.51,0.51,-0.45,-1.06,-1.08,-1.08
381,-1.62,-0.55,-1.61,-0.53,0.53,-0.43,-1.08,-1.07,-1.07
385,-1.63,-0.57,-1.61,-0.56,0.56,-0.40,-1.07,-1.06,-1.06
389,-1.63,-0.58,-1.62,-0.57,0.57,-0.38,-1.05,-1.05,-1.05
393,-1.63,-0.59,-1.63,-0.59,0.59,-0.36,-1.04,-1.04,-1.04
397,-1.63,-0.60,-1.63,-0.60,0.60,-0.34,-1.02,-1.03,-1.03
401,-1.63,-0.60,-1.63,-0.61,0.61,-0.32,-1.02,-1.02,-1.02
405,-1.63,-0.61,-1.63,-0.62,0.62,-0.30,-1.01,-1.01,-1.01
409,-1.63,-0.62,-1.62,-0.62,0.62,-0.28,-1.01,-1.01,-1.01
413,-1.63,-0.63,-1.61,-0.62,0.62,-0.26,-1.01,-1.00,-1.00
417,-1.60,-0.61,-1.60,-0.61,0.61,-0.24,-0.99,-0.99,-0.99
421,-1.58,-0.59,-1.58,-0.60,0.60,-0.22,-0.98,-0.98,-0.98
425,-1.56,-0.58,-1.56,-0.58,0.58,-0.20,-0.98,-0.98,-0.98
430,-1.54,-0.57,-1.53,-0.56,0.56,-0.18,-0.98,-0.97,-0.97
434,-1.49,-0.53,-1.49,-0.53,0.53,-0.17,-0.95,-0.96,-0.96
438,-1.46,-0.50,-1.46,-0.50,0.50,-0.16,-0.95,-0.95,-0.95
443,-1.42,-0.47,-1.41,-0.47,0.47,-0.14,-0.95,-0.94,-0.94
447,-1.37,-0.43,-1.36,-0.43,0.43,-0.13,-0.94,-0.94,-0.94
451,-1.33,-0.40,-1.31,-0.39,0.39,-0.11,-0.94,-0.93,-0.93
456,-1.25,-0.33,-1.26,-0.34,0.34,-0.10,-0.91,-0.92,-0.92
460,-1.20,-0.29,-1.20,-0.29,0.29,-0.09,-0.90,-0.91,-0.91
465,-1.14,-0.24,-1.14,-0.24,0.24,-0.08,-0.89,-0.89,-0.89
470,-1.06,-0.17,-1.07,-0.19,0.19,-0.06,-0.87,-0.88,-0.88
474,-1.02,-0.15,-1.01,-0.14,0.14,-0.06,-0.88,-0.87,-0.87
479,-0.95,-0.09,-0.94,-0.08,0.08,-0.05,-0.86,-0.86,-0.86
484,-0.88,-0.03,-0.87,-0.03,0.03,-0.04,-0.85,-0.84,-0.84
489,-0.81,0.02,-0.80,0.02,-0.02,-0.03,-0.83,-0.83,-0.83
494,-0.74,0.08,-0.74,0.07,-0.07,-0.03,-0.81,-0.81,-0.81
499,-0.67,0.13,-0.67,0.12,-0.12,-0.02,-0.79,-0.79,-0.79
504,-0.60,0.18,-0.61,0.17,-0.17,-0.02,-0.77,-0.78,-0.78
509,-0.53,0.23,-0.54,0.22,-0.22,-0.02,-0.74,-0.76,-0.76
514,-0.49,0.26,-0.49,0.26,-0.26,-0.01,-0.74,-0.74,-0.74
519,-0.44,0.29,-0.43,0.29,-0.29,-0.01,-0.73,-0.72,-0.72
524,-0.39,0.32,-0.37,0.33,-0.33,-0.01,-0.72,-0.70,-0.70
529,-0.33,0.36,-0.32,0.37,-0.37,-0.01,-0.69,-0.68,-0.68
535,-0.25,0.42,-0.26,0.40,-0.40,-0.01,-0.65,-0.66,-0.66
540,-0.21,0.44,-0.21,0.43,-0.43,-0.02,-0.64,-0.64,-0.64
545,-0.16,0.47,-0.15,0.47,-0.47,-0.02,-0.63,-0.62,-0.62
551,-0.11,0.50,-0.10,0.50,-0.50,-0.02,-0.61,-0.60,-0.60
556,-0.06,0.53,-0.04,0.54,-0.54,-0.03,-0.60,-0.58,-0.58
562,0.01,0.58,0.02,0.58,-0.58,-0.03,-0.56,-0.56,-0.56
568,0.08,0.63,0.07,0.62,-0.62,-0.04,-0.53,-0.54,-0.54
573,0.12,0.65,0.13,0.66,-0.66,-0.04,-0.53,-0.52,-0.52
579,0.19,0.70,0.19,0.69,-0.69,-0.05,-0.50,-0.50,-0.50
585,0.26,0.75,0.25,0.73,-0.73,-0.06,-0.47,-0.48,-0.48
591,0.31,0.78,0.30,0.77,-0.77,-0.07,-0.46,-0.47,-0.47
596,0.35,0.80,0.36,0.81,-0.81,-0.07,-0.45,-0.45,-0.45
602,0.40,0.83,0.42,0.85,-0.85,-0.08,-0.44,-0.43,-0.43
608,0.45,0.87,0.47,0.88,-0.88,-0.09,-0.43,-0.41,-0.41
615,0.53,0.93,0.53,0.92,-0.92,-0.10,-0.39,-0.40,-0.40
621,0.59,0.97,0.58,0.96,-0.96,-0.11,-0.37,-0.38,-0.38
627,0.63,1.00,0.63,1.00,-1.00,-0.12,-0.37,-0.36,-0.36
633,0.68,1.03,0.69,1.04,-1.04,-0.13,-0.35,-0.35,-0.35
639,0.73,1.07,0.74,1.07,-1.07,-0.14,-0.34,-0.34,-0.34
646,0.78,1.11,0.79,1.11,-1.11,-0.15,-0.32,-0.32,-0.32
652,0.83,1.14,0.83,1.14,-1.14,-0.16,-0.31,-0.31,-0.31
659,0.87,1.17,0.87,1.17,-1.17,-0.17,-0.30,-0.30,-0.30
665,0.91,1.20,0.91,1.20,-1.20,-0.18,-0.29,-0.29,-0.29
672,0.95,1.23,0.95,1.23,-1.23,-0.19,-0.27,-0.27,-0.27
679,0.98,1.25,0.98,1.25,-1.25,-0.21,-0.26,-0.26,-0.26
686,1.01,1.27,1.01,1.27,-1.27,-0.22,-0.25,-0.25,-0.25
692,1.03,1.28,1.04,1.28,-1.28,-0.23,-0.25,-0.24,-0.24
699,1.07,1.31,1.06,1.30,-1.30,-0.24,-0.22,-0.23,-0.23
706,1.08,1.31,1.08,1.31,-1.31,-0.25,-0.22,-0.22,-0.22
713,1.08,1.30,1.10,1.31,-1.31,-0.26,-0.23,-0.22,-0.22
721,1.10,1.31,1.11,1.32,-1.32,-0.28,-0.21,-0.21,-0.21
728,1.12,1.32,1.12,1.32,-1.32,-0.29,-0.19,-0.20,-0.20
735,1.12,1.32,1.12,1.31,-1.31,-0.30,-0.19,-0.19,-0.19
742,1.12,1.31,1.11,1.30,-1.30,-0.31,-0.18,-0.19,-0.19
750,1.09,1.27,1.11,1.29,-1.29,-0.33,-0.19,-0.18,-0.18
757,1.08,1.26,1.09,1.27,-1.27,-0.34,-0.18,-0.17,-0.17
765,1.08,1.25,1.08,1.24,-1.24,-0.35,-0.16,-0.17,-0.17
773,1.04,1.20,1.05,1.21,-1.21,-0.37,-0.17,-0.16,-0.16
780,1.03,1.19,1.02,1.18,-1.18,-0.38,-0.14,-0.15,-0.15
788,0.98,1.13,0.99,1.14,-1.14,-0.39,-0.15,-0.15,-0.15
796,0.95,1.10,0.94,1.09,-1.09,-0.41,-0.13,-0.15,-0.15
804,0.88,1.03,0.89,1.03,-1.03,-0.42,-0.14,-0.14,-0.14
812,0.82,0.96,0.83,0.96,-0.96,-0.43,-0.14,-0.14,-0.14
820,0.77,0.91,0.76,0.89,-0.89,-0.45,-0.12,-0.13,-0.13
828,0.69,0.82,0.68,0.82,-0.82,-0.46,-0.12,-0.13,-0.13
837,0.60,0.73,0.61,0.73,-0.73,-0.48,-0.13,-0.13,-0.13
845,0.52,0.65,0.52,0.65,-0.65,-0.49,-0.12,-0.13,-0.12
853,0.44,0.57,0.44,0.56,-0.56,-0.50,-0.12,-0.12,-0.12
862,0.35,0.47,0.36,0.48,-0.48,-0.52,-0.12,-0.12,-0.12
871,0.27,0.39,0.28,0.40,-0.40,-0.53,-0.12,-0.12,-0.12
879,0.20,0.32,0.21,0.32,-0.32,-0.55,-0.11,-0.11,-0.11
888,0.12,0.23,0.14,0.25,-0.25,-0.56,-0.12,-0.11,-0.11
897,0.07,0.18,0.08,0.18,-0.18,-0.57,-0.11,-0.10,-0.10
906,0.03,0.13,0.03,0.13,-0.13,-0.59,-0.09,-0.10,-0.10
915,-0.02,0.08,-0.02,0.08,-0.08,-0.60,-0.09,-0.09,-0.09
924,-0.05,0.04,-0.05,0.03,-0.03,-0.61,-0.08,-0.08,-0.08
933,-0.09,-0.01,-0.08,-0.00,0.00,-0.63,-0.08,-0.08,-0.08
943,-0.09,-0.02,-0.10,-0.03,0.03,-0.64,-0.06,-0.07,-0.07
952,-0.11,-0.05,-0.10,-0.05,0.05,-0.65,-0.06,-0.06,-0.06
962,-0.11,-0.06,-0.10,-0.06,0.06,-0.67,-0.05,-0.04,-0.04
971,-0.09,-0.06,-0.09,-0.06,0.06,-0.68,-0.03,-0.03,-0.03
981,-0.08,-0.06,-0.07,-0.05,0.05,-0.69,-0.03,-0.02,-0.02
991,-0.04,-0.04,-0.03,-0.03,0.03,-0.70,-0.00,0.00,0.00
1001,0.00,-0.01,0.01,-0.01,0.01,-0.72,0.01,0.02,0.02
1011,0.06,0.03,0.06,0.03,-0.03,-0.73,0.04,0.04,0.04
1021,0.11,0.06,0.13,0.07,-0.07,-0.74,0.05,0.06,0.06
1031,0.19,0.11,0.19,0.11,-0.11,-0.75,0.08,0.08,0.08
1041,0.27,0.17,0.26,0.16,-0.16,-0.76,0.11,0.10,0.10
1052,0.34,0.22,0.34,0.21,-0.21,-0.77,0.14,0.13,0.13
1062,0.42,0.27,0.41,0.26,-0.26,-0.78,0.17,0.16,0.16
1073,0.49,0.31,0.49,0.30,-0.30,-0.79,0.19,0.18,0.18
1084,0.56,0.35,0.56,0.35,-0.35,-0.80,0.21,0.21,0.21
1094,0.63,0.39,0.64,0.39,-0.39,-0.81,0.24,0.24,0.24
1105,0.71,0.44,0.71,0.44,-0.44,-0.82,0.28,0.28,0.28
1116,0.78,0.48,0.79,0.48,-0.48,-0.83,0.30,0.31,0.31
1128,0.87,0.53,0.87,0.53,-0.53,-0.85,0.35,0.34,0.34
1139,0.95,0.57,0.95,0.57,-0.57,-0.86,0.38,0.38,0.38
1150,1.01,0.60,1.03,0.62,-0.62,-0.87,0.40,0.42,0.42
1162,1.13,0.68,1.12,0.66,-0.66,-0.88,0.47,0.46,0.46
1173,1.20,0.70,1.21,0.71,-0.71,-0.89,0.49,0.50,0.50
1185,1.30,0.76,1.30,0.76,-0.76,-0.91,0.54,0.54,0.54
1197,1.40,0.82,1.40,0.81,-0.81,-0.92,0.59,0.59,0.59
1209,1.49,0.86,1.50,0.86,-0.86,-0.93,0.63,0.63,0.63
1221,1.60,0.92,1.60,0.92,-0.92,-0.95,0.69,0.68,0.68
1233,1.68,0.95,1.70,0.97,-0.97,-0.96,0.72,0.73,0.73
1246,1.80,1.02,1.81,1.02,-1.02,-0.98,0.78,0.79,0.78
1258,1.90,1.07,1.91,1.07,-1.07,-1.00,0.83,0.84,0.84
1271,2.02,1.13,2.01,1.12,-1.12,-1.01,0.91,0.89,0.89
1283,2.09,1.14,2.11,1.16,-1.16,-1.03,0.94,0.95,0.95
1296,2.21,1.20,2.20,1.19,-1.19,-1.05,1.02,1.01,1.01
1309,2.29,1.22,2.29,1.22,-1.22,-1.07,1.07,1.07,1.07
1322,2.39,1.26,2.37,1.24,-1.24,-1.09,1.15,1.13,1.13
1335,2.46,1.27,2.45,1.25,-1.25,-1.11,1.21,1.19,1.19
1349,2.52,1.26,2.51,1.26,-1.26,-1.14,1.27,1.26,1.26
1362,2.58,1.26,2.58,1.25,-1.25,-1.16,1.33,1.32,1.33
1376,2.63,1.24,2.63,1.24,-1.24,-1.18,1.39,1.39,1.39
1390,2.68,1.22,2.69,1.23,-1.23,-1.21,1.45,1.46,1.46
1404,2.73,1.20,2.75,1.22,-1.22,-1.24,1.51,1.53,1.53
1418,2.80,1.20,2.81,1.21,-1.21,-1.27,1.59,1.60,1.60
1432,2.87,1.20,2.88,1.21,-1.21,-1.29,1.66,1.67,1.67
1446,2.95,1.21,2.96,1.21,-1.21,-1.32,1.74,1.74,1.75
1461,3.03,1.21,3.04,1.22,-1.22,-1.35,1.81,1.82,1.82
1475,3.13,1.24,3.13,1.23,-1.23,-1.38,1.90,1.89,1.89
1490,3.22,1.25,3.22,1.25,-1.25,-1.42,1.97,1.97,1.97
1505,3.33,1.28,3.33,1.28,-1.28,-1.45,2.06,2.05,2.05
1520,3.44,1.31,3.44,1.31,-1.31,-1.49,2.14,2.13,2.13
1535,3.55,1.34,3.55,1.34,-1.34,-1.52,2.21,2.21,2.21
1550,3.67,1.38,3.68,1.38,-1.38,-1.56,2.29,2.30,2.30
1566,3.81,1.43,3.81,1.43,-1.43,-1.59,2.39,2.38,2.38
1582,3.95,1.48,3.95,1.48,-1.48,-1.63,2.47,2.47,2.47
1597,4.09,1.53,4.10,1.54,-1.54,-1.67,2.55,2.56,2.56
1613,4.25,1.60,4.27,1.61,-1.61,-1.71,2.64,2.65,2.65
1629,4.42,1.67,4.44,1.69,-1.69,-1.74,2.73,2.75,2.75
1646,4.61,1.77,4.62,1.77,-1.77,-1.78,2.84,2.85,2.85
1662,4.79,1.85,4.81,1.86,-1.86,-1.82,2.93,2.95,2.95
1679,5.00,1.95,5.00,1.95,-1.95,-1.86,3.06,3.05,3.05
1696,5.19,2.04,5.19,2.03,-2.03,-1.90,3.16,3.16,3.16
1713,5.39,2.13,5.38,2.11,-2.11,-1.94,3.28,3.27,3.27
1730,5.57,2.20,5.57,2.19,-2.19,-1.98,3.39,3.38,3.38
