frequency,raw
20.00,-0.47
20.20,-0.43
20.40,-0.39
20.61,-0.35
20.81,-0.31
21.02,-0.27
21.23,-0.23
21.44,-0.18
21.66,-0.14
21.87,-0.10
22.09,-0.06
22.31,-0.02
22.54,0.02
22.76,0.06
22.99,0.10
23.22,0.14
23.45,0.18
23.69,0.22
23.92,0.27
24.16,0.31
24.40,0.35
24.65,0.39
24.89,0.43
25.14,0.47
25.39,0.52
25.65,0.56
25.91,0.60
26.16,0.65
26.43,0.69
26.69,0.73
26.96,0.77
27.23,0.81
27.50,0.86
27.77,0.90
28.05,0.94
28.33,0.98
28.62,1.02
28.90,1.07
29.19,1.11
29.48,1.15
29.78,1.19
30.08,1.23
30.38,1.28
30.68,1.32
30.99,1.37
31.30,1.41
31.61,1.44
31.93,1.48
32.24,1.52
32.57,1.56
32.89,1.61
33.22,1.64
33.55,1.68
33.89,1.71
34.23,1.75
34.57,1.79
34.92,1.83
35.27,1.87
35.62,1.90
35.97,1.94
36.33,1.97
36.70,2.00
37.06,2.03
37.43,2.06
37.81,2.09
38.19,2.13
38.57,2.16
38.95,2.20
39.34,2.23
39.74,2.26
40.14,2.29
40.54,2.32
40.94,2.35
41.35,2.37
41.76,2.40
42.18,2.43
42.60,2.47
43.03,2.50
43.46,2.54
43.90,2.57
44.33,2.60
44.78,2.63
45.23,2.67
45.68,2.70
46.13,2.74
46.60,2.77
47.06,2.79
47.53,2.83
48.01,2.86
48.49,2.89
48.97,2.93
49.46,2.97
49.96,3.01
50.46,3.04
50.96,3.08
51.47,3.10
51.99,3.13
52.51,3.17
53.03,3.20
53.56,3.23
54.10,3.26
54.64,3.29
55.18,3.32
55.74,3.34
56.29,3.36
56.86,3.38
57.42,3.41
58.00,3.44
58.58,3.46
59.16,3.49
59.76,3.51
60.35,3.53
60.96,3.55
61.57,3.58
62.18,3.61
62.80,3.64
63.43,3.67
64.07,3.70
64.71,3.74
65.35,3.78
66.01,3.81
66.67,3.84
67.33,3.88
68.01,3.91
68.69,3.95
69.37,3.99
70.07,4.02
70.77,4.06
71.48,4.08
72.19,4.11
72.91,4.13
73.64,4.14
74.38,4.16
75.12,4.17
75.87,4.19
76.63,4.20
77.40,4.20
78.17,4.21
78.95,4.21
79.74,4.20
80.54,4.19
81.35,4.18
82.16,4.18
82.98,4.18
83.81,4.18
84.65,4.18
85.50,4.18
86.35,4.18
87.22,4.18
88.09,4.18
88.97,4.18
89.86,4.18
90.76,4.18
91.66,4.18
92.58,4.18
93.51,4.18
94.44,4.18
95.39,4.18
96.34,4.18
97.30,4.18
98.28,4.18
99.26,4.18
100.25,4.18
101.25,4.18
102.27,4.18
103.29,4.18
104.32,4.18
105.37,4.18
106.42,4.18
107.48,4.18
108.56,4.18
109.64,4.18
110.74,4.18
111.85,4.18
112.97,4.18
114.10,4.18
115.24,4.18
116.39,4.18
117.55,4.18
118.73,4.18
119.92,4.18
121.12,4.18
122.33,4.18
123.55,4.18
124.79,4.18
126.03,4.19
127.29,4.19
128.57,4.20
129.85,4.20
131.15,4.20
132.46,4.19
133.79,4.17
135.12,4.15
136.48,4.13
137.84,4.09
139.22,4.07
140.61,4.03
142.02,3.99
143.44,3.96
144.87,3.92
146.32,3.90
147.78,3.87
149.26,3.86
150.75,3.84
152.26,3.84
153.78,3.84
155.32,3.85
156.88,3.85
158.44,3.86
160.03,3.86
161.63,3.86
163.24,3.86
164.88,3.87
166.53,3.88
168.19,3.88
169.87,3.87
171.57,3.86
173.29,3.85
175.02,3.82
176.77,3.79
178.54,3.77
180.32,3.74
182.13,3.71
183.95,3.66
185.79,3.63
187.65,3.61
189.52,3.58
191.42,3.55
193.33,3.53
195.27,3.52
197.22,3.51
199.19,3.52
201.18,3.52
203.19,3.53
205.23,3.53
207.28,3.53
209.35,3.53
211.44,3.53
213.56,3.53
215.69,3.53
217.85,3.53
220.03,3.53
222.23,3.53
224.45,3.53
226.70,3.53
228.96,3.53
231.25,3.53
233.57,3.53
235.90,3.53
238.26,3.53
240.64,3.53
243.05,3.53
245.48,3.53
247.93,3.53
250.41,3.53
252.92,3.53
255.45,3.53
258.00,3.53
260.58,3.53
263.19,3.53
265.82,3.53
268.48,3.53
271.16,3.53
273.87,3.53
276.61,3.53
279.38,3.53
282.17,3.53
284.99,3.53
287.84,3.53
290.72,3.53
293.63,3.53
296.57,3.53
299.53,3.53
302.53,3.53
305.55,3.53
308.61,3.53
311.69,3.53
314.81,3.53
317.96,3.53
321.14,3.53
324.35,3.53
327.59,3.53
330.87,3.53
334.18,3.53
337.52,3.53
340.90,3.53
344.30,3.53
347.75,3.53
351.23,3.53
354.74,3.53
358.28,3.53
361.87,3.53
365.49,3.53
369.14,3.53
372.83,3.53
376.56,3.53
380.33,3.53
384.13,3.54
387.97,3.55
391.85,3.56
395.77,3.55
399.73,3.54
403.72,3.53
407.76,3.51
411.84,3.49
415.96,3.47
420.12,3.44
424.32,3.41
428.56,3.37
432.85,3.32
437.18,3.26
441.55,3.21
445.96,3.17
450.42,3.13
454.93,3.08
459.48,3.03
464.07,2.98
468.71,2.94
473.40,2.89
478.13,2.84
482.91,2.79
487.74,2.74
492.62,2.69
497.55,2.66
502.52,2.64
507.55,2.61
512.62,2.59
517.75,2.56
522.93,2.55
528.16,2.54
533.44,2.54
538.77,2.54
544.16,2.55
549.60,2.57
555.10,2.58
560.65,2.58
566.25,2.58
571.92,2.57
577.64,2.56
583.41,2.54
589.25,2.52
595.14,2.49
601.09,2.47
607.10,2.44
613.17,2.40
619.30,2.35
625.50,2.30
631.75,2.26
638.07,2.21
644.45,2.15
650.89,2.10
657.40,2.04
663.98,1.98
670.62,1.94
677.32,1.90
684.10,1.85
690.94,1.79
697.85,1.74
704.83,1.68
711.87,1.62
718.99,1.58
726.18,1.54
733.44,1.50
740.78,1.46
748.19,1.42
755.67,1.38
763.23,1.34
770.86,1.29
778.57,1.24
786.35,1.20
794.22,1.16
802.16,1.12
810.18,1.09
818.28,1.05
826.46,1.02
834.73,0.98
843.08,0.93
851.51,0.89
860.02,0.84
868.62,0.79
877.31,0.73
886.08,0.70
894.94,0.66
903.89,0.60
912.93,0.54
922.06,0.48
931.28,0.41
940.59,0.36
950.00,0.31
959.50,0.25
969.09,0.19
978.78,0.13
988.57,0.07
998.46,0.01
1008.44,-0.05
1018.53,-0.12
1028.71,-0.19
1039.00,-0.25
1049.39,-0.31
1059.88,-0.38
1070.48,-0.44
1081.19,-0.49
1092.00,-0.55
1102.92,-0.62
1113.95,-0.69
1125.09,-0.74
1136.34,-0.79
1147.70,-0.86
1159.18,-0.93
1170.77,-1.01
1182.48,-1.08
1194.30,-1.15
1206.25,-1.22
1218.31,-1.30
1230.49,-1.38
1242.80,-1.46
1255.22,-1.53
1267.78,-1.60
1280.45,-1.68
1293.26,-1.77
1306.19,-1.86
1319.25,-1.94
1332.45,-2.02
1345.77,-2.11
1359.23,-2.20
1372.82,-2.28
1386.55,-2.37
1400.41,-2.47
1414.42,-2.57
1428.56,-2.66
1442.85,-2.74
1457.28,-2.83
1471.85,-2.92
1486.57,-2.99
1501.43,-3.06
1516.45,-3.15
1531.61,-3.23
1546.93,-3.31
1562.40,-3.39
1578.02,-3.48
1593.80,-3.56
1609.74,-3.63
1625.84,-3.71
1642.10,-3.81
1658.52,-3.89
1675.10,-3.97
1691.85,-4.07
1708.77,-4.16
1725.86,-4.26
1743.12,-4.35
1760.55,-4.44
1778.15,-4.54
1795.94,-4.62
1813.90,-4.69
1832.03,-4.75
1850.36,-4.81
1868.86,-4.84
1887.55,-4.85
1906.42,-4.84
1925.49,-4.81
1944.74,-4.76
1964.19,-4.71
1983.83,-4.65
2003.67,-4.57
2023.71,-4.46
2043.94,-4.33
2064.38,-4.21
2085.03,-4.08
2105.88,-3.94
2126.94,-3.79
2148.20,-3.63
2169.69,-3.49
2191.38,-3.33
2213.30,-3.17
2235.43,-3.02
2257.78,-2.87
2280.36,-2.70
2303.17,-2.54
2326.20,-2.37
2349.46,-2.19
2372.95,-2.02
2396.68,-1.85
2420.65,-1.67
2444.86,-1.46
2469.31,-1.25
2494.00,-1.02
2518.94,-0.78
2544.13,-0.53
2569.57,-0.26
2595.27,0.01
2621.22,0.28
2647.43,0.55
2673.90,0.80
2700.64,1.05
2727.65,1.29
2754.93,1.54
2782.48,1.77
2810.30,1.97
2838.40,2.17
2866.79,2.36
2895.46,2.53
2924.41,2.69
2953.65,2.86
2983.19,3.01
3013.02,3.17
3043.15,3.31
3073.58,3.46
3104.32,3.60
3135.36,3.73
3166.72,3.85
3198.38,3.97
3230.37,4.08
3262.67,4.19
3295.30,4.29
3328.25,4.39
3361.53,4.47
3395.15,4.54
3429.10,4.61
3463.39,4.66
3498.03,4.71
3533.01,4.75
3568.34,4.78
3604.02,4.81
3640.06,4.84
3676.46,4.84
3713.22,4.85
3750.36,4.85
3787.86,4.84
3825.74,4.82
3864.00,4.81
3902.64,4.81
3941.66,4.83
3981.08,4.85
4020.89,4.87
4061.10,4.89
4101.71,4.92
4142.73,4.95
4184.15,4.97
4226.00,5.01
4268.26,5.05
4310.94,5.10
4354.05,5.14
4397.59,5.19
4441.56,5.24
4485.98,5.29
4530.84,5.34
4576.15,5.37
4621.91,5.40
4668.13,5.41
4714.81,5.43
4761.96,5.45
4809.58,5.44
4857.67,5.42
4906.25,5.39
4955.31,5.34
5004.87,5.27
5054.91,5.19
5105.46,5.12
5156.52,5.05
5208.08,4.99
5260.16,4.95
5312.77,4.92
5365.89,4.90
5419.55,4.91
5473.75,4.93
5528.49,4.99
5583.77,5.05
5639.61,5.15
5696.00,5.26
5752.96,5.41
5810.49,5.58
5868.60,5.75
5927.28,5.95
5986.56,6.16
6046.42,6.37
6106.89,6.59
6167.96,6.81
6229.64,7.03
6291.93,7.26
6354.85,7.48
6418.40,7.68
6482.58,7.87
6547.41,8.03
6612.88,8.14
6679.01,8.22
6745.80,8.27
6813.26,8.28
6881.39,8.24
6950.21,8.16
7019.71,8.05
7089.91,7.90
7160.81,7.73
7232.41,7.52
7304.74,7.27
7377.79,6.98
7451.56,6.66
7526.08,6.33
7601.34,5.96
7677.35,5.56
7754.13,5.10
7831.67,4.60
7909.98,4.06
7989.08,3.48
8068.98,2.85
8149.67,2.21
8231.16,1.56
8313.47,0.91
8396.61,0.28
8480.57,-0.32
8565.38,-0.88
8651.03,-1.38
8737.54,-1.85
8824.92,-2.25
8913.17,-2.60
9002.30,-2.86
9092.32,-3.05
9183.25,-3.18
9275.08,-3.26
9367.83,-3.30
9461.51,-3.28
9556.12,-3.21
9651.68,-3.10
9748.20,-2.94
9845.68,-2.73
9944.14,-2.47
10043.58,-2.18
10144.02,-1.85
10245.46,-1.52
10347.91,-1.18
10451.39,-0.84
10555.91,-0.52
10661.46,-0.22
10768.08,0.07
10875.76,0.33
10984.52,0.58
11094.36,0.83
11205.31,1.04
11317.36,1.23
11430.53,1.43
11544.84,1.62
11660.29,1.81
11776.89,1.99
11894.66,2.16
12013.60,2.32
12133.74,2.46
12255.08,2.58
12377.63,2.70
12501.41,2.76
12626.42,2.78
12752.68,2.77
12880.21,2.74
13009.01,2.68
13139.10,2.59
13270.49,2.50
13403.20,2.40
13537.23,2.29
13672.60,2.16
13809.33,2.03
13947.42,1.89
14086.90,1.76
14227.77,1.62
14370.04,1.47
14513.74,1.30
14658.88,1.11
14805.47,0.91
14953.52,0.69
15103.06,0.45
15254.09,0.20
15406.63,-0.07
15560.70,-0.34
15716.30,-0.61
15873.47,-0.87
16032.20,-1.12
16192.52,-1.37
16354.45,-1.59
16517.99,-1.80
16683.17,-2.01
16850.01,-2.20
17018.51,-2.39
17188.69,-2.57
17360.58,-2.74
17534.18,-2.92
17709.53,-3.11
17886.62,-3.29
18065.49,-3.48
18246.14,-3.65
18428.60,-3.82
18612.89,-3.99
18799.02,-4.16
18987.01,-4.33
19176.88,-4.49
19368.65,-4.65
19562.33,-4.81
19757.96,-4.97
19955.54,-5.13
