frequency,raw,error,smoothed,error_smoothed,equalization,parametric_eq,equalized_raw,equalized_smoothed,target
20,-20.74,-21.26,-20.67,-21.19,6.00,5.16,-14.74,-14.67,0.52
21,-19.89,-20.41,-19.97,-20.50,6.00,5.32,-13.89,-13.97,0.52
22,-19.35,-19.87,-19.30,-19.83,6.00,5.47,-13.35,-13.30,0.52
23,-18.64,-19.16,-18.66,-19.19,6.00,5.60,-12.64,-12.66,0.53
24,-18.00,-18.53,-18.06,-18.58,6.00,5.72,-12.00,-12.06,0.53
25,-17.36,-17.89,-17.48,-18.01,6.00,5.82,-11.36,-11.48,0.53
26,-17.01,-17.54,-16.93,-17.46,6.00,5.92,-11.01,-10.93,0.53
27,-16.47,-17.00,-16.41,-16.95,6.00,6.00,-10.47,-10.41,0.53
28,-15.97,-16.50,-15.92,-16.45,6.00,6.08,-9.97,-9.92,0.53
29,-15.50,-16.03,-15.45,-15.98,6.00,6.15,-9.50,-9.45,0.53
30,-14.83,-15.36,-15.00,-15.54,6.00,6.20,-8.83,-9.00,0.53
31,-14.66,-15.19,-14.58,-15.11,6.00,6.25,-8.66,-8.58,0.53
32,-14.28,-14.81,-14.18,-14.71,6.00,6.30,-8.28,-8.18,0.53
33,-13.67,-14.20,-13.80,-14.33,6.00,6.33,-7.67,-7.80,0.53
34,-13.45,-13.97,-13.44,-13.97,6.00,6.36,-7.45,-7.44,0.53
35,-13.06,-13.58,-13.10,-13.63,6.00,6.39,-7.06,-7.10,0.52
36,-12.77,-13.29,-12.78,-13.30,6.00,6.41,-6.77,-6.78,0.52
37,-12.53,-13.04,-12.48,-12.99,6.00,6.42,-6.53,-6.48,0.51
38,-12.26,-12.77,-12.18,-12.69,6.00,6.43,-6.26,-6.18,0.51
39,-11.85,-12.35,-11.90,-12.40,6.00,6.43,-5.85,-5.90,0.50
40,-11.62,-12.11,-11.61,-12.11,6.00,6.44,-5.62,-5.61,0.49
41,-11.40,-11.88,-11.34,-11.82,6.00,6.43,-5.40,-5.34,0.48
42,-10.99,-11.46,-11.07,-11.54,6.00,6.43,-4.99,-5.07,0.47
43,-10.94,-11.40,-10.81,-11.27,6.00,6.42,-4.94,-4.81,0.46
44,-10.48,-10.93,-10.56,-11.01,6.00,6.40,-4.48,-4.56,0.45
45,-10.25,-10.68,-10.32,-10.75,6.00,6.39,-4.25,-4.32,0.44
46,-10.19,-10.61,-10.09,-10.51,6.00,6.37,-4.19,-4.09,0.42
47,-9.80,-10.20,-9.89,-10.29,6.00,6.35,-3.80,-3.89,0.40
48,-9.75,-10.13,-9.70,-10.08,6.00,6.33,-3.75,-3.70,0.39
49,-9.44,-9.80,-9.52,-9.89,6.00,6.31,-3.44,-3.52,0.37
50,-9.34,-9.68,-9.35,-9.70,6.00,6.28,-3.34,-3.35,0.35
51,-9.11,-9.43,-9.18,-9.51,6.00,6.25,-3.11,-3.18,0.33
52,-9.11,-9.41,-9.01,-9.31,6.00,6.22,-3.11,-3.01,0.30
53,-8.89,-9.17,-8.82,-9.10,6.00,6.19,-2.89,-2.82,0.28
54,-8.66,-8.91,-8.62,-8.88,6.00,6.16,-2.66,-2.62,0.26
55,-8.66,-8.89,-8.42,-8.65,6.00,6.13,-2.66,-2.42,0.23
56,-8.43,-8.63,-8.22,-8.43,6.00,6.09,-2.43,-2.22,0.21
57,-7.98,-8.16,-8.06,-8.24,6.00,6.06,-1.98,-2.06,0.18
58,-7.75,-7.90,-7.96,-8.11,6.00,6.02,-1.75,-1.96,0.15
59,-7.75,-7.87,-7.92,-8.05,6.00,5.98,-1.75,-1.92,0.12
60,-7.75,-7.84,-7.97,-8.07,6.00,5.95,-1.75,-1.97,0.10
61,-7.75,-7.82,-8.09,-8.16,6.00,5.91,-1.75,-2.09,0.07
62,-7.98,-8.02,-8.26,-8.30,6.00,5.87,-1.98,-2.26,0.04
63,-8.52,-8.53,-8.45,-8.46,6.00,5.83,-2.52,-2.45,0.01
64,-8.98,-8.96,-8.62,-8.60,6.00,5.79,-2.98,-2.62,-0.02
65,-9.11,-9.06,-8.73,-8.69,6.00,5.75,-3.11,-2.73,-0.05
66,-9.11,-9.03,-8.76,-8.69,6.00,5.71,-3.11,-2.76,-0.08
67,-8.89,-8.78,-8.70,-8.60,6.00,5.67,-2.89,-2.70,-0.11
68,-8.56,-8.42,-8.56,-8.42,6.00,5.63,-2.56,-2.56,-0.14
69,-8.18,-8.01,-8.35,-8.18,6.00,5.58,-2.18,-2.35,-0.17
70,-7.98,-7.78,-8.10,-7.90,6.00,5.54,-1.98,-2.10,-0.20
71,-7.75,-7.52,-7.84,-7.61,6.00,5.50,-1.75,-1.84,-0.23
72,-7.51,-7.25,-7.59,-7.34,6.00,5.46,-1.51,-1.59,-0.26
73,-7.29,-7.00,-7.37,-7.09,6.00,5.42,-1.29,-1.37,-0.29
74,-7.06,-6.74,-7.19,-6.88,6.00,5.37,-1.06,-1.19,-0.31
75,-7.06,-6.71,-7.04,-6.69,6.00,5.33,-1.06,-1.04,-0.34
76,-7.00,-6.62,-6.91,-6.53,6.00,5.29,-1.00,-0.91,-0.37
77,-6.84,-6.44,-6.80,-6.39,6.00,5.25,-0.84,-0.80,-0.40
78,-6.77,-6.34,-6.69,-6.26,5.98,5.21,-0.79,-0.71,-0.43
79,-6.61,-6.15,-6.59,-6.13,5.94,5.16,-0.66,-0.64,-0.46
80,-6.38,-5.89,-6.49,-6.00,5.89,5.12,-0.49,-0.60,-0.49
81,-6.38,-5.86,-6.38,-5.87,5.81,5.08,-0.57,-0.57,-0.52
82,-6.37,-5.82,-6.28,-5.74,5.72,5.04,-0.65,-0.57,-0.55
83,-6.15,-5.57,-6.18,-5.61,5.61,5.00,-0.54,-0.58,-0.58
84,-6.15,-5.54,-6.09,-5.49,5.49,4.96,-0.66,-0.60,-0.60
85,-5.92,-5.29,-6.00,-5.37,5.37,4.91,-0.55,-0.63,-0.63
86,-5.92,-5.26,-5.92,-5.26,5.26,4.87,-0.65,-0.66,-0.66
87,-5.92,-5.23,-5.85,-5.16,5.16,4.83,-0.76,-0.69,-0.69
88,-5.70,-4.98,-5.78,-5.07,5.07,4.79,-0.63,-0.71,-0.71
89,-5.70,-4.96,-5.72,-4.98,4.98,4.75,-0.72,-0.74,-0.74
90,-5.70,-4.93,-5.66,-4.89,4.89,4.71,-0.81,-0.77,-0.77
91,-5.68,-4.89,-5.60,-4.80,4.80,4.67,-0.87,-0.79,-0.79
92,-5.47,-4.65,-5.54,-4.72,4.72,4.63,-0.75,-0.82,-0.82
93,-5.47,-4.63,-5.48,-4.64,4.64,4.59,-0.83,-0.84,-0.84
94,-5.47,-4.60,-5.42,-4.56,4.56,4.55,-0.91,-0.86,-0.86
95,-5.46,-4.57,-5.37,-4.49,4.49,4.52,-0.97,-0.88,-0.89
96,-5.24,-4.33,-5.32,-4.42,4.42,4.48,-0.82,-0.91,-0.91
97,-5.24,-4.31,-5.29,-4.36,4.36,4.44,-0.88,-0.93,-0.93
98,-5.24,-4.29,-5.26,-4.31,4.31,4.40,-0.93,-0.95,-0.95
99,-5.24,-4.27,-5.24,-4.27,4.27,4.36,-0.96,-0.97,-0.97
100,-5.24,-4.25,-5.24,-4.24,4.24,4.33,-0.99,-0.99,-0.99
101,-5.24,-4.23,-5.24,-4.22,4.22,4.29,-1.02,-1.01,-1.00
102,-5.24,-4.22,-5.24,-4.20,4.20,4.25,-1.04,-1.04,-1.02
104,-5.24,-4.16,-5.24,-4.18,4.18,4.18,-1.06,-1.06,-1.07
105,-5.24,-4.15,-5.24,-4.16,4.16,4.15,-1.08,-1.08,-1.09
106,-5.24,-4.13,-5.23,-4.12,4.12,4.11,-1.11,-1.10,-1.11
107,-5.24,-4.12,-5.21,-4.09,4.09,4.08,-1.15,-1.12,-1.12
108,-5.24,-4.10,-5.18,-4.04,4.04,4.04,-1.20,-1.14,-1.14
109,-5.24,-4.08,-5.14,-3.99,3.99,4.01,-1.25,-1.15,-1.15
110,-5.02,-3.85,-5.11,-3.94,3.94,3.97,-1.08,-1.17,-1.17
111,-5.01,-3.82,-5.08,-3.89,3.89,3.94,-1.12,-1.19,-1.19
112,-5.01,-3.80,-5.05,-3.85,3.85,3.91,-1.16,-1.21,-1.20
113,-5.01,-3.79,-5.03,-3.81,3.81,3.87,-1.20,-1.22,-1.22
114,-5.01,-3.77,-5.01,-3.77,3.77,3.84,-1.24,-1.24,-1.24
115,-5.01,-3.75,-5.00,-3.73,3.73,3.81,-1.27,-1.27,-1.26
117,-5.01,-3.70,-4.98,-3.69,3.69,3.74,-1.31,-1.29,-1.30
118,-5.01,-3.69,-4.96,-3.65,3.65,3.71,-1.36,-1.31,-1.32
119,-5.01,-3.67,-4.94,-3.60,3.60,3.68,-1.41,-1.34,-1.34
120,-5.00,-3.64,-4.91,-3.54,3.54,3.65,-1.46,-1.37,-1.36
121,-4.79,-3.41,-4.88,-3.49,3.49,3.62,-1.30,-1.39,-1.38
123,-4.78,-3.35,-4.85,-3.43,3.43,3.56,-1.35,-1.42,-1.43
124,-4.78,-3.33,-4.82,-3.38,3.38,3.53,-1.40,-1.44,-1.45
125,-4.78,-3.31,-4.80,-3.33,3.33,3.50,-1.45,-1.47,-1.47
126,-4.78,-3.29,-4.78,-3.29,3.29,3.47,-1.49,-1.49,-1.48
128,-4.78,-3.25,-4.77,-3.25,3.25,3.41,-1.52,-1.52,-1.53
129,-4.78,-3.23,-4.76,-3.22,3.22,3.39,-1.56,-1.54,-1.55
130,-4.78,-3.21,-4.74,-3.17,3.17,3.36,-1.60,-1.57,-1.57
131,-4.78,-3.19,-4.72,-3.13,3.13,3.33,-1.65,-1.59,-1.58
133,-4.78,-3.15,-4.69,-3.08,3.08,3.28,-1.70,-1.62,-1.62
134,-4.61,-2.97,-4.66,-3.02,3.02,3.25,-1.58,-1.64,-1.64
135,-4.56,-2.90,-4.64,-2.97,2.97,3.22,-1.59,-1.66,-1.66
137,-4.56,-2.87,-4.61,-2.92,2.92,3.17,-1.64,-1.69,-1.69
138,-4.56,-2.85,-4.58,-2.87,2.87,3.15,-1.68,-1.71,-1.71
140,-4.56,-2.82,-4.56,-2.83,2.83,3.10,-1.73,-1.73,-1.74
141,-4.56,-2.80,-4.54,-2.79,2.79,3.07,-1.77,-1.75,-1.75
142,-4.56,-2.79,-4.51,-2.74,2.74,3.05,-1.82,-1.77,-1.77
144,-4.56,-2.76,-4.48,-2.69,2.69,3.00,-1.87,-1.79,-1.80
145,-4.56,-2.75,-4.45,-2.64,2.64,2.98,-1.92,-1.81,-1.81
147,-4.33,-2.49,-4.41,-2.58,2.58,2.93,-1.75,-1.83,-1.84
148,-4.33,-2.48,-4.38,-2.53,2.53,2.91,-1.80,-1.85,-1.85
150,-4.33,-2.46,-4.35,-2.48,2.48,2.86,-1.84,-1.87,-1.87
151,-4.33,-2.45,-4.34,-2.45,2.45,2.84,-1.87,-1.88,-1.88
153,-4.33,-2.43,-4.34,-2.44,2.44,2.80,-1.89,-1.90,-1.90
154,-4.33,-2.42,-4.35,-2.44,2.44,2.78,-1.89,-1.91,-1.91
156,-4.33,-2.40,-4.38,-2.45,2.45,2.74,-1.87,-1.93,-1.93
157,-4.35,-2.41,-4.42,-2.48,2.48,2.71,-1.87,-1.94,-1.94
159,-4.56,-2.60,-4.46,-2.51,2.51,2.67,-2.05,-1.96,-1.96
160,-4.56,-2.59,-4.50,-2.53,2.53,2.65,-2.02,-1.97,-1.97
162,-4.56,-2.58,-4.54,-2.55,2.55,2.62,-2.00,-1.98,-1.98
164,-4.56,-2.56,-4.56,-2.57,2.57,2.58,-1.99,-2.00,-2.00
165,-4.56,-2.55,-4.57,-2.56,2.56,2.56,-1.99,-2.01,-2.00
167,-4.56,-2.54,-4.57,-2.55,2.55,2.52,-2.01,-2.02,-2.02
169,-4.56,-2.52,-4.55,-2.52,2.52,2.49,-2.04,-2.03,-2.03
170,-4.56,-2.52,-4.52,-2.48,2.48,2.47,-2.08,-2.04,-2.04
172,-4.56,-2.51,-4.47,-2.43,2.43,2.43,-2.13,-2.05,-2.05
174,-4.34,-2.28,-4.42,-2.37,2.37,2.40,-1.97,-2.06,-2.06
175,-4.33,-2.26,-4.37,-2.30,2.30,2.38,-2.03,-2.07,-2.06
177,-4.33,-2.25,-4.31,-2.24,2.24,2.35,-2.09,-2.07,-2.07
179,-4.33,-2.25,-4.26,-2.18,2.18,2.32,-2.15,-2.08,-2.08
181,-4.21,-2.12,-4.21,-2.12,2.12,2.29,-2.09,-2.09,-2.09
183,-4.10,-2.00,-4.17,-2.07,2.07,2.26,-2.02,-2.09,-2.10
184,-4.10,-2.00,-4.14,-2.04,2.04,2.24,-2.06,-2.10,-2.10
186,-4.10,-1.99,-4.12,-2.01,2.01,2.21,-2.09,-2.10,-2.10
188,-4.10,-1.99,-4.10,-1.99,1.99,2.18,-2.11,-2.11,-2.11
190,-4.10,-1.98,-4.09,-1.98,1.98,2.16,-2.12,-2.11,-2.11
192,-4.10,-1.98,-4.09,-1.97,1.97,2.13,-2.13,-2.12,-2.12
194,-4.10,-1.98,-4.08,-1.96,1.96,2.10,-2.14,-2.12,-2.12
196,-4.10,-1.98,-4.07,-1.95,1.95,2.08,-2.15,-2.12,-2.12
198,-4.10,-1.97,-4.06,-1.93,1.93,2.05,-2.17,-2.12,-2.12
200,-4.09,-1.96,-4.04,-1.91,1.91,2.03,-2.18,-2.13,-2.13
202,-3.87,-1.74,-4.01,-1.89,1.89,2.00,-1.98,-2.13,-2.13
204,-3.95,-1.82,-3.99,-1.86,1.86,1.98,-2.09,-2.13,-2.13
206,-4.10,-1.97,-3.96,-1.84,1.84,1.96,-2.26,-2.13,-2.13
208,-3.97,-1.84,-3.94,-1.81,1.81,1.93,-2.16,-2.13,-2.13
210,-3.87,-1.74,-3.92,-1.79,1.79,1.91,-2.08,-2.13,-2.13
212,-3.87,-1.74,-3.90,-1.78,1.78,1.89,-2.09,-2.13,-2.13
214,-3.87,-1.74,-3.89,-1.77,1.77,1.87,-2.10,-2.13,-2.13
216,-3.87,-1.74,-3.88,-1.76,1.76,1.85,-2.11,-2.13,-2.12
218,-3.87,-1.74,-3.88,-1.75,1.75,1.83,-2.12,-2.12,-2.12
221,-3.87,-1.74,-3.87,-1.74,1.74,1.80,-2.13,-2.12,-2.12
223,-3.87,-1.75,-3.85,-1.73,1.73,1.78,-2.14,-2.12,-2.12
225,-3.87,-1.75,-3.83,-1.71,1.71,1.77,-2.16,-2.12,-2.12
227,-3.87,-1.75,-3.80,-1.68,1.68,1.75,-2.18,-2.12,-2.12
229,-3.87,-1.75,-3.77,-1.65,1.65,1.73,-2.22,-2.12,-2.12
232,-3.64,-1.52,-3.73,-1.62,1.62,1.71,-2.02,-2.12,-2.12
234,-3.64,-1.53,-3.70,-1.59,1.59,1.69,-2.05,-2.11,-2.11
236,-3.64,-1.53,-3.67,-1.56,1.56,1.68,-2.08,-2.11,-2.11
239,-3.64,-1.53,-3.65,-1.54,1.54,1.65,-2.10,-2.11,-2.11
241,-3.64,-1.53,-3.63,-1.53,1.53,1.64,-2.11,-2.11,-2.11
244,-3.64,-1.53,-3.63,-1.52,1.52,1.62,-2.11,-2.10,-2.10
246,-3.64,-1.54,-3.63,-1.53,1.53,1.61,-2.11,-2.10,-2.10
248,-3.64,-1.54,-3.63,-1.53,1.53,1.59,-2.11,-2.10,-2.10
251,-3.64,-1.54,-3.63,-1.54,1.54,1.58,-2.10,-2.09,-2.09
253,-3.64,-1.55,-3.64,-1.55,1.55,1.56,-2.09,-2.09,-2.09
256,-3.64,-1.55,-3.65,-1.56,1.56,1.55,-2.08,-2.09,-2.09
259,-3.64,-1.56,-3.65,-1.57,1.57,1.53,-2.07,-2.08,-2.08
261,-3.64,-1.56,-3.65,-1.57,1.57,1.52,-2.07,-2.08,-2.08
264,-3.64,-1.57,-3.64,-1.57,1.57,1.51,-2.07,-2.07,-2.07
266,-3.64,-1.57,-3.63,-1.57,1.57,1.50,-2.07,-2.07,-2.07
269,-3.64,-1.58,-3.61,-1.55,1.55,1.48,-2.08,-2.06,-2.06
272,-3.64,-1.58,-3.59,-1.53,1.53,1.47,-2.10,-2.05,-2.05
274,-3.64,-1.59,-3.56,-1.51,1.51,1.46,-2.13,-2.05,-2.04
277,-3.49,-1.45,-3.52,-1.48,1.48,1.45,-2.00,-2.04,-2.04
280,-3.42,-1.39,-3.49,-1.46,1.46,1.44,-1.96,-2.03,-2.03
283,-3.42,-1.40,-3.46,-1.44,1.44,1.43,-1.98,-2.02,-2.02
286,-3.42,-1.41,-3.43,-1.43,1.43,1.42,-1.99,-2.01,-2.01
288,-3.42,-1.42,-3.42,-1.42,1.42,1.42,-1.99,-1.99,-1.99
291,-3.42,-1.44,-3.41,-1.43,1.43,1.41,-1.99,-1.98,-1.98
294,-3.42,-1.45,-3.41,-1.44,1.44,1.40,-1.98,-1.97,-1.97
297,-3.42,-1.46,-3.41,-1.46,1.46,1.39,-1.96,-1.95,-1.95
300,-3.42,-1.48,-3.42,-1.48,1.48,1.39,-1.94,-1.94,-1.94
303,-3.42,-1.50,-3.43,-1.50,1.50,1.38,-1.91,-1.92,-1.92
306,-3.42,-1.51,-3.43,-1.52,1.52,1.38,-1.90,-1.91,-1.91
309,-3.42,-1.53,-3.42,-1.53,1.53,1.37,-1.89,-1.89,-1.89
312,-3.42,-1.55,-3.41,-1.54,1.54,1.37,-1.88,-1.87,-1.87
316,-3.42,-1.57,-3.38,-1.53,1.53,1.37,-1.89,-1.85,-1.85
319,-3.42,-1.59,-3.35,-1.52,1.52,1.36,-1.90,-1.83,-1.83
322,-3.40,-1.59,-3.32,-1.51,1.51,1.36,-1.89,-1.81,-1.81
325,-3.19,-1.40,-3.28,-1.49,1.49,1.36,-1.70,-1.79,-1.79
328,-3.19,-1.42,-3.25,-1.48,1.48,1.36,-1.71,-1.77,-1.77
332,-3.19,-1.44,-3.22,-1.47,1.47,1.36,-1.72,-1.75,-1.75
335,-3.19,-1.46,-3.20,-1.47,1.47,1.36,-1.72,-1.73,-1.73
338,-3.19,-1.48,-3.18,-1.47,1.47,1.36,-1.71,-1.71,-1.71
342,-3.19,-1.50,-3.18,-1.49,1.49,1.37,-1.70,-1.69,-1.69
345,-3.19,-1.52,-3.18,-1.51,1.51,1.37,-1.68,-1.67,-1.67
349,-3.19,-1.54,-3.18,-1.53,1.53,1.37,-1.66,-1.65,-1.65
352,-3.19,-1.56,-3.18,-1.55,1.55,1.38,-1.64,-1.63,-1.63
356,-3.19,-1.58,-3.18,-1.57,1.57,1.38,-1.62,-1.61,-1.61
359,-3.19,-1.59,-3.19,-1.59,1.59,1.39,-1.60,-1.59,-1.59
363,-3.19,-1.61,-3.19,-1.61,1.61,1.40,-1.58,-1.58,-1.58
366,-3.19,-1.63,-3.19,-1.63,1.63,1.40,-1.56,-1.56,-1.56
370,-3.19,-1.64,-3.19,-1.65,1.65,1.41,-1.54,-1.54,-1.54
374,-3.19,-1.66,-3.20,-1.67,1.67,1.42,-1.52,-1.53,-1.53
377,-3.19,-1.67,-3.20,-1.68,1.68,1.43,-1.50,-1.51,-1.51
381,-3.19,-1.69,-3.20,-1.70,1.70,1.44,-1.49,-1.50,-1.50
385,-3.19,-1.70,-3.19,-1.71,1.71,1.45,-1.48,-1.49,-1.49
389,-3.19,-1.71,-3.18,-1.71,1.71,1.46,-1.48,-1.48,-1.48
393,-3.19,-1.72,-3.16,-1.70,1.70,1.47,-1.49,-1.46,-1.46
397,-3.19,-1.74,-3.14,-1.69,1.69,1.49,-1.50,-1.45,-1.45
401,-3.19,-1.75,-3.11,-1.66,1.66,1.50,-1.52,-1.44,-1.44
405,-3.06,-1.63,-3.07,-1.64,1.64,1.51,-1.42,-1.43,-1.43
409,-2.96,-1.54,-3.04,-1.61,1.61,1.53,-1.35,-1.42,-1.42
413,-2.96,-1.54,-3.00,-1.59,1.59,1.54,-1.37,-1.41,-1.41
417,-2.96,-1.55,-2.98,-1.57,1.57,1.56,-1.38,-1.40,-1.40
421,-2.96,-1.56,-2.96,-1.56,1.56,1.57,-1.39,-1.40,-1.40
425,-2.96,-1.57,-2.95,-1.56,1.56,1.59,-1.39,-1.39,-1.39
430,-2.96,-1.58,-2.95,-1.57,1.57,1.60,-1.39,-1.38,-1.38
434,-2.96,-1.59,-2.95,-1.58,1.58,1.62,-1.38,-1.37,-1.37
438,-2.96,-1.60,-2.95,-1.59,1.59,1.63,-1.37,-1.36,-1.36
443,-2.96,-1.60,-2.95,-1.60,1.60,1.65,-1.36,-1.35,-1.35
447,-2.96,-1.61,-2.96,-1.61,1.61,1.67,-1.34,-1.34,-1.34
451,-2.96,-1.62,-2.96,-1.63,1.63,1.68,-1.33,-1.33,-1.33
456,-2.96,-1.63,-2.97,-1.64,1.64,1.70,-1.32,-1.32,-1.32
460,-2.96,-1.64,-2.97,-1.65,1.65,1.71,-1.30,-1.31,-1.31
465,-2.96,-1.65,-2.97,-1.67,1.67,1.72,-1.29,-1.30,-1.30
470,-2.96,-1.67,-2.96,-1.67,1.67,1.74,-1.29,-1.29,-1.29
474,-2.96,-1.68,-2.95,-1.67,1.67,1.75,-1.28,-1.28,-1.28
479,-2.96,-1.69,-2.94,-1.67,1.67,1.76,-1.29,-1.27,-1.27
484,-2.96,-1.70,-2.91,-1.66,1.66,1.77,-1.30,-1.25,-1.25
489,-2.96,-1.72,-2.88,-1.65,1.65,1.78,-1.31,-1.24,-1.24
494,-2.85,-1.62,-2.85,-1.63,1.63,1.79,-1.22,-1.22,-1.22
499,-2.73,-1.52,-2.82,-1.61,1.61,1.79,-1.12,-1.21,-1.21
504,-2.73,-1.54,-2.79,-1.60,1.60,1.80,-1.13,-1.19,-1.19
509,-2.73,-1.56,-2.76,-1.58,1.58,1.80,-1.14,-1.17,-1.17
514,-2.73,-1.57,-2.73,-1.57,1.57,1.80,-1.16,-1.15,-1.15
519,-2.73,-1.59,-2.70,-1.56,1.56,1.80,-1.17,-1.13,-1.13
524,-2.73,-1.61,-2.66,-1.55,1.55,1.80,-1.18,-1.11,-1.11
529,-2.73,-1.64,-2.63,-1.54,1.54,1.79,-1.19,-1.09,-1.09
535,-2.57,-1.50,-2.60,-1.53,1.53,1.78,-1.04,-1.07,-1.07
540,-2.51,-1.46,-2.57,-1.52,1.52,1.78,-0.98,-1.05,-1.05
545,-2.51,-1.48,-2.55,-1.52,1.52,1.77,-0.99,-1.02,-1.02
551,-2.51,-1.51,-2.53,-1.53,1.53,1.75,-0.98,-1.00,-1.00
556,-2.51,-1.53,-2.52,-1.54,1.54,1.74,-0.97,-0.98,-0.98
562,-2.51,-1.56,-2.51,-1.56,1.56,1.72,-0.95,-0.95,-0.95
568,-2.51,-1.58,-2.51,-1.58,1.58,1.71,-0.93,-0.93,-0.93
573,-2.51,-1.61,-2.51,-1.60,1.60,1.69,-0.90,-0.90,-0.90
579,-2.51,-1.63,-2.50,-1.62,1.62,1.67,-0.89,-0.88,-0.88
585,-2.51,-1.65,-2.49,-1.63,1.63,1.64,-0.87,-0.85,-0.85
591,-2.51,-1.68,-2.47,-1.64,1.64,1.62,-0.87,-0.83,-0.83
596,-2.51,-1.70,-2.44,-1.63,1.63,1.60,-0.88,-0.80,-0.80
602,-2.43,-1.65,-2.40,-1.62,1.62,1.58,-0.81,-0.78,-0.78
608,-2.28,-1.52,-2.37,-1.61,1.61,1.55,-0.67,-0.76,-0.76
615,-2.28,-1.54,-2.33,-1.60,1.60,1.52,-0.68,-0.74,-0.74
621,-2.28,-1.57,-2.30,-1.59,1.59,1.49,-0.69,-0.71,-0.71
627,-2.28,-1.59,-2.27,-1.58,1.58,1.46,-0.69,-0.69,-0.69
633,-2.28,-1.61,-2.25,-1.58,1.58,1.44,-0.70,-0.67,-0.67
639,-2.28,-1.63,-2.24,-1.59,1.59,1.41,-0.69,-0.65,-0.65
646,-2.28,-1.65,-2.22,-1.59,1.59,1.38,-0.69,-0.63,-0.63
652,-2.15,-1.54,-2.21,-1.60,1.60,1.35,-0.55,-0.61,-0.61
659,-2.05,-1.46,-2.20,-1.61,1.61,1.32,-0.44,-0.59,-0.59
665,-2.24,-1.67,-2.19,-1.62,1.62,1.29,-0.62,-0.57,-0.57
672,-2.28,-1.73,-2.17,-1.62,1.62,1.26,-0.66,-0.55,-0.55
679,-2.22,-1.69,-2.15,-1.62,1.62,1.23,-0.60,-0.53,-0.53
686,-2.05,-1.54,-2.13,-1.62,1.62,1.20,-0.43,-0.51,-0.51
692,-2.05,-1.55,-2.09,-1.60,1.60,1.18,-0.45,-0.49,-0.49
699,-2.05,-1.57,-2.05,-1.58,1.58,1.15,-0.47,-0.47,-0.47
706,-2.05,-1.59,-2.00,-1.55,1.55,1.12,-0.50,-0.45,-0.45
713,-2.05,-1.61,-1.94,-1.51,1.51,1.09,-0.54,-0.43,-0.43
721,-1.82,-1.40,-1.88,-1.46,1.46,1.06,-0.35,-0.41,-0.41
728,-1.82,-1.42,-1.81,-1.42,1.42,1.04,-0.40,-0.39,-0.39
735,-1.73,-1.36,-1.74,-1.37,1.37,1.01,-0.36,-0.37,-0.37
742,-1.59,-1.24,-1.68,-1.33,1.33,0.99,-0.26,-0.35,-0.35
750,-1.59,-1.26,-1.62,-1.29,1.29,0.96,-0.30,-0.33,-0.33
757,-1.59,-1.28,-1.56,-1.24,1.24,0.94,-0.34,-0.31,-0.31
765,-1.59,-1.30,-1.50,-1.20,1.20,0.91,-0.38,-0.29,-0.29
773,-1.37,-1.09,-1.44,-1.16,1.16,0.89,-0.21,-0.27,-0.27
780,-1.37,-1.11,-1.37,-1.12,1.12,0.87,-0.25,-0.26,-0.26
788,-1.37,-1.13,-1.30,-1.06,1.06,0.85,-0.30,-0.24,-0.24
796,-1.23,-1.01,-1.23,-1.01,1.01,0.82,-0.22,-0.22,-0.22
804,-1.14,-0.93,-1.15,-0.94,0.94,0.80,-0.19,-0.21,-0.21
812,-1.14,-0.95,-1.07,-0.88,0.88,0.78,-0.26,-0.19,-0.19
820,-0.91,-0.73,-1.00,-0.82,0.82,0.76,-0.09,-0.18,-0.18
828,-0.91,-0.74,-0.92,-0.76,0.76,0.74,-0.15,-0.17,-0.17
837,-0.91,-0.75,-0.86,-0.70,0.70,0.72,-0.20,-0.16,-0.16
845,-0.80,-0.65,-0.80,-0.66,0.66,0.71,-0.14,-0.15,-0.14
853,-0.68,-0.54,-0.75,-0.62,0.62,0.69,-0.06,-0.14,-0.14
862,-0.68,-0.55,-0.71,-0.58,0.58,0.67,-0.10,-0.13,-0.13
871,-0.68,-0.56,-0.67,-0.55,0.55,0.65,-0.13,-0.12,-0.12
879,-0.68,-0.56,-0.63,-0.52,0.52,0.64,-0.16,-0.11,-0.11
888,-0.68,-0.57,-0.60,-0.49,0.49,0.62,-0.19,-0.11,-0.11
897,-0.59,-0.49,-0.57,-0.47,0.47,0.61,-0.12,-0.10,-0.10
906,-0.45,-0.35,-0.53,-0.44,0.44,0.59,-0.01,-0.10,-0.10
915,-0.45,-0.36,-0.50,-0.41,0.41,0.58,-0.04,-0.09,-0.09
924,-0.45,-0.36,-0.46,-0.38,0.38,0.56,-0.07,-0.08,-0.08
933,-0.45,-0.37,-0.43,-0.35,0.35,0.55,-0.10,-0.08,-0.08
943,-0.45,-0.38,-0.38,-0.31,0.31,0.54,-0.14,-0.07,-0.07
952,-0.39,-0.32,-0.33,-0.27,0.27,0.52,-0.12,-0.06,-0.06
962,-0.23,-0.17,-0.28,-0.22,0.22,0.51,-0.00,-0.06,-0.06
971,-0.23,-0.18,-0.22,-0.18,0.18,0.50,-0.05,-0.05,-0.05
981,-0.23,-0.19,-0.16,-0.12,0.12,0.49,-0.10,-0.04,-0.04
991,-0.02,0.01,-0.10,-0.07,0.07,0.48,0.05,-0.03,-0.03
1001,0.00,0.02,-0.04,-0.02,0.02,0.46,0.02,-0.01,-0.01
1011,0.00,0.00,0.02,0.02,-0.02,0.45,-0.02,-0.00,-0.00
1021,0.00,-0.01,0.07,0.06,-0.06,0.44,-0.06,0.01,0.01
1031,0.11,0.08,0.12,0.09,-0.09,0.43,0.02,0.03,0.03
1041,0.23,0.19,0.16,0.11,-0.11,0.42,0.12,0.05,0.05
1052,0.23,0.17,0.19,0.12,-0.12,0.41,0.11,0.07,0.06
1062,0.23,0.15,0.21,0.13,-0.13,0.41,0.10,0.08,0.08
1073,0.23,0.13,0.24,0.13,-0.13,0.40,0.10,0.11,0.10
1084,0.23,0.11,0.27,0.14,-0.14,0.39,0.09,0.13,0.13
1094,0.23,0.08,0.29,0.15,-0.15,0.38,0.09,0.15,0.15
1105,0.23,0.06,0.32,0.15,-0.15,0.37,0.08,0.17,0.17
1116,0.37,0.18,0.36,0.16,-0.16,0.36,0.21,0.19,0.19
1128,0.46,0.24,0.39,0.17,-0.17,0.36,0.29,0.22,0.22
1139,0.46,0.22,0.41,0.17,-0.17,0.35,0.29,0.24,0.24
1150,0.46,0.20,0.44,0.17,-0.17,0.34,0.29,0.26,0.26
1162,0.46,0.18,0.46,0.17,-0.17,0.34,0.29,0.28,0.29
1173,0.46,0.16,0.47,0.16,-0.16,0.33,0.30,0.31,0.31
1185,0.46,0.14,0.48,0.16,-0.16,0.32,0.31,0.33,0.33
1197,0.46,0.12,0.49,0.15,-0.15,0.32,0.31,0.34,0.34
1209,0.46,0.10,0.50,0.14,-0.14,0.31,0.32,0.36,0.36
1221,0.46,0.09,0.51,0.14,-0.14,0.30,0.32,0.37,0.37
1233,0.49,0.11,0.52,0.13,-0.13,0.30,0.36,0.39,0.39
1246,0.69,0.30,0.52,0.12,-0.12,0.29,0.57,0.40,0.40
1258,0.58,0.18,0.52,0.11,-0.11,0.29,0.47,0.40,0.40
1271,0.46,0.05,0.51,0.10,-0.10,0.28,0.36,0.41,0.41
1283,0.46,0.05,0.50,0.09,-0.09,0.28,0.37,0.41,0.41
1296,0.46,0.05,0.49,0.08,-0.08,0.27,0.38,0.41,0.41
1309,0.46,0.06,0.48,0.08,-0.08,0.27,0.38,0.41,0.41
1322,0.46,0.06,0.48,0.08,-0.08,0.26,0.39,0.40,0.40
1335,0.46,0.07,0.47,0.08,-0.08,0.26,0.38,0.39,0.39
1349,0.46,0.08,0.46,0.08,-0.08,0.25,0.38,0.38,0.38
1362,0.46,0.09,0.45,0.08,-0.08,0.25,0.38,0.37,0.37
1376,0.46,0.10,0.44,0.08,-0.08,0.25,0.38,0.36,0.36
1390,0.46,0.11,0.42,0.07,-0.07,0.24,0.39,0.35,0.35
1404,0.46,0.13,0.39,0.06,-0.06,0.24,0.41,0.33,0.33
1418,0.39,0.07,0.36,0.04,-0.04,0.23,0.35,0.32,0.32
1432,0.23,-0.07,0.33,0.02,-0.02,0.23,0.21,0.31,0.31
1446,0.23,-0.06,0.30,0.00,-0.00,0.23,0.23,0.29,0.29
1461,0.23,-0.05,0.27,-0.01,0.01,0.22,0.25,0.28,0.28
1475,0.23,-0.04,0.24,-0.03,0.03,0.22,0.26,0.27,0.27
1490,0.23,-0.03,0.22,-0.04,0.04,0.22,0.28,0.27,0.27
1505,0.23,-0.03,0.20,-0.06,0.06,0.22,0.29,0.26,0.26
1520,0.23,-0.03,0.18,-0.08,0.08,0.21,0.32,0.26,0.26
1535,0.23,-0.03,0.15,-0.11,0.11,0.21,0.34,0.26,0.26
1550,0.10,-0.17,0.12,-0.15,0.15,0.21,0.25,0.27,0.27
1566,0.00,-0.28,0.09,-0.19,0.19,0.21,0.20,0.28,0.28
1582,0.00,-0.30,0.05,-0.25,0.25,0.20,0.25,0.30,0.30
1597,0.00,-0.32,0.01,-0.31,0.31,0.20,0.31,0.32,0.32
