frequency,raw,error,smoothed,error_smoothed,equalization,parametric_eq,equalized_raw,equalized_smoothed,target
20,-20.74,-19.95,-20.67,-19.89,6.00,2.65,-14.74,-14.67,-0.79
21,-19.89,-19.10,-19.97,-19.19,6.00,3.03,-13.89,-13.97,-0.79
22,-19.35,-18.56,-19.30,-18.52,6.00,3.45,-13.35,-13.30,-0.78
23,-18.64,-17.86,-18.66,-17.88,6.00,3.91,-12.64,-12.66,-0.78
24,-18.00,-17.22,-18.06,-17.28,6.00,4.39,-12.00,-12.06,-0.78
25,-17.36,-16.58,-17.48,-16.70,6.00,4.89,-11.36,-11.48,-0.78
26,-17.01,-16.23,-16.93,-16.15,6.00,5.39,-11.01,-10.93,-0.78
27,-16.47,-15.69,-16.41,-15.64,6.00,5.87,-10.47,-10.41,-0.78
28,-15.97,-15.19,-15.92,-15.14,6.00,6.30,-9.97,-9.92,-0.78
29,-15.50,-14.72,-15.45,-14.67,6.00,6.66,-9.50,-9.45,-0.78
30,-14.83,-14.05,-15.00,-14.23,6.00,6.92,-8.83,-9.00,-0.78
31,-14.66,-13.88,-14.58,-13.80,6.00,7.08,-8.66,-8.58,-0.78
32,-14.28,-13.50,-14.18,-13.40,6.00,7.13,-8.28,-8.18,-0.78
33,-13.67,-12.89,-13.80,-13.02,6.00,7.09,-7.67,-7.80,-0.78
34,-13.45,-12.67,-13.44,-12.66,6.00,6.98,-7.45,-7.44,-0.78
35,-13.06,-12.27,-13.10,-12.32,6.00,6.83,-7.06,-7.10,-0.78
36,-12.77,-11.98,-12.78,-11.99,6.00,6.65,-6.77,-6.78,-0.79
37,-12.53,-11.73,-12.48,-11.68,6.00,6.47,-6.53,-6.48,-0.79
38,-12.26,-11.46,-12.18,-11.38,6.00,6.29,-6.26,-6.18,-0.80
39,-11.85,-11.04,-11.90,-11.09,6.00,6.13,-5.85,-5.90,-0.81
40,-11.62,-10.80,-11.61,-10.80,6.00,5.99,-5.62,-5.61,-0.81
41,-11.40,-10.57,-11.34,-10.51,6.00,5.87,-5.40,-5.34,-0.82
42,-10.99,-10.15,-11.07,-10.23,6.00,5.78,-4.99,-5.07,-0.83
43,-10.94,-10.09,-10.81,-9.96,6.00,5.71,-4.94,-4.81,-0.85
44,-10.48,-9.62,-10.56,-9.70,6.00,5.67,-4.48,-4.56,-0.86
45,-10.25,-9.38,-10.32,-9.44,6.00,5.66,-4.25,-4.32,-0.87
46,-10.19,-9.30,-10.09,-9.21,6.00,5.66,-4.19,-4.09,-0.89
47,-9.80,-8.89,-9.89,-8.98,6.00,5.68,-3.80,-3.89,-0.91
48,-9.75,-8.83,-9.70,-8.77,6.00,5.72,-3.75,-3.70,-0.92
49,-9.44,-8.50,-9.52,-8.58,6.00,5.78,-3.44,-3.52,-0.94
50,-9.34,-8.38,-9.35,-8.39,6.00,5.85,-3.34,-3.35,-0.96
51,-9.11,-8.12,-9.18,-8.20,6.00,5.93,-3.11,-3.18,-0.98
52,-9.11,-8.10,-9.01,-8.00,6.00,6.01,-3.11,-3.01,-1.01
53,-8.89,-7.86,-8.82,-7.79,6.00,6.09,-2.89,-2.82,-1.03
54,-8.66,-7.61,-8.62,-7.57,6.00,6.18,-2.66,-2.62,-1.05
55,-8.66,-7.58,-8.42,-7.34,6.00,6.26,-2.66,-2.42,-1.08
56,-8.43,-7.33,-8.22,-7.12,6.00,6.34,-2.43,-2.22,-1.10
57,-7.98,-6.85,-8.06,-6.93,6.00,6.40,-1.98,-2.06,-1.13
58,-7.75,-6.59,-7.96,-6.80,6.00,6.45,-1.75,-1.96,-1.16
59,-7.75,-6.56,-7.92,-6.74,6.00,6.48,-1.75,-1.92,-1.18
60,-7.75,-6.54,-7.97,-6.76,6.00,6.50,-1.75,-1.97,-1.21
61,-7.75,-6.51,-8.09,-6.85,6.00,6.50,-1.75,-2.09,-1.24
62,-7.98,-6.71,-8.26,-6.99,6.00,6.48,-1.98,-2.26,-1.27
63,-8.52,-7.22,-8.45,-7.16,6.00,6.43,-2.52,-2.45,-1.30
64,-8.98,-7.65,-8.62,-7.29,6.00,6.38,-2.98,-2.62,-1.33
65,-9.11,-7.75,-8.73,-7.38,6.00,6.30,-3.11,-2.73,-1.36
66,-9.11,-7.72,-8.76,-7.38,6.00,6.21,-3.11,-2.76,-1.39
67,-8.89,-7.47,-8.70,-7.29,6.00,6.10,-2.89,-2.70,-1.42
68,-8.56,-7.11,-8.56,-7.11,6.00,5.99,-2.56,-2.56,-1.45
69,-8.18,-6.70,-8.35,-6.87,6.00,5.86,-2.18,-2.35,-1.47
70,-7.98,-6.47,-8.10,-6.59,6.00,5.73,-1.98,-2.10,-1.50
71,-7.75,-6.21,-7.84,-6.30,5.95,5.60,-1.79,-1.88,-1.53
72,-7.51,-5.94,-7.59,-6.03,5.85,5.46,-1.65,-1.74,-1.56
73,-7.29,-5.69,-7.37,-5.78,5.70,5.32,-1.59,-1.67,-1.59
74,-7.06,-5.44,-7.19,-5.57,5.54,5.17,-1.52,-1.65,-1.62
75,-7.06,-5.41,-7.04,-5.38,5.38,5.04,-1.68,-1.66,-1.65
76,-7.00,-5.32,-6.91,-5.23,5.23,4.90,-1.77,-1.68,-1.68
77,-6.84,-5.13,-6.80,-5.08,5.08,4.76,-1.75,-1.71,-1.71
78,-6.77,-5.03,-6.69,-4.95,4.95,4.63,-1.82,-1.74,-1.74
79,-6.61,-4.84,-6.59,-4.82,4.82,4.50,-1.79,-1.77,-1.77
80,-6.38,-4.58,-6.49,-4.69,4.69,4.38,-1.69,-1.80,-1.80
81,-6.38,-4.55,-6.38,-4.56,4.56,4.26,-1.82,-1.83,-1.83
82,-6.37,-4.51,-6.28,-4.43,4.43,4.15,-1.94,-1.86,-1.86
83,-6.15,-4.26,-6.18,-4.30,4.30,4.04,-1.85,-1.88,-1.88
84,-6.15,-4.24,-6.09,-4.18,4.18,3.94,-1.97,-1.91,-1.91
85,-5.92,-3.98,-6.00,-4.06,4.06,3.84,-1.85,-1.94,-1.94
86,-5.92,-3.95,-5.92,-3.95,3.95,3.74,-1.96,-1.97,-1.97
87,-5.92,-3.92,-5.85,-3.85,3.85,3.65,-2.06,-2.00,-2.00
88,-5.70,-3.68,-5.78,-3.76,3.76,3.57,-1.94,-2.02,-2.02
89,-5.70,-3.65,-5.72,-3.67,3.67,3.49,-2.03,-2.05,-2.05
90,-5.70,-3.62,-5.66,-3.58,3.58,3.41,-2.12,-2.08,-2.08
91,-5.68,-3.58,-5.60,-3.50,3.50,3.34,-2.18,-2.10,-2.10
92,-5.47,-3.34,-5.54,-3.41,3.41,3.27,-2.06,-2.12,-2.12
93,-5.47,-3.32,-5.48,-3.33,3.33,3.20,-2.14,-2.15,-2.15
94,-5.47,-3.30,-5.42,-3.25,3.25,3.14,-2.22,-2.17,-2.17
95,-5.46,-3.26,-5.37,-3.18,3.18,3.08,-2.28,-2.19,-2.19
96,-5.24,-3.02,-5.32,-3.11,3.11,3.03,-2.13,-2.21,-2.22
97,-5.24,-3.00,-5.29,-3.05,3.05,2.98,-2.19,-2.23,-2.24
98,-5.24,-2.98,-5.26,-3.00,3.00,2.93,-2.23,-2.26,-2.26
99,-5.24,-2.96,-5.24,-2.97,2.97,2.88,-2.27,-2.28,-2.28
100,-5.24,-2.94,-5.24,-2.94,2.94,2.84,-2.30,-2.30,-2.29
101,-5.24,-2.93,-5.24,-2.91,2.91,2.79,-2.32,-2.32,-2.31
102,-5.24,-2.91,-5.24,-2.89,2.89,2.76,-2.34,-2.34,-2.33
104,-5.24,-2.86,-5.24,-2.87,2.87,2.68,-2.37,-2.37,-2.38
105,-5.24,-2.84,-5.24,-2.85,2.85,2.65,-2.39,-2.39,-2.40
106,-5.24,-2.82,-5.23,-2.82,2.82,2.62,-2.42,-2.41,-2.41
107,-5.24,-2.81,-5.21,-2.78,2.78,2.59,-2.46,-2.43,-2.43
108,-5.24,-2.79,-5.18,-2.73,2.73,2.56,-2.51,-2.45,-2.45
109,-5.24,-2.78,-5.14,-2.68,2.68,2.53,-2.56,-2.46,-2.46
110,-5.02,-2.54,-5.11,-2.63,2.63,2.50,-2.39,-2.48,-2.48
111,-5.01,-2.51,-5.08,-2.58,2.58,2.47,-2.43,-2.50,-2.49
112,-5.01,-2.50,-5.05,-2.54,2.54,2.45,-2.47,-2.51,-2.51
113,-5.01,-2.48,-5.03,-2.50,2.50,2.42,-2.51,-2.53,-2.53
114,-5.01,-2.46,-5.01,-2.46,2.46,2.40,-2.55,-2.55,-2.55
115,-5.01,-2.44,-5.00,-2.43,2.43,2.37,-2.58,-2.58,-2.56
117,-5.01,-2.40,-4.98,-2.39,2.39,2.32,-2.62,-2.60,-2.61
118,-5.01,-2.38,-4.96,-2.34,2.34,2.30,-2.67,-2.62,-2.63
119,-5.01,-2.36,-4.94,-2.29,2.29,2.27,-2.72,-2.65,-2.65
120,-5.00,-2.33,-4.91,-2.23,2.23,2.25,-2.76,-2.67,-2.67
121,-4.79,-2.10,-4.88,-2.18,2.18,2.23,-2.61,-2.70,-2.69
123,-4.78,-2.04,-4.85,-2.12,2.12,2.18,-2.66,-2.73,-2.74
124,-4.78,-2.02,-4.82,-2.07,2.07,2.15,-2.71,-2.75,-2.75
125,-4.78,-2.00,-4.80,-2.02,2.02,2.13,-2.75,-2.78,-2.77
126,-4.78,-1.98,-4.78,-1.98,1.98,2.10,-2.79,-2.80,-2.79
128,-4.78,-1.94,-4.77,-1.95,1.95,2.05,-2.83,-2.83,-2.84
129,-4.78,-1.92,-4.76,-1.91,1.91,2.02,-2.87,-2.85,-2.86
130,-4.78,-1.90,-4.74,-1.86,1.86,2.00,-2.91,-2.88,-2.87
131,-4.78,-1.89,-4.72,-1.82,1.82,1.97,-2.96,-2.90,-2.89
133,-4.78,-1.85,-4.69,-1.77,1.77,1.92,-3.01,-2.92,-2.93
134,-4.61,-1.66,-4.66,-1.71,1.71,1.89,-2.89,-2.95,-2.95
135,-4.56,-1.59,-4.64,-1.66,1.66,1.86,-2.90,-2.97,-2.97
137,-4.56,-1.56,-4.61,-1.61,1.61,1.81,-2.95,-3.00,-3.00
138,-4.56,-1.54,-4.58,-1.57,1.57,1.78,-2.99,-3.02,-3.02
140,-4.56,-1.51,-4.56,-1.52,1.52,1.72,-3.04,-3.04,-3.05
141,-4.56,-1.50,-4.54,-1.48,1.48,1.70,-3.08,-3.06,-3.06
142,-4.56,-1.48,-4.51,-1.43,1.43,1.67,-3.13,-3.08,-3.08
144,-4.56,-1.45,-4.48,-1.38,1.38,1.62,-3.18,-3.10,-3.11
145,-4.56,-1.44,-4.45,-1.33,1.33,1.59,-3.23,-3.12,-3.12
147,-4.33,-1.18,-4.41,-1.27,1.27,1.54,-3.06,-3.14,-3.14
148,-4.33,-1.17,-4.38,-1.22,1.22,1.51,-3.11,-3.16,-3.15
150,-4.33,-1.15,-4.35,-1.18,1.18,1.46,-3.15,-3.17,-3.18
151,-4.33,-1.14,-4.34,-1.15,1.15,1.43,-3.18,-3.19,-3.19
153,-4.33,-1.12,-4.34,-1.13,1.13,1.38,-3.20,-3.21,-3.21
154,-4.33,-1.11,-4.35,-1.13,1.13,1.36,-3.20,-3.22,-3.22
156,-4.33,-1.09,-4.38,-1.14,1.14,1.31,-3.18,-3.24,-3.24
157,-4.35,-1.10,-4.42,-1.17,1.17,1.29,-3.18,-3.25,-3.25
159,-4.56,-1.29,-4.46,-1.20,1.20,1.24,-3.36,-3.27,-3.27
160,-4.56,-1.28,-4.50,-1.23,1.23,1.22,-3.33,-3.28,-3.27
162,-4.56,-1.27,-4.54,-1.25,1.25,1.17,-3.31,-3.29,-3.29
164,-4.56,-1.25,-4.56,-1.26,1.26,1.13,-3.30,-3.30,-3.31
165,-4.56,-1.25,-4.57,-1.26,1.26,1.11,-3.30,-3.32,-3.31
167,-4.56,-1.23,-4.57,-1.24,1.24,1.07,-3.32,-3.33,-3.33
169,-4.56,-1.22,-4.55,-1.21,1.21,1.03,-3.35,-3.34,-3.34
170,-4.56,-1.21,-4.52,-1.17,1.17,1.01,-3.39,-3.35,-3.35
172,-4.56,-1.20,-4.47,-1.12,1.12,0.97,-3.44,-3.36,-3.36
174,-4.34,-0.97,-4.42,-1.06,1.06,0.94,-3.28,-3.37,-3.37
175,-4.33,-0.96,-4.37,-0.99,0.99,0.92,-3.33,-3.38,-3.37
177,-4.33,-0.95,-4.31,-0.93,0.93,0.89,-3.40,-3.38,-3.38
179,-4.33,-0.94,-4.26,-0.87,0.87,0.85,-3.46,-3.39,-3.39
181,-4.21,-0.81,-4.21,-0.81,0.81,0.82,-3.40,-3.40,-3.40
183,-4.10,-0.69,-4.17,-0.77,0.77,0.79,-3.33,-3.40,-3.41
184,-4.10,-0.69,-4.14,-0.73,0.73,0.77,-3.37,-3.41,-3.41
186,-4.10,-0.69,-4.12,-0.70,0.70,0.74,-3.40,-3.41,-3.41
188,-4.10,-0.68,-4.10,-0.68,0.68,0.72,-3.41,-3.42,-3.42
190,-4.10,-0.68,-4.09,-0.67,0.67,0.69,-3.43,-3.42,-3.42
192,-4.10,-0.67,-4.09,-0.66,0.66,0.66,-3.44,-3.43,-3.43
194,-4.10,-0.67,-4.08,-0.65,0.65,0.64,-3.45,-3.43,-3.43
196,-4.10,-0.67,-4.07,-0.64,0.64,0.61,-3.46,-3.43,-3.43
198,-4.10,-0.66,-4.06,-0.62,0.62,0.59,-3.48,-3.43,-3.43
200,-4.09,-0.65,-4.04,-0.60,0.60,0.56,-3.49,-3.43,-3.43
202,-3.87,-0.43,-4.01,-0.58,0.58,0.54,-3.29,-3.44,-3.44
204,-3.95,-0.51,-3.99,-0.55,0.55,0.52,-3.40,-3.44,-3.44
206,-4.10,-0.66,-3.96,-0.53,0.53,0.50,-3.57,-3.44,-3.44
208,-3.97,-0.53,-3.94,-0.50,0.50,0.48,-3.46,-3.44,-3.44
210,-3.87,-0.43,-3.92,-0.48,0.48,0.46,-3.38,-3.44,-3.44
212,-3.87,-0.43,-3.90,-0.47,0.47,0.44,-3.40,-3.44,-3.44
214,-3.87,-0.43,-3.89,-0.46,0.46,0.42,-3.41,-3.43,-3.43
216,-3.87,-0.43,-3.88,-0.45,0.45,0.40,-3.42,-3.43,-3.43
218,-3.87,-0.44,-3.88,-0.44,0.44,0.39,-3.43,-3.43,-3.43
221,-3.87,-0.43,-3.87,-0.43,0.43,0.36,-3.43,-3.43,-3.43
223,-3.87,-0.44,-3.85,-0.42,0.42,0.35,-3.45,-3.43,-3.43
225,-3.87,-0.44,-3.83,-0.40,0.40,0.33,-3.47,-3.43,-3.43
227,-3.87,-0.44,-3.80,-0.38,0.38,0.32,-3.49,-3.43,-3.43
229,-3.87,-0.44,-3.77,-0.34,0.34,0.31,-3.52,-3.43,-3.42
232,-3.64,-0.21,-3.73,-0.31,0.31,0.29,-3.33,-3.42,-3.42
234,-3.64,-0.22,-3.70,-0.28,0.28,0.28,-3.36,-3.42,-3.42
236,-3.64,-0.22,-3.67,-0.25,0.25,0.27,-3.39,-3.42,-3.42
239,-3.64,-0.22,-3.65,-0.23,0.23,0.25,-3.41,-3.42,-3.42
241,-3.64,-0.22,-3.63,-0.22,0.22,0.24,-3.42,-3.41,-3.41
244,-3.64,-0.23,-3.63,-0.22,0.22,0.23,-3.42,-3.41,-3.41
246,-3.64,-0.23,-3.63,-0.22,0.22,0.22,-3.42,-3.41,-3.41
248,-3.64,-0.23,-3.63,-0.22,0.22,0.22,-3.41,-3.41,-3.40
251,-3.64,-0.24,-3.63,-0.23,0.23,0.21,-3.41,-3.40,-3.40
253,-3.64,-0.24,-3.64,-0.24,0.24,0.20,-3.40,-3.40,-3.40
256,-3.64,-0.24,-3.65,-0.25,0.25,0.19,-3.39,-3.39,-3.39
259,-3.64,-0.25,-3.65,-0.26,0.26,0.19,-3.38,-3.39,-3.39
261,-3.64,-0.25,-3.65,-0.26,0.26,0.18,-3.37,-3.39,-3.39
264,-3.64,-0.26,-3.64,-0.26,0.26,0.18,-3.37,-3.38,-3.38
266,-3.64,-0.26,-3.63,-0.26,0.26,0.18,-3.38,-3.37,-3.37
269,-3.64,-0.27,-3.61,-0.25,0.25,0.17,-3.39,-3.37,-3.37
272,-3.64,-0.28,-3.59,-0.23,0.23,0.17,-3.41,-3.36,-3.36
274,-3.64,-0.28,-3.56,-0.20,0.20,0.17,-3.44,-3.35,-3.35
277,-3.49,-0.14,-3.52,-0.18,0.18,0.17,-3.31,-3.35,-3.35
280,-3.42,-0.08,-3.49,-0.15,0.15,0.17,-3.27,-3.34,-3.34
283,-3.42,-0.09,-3.46,-0.13,0.13,0.17,-3.29,-3.33,-3.33
286,-3.42,-0.10,-3.43,-0.12,0.12,0.17,-3.30,-3.32,-3.32
288,-3.42,-0.11,-3.42,-0.12,0.12,0.17,-3.30,-3.30,-3.30
291,-3.42,-0.13,-3.41,-0.12,0.12,0.18,-3.30,-3.29,-3.29
294,-3.42,-0.14,-3.41,-0.13,0.13,0.18,-3.28,-3.28,-3.28
297,-3.42,-0.16,-3.41,-0.15,0.15,0.18,-3.27,-3.26,-3.26
300,-3.42,-0.17,-3.42,-0.17,0.17,0.18,-3.24,-3.25,-3.25
303,-3.42,-0.19,-3.43,-0.19,0.19,0.19,-3.22,-3.23,-3.23
306,-3.42,-0.20,-3.43,-0.21,0.21,0.19,-3.21,-3.21,-3.21
309,-3.42,-0.22,-3.42,-0.22,0.22,0.20,-3.19,-3.20,-3.20
312,-3.42,-0.24,-3.41,-0.23,0.23,0.20,-3.19,-3.18,-3.18
316,-3.42,-0.26,-3.38,-0.22,0.22,0.21,-3.19,-3.16,-3.16
319,-3.42,-0.28,-3.35,-0.21,0.21,0.21,-3.20,-3.14,-3.14
322,-3.40,-0.28,-3.32,-0.20,0.20,0.22,-3.20,-3.12,-3.12
325,-3.19,-0.09,-3.28,-0.18,0.18,0.22,-3.01,-3.10,-3.10
328,-3.19,-0.11,-3.25,-0.17,0.17,0.23,-3.02,-3.08,-3.08
332,-3.19,-0.13,-3.22,-0.16,0.16,0.24,-3.03,-3.06,-3.06
335,-3.19,-0.15,-3.20,-0.16,0.16,0.24,-3.03,-3.04,-3.04
338,-3.19,-0.17,-3.18,-0.17,0.17,0.25,-3.02,-3.02,-3.02
342,-3.19,-0.19,-3.18,-0.18,0.18,0.26,-3.01,-3.00,-3.00
345,-3.19,-0.21,-3.18,-0.20,0.20,0.26,-2.99,-2.98,-2.98
349,-3.19,-0.23,-3.18,-0.22,0.22,0.27,-2.97,-2.96,-2.96
352,-3.19,-0.25,-3.18,-0.24,0.24,0.28,-2.95,-2.94,-2.94
356,-3.19,-0.27,-3.18,-0.26,0.26,0.29,-2.92,-2.92,-2.92
359,-3.19,-0.29,-3.19,-0.28,0.28,0.29,-2.90,-2.90,-2.90
363,-3.19,-0.30,-3.19,-0.30,0.30,0.30,-2.89,-2.89,-2.89
366,-3.19,-0.32,-3.19,-0.32,0.32,0.31,-2.87,-2.87,-2.87
370,-3.19,-0.34,-3.19,-0.34,0.34,0.32,-2.85,-2.85,-2.85
374,-3.19,-0.35,-3.20,-0.36,0.36,0.33,-2.83,-2.84,-2.84
377,-3.19,-0.37,-3.20,-0.38,0.38,0.33,-2.81,-2.82,-2.82
381,-3.19,-0.38,-3.20,-0.39,0.39,0.34,-2.80,-2.81,-2.81
385,-3.19,-0.39,-3.19,-0.40,0.40,0.35,-2.79,-2.80,-2.80
389,-3.19,-0.40,-3.18,-0.40,0.40,0.36,-2.79,-2.78,-2.78
393,-3.19,-0.42,-3.16,-0.39,0.39,0.37,-2.80,-2.77,-2.77
397,-3.19,-0.43,-3.14,-0.38,0.38,0.38,-2.81,-2.76,-2.76
401,-3.19,-0.44,-3.11,-0.36,0.36,0.39,-2.83,-2.75,-2.75
405,-3.06,-0.32,-3.07,-0.33,0.33,0.40,-2.73,-2.74,-2.74
409,-2.96,-0.23,-3.04,-0.30,0.30,0.41,-2.65,-2.73,-2.73
413,-2.96,-0.24,-3.00,-0.28,0.28,0.42,-2.68,-2.72,-2.72
417,-2.96,-0.25,-2.98,-0.27,0.27,0.42,-2.69,-2.71,-2.71
421,-2.96,-0.25,-2.96,-0.26,0.26,0.43,-2.70,-2.70,-2.70
425,-2.96,-0.26,-2.95,-0.25,0.25,0.44,-2.70,-2.70,-2.70
430,-2.96,-0.27,-2.95,-0.26,0.26,0.45,-2.70,-2.69,-2.69
434,-2.96,-0.28,-2.95,-0.27,0.27,0.46,-2.69,-2.68,-2.68
438,-2.96,-0.29,-2.95,-0.28,0.28,0.46,-2.68,-2.67,-2.67
443,-2.96,-0.30,-2.95,-0.29,0.29,0.47,-2.67,-2.66,-2.66
447,-2.96,-0.31,-2.96,-0.31,0.31,0.47,-2.65,-2.65,-2.65
451,-2.96,-0.32,-2.96,-0.32,0.32,0.48,-2.64,-2.64,-2.64
456,-2.96,-0.32,-2.97,-0.33,0.33,0.48,-2.62,-2.63,-2.63
460,-2.96,-0.34,-2.97,-0.35,0.35,0.49,-2.61,-2.62,-2.62
465,-2.96,-0.35,-2.97,-0.36,0.36,0.49,-2.60,-2.61,-2.61
470,-2.96,-0.36,-2.96,-0.36,0.36,0.49,-2.59,-2.60,-2.60
474,-2.96,-0.37,-2.95,-0.37,0.37,0.49,-2.59,-2.59,-2.59
479,-2.96,-0.38,-2.94,-0.36,0.36,0.49,-2.60,-2.58,-2.58
484,-2.96,-0.40,-2.91,-0.35,0.35,0.49,-2.61,-2.56,-2.56
489,-2.96,-0.41,-2.88,-0.34,0.34,0.48,-2.62,-2.55,-2.55
494,-2.85,-0.32,-2.85,-0.32,0.32,0.48,-2.53,-2.53,-2.53
499,-2.73,-0.21,-2.82,-0.30,0.30,0.47,-2.42,-2.52,-2.52
504,-2.73,-0.23,-2.79,-0.29,0.29,0.47,-2.44,-2.50,-2.50
509,-2.73,-0.25,-2.76,-0.27,0.27,0.46,-2.45,-2.48,-2.48
514,-2.73,-0.27,-2.73,-0.26,0.26,0.45,-2.46,-2.46,-2.46
519,-2.73,-0.29,-2.70,-0.25,0.25,0.44,-2.47,-2.44,-2.44
524,-2.73,-0.31,-2.66,-0.24,0.24,0.43,-2.48,-2.42,-2.42
529,-2.73,-0.33,-2.63,-0.23,0.23,0.42,-2.50,-2.40,-2.40
535,-2.57,-0.19,-2.60,-0.22,0.22,0.40,-2.34,-2.38,-2.38
540,-2.51,-0.15,-2.57,-0.22,0.22,0.39,-2.29,-2.36,-2.36
545,-2.51,-0.18,-2.55,-0.21,0.21,0.37,-2.29,-2.33,-2.33
551,-2.51,-0.20,-2.53,-0.22,0.22,0.36,-2.29,-2.31,-2.31
556,-2.51,-0.22,-2.52,-0.23,0.23,0.34,-2.28,-2.28,-2.28
562,-2.51,-0.25,-2.51,-0.25,0.25,0.32,-2.26,-2.26,-2.26
568,-2.51,-0.27,-2.51,-0.27,0.27,0.30,-2.24,-2.24,-2.24
573,-2.51,-0.30,-2.51,-0.30,0.30,0.28,-2.21,-2.21,-2.21
579,-2.51,-0.32,-2.50,-0.31,0.31,0.26,-2.19,-2.19,-2.19
585,-2.51,-0.35,-2.49,-0.33,0.33,0.24,-2.18,-2.16,-2.16
591,-2.51,-0.37,-2.47,-0.33,0.33,0.22,-2.18,-2.14,-2.14
596,-2.51,-0.40,-2.44,-0.32,0.32,0.20,-2.18,-2.11,-2.11
602,-2.43,-0.34,-2.40,-0.31,0.31,0.17,-2.11,-2.09,-2.09
608,-2.28,-0.21,-2.37,-0.30,0.30,0.15,-1.98,-2.07,-2.07
615,-2.28,-0.23,-2.33,-0.29,0.29,0.12,-1.99,-2.04,-2.04
621,-2.28,-0.26,-2.30,-0.28,0.28,0.10,-2.00,-2.02,-2.02
627,-2.28,-0.28,-2.27,-0.27,0.27,0.08,-2.00,-2.00,-2.00
633,-2.28,-0.30,-2.25,-0.27,0.27,0.05,-2.00,-1.98,-1.98
639,-2.28,-0.32,-2.24,-0.28,0.28,0.03,-2.00,-1.96,-1.96
646,-2.28,-0.34,-2.22,-0.28,0.28,0.00,-1.99,-1.94,-1.94
652,-2.15,-0.23,-2.21,-0.29,0.29,-0.02,-1.85,-1.92,-1.92
659,-2.05,-0.15,-2.20,-0.30,0.30,-0.05,-1.75,-1.90,-1.90
665,-2.24,-0.36,-2.19,-0.31,0.31,-0.07,-1.93,-1.88,-1.88
672,-2.28,-0.42,-2.17,-0.31,0.31,-0.10,-1.96,-1.86,-1.86
679,-2.22,-0.38,-2.15,-0.31,0.31,-0.13,-1.90,-1.84,-1.84
686,-2.05,-0.23,-2.13,-0.31,0.31,-0.15,-1.74,-1.82,-1.82
692,-2.05,-0.25,-2.09,-0.29,0.29,-0.18,-1.76,-1.80,-1.80
699,-2.05,-0.27,-2.05,-0.27,0.27,-0.20,-1.78,-1.78,-1.78
706,-2.05,-0.29,-2.00,-0.24,0.24,-0.23,-1.81,-1.76,-1.76
713,-2.05,-0.31,-1.94,-0.20,0.20,-0.26,-1.85,-1.74,-1.74
721,-1.82,-0.10,-1.88,-0.16,0.16,-0.29,-1.66,-1.72,-1.72
728,-1.82,-0.12,-1.81,-0.11,0.11,-0.32,-1.71,-1.70,-1.70
735,-1.73,-0.05,-1.74,-0.06,0.06,-0.34,-1.66,-1.68,-1.68
742,-1.59,0.07,-1.68,-0.02,0.02,-0.37,-1.57,-1.66,-1.66
750,-1.59,0.05,-1.62,0.02,-0.02,-0.40,-1.61,-1.64,-1.64
757,-1.59,0.03,-1.56,0.06,-0.06,-0.43,-1.65,-1.62,-1.62
765,-1.59,0.01,-1.50,0.10,-0.10,-0.46,-1.69,-1.60,-1.60
773,-1.37,0.21,-1.44,0.15,-0.15,-0.49,-1.51,-1.58,-1.58
780,-1.37,0.20,-1.37,0.19,-0.19,-0.51,-1.56,-1.56,-1.56
788,-1.37,0.18,-1.30,0.24,-0.24,-0.54,-1.61,-1.55,-1.55
796,-1.23,0.30,-1.23,0.30,-0.30,-0.57,-1.53,-1.53,-1.53
804,-1.14,0.38,-1.15,0.36,-0.36,-0.60,-1.50,-1.51,-1.51
812,-1.14,0.36,-1.07,0.43,-0.43,-0.63,-1.57,-1.50,-1.50
820,-0.91,0.58,-1.00,0.49,-0.49,-0.66,-1.40,-1.49,-1.49
828,-0.91,0.57,-0.92,0.55,-0.55,-0.68,-1.46,-1.47,-1.47
837,-0.91,0.56,-0.86,0.60,-0.60,-0.71,-1.51,-1.46,-1.46
845,-0.80,0.66,-0.80,0.65,-0.65,-0.74,-1.45,-1.45,-1.45
853,-0.68,0.77,-0.75,0.69,-0.69,-0.77,-1.37,-1.44,-1.44
862,-0.68,0.76,-0.71,0.73,-0.73,-0.80,-1.41,-1.44,-1.44
871,-0.68,0.75,-0.67,0.76,-0.76,-0.82,-1.44,-1.43,-1.43
879,-0.68,0.74,-0.63,0.79,-0.79,-0.85,-1.47,-1.42,-1.42
888,-0.68,0.74,-0.60,0.82,-0.82,-0.87,-1.49,-1.42,-1.42
897,-0.59,0.82,-0.57,0.84,-0.84,-0.90,-1.43,-1.41,-1.41
906,-0.45,0.96,-0.53,0.87,-0.87,-0.92,-1.32,-1.40,-1.40
915,-0.45,0.95,-0.50,0.90,-0.90,-0.95,-1.35,-1.40,-1.40
924,-0.45,0.94,-0.46,0.93,-0.93,-0.97,-1.38,-1.39,-1.39
933,-0.45,0.94,-0.43,0.96,-0.96,-0.99,-1.41,-1.39,-1.39
943,-0.45,0.93,-0.38,1.00,-1.00,-1.01,-1.45,-1.38,-1.38
952,-0.39,0.98,-0.33,1.04,-1.04,-1.03,-1.43,-1.37,-1.37
962,-0.23,1.14,-0.28,1.08,-1.08,-1.04,-1.31,-1.36,-1.36
971,-0.23,1.13,-0.22,1.13,-1.13,-1.06,-1.36,-1.36,-1.36
981,-0.23,1.12,-0.16,1.18,-1.18,-1.07,-1.41,-1.35,-1.35
991,-0.02,1.32,-0.10,1.24,-1.24,-1.09,-1.25,-1.33,-1.33
1001,0.00,1.32,-0.04,1.29,-1.29,-1.10,-1.28,-1.32,-1.32
1011,0.00,1.31,0.02,1.33,-1.33,-1.11,-1.33,-1.31,-1.31
1021,0.00,1.30,0.07,1.37,-1.37,-1.12,-1.37,-1.29,-1.29
1031,0.11,1.39,0.12,1.40,-1.40,-1.12,-1.28,-1.28,-1.28
1041,0.23,1.49,0.16,1.42,-1.42,-1.13,-1.18,-1.26,-1.26
1052,0.23,1.48,0.19,1.43,-1.43,-1.14,-1.20,-1.24,-1.24
1062,0.23,1.46,0.21,1.44,-1.44,-1.14,-1.21,-1.22,-1.22
1073,0.23,1.44,0.24,1.44,-1.44,-1.14,-1.21,-1.20,-1.20
1084,0.23,1.41,0.27,1.45,-1.45,-1.14,-1.22,-1.18,-1.18
1094,0.23,1.39,0.29,1.45,-1.45,-1.15,-1.22,-1.16,-1.16
1105,0.23,1.37,0.32,1.46,-1.46,-1.15,-1.23,-1.14,-1.14
1116,0.37,1.49,0.36,1.47,-1.47,-1.15,-1.10,-1.11,-1.11
1128,0.46,1.55,0.39,1.48,-1.48,-1.14,-1.02,-1.09,-1.09
1139,0.46,1.53,0.41,1.48,-1.48,-1.14,-1.02,-1.07,-1.07
1150,0.46,1.51,0.44,1.48,-1.48,-1.14,-1.02,-1.05,-1.05
1162,0.46,1.49,0.46,1.48,-1.48,-1.14,-1.02,-1.02,-1.02
1173,0.46,1.46,0.47,1.47,-1.47,-1.14,-1.01,-1.00,-1.00
1185,0.46,1.44,0.48,1.46,-1.46,-1.14,-1.00,-0.98,-0.98
1197,0.46,1.43,0.49,1.46,-1.46,-1.13,-1.00,-0.96,-0.96
1209,0.46,1.41,0.50,1.45,-1.45,-1.13,-0.99,-0.95,-0.95
1221,0.46,1.40,0.51,1.45,-1.45,-1.13,-0.98,-0.93,-0.93
1233,0.49,1.41,0.52,1.44,-1.44,-1.13,-0.95,-0.92,-0.92
1246,0.69,1.60,0.52,1.43,-1.43,-1.13,-0.74,-0.91,-0.91
1258,0.58,1.49,0.52,1.42,-1.42,-1.13,-0.84,-0.91,-0.90
1271,0.46,1.36,0.51,1.41,-1.41,-1.13,-0.95,-0.90,-0.90
1283,0.46,1.36,0.50,1.40,-1.40,-1.13,-0.94,-0.90,-0.90
1296,0.46,1.36,0.49,1.39,-1.39,-1.13,-0.93,-0.90,-0.90
1309,0.46,1.36,0.48,1.39,-1.39,-1.14,-0.92,-0.90,-0.90
1322,0.46,1.37,0.48,1.38,-1.38,-1.14,-0.92,-0.91,-0.91
1335,0.46,1.38,0.47,1.39,-1.39,-1.15,-0.92,-0.92,-0.91
1349,0.46,1.39,0.46,1.39,-1.39,-1.15,-0.93,-0.92,-0.92
1362,0.46,1.40,0.45,1.39,-1.39,-1.16,-0.93,-0.94,-0.94
1376,0.46,1.41,0.44,1.39,-1.39,-1.17,-0.93,-0.95,-0.95
1390,0.46,1.42,0.42,1.38,-1.38,-1.17,-0.92,-0.96,-0.96
1404,0.46,1.44,0.39,1.36,-1.36,-1.18,-0.90,-0.97,-0.97
1418,0.39,1.38,0.36,1.35,-1.35,-1.19,-0.96,-0.99,-0.99
1432,0.23,1.23,0.33,1.33,-1.33,-1.21,-1.10,-1.00,-1.00
1446,0.23,1.25,0.30,1.31,-1.31,-1.22,-1.08,-1.01,-1.01
1461,0.23,1.26,0.27,1.29,-1.29,-1.23,-1.06,-1.03,-1.03
1475,0.23,1.27,0.24,1.28,-1.28,-1.25,-1.05,-1.03,-1.03
1490,0.23,1.27,0.22,1.26,-1.26,-1.26,-1.03,-1.04,-1.04
1505,0.23,1.28,0.20,1.25,-1.25,-1.28,-1.01,-1.05,-1.05
1520,0.23,1.28,0.18,1.22,-1.22,-1.30,-0.99,-1.05,-1.05
1535,0.23,1.28,0.15,1.20,-1.20,-1.31,-0.96,-1.04,-1.04
