frequency,raw
20.00,-2.50
20.20,-2.47
20.40,-2.43
20.61,-2.40
20.81,-2.36
21.02,-2.33
21.23,-2.28
21.44,-2.24
21.66,-2.19
21.87,-2.15
22.09,-2.10
22.31,-2.05
22.54,-2.00
22.76,-1.94
22.99,-1.89
23.22,-1.85
23.45,-1.80
23.69,-1.75
23.92,-1.71
24.16,-1.67
24.40,-1.63
24.65,-1.59
24.89,-1.56
25.14,-1.52
25.39,-1.48
25.65,-1.44
25.91,-1.40
26.16,-1.37
26.43,-1.35
26.69,-1.33
26.96,-1.30
27.23,-1.29
27.50,-1.28
27.77,-1.27
28.05,-1.26
28.33,-1.24
28.62,-1.23
28.90,-1.21
29.19,-1.20
29.48,-1.19
29.78,-1.17
30.08,-1.16
30.38,-1.14
30.68,-1.13
30.99,-1.12
31.30,-1.11
31.61,-1.09
31.93,-1.07
32.24,-1.05
32.57,-1.02
32.89,-0.99
33.22,-0.97
33.55,-0.95
33.89,-0.94
34.23,-0.91
34.57,-0.88
34.92,-0.85
35.27,-0.83
35.62,-0.81
35.97,-0.79
36.33,-0.76
36.70,-0.73
37.06,-0.70
37.43,-0.68
37.81,-0.66
38.19,-0.65
38.57,-0.65
38.95,-0.65
39.34,-0.63
39.74,-0.61
40.14,-0.60
40.54,-0.59
40.94,-0.58
41.35,-0.57
41.76,-0.56
42.18,-0.55
42.60,-0.53
43.03,-0.51
43.46,-0.49
43.90,-0.47
44.33,-0.46
44.78,-0.46
45.23,-0.45
45.68,-0.43
46.13,-0.42
46.60,-0.40
47.06,-0.39
47.53,-0.38
48.01,-0.37
48.49,-0.37
48.97,-0.37
49.46,-0.38
49.96,-0.39
50.46,-0.38
50.96,-0.37
51.47,-0.38
51.99,-0.39
52.51,-0.39
53.03,-0.39
53.56,-0.38
54.10,-0.37
54.64,-0.37
55.18,-0.37
55.74,-0.37
56.29,-0.37
56.86,-0.37
57.42,-0.37
58.00,-0.37
58.58,-0.34
59.16,-0.32
59.76,-0.32
60.35,-0.32
60.96,-0.32
61.57,-0.30
62.18,-0.28
62.80,-0.28
63.43,-0.28
64.07,-0.28
64.71,-0.28
65.35,-0.26
66.01,-0.23
66.67,-0.23
67.33,-0.23
68.01,-0.23
68.69,-0.22
69.37,-0.21
70.07,-0.19
70.77,-0.18
71.48,-0.18
72.19,-0.18
72.91,-0.18
73.64,-0.16
74.38,-0.15
75.12,-0.14
75.87,-0.14
76.63,-0.14
77.40,-0.14
78.17,-0.14
78.95,-0.14
79.74,-0.14
80.54,-0.14
81.35,-0.14
82.16,-0.14
82.98,-0.14
83.81,-0.14
84.65,-0.14
85.50,-0.14
86.35,-0.14
87.22,-0.14
88.09,-0.14
88.97,-0.14
89.86,-0.14
90.76,-0.14
91.66,-0.14
92.58,-0.14
93.51,-0.14
94.44,-0.14
95.39,-0.14
96.34,-0.14
97.30,-0.15
98.28,-0.16
99.26,-0.17
100.25,-0.18
101.25,-0.18
102.27,-0.19
103.29,-0.21
104.32,-0.23
105.37,-0.23
106.42,-0.23
107.48,-0.23
108.56,-0.21
109.64,-0.22
110.74,-0.23
111.85,-0.23
112.97,-0.23
114.10,-0.28
115.24,-0.28
116.39,-0.28
117.55,-0.28
118.73,-0.28
119.92,-0.32
121.12,-0.32
122.33,-0.32
123.55,-0.32
124.79,-0.32
126.03,-0.32
127.29,-0.35
128.57,-0.37
129.85,-0.37
131.15,-0.37
132.46,-0.41
133.79,-0.42
135.12,-0.42
136.48,-0.42
137.84,-0.42
139.22,-0.44
140.61,-0.46
142.02,-0.46
143.44,-0.46
144.87,-0.46
146.32,-0.49
147.78,-0.51
149.26,-0.51
150.75,-0.53
152.26,-0.55
153.78,-0.56
155.32,-0.56
156.88,-0.59
158.44,-0.60
160.03,-0.60
161.63,-0.60
163.24,-0.60
164.88,-0.64
166.53,-0.65
168.19,-0.65
169.87,-0.65
171.57,-0.67
173.29,-0.69
175.02,-0.70
176.77,-0.70
178.54,-0.72
180.32,-0.72
182.13,-0.73
183.95,-0.74
185.79,-0.74
187.65,-0.74
189.52,-0.75
191.42,-0.78
193.33,-0.79
195.27,-0.79
197.22,-0.82
199.19,-0.84
201.18,-0.84
203.19,-0.84
205.23,-0.86
207.28,-0.88
209.35,-0.88
211.44,-0.88
213.56,-0.90
215.69,-0.93
217.85,-0.93
220.03,-0.96
222.23,-0.98
224.45,-0.98
226.70,-0.98
228.96,-0.98
231.25,-1.01
233.57,-1.02
235.90,-1.02
238.26,-1.02
240.64,-1.06
243.05,-1.07
245.48,-1.07
247.93,-1.08
250.41,-1.11
252.92,-1.12
255.45,-1.12
258.00,-1.12
260.58,-1.12
263.19,-1.12
265.82,-1.16
268.48,-1.16
271.16,-1.16
273.87,-1.19
276.61,-1.21
279.38,-1.21
282.17,-1.21
284.99,-1.21
287.84,-1.21
290.72,-1.21
293.63,-1.25
296.57,-1.26
299.53,-1.26
302.53,-1.26
305.55,-1.26
308.61,-1.29
311.69,-1.30
314.81,-1.30
317.96,-1.30
321.14,-1.30
324.35,-1.32
327.59,-1.35
330.87,-1.35
334.18,-1.35
337.52,-1.35
340.90,-1.35
344.30,-1.35
347.75,-1.38
351.23,-1.40
354.74,-1.41
358.28,-1.42
361.87,-1.41
365.49,-1.40
369.14,-1.40
372.83,-1.40
376.56,-1.40
380.33,-1.42
384.13,-1.44
387.97,-1.44
391.85,-1.44
395.77,-1.44
399.73,-1.44
403.72,-1.44
407.76,-1.44
411.84,-1.44
415.96,-1.42
420.12,-1.40
424.32,-1.40
428.56,-1.40
432.85,-1.40
437.18,-1.40
441.55,-1.40
445.96,-1.40
450.42,-1.40
454.93,-1.40
459.48,-1.36
464.07,-1.35
468.71,-1.35
473.40,-1.35
478.13,-1.35
482.91,-1.33
487.74,-1.31
492.62,-1.30
497.55,-1.30
502.52,-1.27
507.55,-1.25
512.62,-1.22
517.75,-1.21
522.93,-1.21
528.16,-1.17
533.44,-1.16
538.77,-1.13
544.16,-1.11
549.60,-1.08
555.10,-1.05
560.65,-1.02
566.25,-1.02
571.92,-0.99
577.64,-0.98
583.41,-0.98
589.25,-0.98
595.14,-0.98
601.09,-0.98
607.10,-0.98
613.17,-0.98
619.30,-0.98
625.50,-0.98
631.75,-1.01
638.07,-1.01
644.45,-0.99
650.89,-0.98
657.40,-0.94
663.98,-0.93
670.62,-0.90
677.32,-0.88
684.10,-0.86
690.94,-0.83
697.85,-0.80
704.83,-0.77
711.87,-0.74
718.99,-0.71
726.18,-0.68
733.44,-0.65
740.78,-0.61
748.19,-0.58
755.67,-0.55
763.23,-0.52
770.86,-0.47
778.57,-0.46
786.35,-0.44
794.22,-0.42
802.16,-0.39
810.18,-0.36
818.28,-0.31
826.46,-0.28
834.73,-0.24
843.08,-0.22
851.51,-0.19
860.02,-0.15
868.62,-0.11
877.31,-0.09
886.08,-0.09
894.94,-0.07
903.89,-0.07
912.93,-0.07
922.06,-0.06
931.28,-0.04
940.59,-0.04
950.00,-0.04
959.50,-0.04
969.09,-0.02
978.78,-0.02
988.57,-0.02
998.46,-0.01
1008.44,0.00
1018.53,0.00
1028.71,0.00
1039.00,0.00
1049.39,0.03
1059.88,0.05
1070.48,0.07
1081.19,0.09
1092.00,0.13
1102.92,0.16
1113.95,0.19
1125.09,0.23
1136.34,0.27
1147.70,0.31
1159.18,0.37
1170.77,0.44
1182.48,0.50
1194.30,0.57
1206.25,0.63
1218.31,0.69
1230.49,0.76
1242.80,0.82
1255.22,0.89
1267.78,0.95
1280.45,1.00
1293.26,1.04
1306.19,1.07
1319.25,1.12
1332.45,1.17
1345.77,1.23
1359.23,1.28
1372.82,1.35
1386.55,1.43
1400.41,1.50
1414.42,1.59
1428.56,1.67
1442.85,1.74
1457.28,1.84
1471.85,1.94
1486.57,2.01
1501.43,2.10
1516.45,2.17
1531.61,2.23
1546.93,2.30
1562.40,2.35
1578.02,2.41
1593.80,2.46
1609.74,2.47
1625.84,2.47
1642.10,2.47
1658.52,2.44
1675.10,2.40
1691.85,2.37
1708.77,2.31
1725.86,2.26
1743.12,2.24
1760.55,2.24
1778.15,2.20
1795.94,2.19
1813.90,2.19
1832.03,2.19
1850.36,2.19
1868.86,2.16
1887.55,2.14
1906.42,2.11
1925.49,2.06
1944.74,2.03
1964.19,2.00
1983.83,1.97
2003.67,1.92
2023.71,1.91
2043.94,1.91
2064.38,1.91
2085.03,1.93
2105.88,1.99
2126.94,2.05
2148.20,2.12
2169.69,2.22
2191.38,2.34
2213.30,2.48
2235.43,2.62
2257.78,2.78
2280.36,2.95
2303.17,3.11
2326.20,3.27
2349.46,3.42
2372.95,3.57
2396.68,3.70
2420.65,3.80
2444.86,3.90
2469.31,3.97
2494.00,4.04
2518.94,4.12
2544.13,4.19
2569.57,4.27
2595.27,4.34
2621.22,4.40
2647.43,4.48
2673.90,4.55
2700.64,4.61
2727.65,4.68
2754.93,4.74
2782.48,4.79
2810.30,4.84
2838.40,4.87
2866.79,4.90
2895.46,4.90
2924.41,4.90
2953.65,4.89
2983.19,4.86
3013.02,4.81
3043.15,4.76
3073.58,4.70
3104.32,4.65
3135.36,4.61
3166.72,4.55
3198.38,4.47
3230.37,4.39
3262.67,4.32
3295.30,4.25
3328.25,4.17
3361.53,4.10
3395.15,4.02
3429.10,3.93
3463.39,3.83
3498.03,3.72
3533.01,3.62
3568.34,3.49
3604.02,3.33
3640.06,3.15
3676.46,2.93
3713.22,2.66
3750.36,2.37
3787.86,2.02
3825.74,1.63
3864.00,1.21
3902.64,0.76
3941.66,0.31
3981.08,-0.09
4020.89,-0.45
4061.10,-0.74
4101.71,-0.95
4142.73,-1.01
4184.15,-0.94
4226.00,-0.80
4268.26,-0.66
4310.94,-0.51
4354.05,-0.38
4397.59,-0.27
4441.56,-0.21
4485.98,-0.18
4530.84,-0.22
4576.15,-0.30
4621.91,-0.42
4668.13,-0.59
4714.81,-0.75
4761.96,-0.92
4809.58,-1.12
4857.67,-1.28
4906.25,-1.44
4955.31,-1.56
5004.87,-1.63
5054.91,-1.59
5105.46,-1.43
5156.52,-1.19
5208.08,-0.84
5260.16,-0.40
5312.77,0.13
5365.89,0.66
5419.55,1.26
5473.75,1.83
5528.49,2.32
5583.77,2.74
5639.61,3.06
5696.00,3.28
5752.96,3.38
5810.49,3.28
5868.60,3.06
5927.28,2.77
5986.56,2.42
6046.42,2.01
6106.89,1.57
6167.96,1.12
6229.64,0.66
6291.93,0.24
6354.85,-0.14
6418.40,-0.46
6482.58,-0.75
6547.41,-1.00
6612.88,-1.20
6679.01,-1.35
6745.80,-1.43
6813.26,-1.51
6881.39,-1.62
6950.21,-1.76
7019.71,-1.95
7089.91,-2.19
7160.81,-2.51
7232.41,-2.87
7304.74,-3.26
7377.79,-3.68
7451.56,-4.09
7526.08,-4.50
7601.34,-4.89
7677.35,-5.31
7754.13,-5.75
7831.67,-6.22
7909.98,-6.76
7989.08,-7.32
8068.98,-7.91
8149.67,-8.44
8231.16,-8.82
8313.47,-9.04
8396.61,-8.99
8480.57,-8.80
8565.38,-8.52
8651.03,-8.27
8737.54,-8.07
8824.92,-7.98
8913.17,-8.06
9002.30,-8.24
9092.32,-8.45
9183.25,-8.71
9275.08,-9.00
9367.83,-9.25
9461.51,-9.44
9556.12,-9.57
9651.68,-9.59
9748.20,-9.55
9845.68,-9.39
9944.14,-9.18
10043.58,-8.87
10144.02,-8.52
10245.46,-8.20
10347.91,-7.98
10451.39,-7.96
10555.91,-8.17
10661.46,-8.59
10768.08,-9.20
10875.76,-9.97
10984.52,-10.83
11094.36,-11.68
11205.31,-12.40
11317.36,-12.90
11430.53,-13.19
11544.84,-13.00
11660.29,-12.67
11776.89,-12.20
11894.66,-11.66
12013.60,-11.16
12133.74,-10.69
12255.08,-10.22
12377.63,-9.84
12501.41,-9.49
12626.42,-9.21
12752.68,-9.09
12880.21,-9.32
13009.01,-9.77
13139.10,-10.35
13270.49,-11.03
13403.20,-11.63
13537.23,-12.09
13672.60,-12.14
13809.33,-11.83
13947.42,-11.34
14086.90,-10.83
14227.77,-10.32
14370.04,-9.95
14513.74,-9.71
14658.88,-9.59
14805.47,-9.70
14953.52,-9.96
15103.06,-10.31
15254.09,-10.80
15406.63,-11.37
15560.70,-11.95
15716.30,-12.51
15873.47,-13.00
16032.20,-13.46
16192.52,-13.80
16354.45,-14.04
16517.99,-14.30
16683.17,-14.52
16850.01,-14.76
17018.51,-14.99
17188.69,-15.15
17360.58,-15.02
17534.18,-14.61
17709.53,-13.96
17886.62,-13.18
18065.49,-12.31
18246.14,-11.54
18428.60,-10.98
18612.89,-10.63
18799.02,-10.56
18987.01,-10.79
19176.88,-11.18
19368.65,-11.70
19562.33,-12.38
19757.96,-13.01
19955.54,-13.43
