frequency,raw,smoothed,error,error_smoothed,equalization,parametric_eq,fixed_band_eq,equalized_raw,equalized_smoothed,target
20.00,-2.24,-2.24,-7.46,-7.46,6.00,6.08,2.65,3.76,3.76,5.22
20.20,-2.32,-2.31,-7.54,-7.54,6.00,6.08,2.72,3.68,3.69,5.22
20.40,-2.39,-2.39,-7.61,-7.61,6.00,6.08,2.80,3.61,3.61,5.22
20.61,-2.45,-2.46,-7.67,-7.67,6.00,6.07,2.88,3.55,3.54,5.22
20.81,-2.52,-2.52,-7.74,-7.74,6.00,6.07,2.96,3.48,3.48,5.22
21.02,-2.58,-2.57,-7.79,-7.79,6.00,6.07,3.05,3.42,3.43,5.22
21.23,-2.63,-2.62,-7.84,-7.84,6.00,6.07,3.13,3.37,3.38,5.22
21.44,-2.67,-2.67,-7.88,-7.88,6.00,6.07,3.22,3.33,3.33,5.22
21.66,-2.71,-2.71,-7.92,-7.93,6.00,6.07,3.31,3.29,3.29,5.22
21.87,-2.76,-2.75,-7.97,-7.97,6.00,6.07,3.41,3.24,3.25,5.21
22.09,-2.80,-2.79,-8.01,-8.01,6.00,6.07,3.50,3.20,3.21,5.21
22.31,-2.83,-2.83,-8.04,-8.05,6.00,6.07,3.60,3.17,3.17,5.21
22.54,-2.87,-2.86,-8.08,-8.08,6.00,6.07,3.71,3.13,3.14,5.21
22.76,-2.90,-2.89,-8.11,-8.10,6.00,6.07,3.81,3.10,3.11,5.21
22.99,-2.92,-2.92,-8.13,-8.13,6.00,6.07,3.92,3.08,3.08,5.21
23.22,-2.95,-2.95,-8.16,-8.15,6.00,6.07,4.03,3.05,3.05,5.21
23.45,-2.98,-2.98,-8.18,-8.19,6.00,6.06,4.14,3.02,3.02,5.21
23.69,-3.02,-3.02,-8.22,-8.22,6.00,6.06,4.25,2.98,2.98,5.21
23.92,-3.07,-3.07,-8.27,-8.27,6.00,6.06,4.37,2.93,2.93,5.21
24.16,-3.12,-3.12,-8.32,-8.33,6.00,6.06,4.49,2.88,2.88,5.20
24.40,-3.19,-3.18,-8.39,-8.39,6.00,6.06,4.61,2.81,2.82,5.20
24.65,-3.25,-3.25,-8.45,-8.45,6.00,6.06,4.73,2.75,2.75,5.20
24.89,-3.31,-3.31,-8.51,-8.51,6.00,6.06,4.86,2.69,2.69,5.20
25.14,-3.36,-3.36,-8.56,-8.56,6.00,6.06,4.99,2.64,2.64,5.20
25.39,-3.41,-3.40,-8.61,-8.60,6.00,6.06,5.11,2.59,2.60,5.20
25.65,-3.45,-3.45,-8.64,-8.64,6.00,6.06,5.24,2.55,2.55,5.20
25.91,-3.49,-3.49,-8.68,-8.68,6.00,6.05,5.37,2.51,2.51,5.20
26.16,-3.53,-3.53,-8.72,-8.72,6.00,6.05,5.50,2.47,2.47,5.19
26.43,-3.57,-3.56,-8.76,-8.76,6.00,6.05,5.63,2.43,2.44,5.19
26.69,-3.61,-3.61,-8.80,-8.80,6.00,6.05,5.75,2.39,2.39,5.19
26.96,-3.66,-3.66,-8.84,-8.85,6.00,6.05,5.88,2.34,2.34,5.19
27.23,-3.72,-3.71,-8.90,-8.90,6.00,6.05,6.00,2.28,2.29,5.19
27.50,-3.78,-3.78,-8.96,-8.96,6.00,6.05,6.13,2.22,2.22,5.18
27.77,-3.85,-3.84,-9.03,-9.03,6.00,6.05,6.24,2.15,2.16,5.18
28.05,-3.91,-3.91,-9.09,-9.09,6.00,6.04,6.36,2.09,2.09,5.18
28.33,-3.98,-3.97,-9.16,-9.15,6.00,6.04,6.47,2.02,2.03,5.18
28.62,-4.04,-4.04,-9.21,-9.21,6.00,6.04,6.58,1.96,1.96,5.18
28.90,-4.10,-4.10,-9.27,-9.27,6.00,6.04,6.67,1.90,1.90,5.17
29.19,-4.16,-4.16,-9.33,-9.33,6.00,6.04,6.77,1.84,1.84,5.17
29.48,-4.22,-4.22,-9.39,-9.39,6.00,6.04,6.85,1.78,1.78,5.17
29.78,-4.28,-4.27,-9.44,-9.44,6.00,6.04,6.93,1.72,1.73,5.17
30.08,-4.33,-4.33,-9.49,-9.49,6.00,6.03,7.00,1.67,1.67,5.16
30.38,-4.39,-4.38,-9.55,-9.54,6.00,6.03,7.06,1.61,1.62,5.16
30.68,-4.44,-4.44,-9.60,-9.59,6.00,6.03,7.11,1.56,1.56,5.16
30.99,-4.49,-4.49,-9.64,-9.64,6.00,6.03,7.15,1.51,1.51,5.16
31.30,-4.54,-4.54,-9.69,-9.69,6.00,6.03,7.18,1.46,1.46,5.15
31.61,-4.59,-4.59,-9.74,-9.74,6.00,6.03,7.21,1.41,1.41,5.15
31.93,-4.65,-4.64,-9.79,-9.79,6.00,6.02,7.22,1.35,1.36,5.15
32.24,-4.70,-4.70,-9.84,-9.84,6.00,6.02,7.22,1.30,1.30,5.14
32.57,-4.76,-4.76,-9.90,-9.90,6.00,6.02,7.22,1.24,1.24,5.14
32.89,-4.82,-4.82,-9.95,-9.95,6.00,6.02,7.21,1.18,1.18,5.14
33.22,-4.88,-4.87,-10.01,-10.01,6.00,6.02,7.18,1.12,1.13,5.13
33.55,-4.93,-4.93,-10.06,-10.06,6.00,6.01,7.16,1.07,1.07,5.13
33.89,-4.98,-4.98,-10.10,-10.10,6.00,6.01,7.12,1.02,1.02,5.12
34.23,-5.03,-5.03,-10.15,-10.15,6.00,6.01,7.08,0.97,0.97,5.12
34.57,-5.08,-5.08,-10.19,-10.20,6.00,6.01,7.03,0.92,0.92,5.12
34.92,-5.15,-5.14,-10.26,-10.25,6.00,6.01,6.99,0.85,0.86,5.11
35.27,-5.21,-5.21,-10.31,-10.31,6.00,6.00,6.93,0.79,0.79,5.11
35.62,-5.27,-5.27,-10.37,-10.37,6.00,6.00,6.87,0.73,0.73,5.10
35.97,-5.33,-5.32,-10.42,-10.42,6.00,6.00,6.81,0.67,0.68,5.10
36.33,-5.37,-5.36,-10.46,-10.46,6.00,6.00,6.75,0.63,0.64,5.09
36.70,-5.40,-5.40,-10.48,-10.49,6.00,5.99,6.69,0.60,0.60,5.09
37.06,-5.44,-5.44,-10.52,-10.52,6.00,5.99,6.63,0.56,0.56,5.08
37.43,-5.48,-5.48,-10.55,-10.55,6.00,5.99,6.57,0.52,0.52,5.07
37.81,-5.53,-5.53,-10.59,-10.60,6.00,5.99,6.51,0.47,0.47,5.07
38.19,-5.59,-5.58,-10.65,-10.64,6.00,5.98,6.45,0.41,0.42,5.06
38.57,-5.64,-5.63,-10.69,-10.69,6.00,5.98,6.39,0.36,0.37,5.06
38.95,-5.68,-5.68,-10.73,-10.73,6.00,5.98,6.34,0.32,0.32,5.05
39.34,-5.73,-5.72,-10.77,-10.76,6.00,5.98,6.29,0.27,0.28,5.04
39.74,-5.77,-5.77,-10.80,-10.80,6.00,5.97,6.24,0.23,0.23,5.03
40.14,-5.81,-5.81,-10.83,-10.84,6.00,5.97,6.19,0.19,0.19,5.03
40.54,-5.86,-5.85,-10.87,-10.87,6.00,5.97,6.15,0.14,0.15,5.02
40.94,-5.89,-5.89,-10.90,-10.90,6.00,5.97,6.11,0.11,0.11,5.01
41.35,-5.93,-5.92,-10.93,-10.93,6.00,5.96,6.08,0.07,0.08,5.00
41.76,-5.96,-5.96,-10.95,-10.95,6.00,5.96,6.05,0.04,0.04,4.99
42.18,-6.00,-6.00,-10.98,-10.98,6.00,5.96,6.02,0.00,0.00,4.98
42.60,-6.04,-6.04,-11.01,-11.01,6.00,5.95,6.00,-0.04,-0.04,4.97
43.03,-6.09,-6.08,-11.05,-11.04,6.00,5.95,5.98,-0.09,-0.08,4.97
43.46,-6.11,-6.11,-11.06,-11.06,6.00,5.95,5.97,-0.11,-0.11,4.95
43.90,-6.13,-6.13,-11.07,-11.07,6.00,5.94,5.96,-0.13,-0.13,4.94
44.33,-6.15,-6.15,-11.08,-11.08,6.00,5.94,5.95,-0.15,-0.15,4.93
44.78,-6.17,-6.17,-11.09,-11.09,6.00,5.94,5.96,-0.17,-0.17,4.92
45.23,-6.20,-6.20,-11.11,-11.11,6.00,5.94,5.96,-0.20,-0.20,4.91
45.68,-6.23,-6.22,-11.12,-11.12,6.00,5.93,5.97,-0.23,-0.22,4.90
46.13,-6.24,-6.24,-11.12,-11.12,6.00,5.93,5.98,-0.24,-0.24,4.89
46.60,-6.25,-6.25,-11.12,-11.12,6.00,5.93,6.00,-0.25,-0.25,4.87
47.06,-6.27,-6.27,-11.13,-11.13,6.00,5.92,6.02,-0.27,-0.27,4.86
47.53,-6.30,-6.29,-11.14,-11.14,6.00,5.92,6.05,-0.30,-0.29,4.85
48.01,-6.32,-6.31,-11.15,-11.15,6.00,5.92,6.08,-0.32,-0.31,4.83
48.49,-6.33,-6.32,-11.14,-11.14,6.00,5.92,6.12,-0.33,-0.32,4.82
48.97,-6.33,-6.33,-11.13,-11.13,6.00,5.91,6.15,-0.33,-0.33,4.80
49.46,-6.33,-6.33,-11.11,-11.12,6.00,5.91,6.20,-0.33,-0.33,4.79
49.96,-6.35,-6.34,-11.12,-11.11,6.00,5.91,6.24,-0.35,-0.34,4.77
50.46,-6.36,-6.35,-11.11,-11.10,6.00,5.91,6.29,-0.36,-0.35,4.75
50.96,-6.36,-6.36,-11.09,-11.09,6.00,5.90,6.34,-0.36,-0.36,4.74
51.47,-6.35,-6.35,-11.06,-11.07,6.00,5.90,6.39,-0.35,-0.35,4.72
51.99,-6.35,-6.34,-11.04,-11.04,6.00,5.90,6.44,-0.35,-0.34,4.70
52.51,-6.34,-6.34,-11.02,-11.01,6.00,5.90,6.50,-0.34,-0.34,4.68
53.03,-6.33,-6.32,-10.99,-10.98,6.00,5.90,6.55,-0.33,-0.32,4.66
53.56,-6.31,-6.31,-10.94,-10.95,6.00,5.89,6.61,-0.31,-0.31,4.64
54.10,-6.30,-6.29,-10.91,-10.91,6.00,5.89,6.66,-0.30,-0.29,4.62
54.64,-6.29,-6.29,-10.88,-10.88,6.00,5.89,6.72,-0.29,-0.29,4.60
55.18,-6.28,-6.29,-10.85,-10.86,6.00,5.89,6.77,-0.28,-0.29,4.57
55.74,-6.30,-6.30,-10.85,-10.84,6.00,5.89,6.82,-0.30,-0.30,4.55
56.29,-6.30,-6.29,-10.82,-10.81,6.00,5.89,6.87,-0.30,-0.29,4.53
56.86,-6.27,-6.24,-10.77,-10.74,6.00,5.89,6.91,-0.27,-0.24,4.50
57.42,-6.19,-6.19,-10.66,-10.66,6.00,5.89,6.95,-0.19,-0.19,4.47
58.00,-6.10,-6.17,-10.54,-10.62,6.00,5.89,6.98,-0.10,-0.17,4.45
58.58,-6.17,-6.14,-10.59,-10.56,6.00,5.89,7.01,-0.17,-0.14,4.42
59.16,-6.15,-6.08,-10.55,-10.47,6.00,5.89,7.03,-0.15,-0.08,4.39
59.76,-5.97,-5.98,-10.33,-10.35,6.00,5.90,7.05,0.03,0.02,4.36
60.35,-5.86,-5.90,-10.19,-10.24,6.00,5.90,7.05,0.14,0.10,4.33
60.96,-5.86,-5.92,-10.16,-10.22,6.00,5.90,7.05,0.14,0.08,4.30
61.57,-6.04,-5.98,-10.31,-10.25,6.00,5.91,7.04,-0.04,0.02,4.27
62.18,-6.09,-6.01,-10.33,-10.25,6.00,5.91,7.02,-0.09,-0.01,4.24
62.80,-5.93,-5.97,-10.13,-10.17,6.00,5.91,7.00,0.07,0.03,4.21
63.43,-5.85,-5.87,-10.02,-10.04,6.00,5.92,6.96,0.15,0.13,4.17
64.07,-5.80,-5.80,-9.93,-9.94,6.00,5.93,6.92,0.20,0.20,4.14
64.71,-5.79,-5.78,-9.89,-9.88,6.00,5.93,6.86,0.21,0.22,4.10
65.35,-5.76,-5.75,-9.82,-9.82,6.00,5.94,6.80,0.24,0.25,4.06
66.01,-5.72,-5.71,-9.74,-9.74,6.00,5.95,6.73,0.28,0.29,4.03
66.67,-5.65,-5.65,-9.63,-9.64,6.00,5.96,6.66,0.35,0.35,3.99
67.33,-5.59,-5.59,-9.53,-9.54,6.00,5.97,6.57,0.41,0.41,3.95
68.01,-5.53,-5.54,-9.43,-9.44,6.00,5.98,6.48,0.47,0.46,3.91
68.69,-5.50,-5.49,-9.36,-9.35,6.00,5.99,6.39,0.50,0.51,3.86
69.37,-5.45,-5.44,-9.27,-9.26,6.00,6.00,6.29,0.55,0.56,3.82
70.07,-5.39,-5.39,-9.16,-9.17,6.00,6.01,6.18,0.61,0.61,3.78
70.77,-5.33,-5.33,-9.06,-9.06,6.00,6.02,6.07,0.67,0.67,3.73
71.48,-5.27,-5.27,-8.95,-8.95,6.00,6.04,5.96,0.73,0.73,3.69
72.19,-5.21,-5.21,-8.84,-8.85,6.00,6.05,5.85,0.79,0.79,3.64
72.91,-5.16,-5.16,-8.75,-8.75,6.00,6.06,5.73,0.84,0.84,3.59
73.64,-5.11,-5.10,-8.65,-8.64,6.00,6.07,5.62,0.89,0.90,3.54
74.38,-5.05,-5.04,-8.54,-8.53,6.00,6.09,5.50,0.95,0.96,3.49
75.12,-4.98,-4.98,-8.42,-8.42,6.00,6.10,5.38,1.02,1.02,3.44
75.87,-4.92,-4.91,-8.30,-8.30,6.00,6.11,5.26,1.08,1.09,3.39
76.63,-4.85,-4.85,-8.18,-8.18,6.00,6.12,5.15,1.15,1.15,3.33
77.40,-4.78,-4.78,-8.06,-8.06,6.00,6.13,5.03,1.22,1.22,3.28
78.17,-4.72,-4.72,-7.94,-7.94,6.00,6.14,4.92,1.28,1.28,3.22
78.95,-4.66,-4.65,-7.82,-7.82,6.00,6.14,4.80,1.34,1.35,3.17
79.74,-4.59,-4.59,-7.70,-7.70,6.00,6.14,4.69,1.41,1.41,3.11
80.54,-4.52,-4.52,-7.57,-7.57,6.00,6.14,4.58,1.48,1.48,3.05
81.35,-4.45,-4.45,-7.44,-7.44,6.00,6.14,4.48,1.55,1.55,2.99
82.16,-4.38,-4.38,-7.31,-7.31,6.00,6.13,4.37,1.62,1.62,2.93
82.98,-4.32,-4.31,-7.19,-7.18,6.00,6.11,4.27,1.68,1.69,2.87
83.81,-4.25,-4.25,-7.06,-7.06,6.00,6.09,4.17,1.75,1.75,2.81
84.65,-4.18,-4.18,-6.92,-6.92,6.00,6.07,4.08,1.83,1.83,2.75
85.50,-4.11,-4.11,-6.79,-6.79,6.01,6.04,3.98,1.91,1.91,2.68
86.35,-4.04,-4.04,-6.66,-6.66,6.02,6.00,3.89,1.99,1.99,2.62
87.22,-3.97,-3.97,-6.52,-6.52,6.03,5.95,3.81,2.06,2.06,2.55
88.09,-3.90,-3.89,-6.38,-6.38,6.02,5.90,3.72,2.12,2.12,2.49
88.97,-3.83,-3.82,-6.25,-6.25,6.00,5.84,3.64,2.17,2.17,2.42
89.86,-3.75,-3.75,-6.10,-6.11,5.95,5.78,3.56,2.21,2.20,2.35
90.76,-3.69,-3.68,-5.97,-5.97,5.89,5.70,3.48,2.20,2.20,2.29
91.66,-3.62,-3.61,-5.83,-5.83,5.80,5.62,3.41,2.19,2.19,2.22
92.58,-3.55,-3.54,-5.69,-5.69,5.70,5.53,3.34,2.15,2.15,2.15
93.51,-3.47,-3.47,-5.54,-5.55,5.57,5.43,3.27,2.10,2.10,2.08
94.44,-3.40,-3.39,-5.40,-5.40,5.43,5.32,3.20,2.03,2.03,2.01
95.39,-3.32,-3.32,-5.25,-5.26,5.28,5.21,3.14,1.96,1.96,1.94
96.34,-3.25,-3.24,-5.11,-5.11,5.12,5.09,3.08,1.87,1.87,1.87
97.30,-3.17,-3.17,-4.96,-4.96,4.96,4.97,3.02,1.80,1.80,1.79
98.28,-3.10,-3.09,-4.82,-4.82,4.82,4.83,2.96,1.72,1.72,1.72
99.26,-3.02,-3.02,-4.67,-4.67,4.67,4.70,2.91,1.65,1.65,1.65
100.25,-2.95,-2.94,-4.52,-4.52,4.52,4.55,2.86,1.57,1.58,1.58
101.25,-2.87,-2.86,-4.37,-4.37,4.37,4.41,2.80,1.51,1.51,1.51
102.27,-2.79,-2.79,-4.22,-4.22,4.22,4.26,2.75,1.44,1.44,1.43
103.29,-2.71,-2.71,-4.07,-4.07,4.08,4.11,2.71,1.37,1.36,1.36
104.32,-2.65,-2.64,-3.93,-3.93,3.93,3.95,2.66,1.28,1.29,1.29
105.37,-2.58,-2.57,-3.79,-3.78,3.78,3.80,2.61,1.21,1.21,1.21
106.42,-2.50,-2.50,-3.64,-3.64,3.64,3.64,2.57,1.14,1.14,1.14
107.48,-2.42,-2.42,-3.48,-3.49,3.49,3.48,2.52,1.07,1.07,1.07
108.56,-2.36,-2.35,-3.35,-3.34,3.34,3.32,2.48,0.99,0.99,0.99
109.64,-2.28,-2.27,-3.20,-3.20,3.20,3.16,2.43,0.92,0.92,0.92
110.74,-2.20,-2.20,-3.05,-3.05,3.05,3.00,2.39,0.86,0.85,0.85
111.85,-2.12,-2.12,-2.89,-2.90,2.90,2.84,2.34,0.79,0.78,0.78
112.97,-2.05,-2.04,-2.75,-2.75,2.75,2.69,2.30,0.70,0.71,0.71
114.10,-1.97,-1.96,-2.60,-2.59,2.59,2.53,2.25,0.62,0.63,0.63
115.24,-1.87,-1.88,-2.43,-2.45,2.42,2.37,2.20,0.56,0.54,0.56
116.39,-1.80,-1.81,-2.29,-2.30,2.26,2.22,2.15,0.47,0.45,0.49
117.55,-1.75,-1.71,-2.17,-2.13,2.11,2.07,2.10,0.36,0.40,0.42
118.73,-1.61,-1.57,-1.96,-1.92,1.96,1.91,2.05,0.35,0.39,0.35
119.92,-1.41,-1.47,-1.69,-1.75,1.81,1.76,2.00,0.40,0.34,0.28
121.12,-1.36,-1.41,-1.57,-1.62,1.67,1.62,1.94,0.31,0.26,0.21
122.33,-1.46,-1.37,-1.60,-1.52,1.52,1.47,1.88,0.07,0.15,0.14
123.55,-1.36,-1.35,-1.43,-1.43,1.39,1.32,1.82,0.03,0.04,0.08
124.79,-1.26,-1.29,-1.27,-1.30,1.25,1.18,1.76,-0.00,-0.03,0.01
126.03,-1.20,-1.19,-1.14,-1.13,1.12,1.04,1.70,-0.07,-0.06,-0.06
127.29,-1.12,-1.11,-0.99,-0.99,0.99,0.90,1.63,-0.12,-0.12,-0.12
128.57,-1.04,-1.04,-0.85,-0.85,0.86,0.77,1.56,-0.18,-0.18,-0.19
129.85,-0.96,-0.96,-0.71,-0.71,0.72,0.63,1.48,-0.24,-0.24,-0.25
131.15,-0.89,-0.88,-0.57,-0.57,0.57,0.50,1.41,-0.31,-0.31,-0.31
132.46,-0.81,-0.81,-0.43,-0.43,0.43,0.37,1.33,-0.37,-0.38,-0.38
133.79,-0.74,-0.73,-0.30,-0.30,0.29,0.24,1.25,-0.44,-0.44,-0.44
135.12,-0.66,-0.66,-0.16,-0.16,0.16,0.11,1.17,-0.50,-0.50,-0.50
136.48,-0.58,-0.58,-0.02,-0.02,0.03,-0.01,1.08,-0.55,-0.56,-0.56
137.84,-0.51,-0.51,0.11,0.11,-0.11,-0.14,0.99,-0.61,-0.61,-0.61
139.22,-0.44,-0.43,0.24,0.24,-0.24,-0.26,0.91,-0.68,-0.67,-0.67
140.61,-0.36,-0.36,0.37,0.37,-0.37,-0.38,0.81,-0.73,-0.73,-0.73
142.02,-0.29,-0.29,0.50,0.50,-0.50,-0.49,0.72,-0.79,-0.79,-0.78
143.44,-0.22,-0.21,0.62,0.63,-0.63,-0.61,0.62,-0.84,-0.84,-0.84
144.87,-0.14,-0.14,0.76,0.75,-0.75,-0.72,0.53,-0.89,-0.89,-0.89
146.32,-0.07,-0.07,0.88,0.88,-0.87,-0.84,0.43,-0.94,-0.94,-0.95
147.78,0.00,0.00,1.00,1.00,-1.00,-0.95,0.33,-0.99,-0.99,-1.00
149.26,0.06,0.07,1.11,1.12,-1.12,-1.06,0.22,-1.05,-1.05,-1.05
150.75,0.13,0.14,1.23,1.23,-1.23,-1.17,0.12,-1.10,-1.10,-1.10
152.26,0.20,0.20,1.35,1.35,-1.35,-1.27,0.01,-1.15,-1.15,-1.15
153.78,0.27,0.27,1.47,1.46,-1.47,-1.38,-0.09,-1.19,-1.20,-1.19
155.32,0.33,0.34,1.57,1.58,-1.58,-1.48,-0.20,-1.25,-1.24,-1.24
156.88,0.41,0.41,1.70,1.70,-1.70,-1.58,-0.31,-1.28,-1.28,-1.29
158.44,0.48,0.48,1.81,1.81,-1.81,-1.68,-0.42,-1.32,-1.33,-1.33
160.03,0.55,0.55,1.93,1.92,-1.92,-1.78,-0.53,-1.36,-1.37,-1.37
161.63,0.60,0.61,2.03,2.03,-2.03,-1.87,-0.64,-1.42,-1.42,-1.43
163.24,0.66,0.67,2.13,2.13,-2.13,-1.97,-0.76,-1.47,-1.47,-1.47
164.88,0.72,0.72,2.23,2.23,-2.24,-2.06,-0.87,-1.51,-1.51,-1.51
166.53,0.78,0.79,2.33,2.33,-2.34,-2.16,-0.99,-1.55,-1.55,-1.55
168.19,0.84,0.85,2.43,2.43,-2.43,-2.25,-1.11,-1.59,-1.59,-1.58
169.87,0.91,0.91,2.54,2.53,-2.53,-2.34,-1.23,-1.62,-1.62,-1.62
171.57,0.96,0.97,2.62,2.63,-2.62,-2.43,-1.35,-1.66,-1.66,-1.66
173.29,1.02,1.02,2.72,2.72,-2.71,-2.51,-1.47,-1.69,-1.69,-1.69
175.02,1.07,1.07,2.80,2.80,-2.80,-2.60,-1.59,-1.73,-1.73,-1.73
176.77,1.12,1.13,2.89,2.89,-2.89,-2.68,-1.72,-1.76,-1.76,-1.76
178.54,1.17,1.17,2.97,2.97,-2.97,-2.77,-1.84,-1.79,-1.79,-1.79
180.32,1.22,1.22,3.05,3.05,-3.05,-2.85,-1.97,-1.82,-1.83,-1.83
182.13,1.26,1.26,3.12,3.12,-3.12,-2.93,-2.10,-1.86,-1.86,-1.86
183.95,1.30,1.31,3.19,3.20,-3.20,-3.01,-2.23,-1.90,-1.89,-1.89
185.79,1.35,1.35,3.27,3.27,-3.27,-3.09,-2.36,-1.92,-1.92,-1.92
187.65,1.40,1.40,3.35,3.34,-3.34,-3.16,-2.49,-1.94,-1.94,-1.94
189.52,1.44,1.45,3.42,3.42,-3.41,-3.24,-2.62,-1.97,-1.97,-1.97
191.42,1.48,1.49,3.48,3.48,-3.48,-3.31,-2.76,-2.00,-1.99,-2.00
193.33,1.52,1.52,3.55,3.55,-3.54,-3.39,-2.90,-2.02,-2.02,-2.02
195.27,1.55,1.55,3.60,3.60,-3.60,-3.46,-3.03,-2.05,-2.05,-2.05
197.22,1.58,1.59,3.66,3.66,-3.66,-3.53,-3.17,-2.08,-2.08,-2.07
199.19,1.61,1.62,3.71,3.71,-3.72,-3.60,-3.31,-2.10,-2.10,-2.10
201.18,1.65,1.65,3.77,3.77,-3.77,-3.67,-3.45,-2.11,-2.12,-2.12
203.19,1.67,1.68,3.82,3.82,-3.82,-3.73,-3.59,-2.14,-2.14,-2.14
205.23,1.70,1.70,3.87,3.86,-3.87,-3.80,-3.72,-2.16,-2.17,-2.16
207.28,1.72,1.72,3.91,3.91,-3.91,-3.86,-3.86,-2.19,-2.19,-2.19
209.35,1.74,1.75,3.95,3.96,-3.96,-3.93,-4.00,-2.21,-2.21,-2.21
211.44,1.78,1.78,4.01,4.00,-4.00,-3.99,-4.13,-2.22,-2.22,-2.22
213.56,1.80,1.80,4.05,4.04,-4.04,-4.05,-4.27,-2.24,-2.24,-2.24
215.69,1.82,1.82,4.09,4.08,-4.08,-4.11,-4.40,-2.26,-2.26,-2.26
217.85,1.83,1.84,4.11,4.12,-4.12,-4.16,-4.53,-2.29,-2.28,-2.28
220.03,1.86,1.86,4.16,4.16,-4.16,-4.22,-4.66,-2.30,-2.30,-2.30
222.23,1.88,1.89,4.20,4.20,-4.20,-4.27,-4.78,-2.31,-2.31,-2.31
224.45,1.91,1.91,4.24,4.24,-4.23,-4.33,-4.90,-2.32,-2.32,-2.33
226.70,1.92,1.93,4.27,4.27,-4.27,-4.38,-5.01,-2.34,-2.34,-2.34
228.96,1.94,1.94,4.30,4.30,-4.30,-4.43,-5.12,-2.36,-2.36,-2.36
231.25,1.95,1.95,4.33,4.32,-4.34,-4.48,-5.21,-2.38,-2.39,-2.37
233.57,1.96,1.96,4.35,4.36,-4.37,-4.53,-5.31,-2.41,-2.40,-2.39
235.90,1.97,1.99,4.39,4.40,-4.40,-4.57,-5.39,-2.42,-2.40,-2.41
238.26,2.02,2.01,4.45,4.44,-4.42,-4.62,-5.47,-2.40,-2.41,-2.42
240.64,2.05,2.03,4.49,4.46,-4.44,-4.66,-5.54,-2.39,-2.42,-2.44
243.05,2.00,2.03,4.45,4.47,-4.47,-4.70,-5.60,-2.46,-2.44,-2.45
245.48,2.01,2.01,4.47,4.48,-4.49,-4.74,-5.65,-2.47,-2.47,-2.46
247.93,2.01,2.01,4.49,4.49,-4.51,-4.78,-5.70,-2.50,-2.49,-2.47
250.41,2.03,2.03,4.52,4.52,-4.53,-4.82,-5.72,-2.50,-2.50,-2.48
252.92,2.05,2.05,4.55,4.55,-4.55,-4.85,-5.75,-2.50,-2.50,-2.49
255.45,2.07,2.07,4.58,4.58,-4.57,-4.89,-5.76,-2.50,-2.50,-2.50
258.00,2.09,2.09,4.61,4.60,-4.60,-4.92,-5.77,-2.50,-2.51,-2.51
260.58,2.10,2.10,4.63,4.63,-4.62,-4.95,-5.76,-2.52,-2.52,-2.52
263.19,2.11,2.12,4.65,4.65,-4.65,-4.98,-5.75,-2.53,-2.53,-2.53
265.82,2.13,2.13,4.68,4.67,-4.67,-5.00,-5.72,-2.54,-2.54,-2.54
268.48,2.14,2.14,4.69,4.69,-4.70,-5.03,-5.69,-2.55,-2.55,-2.55
271.16,2.15,2.16,4.71,4.72,-4.72,-5.05,-5.66,-2.56,-2.56,-2.56
273.87,2.17,2.17,4.74,4.74,-4.74,-5.08,-5.61,-2.56,-2.57,-2.57
276.61,2.18,2.19,4.76,4.76,-4.76,-5.10,-5.56,-2.57,-2.57,-2.57
279.38,2.20,2.20,4.78,4.78,-4.78,-5.12,-5.51,-2.57,-2.58,-2.58
282.17,2.21,2.22,4.80,4.80,-4.80,-5.13,-5.45,-2.58,-2.58,-2.59
284.99,2.23,2.23,4.82,4.82,-4.82,-5.15,-5.39,-2.58,-2.59,-2.58
287.84,2.24,2.25,4.83,4.83,-4.84,-5.16,-5.33,-2.59,-2.59,-2.58
290.72,2.26,2.26,4.85,4.85,-4.86,-5.18,-5.26,-2.59,-2.59,-2.59
293.63,2.28,2.29,4.88,4.88,-4.88,-5.19,-5.19,-2.60,-2.59,-2.59
296.57,2.31,2.31,4.90,4.90,-4.90,-5.20,-5.12,-2.59,-2.59,-2.59
299.53,2.34,2.34,4.93,4.92,-4.92,-5.21,-5.05,-2.58,-2.59,-2.59
302.53,2.35,2.36,4.95,4.95,-4.94,-5.21,-4.98,-2.59,-2.59,-2.59
305.55,2.37,2.38,4.96,4.97,-4.97,-5.22,-4.91,-2.59,-2.59,-2.59
308.61,2.40,2.40,5.00,4.99,-4.99,-5.22,-4.85,-2.59,-2.59,-2.59
311.69,2.42,2.42,5.01,5.01,-5.02,-5.22,-4.78,-2.59,-2.59,-2.59
314.81,2.44,2.44,5.04,5.03,-5.04,-5.23,-4.71,-2.59,-2.59,-2.59
317.96,2.46,2.47,5.05,5.06,-5.06,-5.23,-4.65,-2.59,-2.59,-2.59
321.14,2.49,2.49,5.08,5.08,-5.08,-5.22,-4.59,-2.58,-2.58,-2.59
324.35,2.52,2.52,5.11,5.10,-5.09,-5.22,-4.53,-2.57,-2.58,-2.58
327.59,2.53,2.53,5.11,5.12,-5.11,-5.22,-4.47,-2.58,-2.58,-2.58
330.87,2.54,2.55,5.13,5.13,-5.13,-5.21,-4.42,-2.58,-2.58,-2.58
334.18,2.55,2.56,5.13,5.14,-5.14,-5.21,-4.36,-2.59,-2.59,-2.58
337.52,2.57,2.57,5.15,5.15,-5.16,-5.20,-4.32,-2.59,-2.59,-2.58
340.90,2.59,2.59,5.17,5.17,-5.17,-5.19,-4.27,-2.58,-2.58,-2.57
344.30,2.61,2.62,5.18,5.19,-5.18,-5.18,-4.23,-2.57,-2.57,-2.57
347.75,2.64,2.64,5.20,5.20,-5.20,-5.17,-4.19,-2.55,-2.56,-2.56
351.23,2.65,2.65,5.22,5.21,-5.21,-5.16,-4.15,-2.55,-2.55,-2.56
354.74,2.66,2.67,5.21,5.22,-5.21,-5.15,-4.12,-2.55,-2.55,-2.55
358.28,2.67,2.67,5.22,5.22,-5.22,-5.14,-4.09,-2.55,-2.55,-2.55
361.87,2.67,2.67,5.22,5.22,-5.22,-5.13,-4.06,-2.55,-2.55,-2.54
365.49,2.67,2.68,5.21,5.22,-5.22,-5.12,-4.04,-2.55,-2.54,-2.54
369.14,2.68,2.68,5.22,5.21,-5.22,-5.11,-4.02,-2.53,-2.53,-2.54
372.83,2.68,2.68,5.20,5.21,-5.21,-5.10,-4.01,-2.52,-2.52,-2.52
376.56,2.68,2.68,5.21,5.20,-5.20,-5.08,-3.99,-2.51,-2.52,-2.52
380.33,2.66,2.67,5.18,5.19,-5.18,-5.07,-3.98,-2.52,-2.51,-2.52
384.13,2.65,2.66,5.17,5.17,-5.17,-5.06,-3.97,-2.51,-2.51,-2.52
387.97,2.64,2.64,5.15,5.15,-5.15,-5.05,-3.97,-2.51,-2.51,-2.51
391.85,2.62,2.62,5.12,5.12,-5.13,-5.03,-3.97,-2.51,-2.51,-2.49
395.77,2.60,2.61,5.10,5.10,-5.11,-5.02,-3.97,-2.51,-2.50,-2.49
399.73,2.59,2.59,5.08,5.08,-5.09,-5.01,-3.97,-2.49,-2.49,-2.49
403.72,2.58,2.58,5.06,5.06,-5.06,-4.99,-3.97,-2.48,-2.48,-2.48
407.76,2.56,2.56,5.04,5.04,-5.03,-4.97,-3.98,-2.47,-2.47,-2.48
411.84,2.53,2.54,5.01,5.01,-5.00,-4.95,-3.99,-2.46,-2.46,-2.47
415.96,2.50,2.51,4.97,4.97,-4.96,-4.92,-3.99,-2.46,-2.46,-2.46
420.12,2.47,2.46,4.94,4.93,-4.92,-4.90,-4.00,-2.45,-2.46,-2.46
424.32,2.41,2.42,4.87,4.87,-4.88,-4.86,-4.01,-2.46,-2.46,-2.46
428.56,2.36,2.37,4.81,4.82,-4.83,-4.83,-4.03,-2.46,-2.46,-2.45
432.85,2.32,2.32,4.76,4.77,-4.77,-4.78,-4.04,-2.45,-2.45,-2.44
437.18,2.28,2.28,4.72,4.72,-4.71,-4.73,-4.05,-2.43,-2.43,-2.44
441.55,2.24,2.24,4.68,4.68,-4.66,-4.68,-4.06,-2.41,-2.41,-2.43
445.96,2.20,2.20,4.63,4.62,-4.62,-4.62,-4.07,-2.41,-2.41,-2.42
450.42,2.16,2.16,4.57,4.57,-4.59,-4.56,-4.08,-2.43,-2.44,-2.40
454.93,2.11,2.12,4.51,4.52,-4.58,-4.49,-4.09,-2.47,-2.46,-2.40
459.48,2.09,2.08,4.48,4.47,-4.57,-4.42,-4.09,-2.47,-2.49,-2.39
464.07,2.07,2.09,4.46,4.48,-4.52,-4.35,-4.09,-2.45,-2.43,-2.39
468.71,2.07,2.14,4.45,4.52,-4.46,-4.28,-4.09,-2.38,-2.32,-2.38
473.40,2.21,2.17,4.58,4.54,-4.37,-4.20,-4.09,-2.15,-2.20,-2.37
478.13,2.13,2.06,4.50,4.43,-4.26,-4.12,-4.09,-2.12,-2.19,-2.36
