frequency,raw,error,smoothed,error_smoothed,equalization,parametric_eq,equalized_raw,equalized_smoothed,target
20.00,4.20,-1.59,4.19,-1.59,1.59,0.53,5.79,5.78,5.78
20.20,4.21,-1.58,4.20,-1.58,1.58,0.55,5.79,5.79,5.79
20.40,4.22,-1.57,4.21,-1.58,1.58,0.56,5.79,5.79,5.79
20.61,4.22,-1.57,4.22,-1.57,1.57,0.58,5.78,5.79,5.79
20.81,4.23,-1.57,4.23,-1.56,1.56,0.60,5.79,5.79,5.79
21.02,4.24,-1.56,4.24,-1.55,1.55,0.62,5.79,5.79,5.80
21.23,4.25,-1.55,4.25,-1.54,1.54,0.64,5.79,5.80,5.80
21.44,4.26,-1.54,4.26,-1.54,1.54,0.66,5.79,5.80,5.80
21.66,4.27,-1.54,4.27,-1.53,1.53,0.68,5.80,5.80,5.80
21.87,4.28,-1.53,4.28,-1.52,1.52,0.71,5.80,5.80,5.81
22.09,4.29,-1.52,4.29,-1.51,1.51,0.73,5.80,5.81,5.81
22.31,4.31,-1.50,4.30,-1.50,1.50,0.75,5.81,5.81,5.81
22.54,4.32,-1.49,4.31,-1.50,1.50,0.78,5.81,5.81,5.81
22.76,4.33,-1.49,4.32,-1.49,1.49,0.80,5.82,5.81,5.81
22.99,4.34,-1.48,4.33,-1.48,1.48,0.83,5.82,5.81,5.82
23.22,4.35,-1.47,4.34,-1.47,1.47,0.85,5.82,5.82,5.82
23.45,4.36,-1.46,4.35,-1.46,1.46,0.88,5.82,5.82,5.82
23.69,4.37,-1.45,4.36,-1.46,1.46,0.91,5.82,5.82,5.82
23.92,4.38,-1.45,4.37,-1.45,1.45,0.93,5.83,5.82,5.82
24.16,4.38,-1.45,4.38,-1.44,1.44,0.96,5.82,5.83,5.83
24.40,4.39,-1.44,4.39,-1.44,1.44,0.99,5.82,5.83,5.83
24.65,4.40,-1.43,4.40,-1.43,1.43,1.02,5.83,5.83,5.83
24.89,4.41,-1.43,4.41,-1.42,1.42,1.05,5.83,5.83,5.83
25.14,4.42,-1.42,4.42,-1.42,1.42,1.08,5.83,5.83,5.84
25.39,4.43,-1.41,4.43,-1.41,1.41,1.11,5.84,5.84,5.84
25.65,4.44,-1.40,4.44,-1.40,1.40,1.14,5.84,5.84,5.84
25.91,4.45,-1.40,4.44,-1.40,1.40,1.17,5.84,5.84,5.84
26.16,4.46,-1.39,4.45,-1.39,1.39,1.20,5.85,5.84,5.84
26.43,4.46,-1.39,4.46,-1.38,1.38,1.23,5.84,5.85,5.85
26.69,4.47,-1.38,4.47,-1.38,1.38,1.26,5.85,5.85,5.85
26.96,4.48,-1.37,4.48,-1.37,1.37,1.29,5.85,5.85,5.85
27.23,4.49,-1.36,4.48,-1.37,1.37,1.32,5.85,5.85,5.85
27.50,4.50,-1.36,4.49,-1.36,1.36,1.34,5.86,5.85,5.85
27.77,4.50,-1.36,4.50,-1.35,1.35,1.37,5.85,5.85,5.85
28.05,4.51,-1.35,4.51,-1.35,1.35,1.40,5.86,5.86,5.86
28.33,4.52,-1.34,4.51,-1.34,1.34,1.42,5.86,5.86,5.86
28.62,4.52,-1.34,4.52,-1.34,1.34,1.44,5.85,5.86,5.86
28.90,4.53,-1.33,4.53,-1.33,1.33,1.47,5.86,5.86,5.86
29.19,4.54,-1.32,4.53,-1.32,1.32,1.49,5.86,5.86,5.86
29.48,4.54,-1.32,4.54,-1.32,1.32,1.50,5.85,5.86,5.86
29.78,4.55,-1.31,4.55,-1.31,1.31,1.52,5.86,5.86,5.86
30.08,4.56,-1.31,4.56,-1.30,1.30,1.54,5.86,5.86,5.86
30.38,4.57,-1.30,4.56,-1.30,1.30,1.55,5.86,5.86,5.86
30.68,4.57,-1.30,4.57,-1.29,1.29,1.56,5.86,5.86,5.86
30.99,4.58,-1.29,4.58,-1.28,1.28,1.57,5.86,5.86,5.86
31.30,4.59,-1.28,4.59,-1.27,1.27,1.57,5.86,5.86,5.86
31.61,4.60,-1.26,4.60,-1.27,1.27,1.58,5.86,5.86,5.86
31.93,4.61,-1.25,4.60,-1.26,1.26,1.58,5.86,5.86,5.86
32.24,4.61,-1.25,4.61,-1.25,1.25,1.58,5.86,5.86,5.86
32.57,4.62,-1.24,4.62,-1.24,1.24,1.58,5.86,5.86,5.86
32.89,4.63,-1.23,4.62,-1.24,1.24,1.57,5.86,5.86,5.86
33.22,4.63,-1.23,4.63,-1.23,1.23,1.56,5.86,5.86,5.86
33.55,4.64,-1.22,4.63,-1.23,1.23,1.56,5.86,5.86,5.86
33.89,4.64,-1.22,4.63,-1.22,1.22,1.54,5.86,5.86,5.86
34.23,4.64,-1.22,4.64,-1.22,1.22,1.53,5.86,5.86,5.86
34.57,4.64,-1.22,4.64,-1.22,1.22,1.52,5.86,5.86,5.85
34.92,4.64,-1.22,4.64,-1.22,1.22,1.50,5.85,5.85,5.85
35.27,4.64,-1.21,4.63,-1.22,1.22,1.49,5.85,5.85,5.85
35.62,4.64,-1.21,4.63,-1.22,1.22,1.47,5.85,5.85,5.85
35.97,4.64,-1.21,4.63,-1.22,1.22,1.45,5.85,5.85,5.85
36.33,4.63,-1.22,4.63,-1.22,1.22,1.44,5.84,5.84,5.85
36.70,4.63,-1.22,4.63,-1.21,1.21,1.42,5.84,5.84,5.84
37.06,4.62,-1.22,4.62,-1.21,1.21,1.40,5.83,5.84,5.84
37.43,4.62,-1.22,4.62,-1.21,1.21,1.38,5.83,5.84,5.84
37.81,4.62,-1.22,4.62,-1.21,1.21,1.36,5.83,5.83,5.84
38.19,4.62,-1.22,4.62,-1.21,1.21,1.34,5.83,5.83,5.83
38.57,4.62,-1.21,4.62,-1.21,1.21,1.32,5.83,5.83,5.83
38.95,4.62,-1.21,4.62,-1.21,1.21,1.30,5.82,5.82,5.82
39.34,4.62,-1.20,4.62,-1.20,1.20,1.28,5.82,5.82,5.82
39.74,4.62,-1.20,4.62,-1.20,1.20,1.26,5.82,5.81,5.82
40.14,4.62,-1.19,4.62,-1.19,1.19,1.24,5.81,5.81,5.81
40.54,4.62,-1.19,4.62,-1.19,1.19,1.22,5.81,5.81,5.81
40.94,4.62,-1.18,4.62,-1.19,1.19,1.20,5.80,5.80,5.80
41.35,4.62,-1.18,4.62,-1.18,1.18,1.19,5.80,5.80,5.80
41.76,4.62,-1.18,4.62,-1.18,1.18,1.17,5.79,5.79,5.79
42.18,4.62,-1.17,4.62,-1.17,1.17,1.16,5.79,5.79,5.79
42.60,4.62,-1.17,4.62,-1.17,1.17,1.14,5.78,5.78,5.78
43.03,4.62,-1.16,4.62,-1.16,1.16,1.13,5.78,5.78,5.78
43.46,4.62,-1.15,4.62,-1.15,1.15,1.11,5.77,5.77,5.77
43.90,4.62,-1.15,4.62,-1.15,1.15,1.10,5.77,5.77,5.77
44.33,4.62,-1.14,4.62,-1.14,1.14,1.09,5.76,5.76,5.76
44.78,4.62,-1.14,4.62,-1.14,1.14,1.08,5.75,5.75,5.75
45.23,4.62,-1.13,4.62,-1.13,1.13,1.07,5.74,5.74,5.74
45.68,4.62,-1.12,4.62,-1.12,1.12,1.06,5.74,5.74,5.74
46.13,4.62,-1.11,4.62,-1.11,1.11,1.05,5.73,5.73,5.73
46.60,4.62,-1.10,4.62,-1.10,1.10,1.05,5.72,5.72,5.72
47.06,4.62,-1.09,4.62,-1.09,1.09,1.04,5.71,5.71,5.71
47.53,4.62,-1.08,4.62,-1.08,1.08,1.03,5.70,5.70,5.70
48.01,4.62,-1.07,4.62,-1.07,1.07,1.03,5.68,5.68,5.69
48.49,4.62,-1.06,4.62,-1.05,1.05,1.02,5.67,5.67,5.67
48.97,4.62,-1.05,4.62,-1.04,1.04,1.02,5.66,5.66,5.66
49.46,4.62,-1.03,4.62,-1.03,1.03,1.02,5.64,5.65,5.65
49.96,4.62,-1.02,4.62,-1.01,1.01,1.01,5.63,5.63,5.64
50.46,4.62,-1.01,4.63,-0.99,0.99,1.01,5.61,5.62,5.62
50.96,4.63,-0.98,4.63,-0.98,0.98,1.01,5.61,5.61,5.61
51.47,4.63,-0.97,4.63,-0.96,0.96,1.01,5.59,5.59,5.59
51.99,4.64,-0.94,4.63,-0.95,0.95,1.01,5.58,5.58,5.58
52.51,4.64,-0.93,4.63,-0.93,0.93,1.00,5.57,5.56,5.56
53.03,4.64,-0.91,4.63,-0.92,0.92,1.00,5.56,5.55,5.55
53.56,4.63,-0.91,4.63,-0.91,0.91,1.00,5.53,5.53,5.53
54.10,4.63,-0.89,4.62,-0.89,0.89,1.00,5.52,5.52,5.52
54.64,4.62,-0.88,4.62,-0.88,0.88,1.00,5.50,5.50,5.50
55.18,4.62,-0.87,4.61,-0.88,0.88,1.00,5.49,5.49,5.48
55.74,4.61,-0.86,4.60,-0.87,0.87,0.99,5.48,5.47,5.47
56.29,4.59,-0.86,4.59,-0.86,0.86,0.99,5.45,5.45,5.45
56.86,4.58,-0.86,4.58,-0.86,0.86,0.99,5.43,5.43,5.43
57.42,4.57,-0.85,4.56,-0.85,0.85,0.98,5.42,5.42,5.42
58.00,4.55,-0.85,4.54,-0.85,0.85,0.98,5.40,5.40,5.40
58.58,4.53,-0.85,4.53,-0.85,0.85,0.97,5.38,5.38,5.38
59.16,4.51,-0.85,4.51,-0.85,0.85,0.96,5.36,5.36,5.36
59.76,4.49,-0.85,4.49,-0.85,0.85,0.95,5.34,5.34,5.34
60.35,4.47,-0.85,4.47,-0.85,0.85,0.94,5.32,5.32,5.32
60.96,4.45,-0.85,4.45,-0.85,0.85,0.93,5.30,5.30,5.30
61.57,4.43,-0.85,4.42,-0.85,0.85,0.92,5.28,5.27,5.27
62.18,4.40,-0.85,4.40,-0.85,0.85,0.90,5.24,5.25,5.25
62.80,4.39,-0.84,4.38,-0.84,0.84,0.89,5.23,5.23,5.23
63.43,4.37,-0.84,4.36,-0.84,0.84,0.87,5.20,5.20,5.20
64.07,4.35,-0.83,4.34,-0.83,0.83,0.85,5.18,5.17,5.18
64.71,4.33,-0.83,4.33,-0.82,0.82,0.83,5.15,5.15,5.15
65.35,4.31,-0.82,4.31,-0.81,0.81,0.81,5.11,5.12,5.13
66.01,4.30,-0.80,4.30,-0.79,0.79,0.79,5.09,5.09,5.10
66.67,4.29,-0.78,4.29,-0.78,0.78,0.76,5.06,5.07,5.07
67.33,4.28,-0.77,4.28,-0.75,0.75,0.73,5.03,5.04,5.04
68.01,4.27,-0.75,4.28,-0.73,0.73,0.71,5.00,5.01,5.01
68.69,4.27,-0.72,4.27,-0.71,0.71,0.68,4.97,4.98,4.98
69.37,4.27,-0.69,4.27,-0.68,0.68,0.65,4.94,4.95,4.95
70.07,4.27,-0.65,4.27,-0.65,0.65,0.62,4.91,4.92,4.92
70.77,4.28,-0.61,4.27,-0.61,0.61,0.59,4.89,4.89,4.89
71.48,4.28,-0.58,4.27,-0.58,0.58,0.56,4.86,4.85,4.86
72.19,4.29,-0.54,4.28,-0.55,0.55,0.52,4.83,4.82,4.82
72.91,4.29,-0.50,4.28,-0.51,0.51,0.49,4.80,4.79,4.79
73.64,4.29,-0.47,4.28,-0.47,0.47,0.45,4.76,4.75,4.76
74.38,4.29,-0.43,4.28,-0.44,0.44,0.42,4.72,4.72,4.72
75.12,4.29,-0.40,4.29,-0.40,0.40,0.38,4.69,4.69,4.69
75.87,4.29,-0.36,4.29,-0.36,0.36,0.35,4.65,4.65,4.65
76.63,4.29,-0.33,4.29,-0.32,0.32,0.31,4.61,4.61,4.61
77.40,4.29,-0.29,4.29,-0.29,0.29,0.28,4.57,4.58,4.58
78.17,4.29,-0.25,4.29,-0.25,0.25,0.24,4.54,4.54,4.54
78.95,4.29,-0.21,4.29,-0.21,0.21,0.20,4.50,4.50,4.50
79.74,4.29,-0.18,4.29,-0.18,0.18,0.16,4.46,4.46,4.46
80.54,4.29,-0.14,4.29,-0.14,0.14,0.13,4.43,4.43,4.43
81.35,4.29,-0.10,4.29,-0.10,0.10,0.09,4.39,4.39,4.39
82.16,4.29,-0.06,4.29,-0.06,0.06,0.05,4.35,4.35,4.35
82.98,4.29,-0.02,4.29,-0.03,0.03,0.01,4.31,4.31,4.31
83.81,4.29,0.01,4.29,0.01,-0.01,-0.03,4.28,4.27,4.27
84.65,4.29,0.05,4.29,0.05,-0.05,-0.07,4.24,4.24,4.24
85.50,4.29,0.09,4.29,0.09,-0.09,-0.11,4.20,4.20,4.20
86.35,4.29,0.13,4.29,0.13,-0.13,-0.15,4.16,4.16,4.16
87.22,4.29,0.16,4.29,0.17,-0.17,-0.19,4.12,4.12,4.12
88.09,4.29,0.20,4.29,0.21,-0.21,-0.22,4.08,4.08,4.08
88.97,4.29,0.24,4.29,0.25,-0.25,-0.26,4.04,4.04,4.05
89.86,4.29,0.28,4.29,0.29,-0.29,-0.30,4.00,4.00,4.01
90.76,4.29,0.32,4.29,0.33,-0.33,-0.34,3.96,3.97,3.97
91.66,4.29,0.36,4.30,0.37,-0.37,-0.38,3.92,3.93,3.93
92.58,4.29,0.40,4.30,0.41,-0.41,-0.43,3.88,3.89,3.89
93.51,4.30,0.44,4.30,0.45,-0.45,-0.47,3.84,3.85,3.85
94.44,4.30,0.48,4.30,0.49,-0.49,-0.51,3.80,3.81,3.81
95.39,4.30,0.52,4.30,0.53,-0.53,-0.55,3.76,3.77,3.77
96.34,4.31,0.58,4.30,0.57,-0.57,-0.59,3.74,3.73,3.73
97.30,4.31,0.62,4.29,0.60,-0.60,-0.63,3.70,3.69,3.69
98.28,4.30,0.65,4.28,0.64,-0.64,-0.67,3.66,3.65,3.65
99.26,4.29,0.68,4.27,0.67,-0.67,-0.71,3.62,3.61,3.60
100.25,4.27,0.70,4.26,0.69,-0.69,-0.75,3.58,3.57,3.56
101.25,4.24,0.72,4.24,0.71,-0.71,-0.79,3.52,3.52,3.52
102.27,4.22,0.74,4.22,0.73,-0.73,-0.83,3.48,3.48,3.48
103.29,4.20,0.76,4.19,0.75,-0.75,-0.87,3.44,3.44,3.43
104.32,4.18,0.78,4.16,0.77,-0.77,-0.91,3.41,3.39,3.39
105.37,4.15,0.80,4.13,0.79,-0.79,-0.95,3.36,3.35,3.35
106.42,4.11,0.80,4.10,0.80,-0.80,-0.99,3.31,3.30,3.31
107.48,4.08,0.81,4.07,0.82,-0.82,-1.03,3.26,3.25,3.26
108.56,4.04,0.82,4.05,0.83,-0.83,-1.07,3.20,3.21,3.22
109.64,4.01,0.83,4.02,0.86,-0.86,-1.11,3.15,3.17,3.18
110.74,3.98,0.84,4.00,0.88,-0.88,-1.14,3.10,3.12,3.13
111.85,3.96,0.87,3.98,0.90,-0.90,-1.18,3.05,3.08,3.09
112.97,3.95,0.90,3.97,0.93,-0.93,-1.21,3.01,3.04,3.05
114.10,3.94,0.93,3.96,0.97,-0.97,-1.24,2.97,2.99,3.00
115.24,3.95,0.99,3.96,1.01,-1.01,-1.27,2.94,2.95,2.96
116.39,3.96,1.04,3.95,1.05,-1.05,-1.30,2.91,2.91,2.92
117.55,3.96,1.08,3.96,1.09,-1.09,-1.33,2.87,2.87,2.88
118.73,3.97,1.13,3.96,1.13,-1.13,-1.36,2.83,2.83,2.83
119.92,3.97,1.17,3.97,1.18,-1.18,-1.38,2.79,2.79,2.79
121.12,3.97,1.22,3.97,1.22,-1.22,-1.40,2.75,2.75,2.75
122.33,3.98,1.27,3.97,1.26,-1.26,-1.42,2.72,2.71,2.71
123.55,3.99,1.32,3.98,1.30,-1.30,-1.44,2.69,2.68,2.67
124.79,3.99,1.35,3.97,1.33,-1.33,-1.46,2.65,2.64,2.63
126.03,3.98,1.38,3.96,1.36,-1.36,-1.47,2.61,2.60,2.60
127.29,3.97,1.41,3.95,1.39,-1.39,-1.48,2.58,2.56,2.56
128.57,3.96,1.43,3.93,1.41,-1.41,-1.49,2.55,2.53,2.52
129.85,3.93,1.44,3.91,1.42,-1.42,-1.50,2.50,2.49,2.49
131.15,3.90,1.44,3.89,1.43,-1.43,-1.51,2.46,2.46,2.45
132.46,3.88,1.46,3.86,1.44,-1.44,-1.51,2.44,2.42,2.42
133.79,3.84,1.45,3.83,1.45,-1.45,-1.51,2.39,2.39,2.39
135.12,3.80,1.44,3.80,1.45,-1.45,-1.52,2.35,2.35,2.36
136.48,3.77,1.44,3.77,1.45,-1.45,-1.52,2.32,2.32,2.33
137.84,3.73,1.43,3.74,1.45,-1.45,-1.51,2.28,2.29,2.30
139.22,3.71,1.44,3.71,1.45,-1.45,-1.51,2.25,2.26,2.27
140.61,3.68,1.44,3.69,1.46,-1.46,-1.51,2.22,2.23,2.24
142.02,3.65,1.43,3.67,1.46,-1.46,-1.51,2.18,2.20,2.21
143.44,3.64,1.45,3.65,1.47,-1.47,-1.50,2.16,2.18,2.19
144.87,3.62,1.46,3.64,1.49,-1.49,-1.50,2.13,2.15,2.16
146.32,3.62,1.48,3.63,1.50,-1.50,-1.49,2.11,2.13,2.14
147.78,3.62,1.51,3.63,1.52,-1.52,-1.49,2.09,2.10,2.11
149.26,3.63,1.54,3.62,1.54,-1.54,-1.48,2.08,2.08,2.09
150.75,3.64,1.58,3.62,1.57,-1.57,-1.48,2.07,2.06,2.06
152.26,3.64,1.60,3.62,1.59,-1.59,-1.47,2.05,2.03,2.04
153.78,3.64,1.62,3.63,1.62,-1.62,-1.47,2.02,2.01,2.01
155.32,3.64,1.65,3.63,1.64,-1.64,-1.46,1.99,1.99,1.99
156.88,3.64,1.68,3.63,1.67,-1.67,-1.46,1.97,1.96,1.96
158.44,3.64,1.70,3.63,1.70,-1.70,-1.46,1.94,1.94,1.94
160.03,3.64,1.73,3.64,1.72,-1.72,-1.45,1.91,1.91,1.91
161.63,3.64,1.75,3.64,1.75,-1.75,-1.45,1.89,1.89,1.89
163.24,3.64,1.78,3.64,1.78,-1.78,-1.45,1.86,1.86,1.86
164.88,3.64,1.80,3.64,1.80,-1.80,-1.45,1.83,1.83,1.84
166.53,3.64,1.82,3.64,1.83,-1.83,-1.46,1.81,1.81,1.81
168.19,3.64,1.85,3.64,1.85,-1.85,-1.46,1.78,1.79,1.79
169.87,3.64,1.87,3.64,1.88,-1.88,-1.46,1.76,1.76,1.77
171.57,3.64,1.89,3.64,1.90,-1.90,-1.47,1.74,1.74,1.75
173.29,3.64,1.91,3.65,1.92,-1.92,-1.48,1.71,1.72,1.72
175.02,3.64,1.93,3.65,1.95,-1.95,-1.48,1.69,1.70,1.71
176.77,3.65,1.96,3.65,1.97,-1.97,-1.49,1.68,1.69,1.69
178.54,3.65,1.98,3.65,1.98,-1.98,-1.50,1.66,1.67,1.67
180.32,3.66,2.00,3.65,2.00,-2.00,-1.51,1.66,1.66,1.66
182.13,3.66,2.02,3.65,2.01,-2.01,-1.53,1.65,1.64,1.64
183.95,3.66,2.03,3.64,2.01,-2.01,-1.54,1.64,1.63,1.63
185.79,3.65,2.03,3.63,2.02,-2.02,-1.56,1.63,1.62,1.62
187.65,3.64,2.03,3.62,2.01,-2.01,-1.57,1.62,1.61,1.60
189.52,3.62,2.02,3.60,2.01,-2.01,-1.59,1.61,1.60,1.59
191.42,3.60,2.01,3.58,2.00,-2.00,-1.61,1.60,1.59,1.58
193.33,3.57,1.99,3.56,1.98,-1.98,-1.63,1.58,1.57,1.57
195.27,3.54,1.97,3.53,1.97,-1.97,-1.65,1.57,1.56,1.56
197.22,3.51,1.95,3.50,1.95,-1.95,-1.67,1.55,1.55,1.55
199.19,3.48,1.93,3.47,1.94,-1.94,-1.69,1.54,1.53,1.55
201.18,3.44,1.90,3.44,1.92,-1.92,-1.71,1.52,1.52,1.54
203.19,3.41,1.88,3.42,1.90,-1.90,-1.73,1.50,1.51,1.53
205.23,3.38,1.86,3.39,1.89,-1.89,-1.75,1.49,1.50,1.52
207.28,3.36,1.85,3.37,1.88,-1.88,-1.78,1.48,1.49,1.51
209.35,3.34,1.84,3.36,1.88,-1.88,-1.80,1.46,1.48,1.50
211.44,3.32,1.83,3.35,1.87,-1.87,-1.82,1.45,1.47,1.49
213.56,3.30,1.82,3.34,1.87,-1.87,-1.85,1.43,1.47,1.48
215.69,3.31,1.84,3.33,1.87,-1.87,-1.87,1.44,1.46,1.47
217.85,3.32,1.86,3.32,1.87,-1.87,-1.89,1.45,1.45,1.46
220.03,3.33,1.88,3.31,1.87,-1.87,-1.91,1.46,1.44,1.45
222.23,3.34,1.90,3.31,1.87,-1.87,-1.93,1.47,1.44,1.44
224.45,3.33,1.89,3.30,1.86,-1.86,-1.95,1.46,1.43,1.43
226.70,3.32,1.89,3.28,1.86,-1.86,-1.96,1.46,1.43,1.42
228.96,3.29,1.87,3.27,1.85,-1.85,-1.98,1.44,1.42,1.42
231.25,3.27,1.86,3.25,1.84,-1.84,-1.99,1.43,1.41,1.41
233.57,3.25,1.84,3.23,1.82,-1.82,-2.00,1.42,1.40,1.40
235.90,3.21,1.81,3.20,1.81,-1.81,-2.01,1.40,1.40,1.40
238.26,3.18,1.78,3.18,1.79,-1.79,-2.01,1.39,1.39,1.39
240.64,3.15,1.76,3.15,1.77,-1.77,-2.02,1.38,1.38,1.39
243.05,3.11,1.72,3.12,1.75,-1.75,-2.02,1.36,1.37,1.39
245.48,3.08,1.69,3.10,1.73,-1.73,-2.01,1.35,1.37,1.38
247.93,3.04,1.66,3.07,1.71,-1.71,-2.01,1.33,1.37,1.38
250.41,3.03,1.65,3.05,1.69,-1.69,-2.00,1.34,1.36,1.38
252.92,3.01,1.64,3.03,1.67,-1.67,-1.99,1.34,1.36,1.37
255.45,3.00,1.63,3.01,1.65,-1.65,-1.97,1.35,1.36,1.37
258.00,2.99,1.63,2.99,1.64,-1.64,-1.95,1.35,1.35,1.36
260.58,2.98,1.62,2.97,1.62,-1.62,-1.93,1.36,1.35,1.35
263.19,2.97,1.62,2.95,1.61,-1.61,-1.91,1.36,1.34,1.35
265.82,2.95,1.60,2.93,1.59,-1.59,-1.88,1.36,1.34,1.34
268.48,2.93,1.59,2.91,1.57,-1.57,-1.85,1.35,1.33,1.34
271.16,2.91,1.58,2.89,1.56,-1.56,-1.82,1.35,1.33,1.33
273.87,2.87,1.54,2.86,1.54,-1.54,-1.79,1.33,1.32,1.32
276.61,2.84,1.52,2.84,1.52,-1.52,-1.75,1.32,1.32,1.32
279.38,2.81,1.50,2.81,1.50,-1.50,-1.71,1.31,1.31,1.31
282.17,2.78,1.47,2.79,1.48,-1.48,-1.67,1.30,1.31,1.31
284.99,2.75,1.44,2.76,1.46,-1.46,-1.63,1.29,1.30,1.30
287.84,2.73,1.43,2.73,1.44,-1.44,-1.59,1.29,1.30,1.30
290.72,2.70,1.40,2.71,1.41,-1.41,-1.54,1.28,1.29,1.30
293.63,2.68,1.38,2.68,1.39,-1.39,-1.50,1.29,1.29,1.30
296.57,2.65,1.35,2.66,1.37,-1.37,-1.45,1.28,1.29,1.30
299.53,2.63,1.33,2.63,1.34,-1.34,-1.41,1.29,1.29,1.29
302.53,2.61,1.31,2.61,1.32,-1.32,-1.36,1.29,1.29,1.29
305.55,2.59,1.29,2.59,1.29,-1.29,-1.31,1.30,1.30,1.30
308.61,2.57,1.27,2.56,1.26,-1.26,-1.27,1.30,1.30,1.30
311.69,2.54,1.24,2.53,1.24,-1.24,-1.22,1.30,1.30,1.30
314.81,2.52,1.22,2.51,1.21,-1.21,-1.17,1.31,1.30,1.30
317.96,2.50,1.19,2.48,1.18,-1.18,-1.12,1.32,1.30,1.30
321.14,2.47,1.16,2.45,1.15,-1.15,-1.08,1.32,1.30,1.31
324.35,2.43,1.12,2.42,1.11,-1.11,-1.03,1.31,1.30,1.31
327.59,2.39,1.08,2.39,1.08,-1.08,-0.98,1.31,1.31,1.31
330.87,2.35,1.03,2.35,1.05,-1.05,-0.94,1.30,1.31,1.31
334.18,2.31,0.99,2.32,1.01,-1.01,-0.89,1.30,1.31,1.32
337.52,2.27,0.95,2.29,0.98,-0.98,-0.84,1.29,1.31,1.32
340.90,2.24,0.92,2.26,0.94,-0.94,-0.80,1.30,1.32,1.32
344.30,2.21,0.88,2.22,0.90,-0.90,-0.75,1.30,1.32,1.32
347.75,2.19,0.86,2.19,0.87,-0.87,-0.71,1.32,1.32,1.32
351.23,2.17,0.84,2.15,0.83,-0.83,-0.67,1.33,1.32,1.33
354.74,2.15,0.82,2.12,0.80,-0.80,-0.62,1.35,1.32,1.33
358.28,2.11,0.78,2.09,0.76,-0.76,-0.58,1.35,1.32,1.33
361.87,2.07,0.73,2.05,0.73,-0.73,-0.54,1.34,1.33,1.33
365.49,2.03,0.69,2.02,0.69,-0.69,-0.50,1.34,1.33,1.34
369.14,1.99,0.65,1.99,0.66,-0.66,-0.45,1.33,1.34,1.34
372.83,1.95,0.61,1.96,0.62,-0.62,-0.41,1.33,1.34,1.34
376.56,1.91,0.56,1.93,0.59,-0.59,-0.37,1.32,1.35,1.35
380.33,1.89,0.54,1.90,0.55,-0.55,-0.33,1.33,1.35,1.35
384.13,1.86,0.50,1.87,0.52,-0.52,-0.29,1.34,1.35,1.35
387.97,1.84,0.48,1.84,0.48,-0.48,-0.26,1.35,1.36,1.36
391.85,1.82,0.45,1.81,0.45,-0.45,-0.22,1.37,1.36,1.36
395.77,1.80,0.43,1.78,0.41,-0.41,-0.18,1.38,1.36,1.37
399.73,1.77,0.39,1.75,0.38,-0.38,-0.14,1.39,1.37,1.37
403.72,1.73,0.35,1.72,0.35,-0.35,-0.11,1.38,1.38,1.38
407.76,1.70,0.31,1.70,0.31,-0.31,-0.07,1.38,1.38,1.38
411.84,1.67,0.28,1.67,0.28,-0.28,-0.03,1.39,1.39,1.39
415.96,1.64,0.24,1.64,0.25,-0.25,0.00,1.39,1.39,1.40
420.12,1.61,0.21,1.62,0.22,-0.22,0.04,1.39,1.40,1.40
424.32,1.58,0.17,1.59,0.19,-0.19,0.07,1.39,1.40,1.41
428.56,1.56,0.15,1.56,0.15,-0.15,0.10,1.40,1.40,1.41
432.85,1.53,0.12,1.53,0.12,-0.12,0.14,1.40,1.40,1.41
437.18,1.50,0.09,1.50,0.09,-0.09,0.17,1.40,1.41,1.41
441.55,1.48,0.06,1.47,0.06,-0.06,0.20,1.41,1.41,1.41
445.96,1.46,0.04,1.44,0.03,-0.03,0.23,1.42,1.41,1.41
450.42,1.42,0.00,1.41,0.00,-0.00,0.26,1.41,1.41,1.41
454.93,1.40,-0.02,1.39,-0.03,0.03,0.29,1.42,1.41,1.42
459.48,1.36,-0.06,1.36,-0.06,0.06,0.32,1.41,1.42,1.42
464.07,1.33,-0.09,1.33,-0.09,0.09,0.35,1.41,1.42,1.42
468.71,1.30,-0.12,1.31,-0.12,0.12,0.38,1.41,1.42,1.42
473.40,1.27,-0.15,1.28,-0.15,0.15,0.40,1.41,1.43,1.42
478.13,1.25,-0.18,1.25,-0.18,0.18,0.43,1.43,1.43,1.42
482.91,1.22,-0.21,1.22,-0.21,0.21,0.45,1.43,1.43,1.43
487.74,1.20,-0.24,1.19,-0.24,0.24,0.47,1.44,1.44,1.43
492.62,1.17,-0.27,1.16,-0.28,0.28,0.49,1.45,1.44,1.44
497.55,1.15,-0.30,1.13,-0.31,0.31,0.52,1.46,1.45,1.45
502.52,1.12,-0.34,1.11,-0.35,0.35,0.54,1.46,1.46,1.46
507.55,1.09,-0.38,1.08,-0.38,0.38,0.56,1.47,1.46,1.47
512.62,1.06,-0.42,1.05,-0.42,0.42,0.57,1.48,1.47,1.48
517.75,1.02,-0.47,1.03,-0.46,0.46,0.59,1.47,1.48,1.49
522.93,0.99,-0.51,1.00,-0.49,0.49,0.61,1.48,1.49,1.50
528.16,0.96,-0.55,0.97,-0.53,0.53,0.62,1.49,1.50,1.51
533.44,0.94,-0.58,0.94,-0.57,0.57,0.64,1.51,1.51,1.52
538.77,0.91,-0.62,0.91,-0.61,0.61,0.65,1.52,1.52,1.53
544.16,0.89,-0.65,0.88,-0.65,0.65,0.67,1.54,1.54,1.53
549.60,0.87,-0.68,0.85,-0.70,0.70,0.68,1.56,1.55,1.54
555.10,0.84,-0.72,0.82,-0.74,0.74,0.69,1.58,1.56,1.56
560.65,0.81,-0.76,0.79,-0.78,0.78,0.71,1.59,1.57,1.57
566.25,0.77,-0.81,0.75,-0.83,0.83,0.72,1.60,1.58,1.58
571.92,0.73,-0.87,0.72,-0.88,0.88,0.73,1.60,1.60,1.59
577.64,0.68,-0.93,0.69,-0.92,0.92,0.75,1.60,1.61,1.61
583.41,0.65,-0.98,0.65,-0.97,0.97,0.76,1.61,1.62,1.62
589.25,0.61,-1.03,0.62,-1.01,1.01,0.77,1.62,1.63,1.64
595.14,0.58,-1.08,0.59,-1.05,1.05,0.78,1.63,1.64,1.65
601.09,0.55,-1.12,0.56,-1.10,1.10,0.80,1.64,1.65,1.66
607.10,0.52,-1.16,0.53,-1.13,1.13,0.81,1.65,1.66,1.67
613.17,0.50,-1.19,0.50,-1.17,1.17,0.82,1.67,1.67,1.68
619.30,0.48,-1.21,0.47,-1.20,1.20,0.84,1.68,1.68,1.69
625.50,0.45,-1.25,0.45,-1.23,1.23,0.85,1.68,1.68,1.70
631.75,0.43,-1.27,0.43,-1.26,1.26,0.87,1.68,1.69,1.70
638.07,0.41,-1.30,0.41,-1.28,1.28,0.89,1.69,1.70,1.70
644.45,0.39,-1.32,0.39,-1.31,1.31,0.90,1.69,1.70,1.70
650.89,0.37,-1.33,0.37,-1.33,1.33,0.92,1.70,1.70,1.70
657.40,0.36,-1.34,0.35,-1.36,1.36,0.94,1.71,1.70,1.70
663.98,0.34,-1.36,0.32,-1.38,1.38,0.96,1.72,1.70,1.70
670.62,0.32,-1.38,0.30,-1.40,1.40,0.98,1.72,1.70,1.69
677.32,0.30,-1.40,0.27,-1.43,1.43,1.00,1.72,1.70,1.69
684.10,0.27,-1.42,0.24,-1.45,1.45,1.02,1.72,1.70,1.69
690.94,0.23,-1.46,0.22,-1.48,1.48,1.05,1.70,1.69,1.69
697.85,0.19,-1.51,0.19,-1.50,1.50,1.07,1.69,1.69,1.69
704.83,0.17,-1.53,0.17,-1.52,1.52,1.09,1.69,1.69,1.70
711.87,0.13,-1.57,0.14,-1.55,1.55,1.12,1.67,1.69,1.70
718.99,0.11,-1.59,0.12,-1.57,1.57,1.15,1.67,1.69,1.70
726.18,0.09,-1.62,0.10,-1.58,1.58,1.18,1.67,1.69,1.70
733.44,0.07,-1.64,0.09,-1.60,1.60,1.20,1.66,1.69,1.70
740.78,0.06,-1.65,0.08,-1.61,1.61,1.23,1.67,1.69,1.70
748.19,0.06,-1.65,0.08,-1.62,1.62,1.26,1.67,1.69,1.70
755.67,0.06,-1.65,0.07,-1.62,1.62,1.30,1.68,1.70,1.71
763.23,0.07,-1.64,0.07,-1.63,1.63,1.33,1.69,1.70,1.71
770.86,0.07,-1.64,0.07,-1.63,1.63,1.36,1.70,1.70,1.71
778.57,0.09,-1.62,0.08,-1.63,1.63,1.39,1.72,1.71,1.71
786.35,0.10,-1.61,0.08,-1.64,1.64,1.43,1.73,1.71,1.71
794.22,0.10,-1.61,0.07,-1.64,1.64,1.46,1.74,1.72,1.71
