frequency,raw,error,smoothed,error_smoothed,equalization,parametric_eq,fixed_band_eq,equalized_raw,equalized_smoothed,target
20.00,11.73,4.47,11.75,4.49,-4.49,-4.54,-1.97,7.24,7.26,7.26
20.20,11.76,4.51,11.77,4.52,-4.52,-4.54,-2.03,7.24,7.25,7.25
20.40,11.79,4.55,11.79,4.55,-4.55,-4.54,-2.09,7.24,7.24,7.24
20.61,11.82,4.58,11.81,4.58,-4.58,-4.55,-2.15,7.24,7.23,7.24
20.81,11.84,4.62,11.83,4.60,-4.60,-4.55,-2.21,7.24,7.22,7.22
21.02,11.87,4.65,11.84,4.63,-4.63,-4.55,-2.28,7.25,7.22,7.22
21.23,11.87,4.66,11.85,4.64,-4.64,-4.55,-2.34,7.23,7.21,7.21
21.44,11.87,4.66,11.86,4.66,-4.66,-4.55,-2.41,7.21,7.20,7.22
21.66,11.87,4.67,11.87,4.68,-4.68,-4.56,-2.48,7.19,7.19,7.21
21.87,11.87,4.68,11.88,4.69,-4.69,-4.56,-2.55,7.18,7.19,7.19
22.09,11.87,4.69,11.88,4.70,-4.70,-4.56,-2.63,7.17,7.18,7.18
22.31,11.87,4.69,11.89,4.71,-4.71,-4.56,-2.70,7.16,7.18,7.18
22.54,11.87,4.70,11.88,4.71,-4.71,-4.56,-2.78,7.16,7.17,7.17
22.76,11.87,4.70,11.88,4.71,-4.71,-4.56,-2.86,7.16,7.17,7.17
22.99,11.87,4.71,11.87,4.71,-4.71,-4.57,-2.94,7.16,7.17,7.16
23.22,11.87,4.72,11.87,4.70,-4.70,-4.57,-3.03,7.17,7.16,7.15
23.45,11.87,4.71,11.86,4.70,-4.70,-4.57,-3.11,7.17,7.16,7.16
23.69,11.87,4.72,11.85,4.69,-4.69,-4.57,-3.20,7.18,7.16,7.15
23.92,11.87,4.72,11.84,4.68,-4.68,-4.57,-3.29,7.19,7.16,7.15
24.16,11.85,4.69,11.83,4.67,-4.67,-4.57,-3.38,7.18,7.16,7.16
24.40,11.83,4.66,11.82,4.66,-4.66,-4.57,-3.47,7.17,7.16,7.17
24.65,11.80,4.63,11.81,4.65,-4.65,-4.57,-3.57,7.15,7.16,7.17
24.89,11.78,4.61,11.80,4.64,-4.64,-4.57,-3.66,7.14,7.16,7.17
25.14,11.77,4.60,11.80,4.63,-4.63,-4.57,-3.75,7.14,7.17,7.17
25.39,11.77,4.61,11.79,4.62,-4.62,-4.57,-3.85,7.15,7.17,7.17
25.65,11.77,4.61,11.78,4.61,-4.61,-4.57,-3.95,7.16,7.17,7.16
25.91,11.77,4.60,11.77,4.60,-4.60,-4.57,-4.04,7.17,7.17,7.17
26.16,11.77,4.59,11.77,4.59,-4.59,-4.57,-4.14,7.18,7.18,7.18
26.43,11.77,4.59,11.77,4.59,-4.59,-4.57,-4.24,7.18,7.18,7.18
26.69,11.77,4.59,11.77,4.59,-4.59,-4.57,-4.33,7.18,7.18,7.18
26.96,11.77,4.59,11.77,4.59,-4.59,-4.57,-4.42,7.18,7.18,7.18
27.23,11.77,4.59,11.77,4.59,-4.59,-4.57,-4.52,7.18,7.18,7.18
27.50,11.77,4.59,11.77,4.59,-4.59,-4.57,-4.60,7.18,7.18,7.18
27.77,11.77,4.58,11.77,4.59,-4.59,-4.57,-4.69,7.18,7.18,7.19
28.05,11.77,4.59,11.76,4.58,-4.58,-4.57,-4.78,7.19,7.18,7.19
28.33,11.77,4.60,11.76,4.57,-4.57,-4.57,-4.86,7.20,7.18,7.17
28.62,11.77,4.60,11.75,4.57,-4.57,-4.57,-4.93,7.20,7.18,7.17
28.90,11.77,4.59,11.74,4.56,-4.56,-4.57,-5.00,7.21,7.18,7.18
29.19,11.75,4.57,11.74,4.56,-4.56,-4.57,-5.07,7.19,7.18,7.18
29.48,11.72,4.54,11.73,4.55,-4.55,-4.57,-5.13,7.17,7.18,7.18
29.78,11.69,4.51,11.72,4.55,-4.55,-4.57,-5.18,7.14,7.17,7.18
30.08,11.67,4.49,11.71,4.54,-4.54,-4.57,-5.23,7.13,7.17,7.19
30.38,11.67,4.50,11.70,4.53,-4.53,-4.57,-5.28,7.14,7.17,7.17
30.68,11.67,4.51,11.68,4.52,-4.52,-4.56,-5.31,7.15,7.16,7.16
30.99,11.67,4.51,11.67,4.51,-4.51,-4.56,-5.34,7.16,7.16,7.16
31.30,11.67,4.52,11.65,4.49,-4.49,-4.56,-5.36,7.18,7.15,7.15
31.61,11.67,4.52,11.63,4.48,-4.48,-4.56,-5.37,7.19,7.15,7.15
31.93,11.67,4.54,11.61,4.47,-4.47,-4.56,-5.38,7.20,7.14,7.13
32.24,11.63,4.50,11.59,4.46,-4.46,-4.56,-5.38,7.17,7.13,7.13
32.57,11.57,4.45,11.58,4.45,-4.45,-4.56,-5.38,7.12,7.13,7.12
32.89,11.52,4.40,11.56,4.43,-4.43,-4.55,-5.36,7.09,7.13,7.12
33.22,11.49,4.38,11.54,4.42,-4.42,-4.55,-5.34,7.07,7.12,7.12
33.55,11.48,4.37,11.52,4.40,-4.40,-4.55,-5.32,7.08,7.12,7.11
33.89,11.47,4.35,11.50,4.38,-4.38,-4.55,-5.29,7.09,7.11,7.12
34.23,11.47,4.36,11.48,4.37,-4.37,-4.55,-5.26,7.10,7.11,7.11
34.57,11.47,4.37,11.46,4.35,-4.35,-4.54,-5.22,7.12,7.11,7.10
34.92,11.47,4.37,11.44,4.34,-4.34,-4.54,-5.18,7.13,7.10,7.10
35.27,11.44,4.33,11.42,4.32,-4.32,-4.54,-5.13,7.12,7.10,7.11
35.62,11.41,4.32,11.40,4.31,-4.31,-4.54,-5.08,7.10,7.09,7.10
35.97,11.37,4.28,11.39,4.31,-4.31,-4.53,-5.03,7.07,7.08,7.09
36.33,11.37,4.29,11.37,4.30,-4.30,-4.53,-4.98,7.07,7.07,7.08
36.70,11.37,4.31,11.35,4.29,-4.29,-4.53,-4.93,7.08,7.06,7.07
37.06,11.36,4.31,11.33,4.29,-4.29,-4.53,-4.88,7.07,7.04,7.05
37.43,11.33,4.30,11.32,4.29,-4.29,-4.52,-4.82,7.04,7.03,7.03
37.81,11.29,4.28,11.30,4.29,-4.29,-4.52,-4.77,7.00,7.01,7.01
38.19,11.26,4.27,11.28,4.29,-4.29,-4.52,-4.72,6.97,6.99,6.99
38.57,11.23,4.27,11.25,4.29,-4.29,-4.51,-4.67,6.94,6.97,6.97
38.95,11.20,4.26,11.23,4.29,-4.29,-4.51,-4.62,6.91,6.94,6.94
39.34,11.19,4.28,11.20,4.29,-4.29,-4.51,-4.57,6.90,6.92,6.91
39.74,11.18,4.29,11.18,4.29,-4.29,-4.50,-4.52,6.89,6.89,6.89
40.14,11.17,4.30,11.16,4.29,-4.29,-4.50,-4.48,6.88,6.87,6.87
40.54,11.17,4.33,11.13,4.29,-4.29,-4.50,-4.44,6.88,6.84,6.84
40.94,11.17,4.35,11.11,4.29,-4.29,-4.49,-4.40,6.88,6.82,6.82
41.35,11.11,4.31,11.09,4.29,-4.29,-4.49,-4.36,6.82,6.80,6.80
41.76,11.03,4.27,11.07,4.29,-4.29,-4.49,-4.32,6.74,6.77,6.76
42.18,10.99,4.24,11.04,4.29,-4.29,-4.48,-4.29,6.70,6.75,6.75
42.60,10.98,4.25,11.02,4.29,-4.29,-4.48,-4.26,6.69,6.73,6.73
43.03,10.97,4.27,10.99,4.28,-4.28,-4.47,-4.24,6.69,6.71,6.71
43.46,10.97,4.29,10.97,4.28,-4.28,-4.47,-4.22,6.69,6.68,6.68
43.90,10.97,4.31,10.94,4.28,-4.28,-4.47,-4.20,6.69,6.66,6.66
44.33,10.94,4.31,10.91,4.27,-4.27,-4.46,-4.18,6.67,6.64,6.63
44.78,10.89,4.28,10.88,4.27,-4.27,-4.46,-4.17,6.62,6.61,6.61
45.23,10.85,4.25,10.85,4.27,-4.27,-4.45,-4.16,6.58,6.58,6.60
45.68,10.80,4.24,10.82,4.27,-4.27,-4.45,-4.15,6.53,6.55,6.56
46.13,10.77,4.25,10.80,4.27,-4.27,-4.44,-4.14,6.50,6.52,6.52
46.60,10.77,4.28,10.77,4.28,-4.28,-4.44,-4.14,6.49,6.49,6.49
47.06,10.76,4.30,10.73,4.28,-4.28,-4.43,-4.14,6.48,6.46,6.46
47.53,10.72,4.29,10.70,4.28,-4.28,-4.43,-4.15,6.44,6.42,6.43
48.01,10.67,4.29,10.66,4.28,-4.28,-4.42,-4.16,6.39,6.38,6.38
48.49,10.62,4.28,10.63,4.28,-4.28,-4.42,-4.17,6.34,6.35,6.34
48.97,10.57,4.27,10.59,4.28,-4.28,-4.41,-4.18,6.29,6.31,6.30
49.46,10.55,4.28,10.56,4.29,-4.29,-4.41,-4.19,6.26,6.27,6.27
49.96,10.52,4.31,10.53,4.30,-4.30,-4.40,-4.21,6.22,6.23,6.21
50.46,10.49,4.31,10.50,4.31,-4.31,-4.40,-4.23,6.18,6.19,6.18
50.96,10.46,4.31,10.47,4.32,-4.32,-4.39,-4.25,6.14,6.15,6.15
51.47,10.43,4.32,10.44,4.32,-4.32,-4.39,-4.28,6.11,6.11,6.11
51.99,10.39,4.32,10.40,4.33,-4.33,-4.38,-4.30,6.06,6.07,6.07
52.51,10.37,4.33,10.37,4.33,-4.33,-4.38,-4.32,6.04,6.03,6.04
53.03,10.36,4.35,10.34,4.34,-4.34,-4.37,-4.35,6.02,6.00,6.01
53.56,10.30,4.33,10.30,4.34,-4.34,-4.36,-4.38,5.96,5.96,5.97
54.10,10.26,4.34,10.27,4.34,-4.34,-4.36,-4.40,5.92,5.92,5.92
54.64,10.25,4.36,10.23,4.34,-4.34,-4.35,-4.43,5.91,5.89,5.89
55.18,10.23,4.39,10.19,4.33,-4.33,-4.35,-4.46,5.90,5.86,5.84
55.74,10.16,4.35,10.15,4.33,-4.33,-4.34,-4.48,5.83,5.82,5.81
56.29,10.11,4.33,10.12,4.32,-4.32,-4.33,-4.51,5.79,5.79,5.78
56.86,10.07,4.32,10.08,4.32,-4.32,-4.33,-4.53,5.75,5.76,5.75
57.42,10.02,4.32,10.04,4.32,-4.32,-4.32,-4.55,5.70,5.72,5.70
58.00,9.96,4.28,10.00,4.32,-4.32,-4.32,-4.57,5.64,5.69,5.68
58.58,9.94,4.28,9.96,4.31,-4.31,-4.31,-4.59,5.63,5.65,5.66
59.16,9.92,4.29,9.92,4.31,-4.31,-4.30,-4.60,5.61,5.61,5.63
59.76,9.88,4.28,9.89,4.31,-4.31,-4.30,-4.61,5.57,5.57,5.60
60.35,9.86,4.31,9.85,4.31,-4.31,-4.29,-4.62,5.55,5.54,5.55
60.96,9.86,4.35,9.81,4.32,-4.32,-4.28,-4.62,5.54,5.50,5.51
61.57,9.80,4.34,9.78,4.33,-4.33,-4.28,-4.63,5.47,5.45,5.46
62.18,9.75,4.35,9.75,4.34,-4.34,-4.27,-4.62,5.41,5.41,5.40
62.80,9.71,4.36,9.72,4.35,-4.35,-4.26,-4.62,5.36,5.37,5.35
63.43,9.66,4.36,9.68,4.36,-4.36,-4.26,-4.60,5.30,5.32,5.30
64.07,9.60,4.33,9.64,4.36,-4.36,-4.25,-4.59,5.24,5.28,5.27
64.71,9.57,4.35,9.59,4.36,-4.36,-4.24,-4.57,5.21,5.23,5.22
65.35,9.56,4.38,9.55,4.37,-4.37,-4.24,-4.55,5.19,5.18,5.18
66.01,9.56,4.43,9.50,4.37,-4.37,-4.23,-4.53,5.19,5.14,5.14
66.67,9.49,4.38,9.45,4.36,-4.36,-4.22,-4.50,5.13,5.09,5.11
67.33,9.43,4.38,9.40,4.36,-4.36,-4.21,-4.47,5.07,5.05,5.05
68.01,9.36,4.35,9.36,4.35,-4.35,-4.21,-4.43,5.01,5.00,5.01
68.69,9.30,4.35,9.31,4.35,-4.35,-4.20,-4.40,4.95,4.96,4.96
69.37,9.23,4.31,9.26,4.35,-4.35,-4.19,-4.36,4.88,4.91,4.92
70.07,9.16,4.29,9.21,4.35,-4.35,-4.19,-4.32,4.81,4.87,4.87
70.77,9.16,4.33,9.16,4.34,-4.34,-4.18,-4.28,4.82,4.82,4.83
71.48,9.14,4.36,9.12,4.34,-4.34,-4.17,-4.24,4.80,4.77,4.78
72.19,9.09,4.36,9.07,4.34,-4.34,-4.16,-4.20,4.75,4.73,4.73
72.91,8.97,4.29,9.02,4.34,-4.34,-4.16,-4.16,4.63,4.68,4.68
73.64,8.96,4.33,8.97,4.33,-4.33,-4.15,-4.11,4.63,4.64,4.63
74.38,8.96,4.37,8.93,4.33,-4.33,-4.14,-4.07,4.63,4.60,4.59
75.12,8.94,4.40,8.89,4.33,-4.33,-4.14,-4.03,4.61,4.56,4.55
75.87,8.82,4.31,8.85,4.33,-4.33,-4.13,-3.99,4.49,4.52,4.52
76.63,8.77,4.30,8.81,4.33,-4.33,-4.12,-3.95,4.44,4.48,4.47
77.40,8.76,4.32,8.76,4.32,-4.32,-4.11,-3.91,4.44,4.44,4.44
78.17,8.75,4.35,8.72,4.31,-4.31,-4.11,-3.88,4.44,4.41,4.40
78.95,8.73,4.35,8.67,4.30,-4.30,-4.10,-3.84,4.43,4.37,4.38
79.74,8.60,4.26,8.63,4.29,-4.29,-4.09,-3.81,4.31,4.34,4.34
80.54,8.55,4.24,8.59,4.28,-4.28,-4.09,-3.78,4.27,4.31,4.31
81.35,8.54,4.27,8.54,4.27,-4.27,-4.08,-3.75,4.27,4.27,4.27
82.16,8.51,4.26,8.49,4.25,-4.25,-4.07,-3.73,4.26,4.24,4.25
82.98,8.45,4.24,8.44,4.24,-4.24,-4.07,-3.70,4.21,4.20,4.21
83.81,8.37,4.20,8.39,4.22,-4.22,-4.06,-3.68,4.15,4.17,4.17
84.65,8.35,4.22,8.34,4.21,-4.21,-4.05,-3.66,4.14,4.13,4.13
85.50,8.31,4.23,8.29,4.20,-4.20,-4.04,-3.65,4.11,4.10,4.08
86.35,8.25,4.20,8.24,4.18,-4.18,-4.04,-3.63,4.07,4.06,4.05
87.22,8.19,4.17,8.19,4.17,-4.17,-4.03,-3.62,4.03,4.02,4.02
88.09,8.14,4.16,8.13,4.15,-4.15,-4.02,-3.62,3.99,3.98,3.98
88.97,8.05,4.10,8.08,4.14,-4.14,-4.02,-3.61,3.91,3.94,3.95
89.86,7.99,4.10,8.03,4.13,-4.13,-4.01,-3.61,3.86,3.90,3.89
90.76,7.96,4.10,7.97,4.11,-4.11,-4.00,-3.61,3.85,3.86,3.86
91.66,7.93,4.12,7.92,4.10,-4.10,-4.00,-3.61,3.83,3.81,3.81
92.58,7.89,4.12,7.86,4.10,-4.10,-3.99,-3.62,3.79,3.77,3.77
93.51,7.81,4.08,7.81,4.09,-4.09,-3.98,-3.63,3.72,3.72,3.73
94.44,7.75,4.07,7.75,4.08,-4.08,-3.98,-3.64,3.67,3.67,3.68
95.39,7.69,4.06,7.69,4.07,-4.07,-3.97,-3.65,3.62,3.62,3.63
96.34,7.62,4.05,7.63,4.07,-4.07,-3.97,-3.67,3.56,3.57,3.57
97.30,7.55,4.04,7.57,4.06,-4.06,-3.96,-3.68,3.50,3.51,3.51
98.28,7.53,4.07,7.50,4.05,-4.05,-3.95,-3.70,3.49,3.46,3.46
99.26,7.47,4.08,7.44,4.04,-4.04,-3.95,-3.73,3.43,3.40,3.39
100.25,7.39,4.06,7.37,4.03,-4.03,-3.94,-3.75,3.37,3.34,3.33
101.25,7.30,4.01,7.30,4.01,-4.01,-3.94,-3.77,3.29,3.29,3.29
102.27,7.23,4.00,7.23,4.00,-4.00,-3.93,-3.80,3.23,3.23,3.23
103.29,7.15,3.98,7.16,3.99,-3.99,-3.92,-3.83,3.16,3.17,3.17
104.32,7.07,3.95,7.09,3.98,-3.98,-3.92,-3.86,3.10,3.12,3.12
105.37,6.99,3.93,7.02,3.96,-3.96,-3.91,-3.89,3.03,3.06,3.06
106.42,6.90,3.89,6.95,3.94,-3.94,-3.91,-3.92,2.96,3.00,3.01
107.48,6.87,3.93,6.87,3.92,-3.92,-3.90,-3.95,2.95,2.95,2.94
108.56,6.84,3.94,6.80,3.90,-3.90,-3.89,-3.98,2.94,2.90,2.90
109.64,6.76,3.92,6.72,3.88,-3.88,-3.89,-4.00,2.88,2.84,2.84
110.74,6.68,3.89,6.65,3.86,-3.86,-3.88,-4.03,2.82,2.79,2.79
111.85,6.59,3.85,6.58,3.85,-3.85,-3.88,-4.06,2.74,2.74,2.74
112.97,6.52,3.83,6.52,3.83,-3.83,-3.87,-4.08,2.69,2.69,2.69
114.10,6.46,3.82,6.46,3.82,-3.82,-3.86,-4.11,2.64,2.64,2.65
115.24,6.38,3.79,6.40,3.81,-3.81,-3.86,-4.13,2.57,2.59,2.59
116.39,6.30,3.77,6.34,3.80,-3.80,-3.85,-4.14,2.50,2.55,2.53
117.55,6.21,3.71,6.28,3.78,-3.78,-3.85,-4.16,2.43,2.50,2.50
118.73,6.17,3.73,6.23,3.77,-3.77,-3.84,-4.17,2.40,2.46,2.44
119.92,6.18,3.77,6.17,3.75,-3.75,-3.83,-4.18,2.43,2.42,2.41
121.12,6.17,3.79,6.11,3.74,-3.74,-3.83,-4.18,2.43,2.38,2.38
122.33,6.11,3.77,6.07,3.73,-3.73,-3.82,-4.18,2.38,2.34,2.34
123.55,6.04,3.73,6.02,3.72,-3.72,-3.81,-4.18,2.32,2.30,2.31
124.79,6.00,3.73,5.97,3.71,-3.71,-3.81,-4.17,2.29,2.26,2.27
126.03,5.93,3.70,5.93,3.70,-3.70,-3.80,-4.16,2.23,2.22,2.23
127.29,5.87,3.68,5.88,3.69,-3.69,-3.79,-4.14,2.18,2.19,2.19
128.57,5.82,3.67,5.83,3.68,-3.68,-3.78,-4.12,2.14,2.15,2.15
129.85,5.75,3.64,5.78,3.67,-3.67,-3.77,-4.10,2.08,2.11,2.11
131.15,5.72,3.65,5.73,3.66,-3.66,-3.76,-4.07,2.07,2.08,2.07
132.46,5.66,3.63,5.68,3.64,-3.64,-3.76,-4.04,2.02,2.04,2.03
133.79,5.65,3.65,5.62,3.62,-3.62,-3.75,-4.00,2.03,2.00,2.00
135.12,5.59,3.63,5.57,3.60,-3.60,-3.74,-3.96,1.99,1.96,1.96
136.48,5.49,3.56,5.52,3.59,-3.59,-3.73,-3.92,1.90,1.93,1.93
137.84,5.46,3.56,5.46,3.57,-3.57,-3.71,-3.87,1.89,1.89,1.90
139.22,5.40,3.56,5.41,3.56,-3.56,-3.70,-3.83,1.84,1.85,1.84
140.61,5.36,3.54,5.35,3.54,-3.54,-3.69,-3.78,1.82,1.82,1.82
142.02,5.29,3.51,5.29,3.51,-3.51,-3.68,-3.73,1.78,1.78,1.78
143.44,5.27,3.53,5.23,3.49,-3.49,-3.67,-3.68,1.78,1.74,1.74
144.87,5.20,3.49,5.17,3.46,-3.46,-3.65,-3.62,1.74,1.71,1.71
146.32,5.10,3.42,5.10,3.43,-3.43,-3.64,-3.57,1.67,1.67,1.68
147.78,5.04,3.40,5.04,3.40,-3.40,-3.62,-3.51,1.64,1.64,1.64
149.26,4.98,3.38,4.98,3.38,-3.38,-3.61,-3.46,1.60,1.60,1.60
150.75,4.90,3.35,4.91,3.35,-3.35,-3.59,-3.41,1.55,1.56,1.55
152.26,4.84,3.32,4.85,3.33,-3.33,-3.57,-3.35,1.51,1.52,1.52
153.78,4.77,3.28,4.79,3.31,-3.31,-3.55,-3.30,1.46,1.48,1.49
155.32,4.70,3.25,4.73,3.29,-3.29,-3.53,-3.25,1.41,1.45,1.45
156.88,4.66,3.25,4.68,3.27,-3.27,-3.51,-3.20,1.39,1.40,1.41
158.44,4.59,3.22,4.62,3.25,-3.25,-3.49,-3.15,1.34,1.36,1.37
160.03,4.56,3.24,4.55,3.23,-3.23,-3.47,-3.10,1.33,1.32,1.32
161.63,4.52,3.24,4.50,3.22,-3.22,-3.45,-3.05,1.30,1.28,1.28
163.24,4.47,3.24,4.44,3.21,-3.21,-3.43,-3.01,1.26,1.23,1.23
164.88,4.39,3.20,4.38,3.19,-3.19,-3.40,-2.96,1.20,1.19,1.19
166.53,4.35,3.21,4.32,3.18,-3.18,-3.38,-2.92,1.18,1.15,1.14
168.19,4.28,3.18,4.26,3.16,-3.16,-3.35,-2.88,1.12,1.10,1.10
169.87,4.23,3.17,4.20,3.14,-3.14,-3.32,-2.84,1.09,1.06,1.06
171.57,4.13,3.12,4.14,3.13,-3.13,-3.30,-2.81,1.01,1.01,1.01
173.29,4.05,3.09,4.07,3.11,-3.11,-3.27,-2.77,0.94,0.97,0.96
175.02,3.98,3.05,4.01,3.08,-3.08,-3.24,-2.74,0.90,0.93,0.93
176.77,3.92,3.04,3.94,3.06,-3.06,-3.21,-2.71,0.86,0.88,0.88
178.54,3.91,3.07,3.88,3.03,-3.03,-3.18,-2.69,0.88,0.84,0.84
180.32,3.80,3.00,3.82,3.01,-3.01,-3.14,-2.66,0.79,0.81,0.80
182.13,3.73,2.97,3.76,2.99,-2.99,-3.11,-2.64,0.74,0.77,0.76
183.95,3.72,2.99,3.70,2.97,-2.97,-3.08,-2.62,0.75,0.73,0.73
185.79,3.66,2.97,3.65,2.96,-2.96,-3.04,-2.60,0.70,0.69,0.69
187.65,3.57,2.91,3.61,2.95,-2.95,-3.01,-2.58,0.62,0.66,0.66
189.52,3.57,2.95,3.56,2.94,-2.94,-2.97,-2.57,0.63,0.62,0.62
191.42,3.51,2.91,3.52,2.93,-2.93,-2.93,-2.55,0.58,0.59,0.60
193.33,3.43,2.87,3.48,2.92,-2.92,-2.90,-2.54,0.51,0.56,0.56
195.27,3.41,2.89,3.43,2.90,-2.90,-2.86,-2.53,0.51,0.53,0.53
197.22,3.40,2.91,3.38,2.89,-2.89,-2.82,-2.52,0.51,0.49,0.49
199.19,3.35,2.89,3.33,2.87,-2.87,-2.78,-2.51,0.48,0.46,0.46
201.18,3.33,2.91,3.28,2.85,-2.85,-2.74,-2.51,0.48,0.43,0.42
203.19,3.28,2.88,3.23,2.83,-2.83,-2.70,-2.50,0.45,0.40,0.40
205.23,3.22,2.85,3.18,2.81,-2.81,-2.66,-2.50,0.41,0.37,0.37
207.28,3.11,2.76,3.13,2.79,-2.79,-2.62,-2.50,0.32,0.34,0.35
209.35,3.05,2.74,3.07,2.76,-2.76,-2.58,-2.49,0.29,0.31,0.32
211.44,3.03,2.75,3.02,2.74,-2.74,-2.54,-2.49,0.29,0.28,0.28
213.56,2.91,2.65,2.96,2.71,-2.71,-2.50,-2.49,0.20,0.25,0.26
215.69,2.84,2.62,2.89,2.67,-2.67,-2.45,-2.49,0.17,0.22,0.23
217.85,2.83,2.63,2.83,2.63,-2.63,-2.41,-2.49,0.20,0.20,0.20
220.03,2.78,2.62,2.76,2.59,-2.59,-2.37,-2.49,0.19,0.17,0.16
222.23,2.74,2.60,2.69,2.55,-2.55,-2.32,-2.48,0.19,0.15,0.14
224.45,2.65,2.53,2.64,2.51,-2.51,-2.28,-2.48,0.14,0.13,0.12
226.70,2.60,2.50,2.58,2.47,-2.47,-2.24,-2.48,0.13,0.11,0.10
228.96,2.52,2.43,2.53,2.44,-2.44,-2.19,-2.47,0.08,0.09,0.09
231.25,2.47,2.39,2.48,2.41,-2.41,-2.15,-2.46,0.06,0.08,0.08
233.57,2.43,2.37,2.44,2.37,-2.37,-2.11,-2.45,0.06,0.06,0.06
235.90,2.32,2.27,2.39,2.33,-2.33,-2.06,-2.44,-0.01,0.06,0.05
238.26,2.28,2.24,2.35,2.30,-2.30,-2.02,-2.43,-0.02,0.05,0.04
240.64,2.29,2.24,2.31,2.27,-2.27,-1.97,-2.42,0.02,0.04,0.05
243.05,2.29,2.25,2.27,2.23,-2.23,-1.93,-2.40,0.06,0.04,0.04
245.48,2.25,2.22,2.23,2.19,-2.19,-1.89,-2.38,0.06,0.04,0.03
247.93,2.23,2.20,2.19,2.16,-2.16,-1.84,-2.36,0.08,0.04,0.03
250.41,2.17,2.13,2.15,2.12,-2.12,-1.80,-2.33,0.06,0.03,0.04
252.92,2.12,2.08,2.11,2.08,-2.08,-1.76,-2.30,0.04,0.03,0.04
255.45,2.08,2.06,2.06,2.04,-2.04,-1.71,-2.27,0.04,0.03,0.03
258.00,2.02,1.99,2.02,2.00,-2.00,-1.67,-2.24,0.02,0.02,0.03
260.58,2.00,1.98,1.96,1.95,-1.95,-1.63,-2.20,0.05,0.01,0.02
263.19,1.94,1.92,1.91,1.91,-1.91,-1.58,-2.16,0.03,0.01,0.02
265.82,1.82,1.82,1.86,1.86,-1.86,-1.54,-2.12,-0.04,-0.00,0.00
268.48,1.80,1.81,1.80,1.81,-1.81,-1.50,-2.08,-0.01,-0.01,-0.01
271.16,1.76,1.78,1.74,1.76,-1.76,-1.45,-2.03,-0.00,-0.02,-0.02
273.87,1.63,1.66,1.69,1.72,-1.72,-1.41,-1.99,-0.09,-0.03,-0.03
276.61,1.59,1.63,1.63,1.67,-1.67,-1.37,-1.94,-0.08,-0.04,-0.04
279.38,1.59,1.66,1.58,1.63,-1.63,-1.33,-1.89,-0.04,-0.04,-0.07
282.17,1.53,1.59,1.54,1.59,-1.59,-1.29,-1.83,-0.06,-0.05,-0.06
284.99,1.48,1.55,1.49,1.55,-1.55,-1.24,-1.78,-0.07,-0.06,-0.07
287.84,1.41,1.47,1.44,1.50,-1.50,-1.20,-1.72,-0.09,-0.06,-0.06
290.72,1.42,1.49,1.40,1.46,-1.46,-1.16,-1.67,-0.04,-0.06,-0.07
293.63,1.38,1.45,1.36,1.42,-1.42,-1.12,-1.61,-0.04,-0.07,-0.07
296.57,1.35,1.41,1.32,1.39,-1.39,-1.08,-1.55,-0.04,-0.07,-0.06
299.53,1.27,1.34,1.28,1.35,-1.35,-1.04,-1.49,-0.08,-0.07,-0.07
302.53,1.23,1.29,1.24,1.30,-1.30,-1.00,-1.43,-0.07,-0.07,-0.06
305.55,1.18,1.24,1.20,1.26,-1.26,-0.96,-1.37,-0.08,-0.07,-0.06
308.61,1.18,1.24,1.15,1.22,-1.22,-0.92,-1.31,-0.04,-0.07,-0.06
311.69,1.12,1.19,1.11,1.17,-1.17,-0.88,-1.25,-0.05,-0.07,-0.07
314.81,1.03,1.09,1.06,1.12,-1.12,-0.84,-1.19,-0.09,-0.07,-0.06
317.96,0.99,1.07,1.00,1.07,-1.07,-0.80,-1.13,-0.08,-0.07,-0.07
321.14,0.98,1.05,0.95,1.02,-1.02,-0.76,-1.07,-0.04,-0.07,-0.07
324.35,0.91,0.98,0.90,0.97,-0.97,-0.72,-1.02,-0.06,-0.07,-0.07
327.59,0.86,0.92,0.84,0.91,-0.91,-0.68,-0.96,-0.05,-0.07,-0.06
330.87,0.80,0.87,0.79,0.86,-0.86,-0.65,-0.90,-0.06,-0.07,-0.07
334.18,0.71,0.79,0.74,0.81,-0.81,-0.61,-0.84,-0.09,-0.07,-0.08
337.52,0.69,0.76,0.68,0.75,-0.75,-0.57,-0.78,-0.06,-0.07,-0.07
340.90,0.62,0.69,0.63,0.69,-0.69,-0.53,-0.72,-0.07,-0.07,-0.07
344.30,0.54,0.61,0.58,0.64,-0.64,-0.49,-0.66,-0.10,-0.06,-0.06
347.75,0.49,0.55,0.53,0.59,-0.59,-0.46,-0.61,-0.10,-0.06,-0.06
351.23,0.49,0.56,0.48,0.53,-0.53,-0.42,-0.55,-0.04,-0.06,-0.07
354.74,0.47,0.52,0.43,0.48,-0.48,-0.38,-0.49,-0.01,-0.05,-0.05
358.28,0.36,0.41,0.38,0.43,-0.43,-0.34,-0.44,-0.07,-0.05,-0.05
361.87,0.30,0.34,0.34,0.38,-0.38,-0.31,-0.38,-0.08,-0.04,-0.04
365.49,0.30,0.34,0.30,0.34,-0.34,-0.27,-0.32,-0.03,-0.04,-0.04
369.14,0.26,0.29,0.26,0.29,-0.29,-0.23,-0.27,-0.03,-0.03,-0.03
372.83,0.22,0.24,0.22,0.25,-0.25,-0.20,-0.21,-0.03,-0.03,-0.02
376.56,0.24,0.26,0.18,0.20,-0.20,-0.16,-0.16,0.04,-0.02,-0.02
380.33,0.14,0.16,0.14,0.16,-0.16,-0.12,-0.11,-0.02,-0.02,-0.02
384.13,0.04,0.05,0.10,0.12,-0.12,-0.09,-0.05,-0.08,-0.02,-0.01
387.97,0.03,0.05,0.05,0.08,-0.08,-0.05,0.00,-0.05,-0.02,-0.01
391.85,0.04,0.06,0.00,0.03,-0.03,-0.02,0.05,0.01,-0.03,-0.02
395.77,0.04,0.07,-0.05,-0.02,0.02,0.02,0.11,0.06,-0.03,-0.03
399.73,-0.08,-0.05,-0.09,-0.06,0.06,0.06,0.16,-0.02,-0.03,-0.03
403.72,-0.16,-0.14,-0.15,-0.11,0.11,0.09,0.21,-0.05,-0.04,-0.02
407.76,-0.16,-0.12,-0.20,-0.16,0.16,0.13,0.26,-0.00,-0.04,-0.04
411.84,-0.26,-0.22,-0.24,-0.20,0.20,0.16,0.31,-0.06,-0.04,-0.04
415.96,-0.28,-0.24,-0.28,-0.24,0.24,0.20,0.36,-0.04,-0.04,-0.04
420.12,-0.28,-0.23,-0.32,-0.28,0.28,0.23,0.41,0.01,-0.04,-0.05
424.32,-0.43,-0.38,-0.36,-0.33,0.33,0.27,0.46,-0.10,-0.03,-0.04
428.56,-0.47,-0.44,-0.39,-0.37,0.37,0.30,0.51,-0.10,-0.02,-0.03
432.85,-0.44,-0.43,-0.41,-0.41,0.41,0.34,0.56,-0.03,0.00,-0.01
437.18,-0.41,-0.41,-0.42,-0.45,0.45,0.38,0.60,0.04,0.03,0.00
441.55,-0.46,-0.50,-0.43,-0.49,0.49,0.41,0.65,0.03,0.06,0.04
445.96,-0.48,-0.56,-0.42,-0.52,0.52,0.45,0.69,0.04,0.10,0.08
450.42,-0.36,-0.48,-0.41,-0.55,0.55,0.48,0.74,0.19,0.14,0.12
454.93,-0.33,-0.50,-0.39,-0.58,0.58,0.52,0.78,0.25,0.19,0.17
459.48,-0.46,-0.69,-0.38,-0.62,0.62,0.55,0.82,0.16,0.24,0.23
464.07,-0.41,-0.71,-0.36,-0.65,0.65,0.59,0.86,0.24,0.29,0.30
468.71,-0.35,-0.70,-0.35,-0.69,0.69,0.62,0.90,0.34,0.35,0.35
473.40,-0.28,-0.69,-0.33,-0.73,0.73,0.66,0.93,0.45,0.40,0.41
478.13,-0.25,-0.72,-0.32,-0.77,0.77,0.69,0.97,0.52,0.45,0.47
482.91,-0.26,-0.78,-0.31,-0.81,0.81,0.73,1.00,0.55,0.50,0.52
487.74,-0.29,-0.85,-0.31,-0.86,0.86,0.76,1.03,0.57,0.55,0.56
492.62,-0.30,-0.89,-0.30,-0.89,0.89,0.80,1.07,0.59,0.59,0.60
497.55,-0.29,-0.92,-0.30,-0.92,0.92,0.83,1.09,0.63,0.62,0.64
502.52,-0.39,-1.04,-0.32,-0.97,0.97,0.87,1.12,0.58,0.65,0.65
507.55,-0.39,-1.07,-0.34,-1.01,1.01,0.90,1.15,0.62,0.67,0.68
512.62,-0.33,-1.02,-0.37,-1.05,1.05,0.94,1.17,0.72,0.68,0.69
