frequency,raw,smoothed,error,error_smoothed,equalization,parametric_eq,fixed_band_eq,equalized_raw,equalized_smoothed,target
20.00,3.95,3.95,-1.59,-1.58,1.60,1.00,-0.14,5.55,5.55,5.53
20.20,4.01,4.01,-1.51,-1.51,1.51,0.97,-0.14,5.52,5.52,5.51
20.40,4.07,4.07,-1.42,-1.43,1.43,0.93,-0.15,5.49,5.49,5.49
20.61,4.13,4.13,-1.36,-1.35,1.34,0.90,-0.15,5.47,5.47,5.48
20.81,4.19,4.19,-1.27,-1.28,1.26,0.86,-0.15,5.45,5.45,5.46
21.02,4.25,4.25,-1.20,-1.20,1.19,0.83,-0.16,5.43,5.43,5.45
21.23,4.31,4.31,-1.12,-1.12,1.11,0.79,-0.16,5.42,5.42,5.43
21.44,4.38,4.38,-1.04,-1.04,1.04,0.76,-0.16,5.42,5.42,5.42
21.66,4.45,4.45,-0.96,-0.96,0.96,0.72,-0.16,5.41,5.41,5.41
21.87,4.51,4.51,-0.88,-0.88,0.89,0.69,-0.17,5.40,5.40,5.39
22.09,4.57,4.56,-0.81,-0.82,0.83,0.66,-0.17,5.40,5.39,5.38
22.31,4.60,4.60,-0.77,-0.76,0.77,0.62,-0.18,5.37,5.37,5.37
22.54,4.64,4.64,-0.72,-0.72,0.71,0.59,-0.18,5.35,5.35,5.36
22.76,4.68,4.68,-0.67,-0.67,0.66,0.55,-0.18,5.34,5.34,5.35
22.99,4.72,4.71,-0.62,-0.62,0.62,0.52,-0.19,5.34,5.34,5.34
23.22,4.75,4.75,-0.58,-0.58,0.58,0.48,-0.19,5.33,5.33,5.32
23.45,4.78,4.78,-0.55,-0.54,0.55,0.45,-0.19,5.32,5.32,5.32
23.69,4.81,4.81,-0.51,-0.51,0.51,0.41,-0.20,5.32,5.32,5.31
23.92,4.84,4.84,-0.47,-0.48,0.47,0.38,-0.20,5.31,5.31,5.31
24.16,4.87,4.87,-0.44,-0.44,0.44,0.34,-0.21,5.31,5.31,5.31
24.40,4.91,4.91,-0.40,-0.40,0.40,0.31,-0.21,5.31,5.31,5.31
24.65,4.95,4.94,-0.36,-0.37,0.37,0.27,-0.22,5.32,5.31,5.31
24.89,4.98,4.98,-0.33,-0.33,0.33,0.24,-0.22,5.31,5.32,5.31
25.14,5.03,5.03,-0.28,-0.28,0.29,0.20,-0.23,5.32,5.31,5.31
25.39,5.07,5.07,-0.24,-0.24,0.24,0.17,-0.23,5.31,5.30,5.31
25.65,5.12,5.11,-0.19,-0.20,0.18,0.13,-0.24,5.29,5.29,5.31
25.91,5.16,5.17,-0.16,-0.14,0.11,0.10,-0.24,5.27,5.28,5.31
26.16,5.24,5.24,-0.07,-0.07,0.04,0.06,-0.25,5.28,5.28,5.31
26.43,5.33,5.33,0.01,0.02,-0.02,0.03,-0.25,5.31,5.31,5.31
26.69,5.42,5.42,0.11,0.11,-0.08,-0.01,-0.26,5.34,5.34,5.31
26.96,5.52,5.49,0.21,0.18,-0.14,-0.04,-0.27,5.38,5.36,5.31
27.23,5.54,5.54,0.23,0.23,-0.19,-0.08,-0.27,5.35,5.35,5.31
27.50,5.55,5.55,0.24,0.24,-0.23,-0.11,-0.28,5.31,5.32,5.31
27.77,5.55,5.55,0.24,0.25,-0.27,-0.14,-0.29,5.28,5.28,5.31
28.05,5.57,5.57,0.26,0.27,-0.30,-0.18,-0.30,5.27,5.27,5.30
28.33,5.60,5.60,0.30,0.30,-0.32,-0.21,-0.30,5.28,5.28,5.29
28.62,5.64,5.64,0.35,0.35,-0.33,-0.25,-0.31,5.30,5.30,5.29
28.90,5.68,5.67,0.39,0.38,-0.36,-0.28,-0.32,5.32,5.32,5.29
29.19,5.70,5.69,0.41,0.40,-0.39,-0.32,-0.33,5.31,5.30,5.29
29.48,5.70,5.70,0.41,0.41,-0.43,-0.35,-0.34,5.27,5.27,5.29
29.78,5.71,5.71,0.42,0.43,-0.47,-0.38,-0.35,5.24,5.25,5.28
30.08,5.74,5.75,0.45,0.46,-0.50,-0.42,-0.36,5.23,5.24,5.28
30.38,5.81,5.81,0.53,0.53,-0.53,-0.45,-0.37,5.27,5.28,5.28
30.68,5.88,5.88,0.61,0.61,-0.57,-0.48,-0.38,5.31,5.32,5.27
30.99,5.96,5.93,0.69,0.66,-0.60,-0.52,-0.39,5.36,5.33,5.27
31.30,5.94,5.93,0.68,0.67,-0.65,-0.55,-0.41,5.29,5.29,5.26
31.61,5.92,5.92,0.67,0.67,-0.69,-0.58,-0.42,5.22,5.23,5.25
31.93,5.90,5.92,0.65,0.68,-0.75,-0.62,-0.43,5.15,5.18,5.25
32.24,5.97,5.98,0.73,0.74,-0.79,-0.65,-0.45,5.17,5.18,5.24
32.57,6.07,6.06,0.83,0.83,-0.84,-0.68,-0.46,5.23,5.22,5.24
32.89,6.17,6.15,0.94,0.92,-0.88,-0.71,-0.48,5.29,5.27,5.23
33.22,6.21,6.21,0.98,0.98,-0.92,-0.75,-0.49,5.28,5.28,5.23
33.55,6.23,6.24,1.00,1.01,-0.96,-0.78,-0.51,5.26,5.27,5.23
33.89,6.25,6.25,1.01,1.02,-1.00,-0.81,-0.52,5.25,5.25,5.23
34.23,6.26,6.25,1.03,1.02,-1.03,-0.84,-0.54,5.23,5.23,5.23
34.57,6.26,6.26,1.03,1.03,-1.05,-0.88,-0.56,5.21,5.21,5.23
34.92,6.26,6.27,1.02,1.03,-1.06,-0.91,-0.58,5.20,5.20,5.23
35.27,6.29,6.29,1.06,1.06,-1.08,-0.94,-0.60,5.21,5.21,5.23
35.62,6.33,6.32,1.09,1.09,-1.10,-0.97,-0.62,5.23,5.22,5.24
35.97,6.37,6.36,1.13,1.13,-1.12,-1.00,-0.64,5.24,5.24,5.23
36.33,6.40,6.40,1.17,1.17,-1.15,-1.03,-0.66,5.25,5.25,5.23
36.70,6.43,6.43,1.20,1.20,-1.17,-1.06,-0.68,5.25,5.26,5.23
37.06,6.46,6.44,1.23,1.22,-1.20,-1.09,-0.70,5.25,5.24,5.22
37.43,6.45,6.44,1.24,1.23,-1.24,-1.12,-0.72,5.21,5.21,5.21
37.81,6.44,6.45,1.23,1.24,-1.27,-1.16,-0.75,5.17,5.18,5.20
38.19,6.45,6.46,1.26,1.27,-1.31,-1.19,-0.77,5.14,5.15,5.19
38.57,6.50,6.49,1.32,1.32,-1.35,-1.22,-0.80,5.15,5.15,5.18
38.95,6.55,6.54,1.39,1.38,-1.39,-1.25,-0.82,5.16,5.16,5.16
39.34,6.59,6.59,1.44,1.44,-1.42,-1.28,-0.85,5.16,5.17,5.15
39.74,6.63,6.62,1.49,1.49,-1.46,-1.30,-0.88,5.17,5.16,5.14
40.14,6.65,6.65,1.52,1.52,-1.49,-1.33,-0.90,5.15,5.15,5.12
40.54,6.66,6.66,1.55,1.54,-1.52,-1.36,-0.93,5.13,5.14,5.11
40.94,6.66,6.65,1.55,1.55,-1.55,-1.39,-0.96,5.11,5.10,5.10
41.35,6.65,6.64,1.55,1.55,-1.57,-1.42,-0.99,5.08,5.07,5.10
41.76,6.63,6.64,1.55,1.56,-1.59,-1.45,-1.02,5.04,5.05,5.08
42.18,6.65,6.66,1.57,1.59,-1.61,-1.48,-1.06,5.04,5.05,5.07
42.60,6.71,6.70,1.63,1.63,-1.63,-1.51,-1.09,5.08,5.07,5.08
43.03,6.76,6.74,1.69,1.67,-1.65,-1.54,-1.12,5.11,5.09,5.07
43.46,6.76,6.76,1.69,1.69,-1.66,-1.56,-1.16,5.09,5.10,5.06
43.90,6.76,6.76,1.69,1.70,-1.68,-1.59,-1.19,5.08,5.08,5.07
44.33,6.76,6.76,1.70,1.70,-1.70,-1.62,-1.23,5.06,5.06,5.06
44.78,6.76,6.76,1.71,1.70,-1.71,-1.65,-1.26,5.05,5.05,5.05
45.23,6.76,6.76,1.71,1.71,-1.72,-1.68,-1.30,5.04,5.04,5.05
45.68,6.76,6.76,1.71,1.72,-1.73,-1.70,-1.34,5.03,5.03,5.04
46.13,6.77,6.77,1.73,1.73,-1.74,-1.73,-1.38,5.02,5.03,5.03
46.60,6.79,6.79,1.76,1.76,-1.77,-1.76,-1.42,5.02,5.02,5.02
47.06,6.81,6.81,1.79,1.79,-1.81,-1.79,-1.46,5.00,5.00,5.02
47.53,6.84,6.83,1.83,1.83,-1.85,-1.81,-1.50,4.99,4.99,5.01
48.01,6.86,6.87,1.86,1.88,-1.89,-1.84,-1.55,4.97,4.99,5.00
48.49,6.92,6.92,1.94,1.94,-1.93,-1.87,-1.59,4.99,4.99,4.97
48.97,6.98,6.96,2.01,1.99,-1.97,-1.90,-1.64,5.01,4.99,4.96
49.46,6.98,6.98,2.03,2.03,-2.00,-1.92,-1.68,4.98,4.98,4.95
49.96,6.97,6.98,2.04,2.04,-2.03,-1.95,-1.73,4.94,4.95,4.93
50.46,6.97,6.96,2.05,2.05,-2.05,-1.98,-1.77,4.92,4.92,4.92
50.96,6.96,6.96,2.05,2.06,-2.06,-2.00,-1.82,4.90,4.90,4.91
51.47,6.96,6.96,2.07,2.07,-2.07,-2.03,-1.87,4.89,4.89,4.89
51.99,6.96,6.96,2.08,2.08,-2.08,-2.06,-1.91,4.88,4.88,4.88
52.51,6.96,6.96,2.09,2.09,-2.09,-2.08,-1.96,4.87,4.86,4.86
53.03,6.96,6.95,2.11,2.10,-2.11,-2.11,-2.01,4.84,4.83,4.85
53.56,6.95,6.95,2.11,2.11,-2.14,-2.14,-2.05,4.81,4.81,4.84
54.10,6.95,6.97,2.13,2.15,-2.17,-2.16,-2.10,4.78,4.80,4.82
54.64,7.02,7.01,2.21,2.20,-2.20,-2.19,-2.15,4.81,4.80,4.80
55.18,7.06,7.04,2.27,2.25,-2.23,-2.22,-2.19,4.82,4.81,4.79
55.74,7.06,7.06,2.29,2.29,-2.26,-2.24,-2.23,4.79,4.80,4.77
56.29,7.06,7.06,2.30,2.31,-2.29,-2.27,-2.28,4.76,4.77,4.75
56.86,7.06,7.06,2.32,2.32,-2.32,-2.30,-2.32,4.74,4.74,4.73
57.42,7.06,7.06,2.34,2.34,-2.34,-2.32,-2.36,4.71,4.71,4.72
58.00,7.06,7.06,2.35,2.35,-2.36,-2.35,-2.40,4.69,4.69,4.71
58.58,7.06,7.06,2.37,2.37,-2.38,-2.38,-2.44,4.68,4.68,4.69
59.16,7.06,7.06,2.39,2.39,-2.40,-2.40,-2.48,4.66,4.66,4.67
59.76,7.06,7.06,2.41,2.41,-2.41,-2.43,-2.51,4.64,4.64,4.65
60.35,7.06,7.06,2.43,2.44,-2.43,-2.46,-2.54,4.63,4.63,4.62
60.96,7.06,7.06,2.46,2.46,-2.44,-2.48,-2.57,4.62,4.62,4.60
61.57,7.06,7.05,2.48,2.47,-2.45,-2.51,-2.60,4.61,4.60,4.58
62.18,7.04,7.02,2.48,2.47,-2.46,-2.54,-2.63,4.57,4.56,4.55
62.80,6.98,6.99,2.46,2.47,-2.48,-2.57,-2.65,4.50,4.52,4.52
63.43,6.96,6.97,2.46,2.47,-2.49,-2.59,-2.68,4.47,4.47,4.49
64.07,6.96,6.95,2.49,2.49,-2.51,-2.62,-2.70,4.45,4.45,4.47
64.71,6.96,6.96,2.53,2.52,-2.53,-2.65,-2.72,4.43,4.43,4.43
65.35,6.96,6.96,2.55,2.55,-2.55,-2.68,-2.73,4.41,4.41,4.40
66.01,6.96,6.96,2.59,2.59,-2.58,-2.71,-2.75,4.38,4.38,4.37
66.67,6.96,6.96,2.62,2.62,-2.62,-2.73,-2.76,4.34,4.34,4.34
67.33,6.96,6.96,2.66,2.66,-2.65,-2.76,-2.77,4.30,4.30,4.30
68.01,6.96,6.96,2.69,2.69,-2.69,-2.79,-2.79,4.27,4.27,4.27
68.69,6.96,6.96,2.73,2.73,-2.73,-2.82,-2.80,4.23,4.23,4.23
69.37,6.96,6.96,2.76,2.77,-2.77,-2.85,-2.81,4.19,4.19,4.19
70.07,6.96,6.96,2.81,2.80,-2.80,-2.88,-2.81,4.15,4.15,4.15
70.77,6.96,6.96,2.84,2.84,-2.84,-2.91,-2.82,4.11,4.11,4.12
71.48,6.96,6.96,2.87,2.88,-2.89,-2.94,-2.83,4.07,4.07,4.08
72.19,6.96,6.96,2.92,2.92,-2.93,-2.97,-2.84,4.03,4.03,4.04
72.91,6.96,6.96,2.96,2.96,-2.96,-3.00,-2.85,4.00,4.00,4.00
73.64,6.96,6.96,2.99,3.00,-2.99,-3.03,-2.86,3.97,3.97,3.97
74.38,6.96,6.96,3.03,3.03,-3.01,-3.06,-2.87,3.94,3.95,3.93
75.12,6.95,6.94,3.07,3.06,-3.03,-3.09,-2.88,3.92,3.91,3.88
75.87,6.92,6.91,3.08,3.07,-3.04,-3.12,-2.89,3.87,3.87,3.84
76.63,6.86,6.86,3.06,3.06,-3.06,-3.15,-2.90,3.80,3.80,3.80
77.40,6.80,6.80,3.04,3.05,-3.07,-3.18,-2.92,3.73,3.74,3.76
78.17,6.76,6.77,3.04,3.05,-3.08,-3.22,-2.93,3.67,3.68,3.72
78.95,6.76,6.75,3.08,3.08,-3.11,-3.25,-2.95,3.65,3.65,3.67
79.74,6.76,6.75,3.13,3.12,-3.13,-3.28,-2.97,3.62,3.62,3.63
80.54,6.76,6.76,3.17,3.17,-3.17,-3.31,-2.99,3.59,3.59,3.59
81.35,6.76,6.76,3.22,3.22,-3.21,-3.34,-3.01,3.55,3.55,3.54
82.16,6.76,6.76,3.26,3.26,-3.25,-3.38,-3.04,3.51,3.51,3.50
82.98,6.76,6.76,3.31,3.31,-3.29,-3.41,-3.07,3.46,3.47,3.45
83.81,6.76,6.76,3.35,3.35,-3.33,-3.44,-3.10,3.43,3.42,3.40
84.65,6.75,6.73,3.39,3.38,-3.37,-3.48,-3.13,3.38,3.36,3.35
85.50,6.70,6.70,3.40,3.40,-3.41,-3.51,-3.16,3.29,3.29,3.30
86.35,6.66,6.67,3.41,3.42,-3.45,-3.54,-3.20,3.21,3.23,3.25
87.22,6.66,6.65,3.46,3.46,-3.49,-3.58,-3.24,3.17,3.17,3.20
88.09,6.66,6.66,3.51,3.51,-3.52,-3.61,-3.28,3.13,3.13,3.15
88.97,6.66,6.67,3.56,3.57,-3.56,-3.64,-3.33,3.10,3.11,3.10
89.86,6.67,6.66,3.63,3.62,-3.59,-3.68,-3.37,3.07,3.06,3.03
90.76,6.65,6.64,3.67,3.66,-3.63,-3.71,-3.42,3.02,3.01,2.98
91.66,6.59,6.60,3.67,3.68,-3.66,-3.74,-3.48,2.92,2.94,2.92
92.58,6.57,6.56,3.70,3.69,-3.70,-3.78,-3.53,2.87,2.86,2.87
93.51,6.52,6.52,3.71,3.71,-3.73,-3.81,-3.59,2.78,2.78,2.80
94.44,6.48,6.49,3.74,3.75,-3.77,-3.85,-3.65,2.71,2.72,2.74
95.39,6.47,6.47,3.79,3.79,-3.82,-3.88,-3.71,2.65,2.65,2.67
96.34,6.46,6.46,3.85,3.85,-3.87,-3.91,-3.77,2.59,2.59,2.61
97.30,6.46,6.45,3.92,3.92,-3.92,-3.95,-3.84,2.54,2.53,2.53
98.28,6.45,6.44,3.98,3.98,-3.98,-3.98,-3.91,2.47,2.47,2.47
99.26,6.43,6.44,4.03,4.04,-4.02,-4.01,-3.97,2.40,2.41,2.39
100.25,6.42,6.42,4.10,4.10,-4.07,-4.04,-4.05,2.35,2.36,2.32
101.25,6.40,6.39,4.16,4.14,-4.11,-4.08,-4.12,2.29,2.28,2.24
102.27,6.34,6.32,4.17,4.15,-4.14,-4.11,-4.19,2.20,2.18,2.17
103.29,6.23,6.24,4.14,4.15,-4.17,-4.14,-4.26,2.05,2.06,2.09
104.32,6.15,6.17,4.13,4.16,-4.20,-4.17,-4.34,1.94,1.97,2.01
105.37,6.13,6.12,4.19,4.19,-4.23,-4.20,-4.41,1.90,1.89,1.94
106.42,6.11,6.10,4.26,4.25,-4.25,-4.24,-4.49,1.86,1.86,1.85
107.48,6.08,6.08,4.30,4.30,-4.26,-4.27,-4.56,1.81,1.82,1.77
108.56,6.05,6.03,4.34,4.33,-4.28,-4.30,-4.63,1.76,1.75,1.71
109.64,5.97,5.96,4.34,4.33,-4.31,-4.33,-4.70,1.66,1.65,1.63
110.74,5.89,5.89,4.33,4.33,-4.34,-4.35,-4.77,1.54,1.54,1.56
111.85,5.81,5.82,4.32,4.33,-4.38,-4.38,-4.84,1.43,1.44,1.49
112.97,5.79,5.79,4.36,4.36,-4.41,-4.41,-4.90,1.37,1.37,1.42
114.10,5.78,5.77,4.42,4.41,-4.44,-4.44,-4.97,1.33,1.33,1.36
115.24,5.78,5.78,4.48,4.49,-4.48,-4.46,-5.02,1.30,1.31,1.29
116.39,5.78,5.79,4.55,4.55,-4.51,-4.49,-5.07,1.27,1.28,1.23
117.55,5.79,5.76,4.61,4.59,-4.54,-4.52,-5.12,1.25,1.22,1.18
118.73,5.72,5.71,4.61,4.60,-4.57,-4.54,-5.17,1.15,1.14,1.11
119.92,5.63,5.65,4.57,4.59,-4.60,-4.56,-5.20,1.03,1.06,1.06
121.12,5.60,5.59,4.59,4.59,-4.62,-4.59,-5.23,0.98,0.97,1.01
122.33,5.57,5.56,4.61,4.60,-4.64,-4.61,-5.26,0.92,0.91,0.95
123.55,5.53,5.54,4.63,4.64,-4.67,-4.63,-5.28,0.86,0.87,0.90
124.79,5.53,5.53,4.68,4.68,-4.69,-4.65,-5.29,0.84,0.84,0.85
126.03,5.53,5.53,4.73,4.73,-4.71,-4.67,-5.30,0.82,0.82,0.80
127.29,5.54,5.53,4.79,4.78,-4.74,-4.69,-5.30,0.80,0.79,0.75
128.57,5.51,5.50,4.81,4.80,-4.77,-4.71,-5.29,0.74,0.73,0.70
129.85,5.45,5.45,4.80,4.80,-4.80,-4.73,-5.28,0.65,0.65,0.65
131.15,5.39,5.40,4.78,4.80,-4.82,-4.75,-5.26,0.57,0.58,0.60
132.46,5.37,5.38,4.81,4.82,-4.84,-4.76,-5.24,0.53,0.54,0.56
133.79,5.37,5.36,4.86,4.85,-4.85,-4.78,-5.21,0.52,0.51,0.51
135.12,5.36,5.34,4.89,4.88,-4.86,-4.79,-5.18,0.50,0.48,0.46
136.48,5.30,5.31,4.88,4.89,-4.87,-4.80,-5.14,0.42,0.44,0.42
137.84,5.27,5.26,4.89,4.89,-4.89,-4.81,-5.10,0.38,0.37,0.38
139.22,5.22,5.22,4.90,4.90,-4.91,-4.83,-5.06,0.31,0.32,0.32
140.61,5.18,5.19,4.90,4.91,-4.92,-4.84,-5.01,0.25,0.27,0.28
142.02,5.18,5.15,4.95,4.92,-4.94,-4.84,-4.96,0.24,0.21,0.23
143.44,5.11,5.12,4.93,4.94,-4.95,-4.85,-4.91,0.16,0.17,0.18
144.87,5.08,5.10,4.95,4.97,-4.96,-4.86,-4.86,0.11,0.13,0.13
146.32,5.08,5.07,4.99,4.99,-4.98,-4.87,-4.81,0.10,0.09,0.09
147.78,5.06,5.04,5.02,5.00,-4.99,-4.87,-4.75,0.07,0.05,0.04
149.26,5.00,4.99,5.01,5.00,-4.99,-4.88,-4.70,0.00,-0.00,-0.01
150.75,4.92,4.94,4.98,5.00,-4.99,-4.88,-4.64,-0.07,-0.05,-0.06
152.26,4.89,4.89,4.99,4.99,-4.99,-4.88,-4.59,-0.10,-0.10,-0.10
153.78,4.87,4.85,5.01,4.99,-4.99,-4.88,-4.54,-0.13,-0.14,-0.14
155.32,4.81,4.80,4.99,4.99,-5.00,-4.88,-4.49,-0.19,-0.19,-0.18
156.88,4.74,4.74,4.97,4.97,-5.00,-4.88,-4.44,-0.26,-0.25,-0.23
158.44,4.69,4.70,4.96,4.97,-5.00,-4.88,-4.40,-0.31,-0.30,-0.27
160.03,4.68,4.68,4.99,5.00,-5.01,-4.88,-4.35,-0.33,-0.32,-0.31
161.63,4.68,4.68,5.04,5.04,-5.01,-4.87,-4.31,-0.34,-0.34,-0.37
163.24,4.67,4.64,5.07,5.05,-5.02,-4.87,-4.27,-0.35,-0.37,-0.41
164.88,4.59,4.58,5.03,5.03,-5.01,-4.87,-4.23,-0.42,-0.43,-0.45
166.53,4.49,4.52,4.97,5.01,-5.01,-4.86,-4.20,-0.52,-0.49,-0.49
168.19,4.46,4.47,4.98,4.99,-5.00,-4.85,-4.17,-0.54,-0.53,-0.52
169.87,4.45,4.42,5.01,4.98,-4.98,-4.84,-4.14,-0.54,-0.56,-0.56
171.57,4.38,4.36,4.98,4.96,-4.97,-4.83,-4.11,-0.59,-0.60,-0.60
173.29,4.28,4.30,4.91,4.93,-4.95,-4.82,-4.09,-0.67,-0.65,-0.63
175.02,4.23,4.25,4.89,4.92,-4.93,-4.81,-4.07,-0.70,-0.67,-0.66
176.77,4.23,4.22,4.92,4.92,-4.91,-4.80,-4.05,-0.68,-0.69,-0.69
178.54,4.23,4.18,4.96,4.91,-4.89,-4.79,-4.04,-0.66,-0.71,-0.73
180.32,4.12,4.14,4.87,4.89,-4.87,-4.78,-4.03,-0.75,-0.73,-0.75
182.13,4.05,4.08,4.82,4.85,-4.85,-4.76,-4.02,-0.80,-0.77,-0.77
183.95,4.05,4.03,4.84,4.82,-4.83,-4.75,-4.02,-0.79,-0.81,-0.80
185.79,4.00,3.99,4.82,4.81,-4.82,-4.73,-4.02,-0.82,-0.83,-0.82
187.65,3.96,3.95,4.80,4.79,-4.80,-4.71,-4.02,-0.85,-0.85,-0.84
189.52,3.90,3.92,4.76,4.77,-4.79,-4.70,-4.02,-0.89,-0.87,-0.86
191.42,3.90,3.90,4.77,4.77,-4.78,-4.68,-4.03,-0.88,-0.88,-0.87
193.33,3.91,3.89,4.79,4.78,-4.77,-4.66,-4.04,-0.86,-0.88,-0.89
195.27,3.88,3.87,4.78,4.78,-4.76,-4.64,-4.05,-0.89,-0.89,-0.91
197.22,3.84,3.84,4.76,4.76,-4.75,-4.62,-4.07,-0.91,-0.92,-0.92
199.19,3.78,3.79,4.72,4.73,-4.73,-4.60,-4.09,-0.96,-0.94,-0.94
201.18,3.76,3.76,4.71,4.72,-4.71,-4.57,-4.11,-0.96,-0.95,-0.96
203.19,3.73,3.72,4.70,4.69,-4.69,-4.55,-4.13,-0.96,-0.97,-0.97
205.23,3.69,3.68,4.68,4.66,-4.65,-4.53,-4.15,-0.97,-0.98,-0.99
207.28,3.61,3.61,4.61,4.62,-4.62,-4.50,-4.17,-1.01,-1.00,-1.00
209.35,3.55,3.55,4.57,4.57,-4.57,-4.48,-4.20,-1.03,-1.03,-1.02
211.44,3.48,3.50,4.52,4.54,-4.54,-4.45,-4.22,-1.06,-1.03,-1.04
213.56,3.46,3.44,4.51,4.50,-4.50,-4.42,-4.25,-1.04,-1.05,-1.06
215.69,3.42,3.38,4.50,4.45,-4.46,-4.40,-4.27,-1.04,-1.09,-1.08
217.85,3.27,3.31,4.36,4.40,-4.43,-4.37,-4.29,-1.16,-1.12,-1.09
220.03,3.25,3.26,4.36,4.37,-4.39,-4.34,-4.32,-1.14,-1.13,-1.11
222.23,3.24,3.23,4.36,4.36,-4.35,-4.31,-4.34,-1.12,-1.12,-1.13
224.45,3.24,3.20,4.37,4.34,-4.32,-4.28,-4.36,-1.08,-1.11,-1.14
226.70,3.16,3.15,4.31,4.30,-4.28,-4.25,-4.38,-1.12,-1.13,-1.15
228.96,3.05,3.10,4.21,4.26,-4.24,-4.22,-4.40,-1.19,-1.14,-1.16
231.25,3.05,3.03,4.21,4.20,-4.21,-4.19,-4.41,-1.16,-1.17,-1.16
233.57,3.03,2.98,4.20,4.15,-4.17,-4.16,-4.42,-1.14,-1.19,-1.17
235.90,2.89,2.94,4.07,4.12,-4.13,-4.12,-4.42,-1.24,-1.19,-1.18
238.26,2.89,2.91,4.07,4.08,-4.09,-4.09,-4.43,-1.20,-1.18,-1.18
240.64,2.91,2.87,4.09,4.05,-4.05,-4.06,-4.42,-1.14,-1.18,-1.18
243.05,2.87,2.85,4.04,4.03,-4.01,-4.02,-4.42,-1.14,-1.16,-1.18
245.48,2.78,2.81,3.95,3.99,-3.98,-3.99,-4.40,-1.20,-1.17,-1.17
247.93,2.77,2.77,3.94,3.94,-3.95,-3.95,-4.39,-1.18,-1.18,-1.17
250.41,2.75,2.73,3.92,3.90,-3.91,-3.92,-4.36,-1.17,-1.18,-1.17
252.92,2.70,2.70,3.87,3.87,-3.88,-3.88,-4.34,-1.18,-1.18,-1.17
255.45,2.65,2.66,3.82,3.84,-3.84,-3.84,-4.30,-1.19,-1.17,-1.18
258.00,2.63,2.64,3.80,3.81,-3.80,-3.81,-4.27,-1.17,-1.16,-1.17
260.58,2.63,2.60,3.81,3.78,-3.77,-3.77,-4.23,-1.14,-1.17,-1.18
263.19,2.56,2.54,3.74,3.73,-3.73,-3.73,-4.18,-1.17,-1.19,-1.19
265.82,2.45,2.48,3.65,3.68,-3.69,-3.69,-4.13,-1.24,-1.21,-1.20
268.48,2.42,2.43,3.63,3.64,-3.65,-3.65,-4.07,-1.23,-1.22,-1.21
271.16,2.42,2.39,3.64,3.61,-3.61,-3.61,-4.01,-1.19,-1.22,-1.22
273.87,2.35,2.36,3.58,3.59,-3.57,-3.57,-3.95,-1.22,-1.21,-1.23
276.61,2.30,2.29,3.54,3.54,-3.53,-3.53,-3.89,-1.23,-1.24,-1.25
279.38,2.23,2.22,3.49,3.48,-3.50,-3.49,-3.82,-1.27,-1.28,-1.26
282.17,2.15,2.16,3.41,3.43,-3.46,-3.45,-3.75,-1.31,-1.30,-1.27
284.99,2.12,2.14,3.39,3.41,-3.42,-3.40,-3.67,-1.30,-1.28,-1.27
287.84,2.13,2.12,3.39,3.39,-3.37,-3.36,-3.60,-1.25,-1.25,-1.27
290.72,2.14,2.10,3.41,3.37,-3.33,-3.32,-3.52,-1.19,-1.23,-1.27
293.63,2.02,2.04,3.29,3.31,-3.28,-3.28,-3.44,-1.26,-1.24,-1.27
296.57,1.97,1.97,3.24,3.24,-3.24,-3.23,-3.36,-1.27,-1.27,-1.27
299.53,1.89,1.89,3.15,3.16,-3.19,-3.19,-3.28,-1.30,-1.30,-1.26
302.53,1.85,1.85,3.11,3.12,-3.14,-3.14,-3.20,-1.29,-1.29,-1.27
305.55,1.81,1.82,3.07,3.08,-3.09,-3.10,-3.12,-1.28,-1.27,-1.26
308.61,1.81,1.78,3.07,3.05,-3.04,-3.05,-3.04,-1.23,-1.26,-1.26
311.69,1.74,1.73,3.01,2.99,-2.99,-3.01,-2.97,-1.25,-1.26,-1.27
314.81,1.65,1.67,2.92,2.95,-2.94,-2.96,-2.89,-1.30,-1.27,-1.27
317.96,1.61,1.62,2.88,2.89,-2.90,-2.92,-2.81,-1.29,-1.28,-1.27
321.14,1.60,1.58,2.88,2.85,-2.85,-2.87,-2.73,-1.25,-1.27,-1.28
324.35,1.54,1.54,2.81,2.81,-2.80,-2.82,-2.66,-1.26,-1.26,-1.27
327.59,1.48,1.48,2.75,2.75,-2.74,-2.77,-2.58,-1.26,-1.26,-1.27
330.87,1.42,1.41,2.69,2.68,-2.69,-2.73,-2.51,-1.27,-1.28,-1.28
334.18,1.33,1.34,2.61,2.62,-2.63,-2.68,-2.44,-1.31,-1.30,-1.28
337.52,1.28,1.28,2.56,2.56,-2.58,-2.63,-2.37,-1.30,-1.30,-1.28
340.90,1.23,1.23,2.51,2.51,-2.52,-2.58,-2.30,-1.30,-1.29,-1.28
344.30,1.21,1.20,2.48,2.47,-2.47,-2.53,-2.23,-1.26,-1.27,-1.28
347.75,1.15,1.15,2.42,2.43,-2.41,-2.48,-2.17,-1.26,-1.26,-1.27
351.23,1.10,1.09,2.38,2.37,-2.36,-2.43,-2.10,-1.26,-1.27,-1.28
354.74,1.04,1.03,2.30,2.29,-2.31,-2.39,-2.04,-1.27,-1.28,-1.26
358.28,0.96,0.99,2.22,2.25,-2.25,-2.34,-1.98,-1.29,-1.27,-1.27
361.87,0.93,0.94,2.19,2.20,-2.19,-2.28,-1.92,-1.26,-1.25,-1.26
365.49,0.94,0.88,2.19,2.13,-2.13,-2.23,-1.86,-1.19,-1.25,-1.25
369.14,0.81,0.83,2.06,2.08,-2.07,-2.18,-1.81,-1.26,-1.24,-1.25
372.83,0.74,0.78,1.97,2.02,-2.01,-2.13,-1.75,-1.27,-1.23,-1.23
376.56,0.76,0.71,1.99,1.94,-1.95,-2.08,-1.70,-1.20,-1.25,-1.24
380.33,0.67,0.65,1.90,1.89,-1.90,-2.03,-1.64,-1.23,-1.25,-1.24
384.13,0.56,0.60,1.80,1.84,-1.85,-1.98,-1.59,-1.29,-1.24,-1.24
387.97,0.55,0.55,1.79,1.79,-1.80,-1.93,-1.54,-1.25,-1.25,-1.24
391.85,0.55,0.52,1.78,1.76,-1.76,-1.87,-1.50,-1.21,-1.24,-1.23
395.77,0.49,0.48,1.73,1.72,-1.72,-1.82,-1.45,-1.23,-1.23,-1.24
399.73,0.42,0.43,1.66,1.68,-1.68,-1.77,-1.40,-1.26,-1.24,-1.24
403.72,0.37,0.38,1.61,1.63,-1.64,-1.72,-1.36,-1.27,-1.26,-1.25
407.76,0.36,0.34,1.62,1.60,-1.60,-1.66,-1.32,-1.24,-1.26,-1.27
411.84,0.29,0.31,1.56,1.58,-1.55,-1.61,-1.28,-1.27,-1.25,-1.27
415.96,0.26,0.25,1.53,1.52,-1.51,-1.56,-1.23,-1.25,-1.26,-1.27
420.12,0.21,0.17,1.49,1.45,-1.45,-1.50,-1.19,-1.25,-1.28,-1.28
424.32,0.08,0.13,1.35,1.40,-1.40,-1.45,-1.15,-1.32,-1.27,-1.27
428.56,0.07,0.07,1.33,1.34,-1.34,-1.39,-1.12,-1.28,-1.27,-1.26
432.85,0.09,0.02,1.33,1.27,-1.28,-1.34,-1.08,-1.19,-1.26,-1.24
437.18,-0.04,0.00,1.19,1.23,-1.22,-1.29,-1.04,-1.26,-1.21,-1.24
441.55,-0.06,-0.02,1.13,1.17,-1.16,-1.23,-1.01,-1.22,-1.18,-1.20
445.96,0.01,-0.06,1.16,1.10,-1.10,-1.18,-0.97,-1.09,-1.17,-1.16
450.42,-0.07,-0.07,1.04,1.04,-1.05,-1.12,-0.94,-1.12,-1.12,-1.11
454.93,-0.12,-0.07,0.94,0.99,-1.00,-1.07,-0.90,-1.12,-1.07,-1.06
459.48,-0.05,-0.07,0.95,0.94,-0.96,-1.01,-0.87,-1.01,-1.02,-1.00
464.07,-0.01,-0.04,0.94,0.92,-0.92,-0.96,-0.84,-0.93,-0.95,-0.95
468.71,-0.01,-0.01,0.89,0.88,-0.87,-0.90,-0.81,-0.89,-0.89,-0.90
473.40,-0.02,-0.00,0.82,0.84,-0.83,-0.85,-0.77,-0.85,-0.84,-0.84
478.13,-0.00,0.00,0.78,0.79,-0.79,-0.79,-0.74,-0.79,-0.79,-0.78
482.91,0.04,0.02,0.77,0.75,-0.74,-0.74,-0.71,-0.71,-0.73,-0.73
487.74,0.01,0.02,0.70,0.72,-0.69,-0.68,-0.68,-0.68,-0.67,-0.69
492.62,0.01,-0.01,0.66,0.64,-0.63,-0.63,-0.65,-0.62,-0.64,-0.65
497.55,-0.04,-0.06,0.57,0.56,-0.57,-0.57,-0.62,-0.61,-0.63,-0.62
502.52,-0.14,-0.08,0.45,0.51,-0.51,-0.52,-0.59,-0.65,-0.59,-0.60
507.55,-0.11,-0.12,0.45,0.45,-0.45,-0.46,-0.56,-0.57,-0.57,-0.57
512.62,-0.09,-0.18,0.46,0.38,-0.40,-0.41,-0.53,-0.49,-0.58,-0.56
