frequency,raw
20,12.93
21,13.04
22,13.17
23,13.29
24,13.39
25,13.48
26,13.54
27,13.61
28,13.65
29,13.69
30,13.69
31,13.69
32,13.65
33,13.65
34,13.61
35,13.56
36,13.52
37,13.48
38,13.43
39,13.39
40,13.35
41,13.30
42,13.26
43,13.22
44,13.20
45,13.17
46,13.13
47,13.09
48,13.08
49,13.04
50,13.00
51,13.00
52,12.96
53,12.92
54,12.91
55,12.88
56,12.87
57,12.87
58,12.83
59,12.83
60,12.83
61,12.78
62,12.78
63,12.76
64,12.74
65,12.74
66,12.70
67,12.70
68,12.68
69,12.65
70,12.65
71,12.61
72,12.61
73,12.59
74,12.57
75,12.57
76,12.52
77,12.52
78,12.48
79,12.48
80,12.44
81,12.44
82,12.42
83,12.39
84,12.39
85,12.35
86,12.34
87,12.31
88,12.30
89,12.26
90,12.25
91,12.22
92,12.22
93,12.18
94,12.18
95,12.13
96,12.13
97,12.09
98,12.07
99,12.05
100,12.03
101,12.00
102,11.98
104,11.94
105,11.92
106,11.89
107,11.87
108,11.83
109,11.83
110,11.80
111,11.79
112,11.75
113,11.74
114,11.70
115,11.70
117,11.65
118,11.61
119,11.58
120,11.57
121,11.54
123,11.48
124,11.48
125,11.44
126,11.42
128,11.36
129,11.35
130,11.32
131,11.30
133,11.25
134,11.22
135,11.19
137,11.14
138,11.12
140,11.07
141,11.05
142,11.02
144,10.96
145,10.95
147,10.90
148,10.87
150,10.82
151,10.79
153,10.74
154,10.72
156,10.66
157,10.65
159,10.60
160,10.57
162,10.51
164,10.46
165,10.43
167,10.38
169,10.33
170,10.30
172,10.25
174,10.20
175,10.17
177,10.12
179,10.08
181,10.00
183,9.95
184,9.93
186,9.88
188,9.82
190,9.77
192,9.71
194,9.66
196,9.60
198,9.55
200,9.49
202,9.43
204,9.38
206,9.31
208,9.26
210,9.20
212,9.15
214,9.08
216,9.04
218,8.97
221,8.87
223,8.81
225,8.72
227,8.67
229,8.58
232,8.49
234,8.40
236,8.32
239,8.21
241,8.12
244,8.01
246,7.95
248,7.91
251,7.91
253,7.97
256,8.09
259,8.25
261,8.33
264,8.43
266,8.48
269,8.45
272,8.43
274,8.37
277,8.29
280,8.19
283,8.12
286,8.01
288,7.97
291,7.88
294,7.81
297,7.71
300,7.65
303,7.56
306,7.49
309,7.42
312,7.33
316,7.24
319,7.19
322,7.11
325,7.04
328,6.98
332,6.88
335,6.81
338,6.76
342,6.66
345,6.59
349,6.51
352,6.46
356,6.36
359,6.31
363,6.24
366,6.17
370,6.08
374,6.01
377,5.95
381,5.86
385,5.80
389,5.71
393,5.63
397,5.57
401,5.48
405,5.41
409,5.35
413,5.27
417,5.19
421,5.12
425,5.05
430,4.96
434,4.90
438,4.81
443,4.74
447,4.68
451,4.59
456,4.52
460,4.45
465,4.36
470,4.29
474,4.21
479,4.14
484,4.05
489,3.97
494,3.91
499,3.83
504,3.75
509,3.69
514,3.59
519,3.53
524,3.45
529,3.37
535,3.30
540,3.21
545,3.15
551,3.06
556,2.99
562,2.91
568,2.84
573,2.76
579,2.69
585,2.60
591,2.53
596,2.46
602,2.38
608,2.32
615,2.23
621,2.16
627,2.09
633,2.01
639,1.94
646,1.87
652,1.80
659,1.72
665,1.65
672,1.60
679,1.52
686,1.45
692,1.39
699,1.33
706,1.27
713,1.20
721,1.12
728,1.06
735,1.00
742,0.93
750,0.89
757,0.83
765,0.76
773,0.72
780,0.67
788,0.61
796,0.55
804,0.50
812,0.46
820,0.41
828,0.36
837,0.33
845,0.28
853,0.25
862,0.22
871,0.17
879,0.14
888,0.13
897,0.09
906,0.09
915,0.04
924,0.04
933,0.01
943,0.00
952,0.00
962,0.00
971,0.00
981,-0.02
991,-0.01
1001,0.00
1011,0.00
1021,0.00
1031,0.00
1041,0.01
1052,0.04
1062,0.04
1073,0.06
1084,0.09
1094,0.09
1105,0.13
1116,0.13
1128,0.17
1139,0.19
1150,0.22
1162,0.25
1173,0.28
1185,0.30
1197,0.34
1209,0.35
1221,0.39
1233,0.40
1246,0.43
1258,0.46
1271,0.48
1283,0.48
1296,0.52
1309,0.52
1322,0.57
1335,0.63
1349,0.70
1362,0.79
1376,0.85
1390,0.87
1404,0.91
1418,0.95
1432,0.99
1446,1.05
1461,1.11
1475,1.16
1490,1.23
1505,1.28
1520,1.34
1535,1.41
1550,1.46
1566,1.53
1582,1.59
1597,1.66
1613,1.73
1629,1.80
1646,1.89
1662,1.95
1679,2.04
1696,2.12
1713,2.22
1730,2.28
1747,2.38
1764,2.46
1782,2.55
1800,2.65
1818,2.75
1836,2.84
1854,2.93
1873,3.04
1892,3.14
1911,3.25
1930,3.35
1949,3.45
1969,3.56
1988,3.66
2008,3.76
2028,3.86
2048,3.96
2069,4.07
2090,4.17
2111,4.28
2132,4.38
2153,4.48
2175,4.59
2196,4.66
2218,4.77
2240,4.86
2263,4.94
2285,5.03
2308,5.11
2331,5.20
2355,5.27
2378,5.35
2402,5.42
2426,5.48
2450,5.53
2475,5.58
2500,5.65
2525,5.70
2550,5.73
2575,5.76
2601,5.81
2627,5.82
2653,5.85
2680,5.85
2707,5.85
2734,5.87
2761,5.87
2789,5.87
2817,5.85
2845,5.85
2873,5.85
2902,5.81
2931,5.79
2960,5.76
2990,5.72
3020,5.70
3050,5.65
3080,5.62
3111,5.57
3142,5.53
3174,5.48
3206,5.43
3238,5.37
3270,5.32
3303,5.27
3336,5.21
3369,5.14
3403,5.05
3437,4.97
3471,4.89
3506,4.82
3541,4.85
3576,4.88
3612,4.86
3648,4.83
3685,4.77
3721,4.71
3759,4.66
3796,4.62
3834,4.57
3873,4.53
3911,4.49
3950,4.46
3990,4.42
4030,4.38
4070,4.38
4111,4.33
4152,4.33
4193,4.33
4235,4.31
4278,4.31
4321,4.31
4364,4.33
4407,4.33
4451,4.35
4496,4.38
4541,4.42
4586,4.46
4632,4.49
4679,4.55
4725,4.59
4773,4.63
4820,4.71
4868,4.79
4917,4.89
4966,5.02
5016,5.13
5066,5.27
5117,5.39
5168,5.55
5220,5.71
5272,5.90
5325,6.09
5378,6.27
5432,6.50
5486,6.74
5541,7.00
5596,7.25
5652,7.53
5709,7.84
5766,8.17
5823,8.52
5882,8.88
5940,9.25
6000,9.65
6060,10.07
6120,10.49
6182,10.94
6244,11.41
6306,11.88
6369,12.34
6433,12.81
6497,13.25
6562,13.66
6628,14.04
6694,14.33
6761,14.58
6828,14.73
6897,14.85
6966,14.85
7035,14.77
7106,14.67
7177,14.54
7249,14.39
7321,14.25
7394,14.13
7468,14.00
7543,13.89
7618,13.84
7694,13.78
7771,13.72
7849,13.59
7928,13.38
8007,13.06
8087,12.57
8168,11.93
8250,11.08
8332,10.15
8415,9.09
8499,8.03
8584,7.01
8670,6.11
8757,5.40
8845,4.90
8933,4.60
9022,4.50
9113,4.57
9204,4.71
9296,4.84
9389,5.00
9483,5.21
9577,5.55
9673,5.98
9770,6.37
9868,6.74
9966,6.96
10066,6.89
10167,6.67
10268,6.30
10371,5.84
10475,5.34
10579,4.79
10685,4.26
10792,3.74
10900,3.25
11009,2.82
11119,2.41
11230,2.07
11343,1.76
11456,1.55
11571,1.36
11686,1.25
11803,1.17
11921,1.23
12040,1.32
12161,1.50
12282,1.73
12405,2.01
12529,2.32
12655,2.65
12781,2.93
12909,3.19
13038,3.36
13168,3.22
13300,2.88
13433,2.39
13567,1.68
13703,0.87
13840,-0.06
13978,-1.02
14118,-2.00
14259,-2.91
14402,-3.80
14546,-4.59
14692,-5.31
14838,-5.93
14987,-6.49
15137,-6.95
15288,-7.35
15441,-7.64
15595,-7.85
15751,-7.99
15909,-7.93
16068,-7.75
16229,-7.49
16391,-7.17
16555,-6.85
16720,-6.57
16888,-6.49
17056,-6.81
17227,-7.49
17399,-8.50
17573,-9.80
17749,-11.13
17926,-11.95
18106,-12.79
18287,-13.61
18470,-14.44
18654,-15.26
18841,-16.08
19029,-16.91
19220,-17.74
19412,-18.56
19606,-19.38
19802,-20.21
20000,-21.03
