frequency,raw
20.00,-11.36
20.20,-11.24
20.40,-11.12
20.61,-11.00
20.81,-10.88
21.02,-10.76
21.23,-10.64
21.44,-10.51
21.66,-10.39
21.87,-10.27
22.09,-10.14
22.31,-10.01
22.54,-9.88
22.76,-9.75
22.99,-9.62
23.22,-9.49
23.45,-9.36
23.69,-9.23
23.92,-9.09
24.16,-8.96
24.40,-8.83
24.65,-8.71
24.89,-8.58
25.14,-8.45
25.39,-8.32
25.65,-8.20
25.91,-8.07
26.16,-7.94
26.43,-7.82
26.69,-7.69
26.96,-7.56
27.23,-7.43
27.50,-7.30
27.77,-7.17
28.05,-7.05
28.33,-6.93
28.62,-6.82
28.90,-6.70
29.19,-6.59
29.48,-6.48
29.78,-6.37
30.08,-6.26
30.38,-6.15
30.68,-6.04
30.99,-5.93
31.30,-5.82
31.61,-5.71
31.93,-5.60
32.24,-5.50
32.57,-5.40
32.89,-5.31
33.22,-5.22
33.55,-5.13
33.89,-5.05
34.23,-4.97
34.57,-4.88
34.92,-4.80
35.27,-4.73
35.62,-4.66
35.97,-4.59
36.33,-4.54
36.70,-4.48
37.06,-4.44
37.43,-4.40
37.81,-4.35
38.19,-4.30
38.57,-4.23
38.95,-4.15
39.34,-4.06
39.74,-3.96
40.14,-3.84
40.54,-3.72
40.94,-3.59
41.35,-3.46
41.76,-3.34
42.18,-3.25
42.60,-3.16
43.03,-3.08
43.46,-3.01
43.90,-2.93
44.33,-2.86
44.78,-2.79
45.23,-2.72
45.68,-2.67
46.13,-2.63
46.60,-2.60
47.06,-2.57
47.53,-2.55
48.01,-2.52
48.49,-2.49
48.97,-2.47
49.46,-2.46
49.96,-2.47
50.46,-2.51
50.96,-2.56
51.47,-2.63
51.99,-2.70
52.51,-2.75
53.03,-2.77
53.56,-2.70
54.10,-2.57
54.64,-2.38
55.18,-2.12
55.74,-1.83
56.29,-1.55
56.86,-1.27
57.42,-1.04
58.00,-0.82
58.58,-0.65
59.16,-0.49
59.76,-0.36
60.35,-0.25
60.96,-0.16
61.57,-0.09
62.18,-0.04
62.80,-0.01
63.43,0.01
64.07,0.03
64.71,0.03
65.35,0.03
66.01,0.03
66.67,0.02
67.33,0.02
68.01,0.01
68.69,0.00
69.37,-0.00
70.07,-0.01
70.77,-0.01
71.48,-0.01
72.19,-0.01
72.91,-0.00
73.64,-0.00
74.38,0.00
75.12,-0.00
75.87,-0.01
76.63,-0.01
77.40,-0.02
78.17,-0.03
78.95,-0.03
79.74,-0.04
80.54,-0.05
81.35,-0.06
82.16,-0.07
82.98,-0.08
83.81,-0.09
84.65,-0.11
85.50,-0.12
86.35,-0.13
87.22,-0.15
88.09,-0.17
88.97,-0.19
89.86,-0.22
90.76,-0.25
91.66,-0.28
92.58,-0.31
93.51,-0.35
94.44,-0.38
95.39,-0.41
96.34,-0.44
97.30,-0.48
98.28,-0.51
99.26,-0.55
100.25,-0.57
101.25,-0.60
102.27,-0.62
103.29,-0.64
104.32,-0.66
105.37,-0.68
106.42,-0.70
107.48,-0.72
108.56,-0.74
109.64,-0.76
110.74,-0.79
111.85,-0.81
112.97,-0.84
114.10,-0.87
115.24,-0.89
116.39,-0.91
117.55,-0.93
118.73,-0.95
119.92,-0.96
121.12,-0.98
122.33,-0.99
123.55,-1.01
124.79,-1.02
126.03,-1.03
127.29,-1.05
128.57,-1.06
129.85,-1.08
131.15,-1.09
132.46,-1.11
133.79,-1.12
135.12,-1.13
136.48,-1.14
137.84,-1.15
139.22,-1.16
140.61,-1.17
142.02,-1.18
143.44,-1.19
144.87,-1.19
146.32,-1.20
147.78,-1.21
149.26,-1.22
150.75,-1.23
152.26,-1.24
153.78,-1.26
155.32,-1.27
156.88,-1.29
158.44,-1.30
160.03,-1.32
161.63,-1.33
163.24,-1.35
164.88,-1.36
166.53,-1.38
168.19,-1.39
169.87,-1.41
171.57,-1.42
173.29,-1.43
175.02,-1.45
176.77,-1.46
178.54,-1.47
180.32,-1.48
182.13,-1.49
183.95,-1.50
185.79,-1.51
187.65,-1.51
189.52,-1.51
191.42,-1.51
193.33,-1.51
195.27,-1.50
197.22,-1.49
199.19,-1.48
201.18,-1.47
203.19,-1.46
205.23,-1.45
207.28,-1.45
209.35,-1.44
211.44,-1.44
213.56,-1.43
215.69,-1.43
217.85,-1.43
220.03,-1.42
222.23,-1.42
224.45,-1.42
226.70,-1.42
228.96,-1.42
231.25,-1.41
233.57,-1.41
235.90,-1.41
238.26,-1.40
240.64,-1.40
243.05,-1.40
245.48,-1.39
247.93,-1.39
250.41,-1.39
252.92,-1.38
255.45,-1.37
258.00,-1.36
260.58,-1.36
263.19,-1.35
265.82,-1.35
268.48,-1.34
271.16,-1.34
273.87,-1.34
276.61,-1.34
279.38,-1.34
282.17,-1.34
284.99,-1.33
287.84,-1.33
290.72,-1.33
293.63,-1.34
296.57,-1.35
299.53,-1.36
302.53,-1.37
305.55,-1.39
308.61,-1.41
311.69,-1.43
314.81,-1.45
317.96,-1.48
321.14,-1.51
324.35,-1.54
327.59,-1.58
330.87,-1.60
334.18,-1.62
337.52,-1.64
340.90,-1.65
344.30,-1.66
347.75,-1.67
351.23,-1.68
354.74,-1.69
358.28,-1.69
361.87,-1.70
365.49,-1.70
369.14,-1.71
372.83,-1.72
376.56,-1.73
380.33,-1.74
384.13,-1.75
387.97,-1.76
391.85,-1.76
395.77,-1.76
399.73,-1.76
403.72,-1.76
407.76,-1.76
411.84,-1.77
415.96,-1.78
420.12,-1.79
424.32,-1.81
428.56,-1.82
432.85,-1.84
437.18,-1.86
441.55,-1.88
445.96,-1.90
450.42,-1.91
454.93,-1.91
459.48,-1.91
464.07,-1.91
468.71,-1.91
473.40,-1.89
478.13,-1.86
482.91,-1.82
487.74,-1.77
492.62,-1.71
497.55,-1.64
502.52,-1.57
507.55,-1.49
512.62,-1.41
517.75,-1.33
522.93,-1.26
528.16,-1.18
533.44,-1.11
538.77,-1.04
544.16,-0.97
549.60,-0.91
555.10,-0.86
560.65,-0.80
566.25,-0.76
571.92,-0.71
577.64,-0.67
583.41,-0.62
589.25,-0.57
595.14,-0.53
601.09,-0.49
607.10,-0.46
613.17,-0.45
619.30,-0.45
625.50,-0.45
631.75,-0.45
638.07,-0.44
644.45,-0.41
650.89,-0.38
657.40,-0.33
663.98,-0.28
670.62,-0.23
677.32,-0.20
684.10,-0.18
690.94,-0.17
697.85,-0.20
704.83,-0.24
711.87,-0.28
718.99,-0.33
726.18,-0.35
733.44,-0.37
740.78,-0.36
748.19,-0.33
755.67,-0.28
763.23,-0.23
770.86,-0.16
778.57,-0.10
786.35,-0.04
794.22,-0.00
802.16,0.03
810.18,0.05
818.28,0.08
826.46,0.11
834.73,0.14
843.08,0.18
851.51,0.23
860.02,0.28
868.62,0.32
877.31,0.35
886.08,0.37
894.94,0.38
903.89,0.37
912.93,0.33
922.06,0.26
931.28,0.16
940.59,0.06
950.00,-0.02
959.50,-0.07
969.09,-0.08
978.78,-0.06
988.57,-0.03
998.46,-0.00
1008.44,0.01
1018.53,0.02
1028.71,-0.00
1039.00,-0.05
1049.39,-0.11
1059.88,-0.18
1070.48,-0.24
1081.19,-0.30
1092.00,-0.35
1102.92,-0.39
1113.95,-0.41
1125.09,-0.42
1136.34,-0.42
1147.70,-0.44
1159.18,-0.51
1170.77,-0.58
1182.48,-0.71
1194.30,-0.85
1206.25,-1.00
1218.31,-1.15
1230.49,-1.27
1242.80,-1.39
1255.22,-1.50
1267.78,-1.63
1280.45,-1.78
1293.26,-1.93
1306.19,-2.07
1319.25,-2.18
1332.45,-2.12
1345.77,-2.01
1359.23,-1.85
1372.82,-1.70
1386.55,-1.60
1400.41,-1.56
1414.42,-1.70
1428.56,-1.84
1442.85,-2.13
1457.28,-2.48
1471.85,-2.87
1486.57,-3.22
1501.43,-3.52
1516.45,-3.58
1531.61,-3.49
1546.93,-3.23
1562.40,-2.89
1578.02,-2.57
1593.80,-2.36
1609.74,-2.28
1625.84,-2.28
1642.10,-2.39
1658.52,-2.49
1675.10,-2.58
1691.85,-2.58
1708.77,-2.52
1725.86,-2.41
1743.12,-2.21
1760.55,-1.96
1778.15,-1.69
1795.94,-1.42
1813.90,-1.19
1832.03,-0.98
1850.36,-0.81
1868.86,-0.68
1887.55,-0.55
1906.42,-0.42
1925.49,-0.27
1944.74,-0.13
1964.19,-0.01
1983.83,0.09
2003.67,0.17
2023.71,0.25
2043.94,0.39
2064.38,0.56
2085.03,0.80
2105.88,1.08
2126.94,1.39
2148.20,1.70
2169.69,2.01
2191.38,2.30
2213.30,2.56
2235.43,2.82
2257.78,3.08
2280.36,3.34
2303.17,3.60
2326.20,3.86
2349.46,4.12
2372.95,4.40
2396.68,4.70
2420.65,5.05
2444.86,5.42
2469.31,5.80
2494.00,6.13
2518.94,6.39
2544.13,6.64
2569.57,6.90
2595.27,7.20
2621.22,7.53
2647.43,7.87
2673.90,8.17
2700.64,8.45
2727.65,8.72
2754.93,9.01
2782.48,9.32
2810.30,9.64
2838.40,9.96
2866.79,10.26
2895.46,10.55
2924.41,10.76
2953.65,10.93
2983.19,11.01
3013.02,11.06
3043.15,11.08
3073.58,11.05
3104.32,10.98
3135.36,10.92
3166.72,10.88
3198.38,10.86
3230.37,10.87
3262.67,10.85
3295.30,10.78
3328.25,10.65
3361.53,10.50
3395.15,10.33
3429.10,10.20
3463.39,10.09
3498.03,10.04
3533.01,10.04
3568.34,10.01
3604.02,9.95
3640.06,9.85
3676.46,9.74
3713.22,9.64
3750.36,9.57
3787.86,9.49
3825.74,9.41
3864.00,9.29
3902.64,9.19
3941.66,9.09
3981.08,9.07
4020.89,9.09
4061.10,9.16
4101.71,9.22
4142.73,9.26
4184.15,9.27
4226.00,9.25
4268.26,9.20
4310.94,9.13
4354.05,9.03
4397.59,8.92
4441.56,8.82
4485.98,8.75
4530.84,8.68
4576.15,8.63
4621.91,8.56
4668.13,8.48
4714.81,8.38
4761.96,8.26
4809.58,8.14
4857.67,8.01
4906.25,7.85
4955.31,7.67
5004.87,7.43
5054.91,7.15
5105.46,6.86
5156.52,6.59
5208.08,6.34
5260.16,6.11
5312.77,5.89
5365.89,5.72
5419.55,5.65
5473.75,5.66
5528.49,5.77
5583.77,5.95
5639.61,6.20
5696.00,6.47
5752.96,6.80
5810.49,7.13
5868.60,7.45
5927.28,7.72
5986.56,7.92
6046.42,7.98
6106.89,7.93
6167.96,7.75
6229.64,7.47
6291.93,7.09
6354.85,6.64
6418.40,6.16
6482.58,5.63
6547.41,5.09
6612.88,4.56
6679.01,4.07
6745.80,3.64
6813.26,3.25
6881.39,2.96
6950.21,2.74
7019.71,2.60
7089.91,2.54
7160.81,2.60
7232.41,2.72
7304.74,2.93
7377.79,3.23
7451.56,3.57
7526.08,3.92
7601.34,4.25
7677.35,4.55
7754.13,4.85
7831.67,5.09
7909.98,5.29
7989.08,5.41
8068.98,5.35
8149.67,5.14
8231.16,4.71
8313.47,4.06
8396.61,3.35
8480.57,2.60
8565.38,2.00
8651.03,1.51
8737.54,1.13
8824.92,0.74
8913.17,0.19
9002.30,-0.42
9092.32,-1.31
9183.25,-2.39
9275.08,-3.66
9367.83,-5.22
9461.51,-7.11
9556.12,-9.13
9651.68,-11.06
9748.20,-12.72
9845.68,-12.93
9944.14,-12.12
10043.58,-10.50
10144.02,-8.50
10245.46,-6.40
10347.91,-4.37
10451.39,-2.46
10555.91,-0.81
10661.46,0.61
10768.08,1.80
10875.76,2.69
10984.52,3.30
11094.36,3.74
11205.31,3.99
11317.36,4.01
11430.53,3.93
11544.84,3.62
11660.29,3.16
11776.89,2.63
11894.66,2.01
12013.60,1.39
12133.74,0.97
12255.08,0.91
12377.63,1.13
12501.41,1.63
12626.42,2.34
12752.68,3.04
12880.21,3.56
13009.01,3.95
13139.10,4.35
13270.49,4.21
13403.20,3.88
13537.23,3.12
13672.60,2.22
13809.33,1.20
13947.42,0.21
14086.90,-0.45
14227.77,-0.92
14370.04,-1.08
14513.74,-0.93
14658.88,-0.63
14805.47,-0.45
14953.52,-0.44
15103.06,-0.76
15254.09,-1.24
15406.63,-2.10
15560.70,-3.02
15716.30,-4.02
15873.47,-4.90
16032.20,-5.67
16192.52,-6.11
16354.45,-6.23
16517.99,-6.12
16683.17,-5.60
16850.01,-4.92
17018.51,-4.13
17188.69,-3.37
17360.58,-2.83
17534.18,-2.50
17709.53,-2.57
17886.62,-2.98
18065.49,-3.58
18246.14,-4.30
18428.60,-4.78
18612.89,-4.86
18799.02,-4.49
18987.01,-3.57
19176.88,-2.19
19368.65,-0.76
19562.33,0.58
19757.96,1.70
19955.54,2.81
