frequency,raw,error,smoothed,error_smoothed,equalization,parametric_eq,fixed_band_eq,equalized_raw,equalized_smoothed,target
20.00,-1.06,-1.42,-1.06,-1.42,1.42,-0.26,-0.77,0.36,0.36,0.36
20.20,-0.99,-1.35,-1.00,-1.36,1.36,-0.29,-0.79,0.37,0.36,0.36
20.40,-0.94,-1.30,-0.94,-1.30,1.30,-0.32,-0.81,0.36,0.36,0.36
20.61,-0.87,-1.23,-0.87,-1.24,1.23,-0.35,-0.83,0.36,0.36,0.36
20.81,-0.80,-1.16,-0.81,-1.17,1.16,-0.37,-0.85,0.36,0.35,0.36
21.02,-0.74,-1.10,-0.74,-1.09,1.08,-0.40,-0.87,0.34,0.35,0.36
21.23,-0.66,-1.00,-0.67,-1.01,1.01,-0.43,-0.90,0.34,0.34,0.34
21.44,-0.59,-0.92,-0.60,-0.92,0.93,-0.46,-0.92,0.33,0.33,0.33
21.66,-0.53,-0.84,-0.53,-0.84,0.84,-0.49,-0.94,0.31,0.31,0.31
21.87,-0.46,-0.75,-0.46,-0.75,0.75,-0.52,-0.97,0.29,0.29,0.29
22.09,-0.38,-0.66,-0.39,-0.66,0.66,-0.55,-0.99,0.27,0.27,0.28
22.31,-0.31,-0.56,-0.31,-0.56,0.56,-0.59,-1.02,0.25,0.25,0.25
22.54,-0.24,-0.47,-0.24,-0.47,0.47,-0.62,-1.04,0.22,0.23,0.23
22.76,-0.16,-0.37,-0.17,-0.37,0.37,-0.65,-1.07,0.21,0.20,0.21
22.99,-0.09,-0.27,-0.10,-0.27,0.28,-0.69,-1.10,0.18,0.18,0.18
23.22,-0.03,-0.18,-0.03,-0.18,0.18,-0.72,-1.13,0.15,0.16,0.15
23.45,0.05,-0.08,0.04,-0.08,0.09,-0.75,-1.16,0.13,0.13,0.13
23.69,0.12,0.00,0.12,0.01,-0.01,-0.79,-1.19,0.11,0.11,0.12
23.92,0.20,0.10,0.20,0.10,-0.10,-0.83,-1.22,0.09,0.09,0.09
24.16,0.28,0.19,0.28,0.19,-0.20,-0.86,-1.25,0.08,0.08,0.08
24.40,0.36,0.29,0.36,0.29,-0.30,-0.90,-1.28,0.06,0.06,0.06
24.65,0.44,0.39,0.44,0.39,-0.39,-0.94,-1.31,0.04,0.04,0.04
24.89,0.52,0.50,0.52,0.49,-0.49,-0.97,-1.34,0.02,0.03,0.02
25.14,0.61,0.60,0.61,0.59,-0.60,-1.01,-1.38,0.01,0.01,0.01
25.39,0.69,0.70,0.69,0.70,-0.70,-1.05,-1.41,-0.01,-0.01,-0.01
25.65,0.78,0.79,0.78,0.80,-0.80,-1.09,-1.45,-0.02,-0.02,-0.02
25.91,0.86,0.90,0.86,0.90,-0.90,-1.13,-1.48,-0.05,-0.04,-0.05
26.16,0.95,1.01,0.94,1.00,-1.00,-1.17,-1.52,-0.05,-0.06,-0.06
26.43,1.03,1.10,1.03,1.10,-1.10,-1.22,-1.55,-0.07,-0.07,-0.07
26.69,1.12,1.21,1.12,1.20,-1.20,-1.26,-1.59,-0.08,-0.08,-0.09
26.96,1.20,1.30,1.19,1.29,-1.29,-1.30,-1.63,-0.10,-0.10,-0.10
27.23,1.28,1.39,1.27,1.39,-1.39,-1.35,-1.66,-0.11,-0.12,-0.11
27.50,1.35,1.47,1.35,1.48,-1.48,-1.39,-1.70,-0.14,-0.13,-0.12
27.77,1.44,1.58,1.43,1.57,-1.58,-1.44,-1.74,-0.14,-0.15,-0.14
28.05,1.52,1.67,1.51,1.67,-1.67,-1.48,-1.78,-0.15,-0.16,-0.15
28.33,1.59,1.76,1.60,1.77,-1.76,-1.53,-1.81,-0.18,-0.17,-0.18
28.62,1.68,1.86,1.67,1.86,-1.85,-1.58,-1.85,-0.18,-0.19,-0.19
28.90,1.75,1.94,1.75,1.95,-1.95,-1.63,-1.89,-0.20,-0.20,-0.20
29.19,1.82,2.03,1.82,2.04,-2.04,-1.67,-1.93,-0.22,-0.21,-0.22
29.48,1.91,2.13,1.90,2.12,-2.12,-1.72,-1.96,-0.22,-0.22,-0.22
29.78,1.98,2.21,1.98,2.21,-2.21,-1.77,-2.00,-0.24,-0.23,-0.23
30.08,2.06,2.30,2.05,2.29,-2.30,-1.83,-2.04,-0.24,-0.24,-0.24
30.38,2.12,2.38,2.12,2.38,-2.38,-1.88,-2.07,-0.26,-0.26,-0.26
30.68,2.19,2.46,2.19,2.46,-2.46,-1.93,-2.11,-0.27,-0.27,-0.27
30.99,2.26,2.55,2.25,2.54,-2.54,-1.98,-2.15,-0.28,-0.29,-0.29
31.30,2.31,2.61,2.31,2.61,-2.61,-2.04,-2.18,-0.31,-0.30,-0.31
31.61,2.37,2.68,2.36,2.69,-2.69,-2.09,-2.22,-0.32,-0.32,-0.32
31.93,2.42,2.75,2.42,2.76,-2.76,-2.15,-2.26,-0.35,-0.35,-0.34
32.24,2.47,2.84,2.47,2.83,-2.84,-2.21,-2.29,-0.37,-0.36,-0.37
32.57,2.53,2.91,2.53,2.91,-2.91,-2.26,-2.33,-0.38,-0.38,-0.38
32.89,2.58,2.97,2.58,2.98,-2.98,-2.32,-2.36,-0.40,-0.40,-0.39
33.22,2.64,3.06,2.63,3.05,-3.05,-2.38,-2.40,-0.41,-0.42,-0.42
33.55,2.68,3.11,2.68,3.12,-3.12,-2.44,-2.44,-0.44,-0.44,-0.44
33.89,2.73,3.18,2.73,3.19,-3.18,-2.50,-2.47,-0.46,-0.45,-0.46
34.23,2.78,3.26,2.77,3.25,-3.25,-2.56,-2.51,-0.47,-0.48,-0.48
34.57,2.82,3.32,2.81,3.31,-3.31,-2.62,-2.55,-0.49,-0.49,-0.50
34.92,2.85,3.37,2.85,3.37,-3.36,-2.69,-2.59,-0.52,-0.51,-0.52
35.27,2.89,3.42,2.88,3.42,-3.42,-2.75,-2.63,-0.53,-0.54,-0.53
35.62,2.92,3.47,2.92,3.47,-3.47,-2.82,-2.67,-0.56,-0.56,-0.56
35.97,2.95,3.53,2.95,3.52,-3.53,-2.88,-2.71,-0.58,-0.58,-0.58
36.33,2.99,3.58,2.98,3.58,-3.58,-2.95,-2.75,-0.60,-0.60,-0.59
36.70,3.02,3.63,3.02,3.64,-3.64,-3.01,-2.80,-0.63,-0.62,-0.61
37.06,3.07,3.70,3.07,3.70,-3.70,-3.08,-2.84,-0.64,-0.64,-0.64
37.43,3.12,3.77,3.12,3.77,-3.77,-3.15,-2.89,-0.65,-0.65,-0.65
37.81,3.17,3.84,3.17,3.84,-3.84,-3.22,-2.94,-0.67,-0.67,-0.67
38.19,3.23,3.92,3.22,3.91,-3.91,-3.29,-2.99,-0.68,-0.69,-0.69
38.57,3.28,3.98,3.28,3.98,-3.98,-3.36,-3.05,-0.71,-0.71,-0.71
38.95,3.33,4.06,3.33,4.06,-4.06,-3.44,-3.10,-0.73,-0.73,-0.73
39.34,3.39,4.14,3.39,4.14,-4.13,-3.51,-3.16,-0.75,-0.75,-0.75
39.74,3.45,4.22,3.44,4.21,-4.21,-3.58,-3.22,-0.76,-0.77,-0.77
40.14,3.50,4.27,3.50,4.28,-4.28,-3.66,-3.28,-0.79,-0.78,-0.78
40.54,3.55,4.35,3.55,4.35,-4.35,-3.73,-3.35,-0.81,-0.80,-0.80
40.94,3.62,4.43,3.61,4.43,-4.43,-3.81,-3.41,-0.81,-0.82,-0.81
41.35,3.67,4.51,3.67,4.50,-4.50,-3.88,-3.48,-0.83,-0.83,-0.84
41.76,3.73,4.57,3.73,4.57,-4.57,-3.96,-3.56,-0.84,-0.84,-0.84
42.18,3.78,4.63,3.78,4.64,-4.64,-4.04,-3.63,-0.86,-0.86,-0.86
42.60,3.84,4.72,3.83,4.71,-4.71,-4.12,-3.71,-0.87,-0.88,-0.88
43.03,3.89,4.77,3.89,4.78,-4.78,-4.20,-3.79,-0.89,-0.89,-0.88
43.46,3.94,4.85,3.94,4.85,-4.85,-4.28,-3.87,-0.91,-0.91,-0.91
43.90,4.00,4.93,3.99,4.92,-4.91,-4.36,-3.96,-0.92,-0.93,-0.93
44.33,4.04,4.98,4.03,4.98,-4.98,-4.44,-4.05,-0.94,-0.94,-0.95
44.78,4.07,5.03,4.07,5.04,-5.04,-4.52,-4.15,-0.97,-0.97,-0.96
45.23,4.12,5.10,4.11,5.10,-5.10,-4.60,-4.24,-0.98,-0.98,-0.99
45.68,4.15,5.15,4.15,5.15,-5.15,-4.69,-4.34,-1.00,-1.00,-1.00
46.13,4.20,5.22,4.19,5.21,-5.20,-4.77,-4.44,-1.01,-1.01,-1.02
46.60,4.23,5.25,4.23,5.26,-5.25,-4.85,-4.55,-1.03,-1.02,-1.02
47.06,4.27,5.31,4.27,5.30,-5.31,-4.94,-4.65,-1.04,-1.04,-1.04
47.53,4.30,5.35,4.30,5.35,-5.36,-5.02,-4.76,-1.06,-1.06,-1.06
48.01,4.34,5.40,4.33,5.40,-5.41,-5.11,-4.88,-1.08,-1.08,-1.06
48.49,4.37,5.46,4.37,5.46,-5.47,-5.19,-4.99,-1.10,-1.10,-1.09
48.97,4.41,5.52,4.41,5.52,-5.53,-5.28,-5.11,-1.12,-1.12,-1.12
49.46,4.45,5.59,4.45,5.59,-5.58,-5.36,-5.23,-1.14,-1.14,-1.14
49.96,4.49,5.66,4.49,5.65,-5.65,-5.45,-5.35,-1.16,-1.15,-1.17
50.46,4.54,5.70,4.53,5.71,-5.71,-5.53,-5.48,-1.17,-1.17,-1.17
50.96,4.58,5.76,4.58,5.77,-5.77,-5.62,-5.60,-1.19,-1.19,-1.19
51.47,4.62,5.83,4.62,5.83,-5.83,-5.70,-5.73,-1.21,-1.21,-1.21
51.99,4.66,5.89,4.65,5.88,-5.88,-5.79,-5.86,-1.23,-1.23,-1.23
52.51,4.69,5.93,4.69,5.94,-5.94,-5.87,-5.98,-1.25,-1.25,-1.24
53.03,4.73,5.99,4.73,5.99,-5.99,-5.96,-6.11,-1.27,-1.26,-1.26
53.56,4.77,6.05,4.77,6.04,-6.04,-6.04,-6.24,-1.28,-1.28,-1.28
54.10,4.81,6.11,4.80,6.10,-6.09,-6.12,-6.36,-1.29,-1.29,-1.30
54.64,4.82,6.14,4.82,6.14,-6.14,-6.20,-6.48,-1.32,-1.31,-1.32
55.18,4.85,6.19,4.85,6.19,-6.18,-6.29,-6.60,-1.34,-1.34,-1.34
55.74,4.87,6.23,4.87,6.22,-6.23,-6.37,-6.72,-1.36,-1.36,-1.36
56.29,4.89,6.26,4.89,6.26,-6.27,-6.45,-6.83,-1.38,-1.38,-1.37
56.86,4.91,6.30,4.91,6.30,-6.30,-6.52,-6.94,-1.40,-1.40,-1.39
57.42,4.93,6.34,4.93,6.34,-6.34,-6.60,-7.04,-1.41,-1.42,-1.42
58.00,4.95,6.37,4.95,6.38,-6.38,-6.68,-7.13,-1.43,-1.43,-1.43
58.58,4.97,6.42,4.97,6.42,-6.41,-6.75,-7.22,-1.45,-1.44,-1.45
59.16,5.00,6.46,4.99,6.46,-6.45,-6.82,-7.30,-1.45,-1.46,-1.46
59.76,5.01,6.48,5.01,6.49,-6.49,-6.89,-7.37,-1.48,-1.48,-1.48
60.35,5.03,6.53,5.02,6.52,-6.53,-6.96,-7.44,-1.50,-1.50,-1.50
60.96,5.04,6.54,5.04,6.56,-6.56,-7.03,-7.49,-1.53,-1.52,-1.51
61.57,5.06,6.60,5.06,6.60,-6.60,-7.10,-7.53,-1.54,-1.54,-1.54
62.18,5.08,6.64,5.07,6.63,-6.63,-7.16,-7.57,-1.56,-1.56,-1.57
62.80,5.09,6.67,5.09,6.67,-6.67,-7.22,-7.59,-1.58,-1.58,-1.58
63.43,5.10,6.71,5.10,6.70,-6.70,-7.28,-7.60,-1.60,-1.60,-1.61
64.07,5.11,6.73,5.11,6.73,-6.73,-7.33,-7.61,-1.62,-1.62,-1.63
64.71,5.13,6.76,5.12,6.76,-6.76,-7.38,-7.60,-1.63,-1.64,-1.63
65.35,5.14,6.79,5.13,6.78,-6.79,-7.43,-7.59,-1.65,-1.65,-1.65
66.01,5.14,6.80,5.15,6.81,-6.81,-7.48,-7.56,-1.67,-1.66,-1.66
66.67,5.16,6.84,5.15,6.83,-6.83,-7.52,-7.53,-1.68,-1.68,-1.68
67.33,5.17,6.86,5.16,6.85,-6.85,-7.56,-7.49,-1.68,-1.69,-1.69
68.01,5.16,6.87,5.17,6.87,-6.87,-7.60,-7.44,-1.71,-1.70,-1.71
68.69,5.17,6.89,5.16,6.88,-6.88,-7.63,-7.39,-1.71,-1.72,-1.72
69.37,5.16,6.90,5.16,6.89,-6.89,-7.66,-7.33,-1.74,-1.74,-1.74
70.07,5.15,6.90,5.15,6.90,-6.90,-7.69,-7.27,-1.75,-1.75,-1.75
70.77,5.14,6.90,5.14,6.91,-6.91,-7.71,-7.20,-1.77,-1.77,-1.77
71.48,5.13,6.91,5.12,6.91,-6.91,-7.73,-7.13,-1.78,-1.78,-1.79
72.19,5.11,6.91,5.11,6.91,-6.91,-7.75,-7.06,-1.80,-1.80,-1.80
72.91,5.09,6.91,5.09,6.91,-6.91,-7.76,-6.99,-1.82,-1.83,-1.83
73.64,5.07,6.92,5.06,6.91,-6.91,-7.77,-6.92,-1.85,-1.85,-1.85
74.38,5.04,6.90,5.05,6.92,-6.92,-7.77,-6.84,-1.88,-1.87,-1.87
75.12,5.04,6.94,5.03,6.92,-6.93,-7.77,-6.77,-1.89,-1.90,-1.90
75.87,5.02,6.94,5.02,6.93,-6.94,-7.77,-6.70,-1.92,-1.92,-1.92
76.63,5.01,6.94,5.01,6.95,-6.96,-7.77,-6.63,-1.95,-1.95,-1.94
77.40,5.01,6.97,5.01,6.97,-6.98,-7.76,-6.56,-1.97,-1.97,-1.96
78.17,5.01,7.01,5.01,7.00,-7.00,-7.75,-6.50,-1.99,-1.99,-2.00
78.95,5.02,7.03,5.01,7.03,-7.03,-7.73,-6.44,-2.01,-2.02,-2.01
79.74,5.01,7.05,5.01,7.05,-7.05,-7.71,-6.38,-2.05,-2.04,-2.04
80.54,5.01,7.08,5.01,7.08,-7.08,-7.69,-6.32,-2.07,-2.07,-2.07
81.35,5.02,7.12,5.01,7.11,-7.11,-7.67,-6.27,-2.09,-2.10,-2.10
82.16,5.01,7.14,5.01,7.14,-7.14,-7.64,-6.22,-2.13,-2.13,-2.13
82.98,5.00,7.15,5.00,7.16,-7.16,-7.61,-6.17,-2.16,-2.16,-2.15
83.81,4.99,7.18,4.99,7.18,-7.18,-7.58,-6.13,-2.19,-2.19,-2.20
84.65,4.97,7.20,4.97,7.20,-7.19,-7.54,-6.10,-2.23,-2.22,-2.23
85.50,4.96,7.21,4.95,7.21,-7.20,-7.50,-6.07,-2.25,-2.25,-2.25
86.35,4.93,7.21,4.93,7.21,-7.21,-7.46,-6.04,-2.28,-2.28,-2.29
87.22,4.89,7.21,4.89,7.21,-7.20,-7.42,-6.02,-2.32,-2.31,-2.32
88.09,4.85,7.20,4.84,7.19,-7.19,-7.38,-6.00,-2.35,-2.35,-2.36
88.97,4.79,7.17,4.79,7.18,-7.18,-7.33,-5.99,-2.39,-2.39,-2.38
89.86,4.74,7.15,4.74,7.15,-7.16,-7.29,-5.98,-2.42,-2.42,-2.42
90.76,4.68,7.14,4.67,7.13,-7.13,-7.24,-5.97,-2.46,-2.46,-2.46
91.66,4.61,7.10,4.61,7.11,-7.10,-7.19,-5.97,-2.50,-2.49,-2.49
92.58,4.55,7.08,4.54,7.07,-7.07,-7.14,-5.98,-2.52,-2.53,-2.54
93.51,4.48,7.03,4.48,7.04,-7.04,-7.09,-5.98,-2.56,-2.56,-2.55
94.44,4.41,7.00,4.41,7.00,-7.00,-7.04,-6.00,-2.60,-2.59,-2.59
95.39,4.34,6.97,4.33,6.96,-6.97,-6.98,-6.01,-2.63,-2.63,-2.63
96.34,4.26,6.93,4.26,6.93,-6.93,-6.93,-6.04,-2.68,-2.68,-2.68
97.30,4.18,6.89,4.18,6.90,-6.90,-6.87,-6.06,-2.72,-2.72,-2.72
98.28,4.11,6.86,4.11,6.87,-6.87,-6.82,-6.09,-2.76,-2.76,-2.75
99.26,4.04,6.84,4.04,6.84,-6.84,-6.76,-6.12,-2.80,-2.80,-2.80
100.25,3.97,6.81,3.97,6.81,-6.81,-6.71,-6.15,-2.85,-2.85,-2.84
101.25,3.90,6.78,3.90,6.78,-6.78,-6.65,-6.19,-2.89,-2.89,-2.88
102.27,3.83,6.76,3.83,6.76,-6.76,-6.60,-6.23,-2.93,-2.93,-2.93
103.29,3.76,6.74,3.76,6.73,-6.73,-6.54,-6.27,-2.97,-2.97,-2.98
104.32,3.69,6.71,3.68,6.70,-6.70,-6.49,-6.31,-3.01,-3.01,-3.02
105.37,3.61,6.67,3.60,6.67,-6.67,-6.43,-6.35,-3.06,-3.06,-3.06
106.42,3.52,6.63,3.52,6.63,-6.63,-6.38,-6.40,-3.11,-3.11,-3.11
107.48,3.44,6.59,3.44,6.60,-6.60,-6.33,-6.44,-3.16,-3.16,-3.16
108.56,3.36,6.56,3.35,6.56,-6.56,-6.27,-6.48,-3.20,-3.21,-3.21
109.64,3.27,6.52,3.27,6.52,-6.52,-6.22,-6.53,-3.26,-3.25,-3.26
110.74,3.19,6.48,3.18,6.49,-6.49,-6.17,-6.57,-3.30,-3.30,-3.30
111.85,3.10,6.44,3.09,6.45,-6.45,-6.12,-6.60,-3.36,-3.36,-3.34
112.97,3.01,6.42,3.01,6.41,-6.42,-6.07,-6.64,-3.41,-3.41,-3.41
114.10,2.92,6.37,2.93,6.38,-6.38,-6.02,-6.67,-3.46,-3.46,-3.45
115.24,2.85,6.35,2.84,6.35,-6.34,-5.97,-6.69,-3.49,-3.50,-3.50
116.39,2.76,6.32,2.75,6.30,-6.30,-5.92,-6.71,-3.54,-3.55,-3.56
117.55,2.65,6.25,2.65,6.26,-6.25,-5.87,-6.72,-3.60,-3.60,-3.61
118.73,2.55,6.20,2.55,6.20,-6.20,-5.83,-6.73,-3.65,-3.65,-3.65
119.92,2.45,6.14,2.44,6.14,-6.14,-5.78,-6.73,-3.69,-3.69,-3.69
121.12,2.34,6.07,2.34,6.07,-6.07,-5.74,-6.72,-3.74,-3.74,-3.74
122.33,2.23,6.01,2.23,6.01,-6.00,-5.69,-6.70,-3.78,-3.78,-3.78
123.55,2.11,5.93,2.11,5.93,-5.93,-5.65,-6.68,-3.83,-3.82,-3.82
124.79,2.00,5.86,2.00,5.86,-5.86,-5.60,-6.64,-3.86,-3.87,-3.86
126.03,1.88,5.78,1.88,5.78,-5.79,-5.56,-6.61,-3.91,-3.91,-3.90
127.29,1.77,5.71,1.76,5.71,-5.72,-5.52,-6.55,-3.95,-3.95,-3.94
128.57,1.65,5.65,1.65,5.64,-5.64,-5.48,-6.49,-3.99,-3.99,-4.00
129.85,1.54,5.57,1.54,5.57,-5.57,-5.43,-6.42,-4.03,-4.03,-4.03
131.15,1.43,5.49,1.43,5.49,-5.49,-5.39,-6.35,-4.06,-4.06,-4.06
132.46,1.32,5.42,1.32,5.42,-5.41,-5.35,-6.26,-4.10,-4.10,-4.11
133.79,1.21,5.34,1.21,5.34,-5.34,-5.30,-6.17,-4.13,-4.13,-4.13
135.12,1.10,5.27,1.10,5.26,-5.26,-5.26,-6.07,-4.17,-4.17,-4.17
136.48,0.99,5.18,0.99,5.18,-5.19,-5.21,-5.97,-4.20,-4.20,-4.19
137.84,0.89,5.10,0.89,5.11,-5.12,-5.17,-5.85,-4.23,-4.23,-4.21
139.22,0.80,5.05,0.80,5.04,-5.05,-5.12,-5.74,-4.25,-4.25,-4.25
140.61,0.71,4.99,0.71,4.98,-4.98,-5.07,-5.62,-4.27,-4.27,-4.28
142.02,0.63,4.91,0.62,4.91,-4.91,-5.02,-5.50,-4.28,-4.28,-4.28
143.44,0.54,4.83,0.54,4.84,-4.83,-4.96,-5.37,-4.30,-4.30,-4.30
144.87,0.45,4.77,0.45,4.77,-4.76,-4.91,-5.24,-4.31,-4.31,-4.32
146.32,0.36,4.70,0.35,4.69,-4.69,-4.85,-5.10,-4.33,-4.33,-4.34
147.78,0.26,4.60,0.26,4.61,-4.61,-4.79,-4.97,-4.35,-4.35,-4.35
149.26,0.16,4.52,0.16,4.53,-4.53,-4.73,-4.84,-4.37,-4.37,-4.36
150.75,0.06,4.44,0.06,4.44,-4.45,-4.66,-4.70,-4.39,-4.39,-4.39
152.26,-0.03,4.37,-0.04,4.36,-4.37,-4.59,-4.56,-4.40,-4.40,-4.40
153.78,-0.13,4.28,-0.13,4.29,-4.29,-4.52,-4.43,-4.42,-4.42,-4.42
155.32,-0.22,4.21,-0.22,4.20,-4.21,-4.45,-4.29,-4.43,-4.43,-4.43
156.88,-0.31,4.13,-0.32,4.13,-4.13,-4.37,-4.15,-4.44,-4.45,-4.44
158.44,-0.41,4.05,-0.41,4.06,-4.06,-4.29,-4.02,-4.47,-4.46,-4.46
160.03,-0.49,3.99,-0.50,3.98,-3.98,-4.22,-3.89,-4.48,-4.48,-4.49
161.63,-0.59,3.91,-0.59,3.91,-3.91,-4.13,-3.76,-4.50,-4.50,-4.51
163.24,-0.68,3.83,-0.68,3.84,-3.84,-4.05,-3.62,-4.52,-4.52,-4.52
164.88,-0.76,3.76,-0.77,3.76,-3.77,-3.96,-3.50,-4.53,-4.53,-4.53
166.53,-0.85,3.69,-0.85,3.70,-3.70,-3.87,-3.37,-4.55,-4.55,-4.55
168.19,-0.94,3.63,-0.94,3.63,-3.63,-3.78,-3.24,-4.57,-4.57,-4.57
169.87,-1.03,3.56,-1.03,3.56,-3.56,-3.69,-3.12,-4.59,-4.59,-4.59
171.57,-1.12,3.49,-1.12,3.49,-3.49,-3.60,-3.00,-4.61,-4.61,-4.61
173.29,-1.21,3.41,-1.21,3.42,-3.42,-3.51,-2.87,-4.63,-4.63,-4.63
175.02,-1.30,3.35,-1.31,3.35,-3.35,-3.41,-2.76,-4.66,-4.66,-4.65
176.77,-1.40,3.29,-1.40,3.29,-3.29,-3.32,-2.64,-4.69,-4.69,-4.69
178.54,-1.49,3.22,-1.49,3.22,-3.22,-3.23,-2.53,-4.72,-4.72,-4.72
180.32,-1.58,3.16,-1.58,3.16,-3.16,-3.13,-2.41,-4.74,-4.74,-4.74
182.13,-1.67,3.09,-1.68,3.09,-3.09,-3.04,-2.30,-4.77,-4.77,-4.77
183.95,-1.77,3.03,-1.77,3.03,-3.03,-2.94,-2.19,-4.80,-4.79,-4.80
185.79,-1.86,2.96,-1.87,2.96,-2.96,-2.84,-2.09,-4.82,-4.82,-4.82
187.65,-1.96,2.89,-1.97,2.89,-2.88,-2.75,-1.98,-4.84,-4.85,-4.86
189.52,-2.07,2.81,-2.07,2.81,-2.80,-2.65,-1.88,-4.88,-4.87,-4.88
191.42,-2.17,2.73,-2.18,2.72,-2.72,-2.56,-1.77,-4.90,-4.90,-4.90
193.33,-2.28,2.63,-2.28,2.63,-2.64,-2.46,-1.68,-4.92,-4.92,-4.91
195.27,-2.39,2.54,-2.39,2.55,-2.55,-2.37,-1.58,-4.94,-4.94,-4.94
197.22,-2.50,2.45,-2.50,2.46,-2.46,-2.27,-1.48,-4.96,-4.96,-4.96
199.19,-2.61,2.39,-2.61,2.37,-2.37,-2.18,-1.39,-4.98,-4.98,-5.00
201.18,-2.72,2.29,-2.73,2.28,-2.28,-2.08,-1.29,-5.00,-5.00,-5.01
203.19,-2.84,2.18,-2.84,2.18,-2.18,-1.99,-1.20,-5.03,-5.02,-5.02
205.23,-2.95,2.09,-2.95,2.08,-2.09,-1.89,-1.12,-5.04,-5.04,-5.04
207.28,-3.06,1.98,-3.06,1.99,-1.99,-1.80,-1.03,-5.05,-5.05,-5.04
209.35,-3.17,1.89,-3.17,1.89,-1.89,-1.70,-0.94,-5.06,-5.06,-5.07
211.44,-3.28,1.80,-3.29,1.79,-1.79,-1.60,-0.86,-5.07,-5.08,-5.09
213.56,-3.40,1.69,-3.40,1.69,-1.69,-1.51,-0.78,-5.09,-5.09,-5.09
215.69,-3.51,1.58,-3.51,1.58,-1.59,-1.41,-0.70,-5.10,-5.10,-5.09
217.85,-3.62,1.48,-3.62,1.48,-1.49,-1.32,-0.63,-5.11,-5.11,-5.10
220.03,-3.73,1.39,-3.73,1.38,-1.39,-1.22,-0.55,-5.12,-5.12,-5.12
222.23,-3.83,1.29,-3.83,1.29,-1.29,-1.12,-0.48,-5.12,-5.12,-5.13
224.45,-3.93,1.18,-3.93,1.19,-1.18,-1.03,-0.42,-5.12,-5.12,-5.11
226.70,-4.03,1.09,-4.03,1.09,-1.08,-0.93,-0.35,-5.12,-5.12,-5.12
228.96,-4.12,0.99,-4.13,0.98,-0.99,-0.83,-0.29,-5.11,-5.11,-5.12
231.25,-4.22,0.88,-4.22,0.88,-0.89,-0.73,-0.23,-5.11,-5.11,-5.10
233.57,-4.31,0.78,-4.31,0.78,-0.79,-0.63,-0.18,-5.10,-5.10,-5.09
235.90,-4.40,0.68,-4.40,0.68,-0.69,-0.53,-0.12,-5.09,-5.09,-5.09
238.26,-4.48,0.60,-4.49,0.59,-0.59,-0.44,-0.07,-5.07,-5.07,-5.08
240.64,-4.57,0.48,-4.57,0.49,-0.48,-0.34,-0.03,-5.06,-5.06,-5.06
243.05,-4.65,0.39,-4.66,0.38,-0.38,-0.24,0.01,-5.03,-5.04,-5.04
245.48,-4.75,0.26,-4.75,0.27,-0.27,-0.14,0.05,-5.02,-5.02,-5.02
247.93,-4.84,0.16,-4.84,0.16,-0.15,-0.04,0.09,-5.00,-5.00,-5.00
250.41,-4.93,0.05,-4.94,0.04,-0.04,0.06,0.12,-4.97,-4.97,-4.99
252.92,-5.03,-0.08,-5.04,-0.08,0.08,0.16,0.14,-4.95,-4.95,-4.95
255.45,-5.14,-0.22,-5.14,-0.21,0.21,0.25,0.17,-4.93,-4.93,-4.93
258.00,-5.24,-0.34,-5.24,-0.34,0.34,0.35,0.19,-4.91,-4.91,-4.90
260.58,-5.34,-0.46,-5.35,-0.46,0.46,0.44,0.21,-4.88,-4.88,-4.88
263.19,-5.44,-0.58,-5.44,-0.59,0.59,0.53,0.22,-4.86,-4.86,-4.86
265.82,-5.54,-0.71,-5.54,-0.71,0.71,0.62,0.23,-4.83,-4.83,-4.83
268.48,-5.63,-0.83,-5.63,-0.83,0.83,0.70,0.24,-4.80,-4.80,-4.81
271.16,-5.71,-0.94,-5.72,-0.94,0.94,0.79,0.25,-4.77,-4.77,-4.77
273.87,-5.80,-1.05,-5.80,-1.05,1.06,0.86,0.25,-4.75,-4.74,-4.75
276.61,-5.88,-1.17,-5.88,-1.16,1.17,0.94,0.25,-4.72,-4.72,-4.72
279.38,-5.95,-1.25,-5.96,-1.26,1.27,1.01,0.25,-4.69,-4.69,-4.70
282.17,-6.02,-1.35,-6.02,-1.35,1.36,1.07,0.24,-4.66,-4.66,-4.67
284.99,-6.08,-1.44,-6.08,-1.44,1.44,1.13,0.24,-4.64,-4.64,-4.65
287.84,-6.13,-1.52,-6.13,-1.51,1.51,1.18,0.23,-4.62,-4.62,-4.62
290.72,-6.15,-1.57,-6.16,-1.57,1.56,1.23,0.22,-4.59,-4.60,-4.58
293.63,-6.16,-1.60,-6.16,-1.60,1.59,1.26,0.21,-4.57,-4.57,-4.56
296.57,-6.13,-1.61,-6.14,-1.61,1.59,1.30,0.19,-4.54,-4.54,-4.53
299.53,-6.08,-1.59,-6.09,-1.59,1.57,1.32,0.18,-4.51,-4.52,-4.50
302.53,-6.01,-1.54,-6.01,-1.54,1.52,1.34,0.17,-4.49,-4.49,-4.47
305.55,-5.90,-1.48,-5.90,-1.47,1.44,1.35,0.15,-4.46,-4.45,-4.42
308.61,-5.75,-1.36,-5.76,-1.37,1.35,1.36,0.13,-4.40,-4.41,-4.39
311.69,-5.60,-1.25,-5.60,-1.25,1.25,1.35,0.12,-4.36,-4.36,-4.36
314.81,-5.44,-1.12,-5.44,-1.12,1.13,1.35,0.10,-4.31,-4.31,-4.32
317.96,-5.29,-1.00,-5.29,-1.00,1.02,1.33,0.08,-4.27,-4.27,-4.29
321.14,-5.15,-0.89,-5.16,-0.90,0.92,1.31,0.06,-4.23,-4.24,-4.26
324.35,-5.04,-0.81,-5.04,-0.81,0.83,1.29,0.05,-4.21,-4.21,-4.23
327.59,-4.94,-0.75,-4.94,-0.74,0.76,1.26,0.03,-4.19,-4.19,-4.20
330.87,-4.86,-0.70,-4.86,-0.69,0.70,1.22,0.01,-4.16,-4.16,-4.17
334.18,-4.80,-0.65,-4.80,-0.66,0.66,1.19,-0.01,-4.14,-4.14,-4.15
337.52,-4.75,-0.63,-4.76,-0.64,0.64,1.14,-0.03,-4.11,-4.12,-4.12
340.90,-4.72,-0.63,-4.72,-0.63,0.63,1.10,-0.05,-4.10,-4.10,-4.09
344.30,-4.70,-0.63,-4.70,-0.63,0.63,1.05,-0.07,-4.08,-4.08,-4.07
347.75,-4.68,-0.64,-4.68,-0.63,0.63,1.01,-0.08,-4.05,-4.05,-4.04
351.23,-4.66,-0.64,-4.66,-0.64,0.64,0.96,-0.10,-4.02,-4.02,-4.03
354.74,-4.64,-0.64,-4.65,-0.65,0.65,0.91,-0.12,-3.99,-4.00,-4.01
358.28,-4.65,-0.66,-4.65,-0.66,0.66,0.85,-0.14,-3.99,-3.99,-3.99
361.87,-4.64,-0.67,-4.64,-0.68,0.67,0.80,-0.16,-3.98,-3.97,-3.97
365.49,-4.63,-0.69,-4.63,-0.69,0.67,0.75,-0.18,-3.96,-3.96,-3.94
369.14,-4.61,-0.68,-4.61,-0.68,0.67,0.70,-0.20,-3.94,-3.94,-3.93
372.83,-4.58,-0.67,-4.59,-0.68,0.67,0.64,-0.21,-3.91,-3.91,-3.91
376.56,-4.55,-0.66,-4.55,-0.66,0.67,0.59,-0.23,-3.89,-3.89,-3.89
380.33,-4.52,-0.66,-4.52,-0.65,0.66,0.54,-0.25,-3.87,-3.86,-3.86
384.13,-4.48,-0.64,-4.49,-0.64,0.64,0.49,-0.27,-3.84,-3.84,-3.85
387.97,-4.45,-0.63,-4.45,-0.63,0.63,0.44,-0.29,-3.82,-3.82,-3.83
391.85,-4.41,-0.61,-4.41,-0.61,0.61,0.39,-0.31,-3.80,-3.80,-3.81
395.77,-4.37,-0.60,-4.38,-0.59,0.60,0.34,-0.32,-3.78,-3.78,-3.78
399.73,-4.33,-0.57,-4.33,-0.57,0.58,0.29,-0.34,-3.76,-3.76,-3.76
403.72,-4.29,-0.55,-4.29,-0.55,0.55,0.24,-0.36,-3.74,-3.74,-3.74
407.76,-4.24,-0.52,-4.24,-0.53,0.52,0.19,-0.38,-3.72,-3.72,-3.72
411.84,-4.19,-0.50,-4.19,-0.49,0.49,0.15,-0.39,-3.70,-3.70,-3.69
415.96,-4.12,-0.45,-4.13,-0.45,0.45,0.10,-0.41,-3.67,-3.68,-3.67
420.12,-4.05,-0.40,-4.06,-0.41,0.40,0.06,-0.43,-3.65,-3.65,-3.65
424.32,-3.98,-0.36,-3.98,-0.35,0.35,0.01,-0.45,-3.63,-3.63,-3.62
428.56,-3.89,-0.29,-3.90,-0.29,0.30,-0.03,-0.46,-3.60,-3.60,-3.60
432.85,-3.81,-0.23,-3.81,-0.23,0.23,-0.08,-0.48,-3.58,-3.58,-3.58
437.18,-3.72,-0.17,-3.72,-0.17,0.17,-0.12,-0.50,-3.56,-3.56,-3.55
441.55,-3.62,-0.10,-3.63,-0.10,0.10,-0.16,-0.51,-3.53,-3.53,-3.52
445.96,-3.53,-0.03,-3.53,-0.03,0.02,-0.21,-0.53,-3.51,-3.51,-3.50
450.42,-3.42,0.06,-3.43,0.05,-0.05,-0.25,-0.55,-3.47,-3.48,-3.49
454.93,-3.33,0.11,-3.33,0.13,-0.12,-0.29,-0.57,-3.46,-3.45,-3.45
