frequency,raw,error,smoothed,error_smoothed,equalization,parametric_eq,equalized_raw,equalized_smoothed,target
20,-1.40,-3.59,-1.51,-3.69,3.69,3.65,2.29,2.19,2.19
21,-1.33,-3.48,-1.29,-3.44,3.44,3.43,2.10,2.15,2.15
22,-1.19,-3.30,-1.07,-3.18,3.18,3.19,1.98,2.11,2.11
23,-0.92,-2.99,-0.85,-2.92,2.92,2.95,1.99,2.07,2.07
24,-0.55,-2.58,-0.62,-2.65,2.65,2.70,2.10,2.03,2.03
25,-0.33,-2.33,-0.39,-2.38,2.38,2.45,2.05,1.99,1.99
26,-0.19,-2.15,-0.16,-2.11,2.11,2.20,1.91,1.95,1.95
27,-0.00,-1.92,0.08,-1.84,1.84,1.96,1.83,1.91,1.91
28,0.31,-1.57,0.31,-1.57,1.57,1.72,1.88,1.88,1.88
29,0.60,-1.25,0.53,-1.31,1.31,1.48,1.90,1.84,1.84
30,0.80,-1.01,0.75,-1.06,1.06,1.25,1.85,1.80,1.80
31,0.99,-0.78,0.95,-0.82,0.82,1.02,1.80,1.77,1.77
32,1.12,-0.62,1.14,-0.59,0.59,0.80,1.70,1.73,1.73
33,1.28,-0.42,1.32,-0.38,0.38,0.58,1.65,1.69,1.69
34,1.49,-0.17,1.49,-0.17,0.17,0.37,1.66,1.66,1.66
35,1.69,0.06,1.64,0.02,-0.02,0.16,1.67,1.62,1.62
36,1.78,0.19,1.79,0.20,-0.20,-0.04,1.57,1.59,1.59
37,1.93,0.37,1.93,0.37,-0.37,-0.24,1.55,1.55,1.55
38,2.07,0.55,2.06,0.54,-0.54,-0.43,1.52,1.52,1.52
39,2.21,0.72,2.19,0.70,-0.70,-0.62,1.50,1.48,1.48
40,2.31,0.85,2.31,0.86,-0.86,-0.80,1.45,1.45,1.45
41,2.41,0.99,2.43,1.01,-1.01,-0.98,1.39,1.42,1.42
42,2.50,1.11,2.54,1.16,-1.16,-1.16,1.34,1.38,1.38
43,2.65,1.29,2.65,1.30,-1.30,-1.33,1.35,1.35,1.35
44,2.81,1.48,2.75,1.43,-1.43,-1.49,1.37,1.32,1.32
45,2.91,1.61,2.85,1.56,-1.56,-1.65,1.34,1.29,1.29
46,2.99,1.72,2.95,1.69,-1.69,-1.81,1.30,1.26,1.26
47,3.03,1.79,3.04,1.81,-1.81,-1.96,1.21,1.23,1.23
48,3.11,1.90,3.14,1.94,-1.94,-2.10,1.17,1.20,1.20
49,3.21,2.03,3.24,2.06,-2.06,-2.24,1.14,1.18,1.18
50,3.32,2.16,3.34,2.19,-2.19,-2.38,1.12,1.15,1.15
51,3.45,2.32,3.46,2.33,-2.33,-2.51,1.12,1.13,1.13
52,3.59,2.48,3.57,2.47,-2.47,-2.63,1.12,1.10,1.10
53,3.69,2.60,3.69,2.61,-2.61,-2.74,1.07,1.08,1.08
54,3.82,2.76,3.81,2.75,-2.75,-2.85,1.06,1.06,1.06
55,3.94,2.90,3.93,2.89,-2.89,-2.96,1.05,1.04,1.04
56,4.07,3.04,4.04,3.02,-3.02,-3.05,1.04,1.02,1.02
57,4.17,3.16,4.15,3.15,-3.15,-3.14,1.02,1.00,1.00
58,4.26,3.27,4.25,3.26,-3.26,-3.23,0.99,0.99,0.99
59,4.36,3.38,4.34,3.37,-3.37,-3.30,0.98,0.97,0.97
60,4.42,3.46,4.43,3.47,-3.47,-3.37,0.94,0.96,0.96
61,4.51,3.56,4.52,3.57,-3.57,-3.44,0.94,0.95,0.95
62,4.58,3.64,4.59,3.66,-3.66,-3.49,0.92,0.94,0.94
63,4.65,3.72,4.66,3.74,-3.74,-3.54,0.91,0.92,0.92
64,4.72,3.80,4.73,3.81,-3.81,-3.59,0.90,0.91,0.91
65,4.82,3.91,4.78,3.88,-3.88,-3.63,0.94,0.91,0.91
66,4.84,3.94,4.83,3.93,-3.93,-3.66,0.90,0.90,0.90
67,4.89,4.00,4.86,3.97,-3.97,-3.69,0.91,0.89,0.89
68,4.91,4.03,4.88,4.00,-4.00,-3.71,0.91,0.88,0.88
69,4.88,4.00,4.88,4.01,-4.01,-3.72,0.86,0.87,0.87
70,4.86,3.99,4.88,4.02,-4.02,-3.73,0.84,0.86,0.86
71,4.84,3.98,4.86,4.01,-4.01,-3.74,0.83,0.85,0.85
72,4.88,4.03,4.84,3.99,-3.99,-3.74,0.88,0.84,0.84
73,4.84,4.00,4.80,3.97,-3.97,-3.74,0.87,0.84,0.84
74,4.76,3.93,4.77,3.94,-3.94,-3.73,0.81,0.82,0.83
75,4.70,3.88,4.73,3.91,-3.91,-3.72,0.78,0.81,0.81
76,4.67,3.86,4.68,3.88,-3.88,-3.71,0.78,0.80,0.80
77,4.63,3.84,4.64,3.85,-3.85,-3.69,0.77,0.79,0.79
78,4.60,3.82,4.59,3.82,-3.82,-3.67,0.78,0.77,0.78
79,4.56,3.80,4.54,3.78,-3.78,-3.65,0.78,0.76,0.76
80,4.52,3.77,4.48,3.74,-3.74,-3.63,0.77,0.74,0.74
81,4.46,3.73,4.43,3.70,-3.70,-3.60,0.75,0.73,0.73
82,4.35,3.64,4.37,3.66,-3.66,-3.58,0.68,0.71,0.71
83,4.28,3.59,4.30,3.62,-3.62,-3.55,0.66,0.69,0.69
84,4.23,3.56,4.24,3.58,-3.58,-3.52,0.65,0.66,0.66
85,4.19,3.54,4.18,3.54,-3.54,-3.49,0.65,0.64,0.64
86,4.14,3.52,4.11,3.50,-3.50,-3.45,0.64,0.62,0.62
87,4.04,3.44,4.05,3.46,-3.46,-3.42,0.58,0.59,0.59
88,3.97,3.40,3.98,3.42,-3.42,-3.39,0.55,0.56,0.56
89,3.91,3.37,3.91,3.38,-3.38,-3.35,0.53,0.54,0.54
90,3.87,3.36,3.84,3.34,-3.34,-3.32,0.53,0.51,0.51
91,3.82,3.34,3.77,3.29,-3.29,-3.28,0.52,0.48,0.48
92,3.68,3.23,3.69,3.24,-3.24,-3.25,0.43,0.45,0.45
93,3.61,3.19,3.61,3.19,-3.19,-3.21,0.41,0.42,0.42
94,3.54,3.15,3.53,3.14,-3.14,-3.17,0.39,0.38,0.38
95,3.42,3.07,3.44,3.09,-3.09,-3.14,0.32,0.35,0.35
96,3.34,3.02,3.36,3.04,-3.04,-3.10,0.30,0.32,0.32
97,3.30,3.01,3.27,2.99,-2.99,-3.07,0.31,0.28,0.28
98,3.20,2.95,3.18,2.94,-2.94,-3.03,0.26,0.25,0.25
99,3.09,2.87,3.10,2.88,-2.88,-3.00,0.20,0.21,0.21
100,3.03,2.85,3.01,2.83,-2.83,-2.96,0.19,0.17,0.18
101,2.93,2.78,2.92,2.78,-2.78,-2.93,0.14,0.14,0.15
102,2.83,2.71,2.83,2.74,-2.74,-2.90,0.09,0.10,0.11
104,2.75,2.70,2.74,2.69,-2.69,-2.83,0.06,0.06,0.04
105,2.66,2.65,2.66,2.64,-2.64,-2.80,0.01,0.02,0.01
106,2.54,2.56,2.57,2.59,-2.59,-2.77,-0.06,-0.02,-0.02
107,2.50,2.55,2.49,2.55,-2.55,-2.74,-0.05,-0.05,-0.06
108,2.47,2.55,2.41,2.50,-2.50,-2.71,-0.03,-0.09,-0.09
109,2.30,2.41,2.33,2.45,-2.45,-2.68,-0.16,-0.12,-0.12
110,2.26,2.41,2.25,2.40,-2.40,-2.65,-0.15,-0.15,-0.15
111,2.18,2.36,2.17,2.35,-2.35,-2.62,-0.18,-0.18,-0.18
112,2.13,2.34,2.09,2.31,-2.31,-2.59,-0.18,-0.21,-0.21
113,2.03,2.27,2.02,2.26,-2.26,-2.57,-0.24,-0.24,-0.24
114,1.91,2.17,1.94,2.22,-2.22,-2.54,-0.31,-0.28,-0.27
115,1.88,2.17,1.87,2.18,-2.18,-2.51,-0.30,-0.31,-0.30
117,1.78,2.13,1.80,2.14,-2.14,-2.46,-0.36,-0.34,-0.36
118,1.74,2.12,1.73,2.10,-2.10,-2.44,-0.37,-0.38,-0.38
119,1.68,2.09,1.66,2.07,-2.07,-2.42,-0.40,-0.41,-0.41
120,1.61,2.04,1.60,2.04,-2.04,-2.39,-0.44,-0.44,-0.44
121,1.55,2.01,1.54,2.02,-2.02,-2.37,-0.47,-0.47,-0.46
123,1.51,2.02,1.49,1.99,-1.99,-2.33,-0.49,-0.51,-0.52
124,1.44,1.98,1.44,1.97,-1.97,-2.31,-0.54,-0.54,-0.54
125,1.37,1.93,1.39,1.96,-1.96,-2.29,-0.59,-0.57,-0.57
126,1.33,1.91,1.35,1.95,-1.95,-2.27,-0.62,-0.60,-0.59
128,1.30,1.93,1.31,1.94,-1.94,-2.24,-0.65,-0.63,-0.64
129,1.30,1.95,1.28,1.94,-1.94,-2.22,-0.64,-0.66,-0.66
130,1.29,1.97,1.25,1.94,-1.94,-2.20,-0.65,-0.68,-0.68
131,1.25,1.95,1.23,1.94,-1.94,-2.19,-0.69,-0.71,-0.70
133,1.21,1.95,1.21,1.94,-1.94,-2.16,-0.74,-0.74,-0.74
134,1.18,1.94,1.19,1.95,-1.95,-2.14,-0.78,-0.76,-0.76
135,1.17,1.95,1.17,1.96,-1.96,-2.13,-0.79,-0.79,-0.78
137,1.16,1.97,1.16,1.97,-1.97,-2.11,-0.81,-0.81,-0.82
138,1.12,1.95,1.14,1.98,-1.98,-2.10,-0.87,-0.84,-0.83
140,1.16,2.02,1.14,2.00,-2.00,-2.07,-0.84,-0.86,-0.87
141,1.16,2.04,1.14,2.02,-2.02,-2.06,-0.86,-0.88,-0.88
142,1.14,2.03,1.14,2.04,-2.04,-2.05,-0.90,-0.90,-0.89
144,1.13,2.05,1.14,2.06,-2.06,-2.04,-0.93,-0.92,-0.92
145,1.14,2.07,1.15,2.08,-2.08,-2.03,-0.95,-0.94,-0.93
147,1.17,2.12,1.15,2.11,-2.11,-2.02,-0.94,-0.95,-0.96
148,1.14,2.10,1.16,2.13,-2.13,-2.01,-1.00,-0.97,-0.97
150,1.20,2.18,1.17,2.16,-2.16,-2.00,-0.96,-0.98,-0.99
151,1.20,2.19,1.18,2.18,-2.18,-2.00,-0.98,-1.00,-0.99
153,1.21,2.22,1.19,2.20,-2.20,-1.99,-0.99,-1.01,-1.02
154,1.20,2.22,1.19,2.22,-2.22,-1.98,-1.02,-1.02,-1.02
156,1.19,2.23,1.20,2.24,-2.24,-1.98,-1.05,-1.04,-1.04
157,1.21,2.25,1.21,2.26,-2.26,-1.98,-1.05,-1.05,-1.05
159,1.23,2.29,1.22,2.28,-2.28,-1.98,-1.06,-1.06,-1.07
160,1.19,2.26,1.23,2.31,-2.31,-1.98,-1.12,-1.08,-1.07
162,1.28,2.37,1.24,2.33,-2.33,-1.98,-1.06,-1.09,-1.09
164,1.26,2.36,1.26,2.37,-2.37,-1.98,-1.11,-1.10,-1.11
165,1.27,2.38,1.28,2.40,-2.40,-1.99,-1.14,-1.12,-1.12
167,1.32,2.45,1.30,2.44,-2.44,-1.99,-1.12,-1.14,-1.14
169,1.33,2.48,1.33,2.48,-2.48,-2.00,-1.15,-1.15,-1.15
170,1.36,2.52,1.35,2.52,-2.52,-2.01,-1.16,-1.17,-1.16
172,1.39,2.57,1.38,2.56,-2.56,-2.02,-1.17,-1.18,-1.18
174,1.42,2.62,1.40,2.60,-2.60,-2.03,-1.19,-1.20,-1.20
175,1.41,2.62,1.42,2.64,-2.64,-2.04,-1.24,-1.22,-1.22
177,1.44,2.67,1.45,2.69,-2.69,-2.06,-1.25,-1.24,-1.24
179,1.49,2.74,1.47,2.73,-2.73,-2.07,-1.24,-1.26,-1.26
181,1.52,2.79,1.50,2.77,-2.77,-2.10,-1.26,-1.28,-1.28
183,1.51,2.80,1.52,2.82,-2.82,-2.12,-1.31,-1.29,-1.30
184,1.54,2.85,1.55,2.86,-2.86,-2.13,-1.33,-1.31,-1.31
186,1.59,2.92,1.58,2.91,-2.91,-2.16,-1.33,-1.33,-1.33
188,1.61,2.96,1.60,2.96,-2.96,-2.18,-1.35,-1.35,-1.35
190,1.61,2.98,1.63,3.00,-3.00,-2.21,-1.39,-1.37,-1.37
192,1.68,3.07,1.65,3.04,-3.04,-2.25,-1.37,-1.39,-1.39
194,1.70,3.11,1.67,3.08,-3.08,-2.28,-1.39,-1.41,-1.41
196,1.70,3.12,1.69,3.12,-3.12,-2.31,-1.42,-1.43,-1.43
198,1.70,3.14,1.71,3.15,-3.15,-2.35,-1.46,-1.45,-1.45
200,1.71,3.17,1.72,3.19,-3.19,-2.39,-1.48,-1.46,-1.46
202,1.74,3.22,1.74,3.22,-3.22,-2.44,-1.49,-1.48,-1.48
204,1.75,3.24,1.76,3.25,-3.25,-2.48,-1.51,-1.50,-1.50
206,1.79,3.30,1.77,3.28,-3.28,-2.53,-1.50,-1.51,-1.51
208,1.81,3.33,1.79,3.31,-3.31,-2.58,-1.51,-1.53,-1.53
210,1.82,3.36,1.80,3.34,-3.34,-2.63,-1.53,-1.54,-1.54
212,1.83,3.38,1.82,3.38,-3.38,-2.68,-1.55,-1.55,-1.55
214,1.82,3.38,1.84,3.41,-3.41,-2.73,-1.59,-1.57,-1.56
216,1.85,3.42,1.86,3.44,-3.44,-2.79,-1.60,-1.58,-1.58
218,1.90,3.48,1.89,3.48,-3.48,-2.85,-1.58,-1.59,-1.58
221,1.95,3.54,1.92,3.51,-3.51,-2.94,-1.57,-1.59,-1.60
223,1.96,3.56,1.95,3.55,-3.55,-3.01,-1.60,-1.60,-1.60
225,1.98,3.58,1.99,3.60,-3.60,-3.07,-1.62,-1.61,-1.61
227,2.02,3.63,2.03,3.64,-3.64,-3.14,-1.63,-1.61,-1.61
229,2.05,3.66,2.08,3.69,-3.69,-3.21,-1.64,-1.61,-1.61
232,2.14,3.75,2.12,3.73,-3.73,-3.32,-1.60,-1.62,-1.62
234,2.20,3.81,2.16,3.78,-3.78,-3.39,-1.58,-1.62,-1.62
236,2.23,3.84,2.21,3.82,-3.82,-3.47,-1.60,-1.61,-1.61
239,2.27,3.88,2.25,3.86,-3.86,-3.58,-1.60,-1.61,-1.61
241,2.26,3.86,2.29,3.90,-3.90,-3.66,-1.64,-1.61,-1.61
244,2.32,3.92,2.33,3.93,-3.93,-3.78,-1.62,-1.60,-1.60
246,2.39,3.98,2.37,3.96,-3.96,-3.85,-1.58,-1.60,-1.60
248,2.42,4.00,2.40,3.99,-3.99,-3.93,-1.58,-1.59,-1.59
251,2.43,4.01,2.44,4.03,-4.03,-4.05,-1.60,-1.58,-1.58
253,2.49,4.06,2.49,4.06,-4.06,-4.13,-1.57,-1.57,-1.57
256,2.50,4.06,2.53,4.09,-4.09,-4.25,-1.60,-1.56,-1.56
259,2.58,4.13,2.57,4.12,-4.12,-4.36,-1.55,-1.55,-1.55
261,2.60,4.14,2.61,4.15,-4.15,-4.44,-1.56,-1.54,-1.54
264,2.68,4.21,2.64,4.18,-4.18,-4.54,-1.50,-1.53,-1.53
266,2.71,4.22,2.68,4.20,-4.20,-4.61,-1.49,-1.52,-1.52
269,2.72,4.22,2.70,4.21,-4.21,-4.71,-1.50,-1.51,-1.51
272,2.72,4.21,2.72,4.22,-4.22,-4.80,-1.50,-1.50,-1.50
274,2.74,4.22,2.74,4.22,-4.22,-4.85,-1.49,-1.48,-1.48
277,2.75,4.22,2.76,4.23,-4.23,-4.93,-1.48,-1.47,-1.47
280,2.78,4.23,2.77,4.23,-4.23,-4.99,-1.45,-1.46,-1.46
283,2.79,4.23,2.78,4.23,-4.23,-5.05,-1.44,-1.45,-1.45
286,2.79,4.22,2.79,4.23,-4.23,-5.09,-1.44,-1.43,-1.43
288,2.81,4.23,2.81,4.23,-4.23,-5.11,-1.42,-1.42,-1.42
291,2.84,4.24,2.83,4.23,-4.23,-5.14,-1.40,-1.41,-1.41
294,2.85,4.24,2.85,4.24,-4.24,-5.15,-1.40,-1.40,-1.40
297,2.87,4.25,2.87,4.25,-4.25,-5.15,-1.39,-1.38,-1.38
300,2.91,4.28,2.90,4.27,-4.27,-5.14,-1.36,-1.37,-1.37
303,2.92,4.28,2.93,4.29,-4.29,-5.12,-1.37,-1.36,-1.36
306,2.94,4.29,2.96,4.31,-4.31,-5.10,-1.38,-1.35,-1.35
309,3.01,4.34,3.00,4.34,-4.34,-5.06,-1.34,-1.34,-1.34
312,3.06,4.38,3.04,4.37,-4.37,-5.02,-1.32,-1.33,-1.33
316,3.11,4.42,3.09,4.41,-4.41,-4.95,-1.30,-1.32,-1.32
319,3.13,4.43,3.14,4.45,-4.45,-4.89,-1.32,-1.31,-1.31
322,3.17,4.47,3.19,4.49,-4.49,-4.84,-1.32,-1.30,-1.30
325,3.24,4.53,3.23,4.52,-4.52,-4.78,-1.29,-1.29,-1.29
328,3.29,4.57,3.28,4.56,-4.56,-4.71,-1.28,-1.28,-1.28
332,3.32,4.59,3.32,4.59,-4.59,-4.63,-1.28,-1.27,-1.27
335,3.37,4.63,3.36,4.62,-4.62,-4.57,-1.26,-1.26,-1.26
338,3.40,4.65,3.39,4.65,-4.65,-4.52,-1.25,-1.26,-1.26
342,3.42,4.66,3.41,4.66,-4.66,-4.44,-1.25,-1.25,-1.25
345,3.45,4.69,3.43,4.67,-4.67,-4.40,-1.22,-1.24,-1.24
349,3.46,4.69,3.43,4.67,-4.67,-4.34,-1.21,-1.23,-1.23
352,3.42,4.64,3.43,4.66,-4.66,-4.30,-1.24,-1.23,-1.23
356,3.41,4.63,3.42,4.64,-4.64,-4.26,-1.24,-1.22,-1.22
359,3.40,4.61,3.40,4.62,-4.62,-4.24,-1.22,-1.22,-1.22
363,3.38,4.58,3.37,4.58,-4.58,-4.22,-1.21,-1.21,-1.21
366,3.36,4.56,3.34,4.54,-4.54,-4.22,-1.19,-1.21,-1.20
370,3.27,4.47,3.29,4.49,-4.49,-4.21,-1.23,-1.20,-1.20
374,3.25,4.44,3.24,4.43,-4.43,-4.22,-1.19,-1.20,-1.20
377,3.19,4.38,3.17,4.36,-4.36,-4.22,-1.18,-1.19,-1.19
381,3.11,4.29,3.09,4.28,-4.28,-4.22,-1.18,-1.19,-1.19
385,3.01,4.19,3.01,4.20,-4.20,-4.21,-1.19,-1.19,-1.19
389,2.93,4.11,2.92,4.10,-4.10,-4.19,-1.18,-1.18,-1.18
393,2.82,4.00,2.81,4.00,-4.00,-4.15,-1.18,-1.18,-1.18
397,2.71,3.89,2.70,3.89,-3.89,-4.08,-1.18,-1.18,-1.18
401,2.57,3.74,2.59,3.77,-3.77,-3.98,-1.20,-1.18,-1.18
405,2.47,3.64,2.47,3.65,-3.65,-3.86,-1.18,-1.18,-1.18
409,2.36,3.53,2.35,3.52,-3.52,-3.71,-1.17,-1.17,-1.17
413,2.22,3.38,2.22,3.39,-3.39,-3.54,-1.18,-1.17,-1.17
417,2.11,3.27,2.09,3.25,-3.25,-3.35,-1.15,-1.16,-1.16
421,1.94,3.09,1.95,3.11,-3.11,-3.16,-1.18,-1.16,-1.16
425,1.84,2.99,1.81,2.96,-2.96,-2.96,-1.13,-1.15,-1.15
430,1.68,2.82,1.66,2.81,-2.81,-2.72,-1.13,-1.14,-1.14
434,1.52,2.65,1.51,2.65,-2.65,-2.52,-1.13,-1.14,-1.14
438,1.38,2.50,1.36,2.48,-2.48,-2.34,-1.11,-1.12,-1.13
443,1.18,2.29,1.20,2.32,-2.32,-2.12,-1.14,-1.11,-1.11
447,1.02,2.12,1.05,2.15,-2.15,-1.95,-1.14,-1.10,-1.10
451,0.89,1.97,0.90,1.98,-1.98,-1.79,-1.10,-1.09,-1.09
456,0.75,1.82,0.75,1.82,-1.82,-1.59,-1.07,-1.07,-1.07
460,0.62,1.67,0.59,1.65,-1.65,-1.45,-1.03,-1.05,-1.05
465,0.48,1.51,0.44,1.47,-1.47,-1.27,-1.00,-1.04,-1.04
470,0.26,1.27,0.28,1.30,-1.30,-1.11,-1.05,-1.02,-1.02
474,0.13,1.12,0.12,1.12,-1.12,-0.98,-1.00,-1.00,-1.00
479,-0.03,0.95,-0.04,0.94,-0.94,-0.82,-0.98,-0.98,-0.98
484,-0.19,0.77,-0.21,0.76,-0.76,-0.67,-0.95,-0.96,-0.96
489,-0.36,0.58,-0.37,0.57,-0.57,-0.52,-0.94,-0.95,-0.94
494,-0.53,0.39,-0.54,0.39,-0.39,-0.38,-0.92,-0.93,-0.93
499,-0.71,0.19,-0.71,0.20,-0.20,-0.23,-0.92,-0.91,-0.91
504,-0.89,-0.00,-0.87,0.02,-0.02,-0.09,-0.92,-0.89,-0.89
509,-1.03,-0.16,-1.03,-0.15,0.15,0.05,-0.88,-0.88,-0.88
514,-1.17,-0.31,-1.19,-0.32,0.32,0.19,-0.85,-0.86,-0.86
519,-1.33,-0.49,-1.34,-0.49,0.49,0.33,-0.85,-0.85,-0.85
524,-1.48,-0.65,-1.48,-0.65,0.65,0.48,-0.84,-0.84,-0.84
529,-1.61,-0.79,-1.62,-0.80,0.80,0.62,-0.82,-0.82,-0.82
535,-1.77,-0.97,-1.76,-0.95,0.95,0.79,-0.83,-0.81,-0.81
540,-1.88,-1.09,-1.88,-1.09,1.09,0.94,-0.80,-0.80,-0.80
545,-1.99,-1.21,-2.01,-1.23,1.23,1.08,-0.77,-0.78,-0.78
551,-2.12,-1.35,-2.13,-1.36,1.36,1.25,-0.77,-0.77,-0.77
556,-2.23,-1.48,-2.24,-1.49,1.49,1.39,-0.75,-0.76,-0.76
562,-2.35,-1.61,-2.35,-1.61,1.61,1.56,-0.74,-0.74,-0.74
568,-2.47,-1.75,-2.46,-1.73,1.73,1.72,-0.74,-0.73,-0.73
573,-2.54,-1.84,-2.55,-1.85,1.85,1.86,-0.70,-0.71,-0.71
579,-2.64,-1.95,-2.65,-1.96,1.96,2.01,-0.69,-0.69,-0.69
585,-2.71,-2.04,-2.73,-2.06,2.06,2.14,-0.65,-0.67,-0.67
591,-2.80,-2.16,-2.81,-2.16,2.16,2.27,-0.65,-0.65,-0.65
596,-2.88,-2.26,-2.88,-2.25,2.25,2.36,-0.63,-0.62,-0.62
602,-2.94,-2.34,-2.94,-2.34,2.34,2.45,-0.61,-0.60,-0.60
608,-2.95,-2.38,-2.98,-2.41,2.41,2.53,-0.54,-0.57,-0.57
615,-3.00,-2.46,-3.02,-2.47,2.47,2.59,-0.53,-0.55,-0.55
621,-3.04,-2.53,-3.04,-2.52,2.52,2.61,-0.52,-0.52,-0.52
627,-3.07,-2.58,-3.05,-2.56,2.56,2.62,-0.52,-0.49,-0.49
633,-3.05,-2.59,-3.03,-2.57,2.57,2.61,-0.48,-0.46,-0.46
639,-3.01,-2.58,-3.00,-2.57,2.57,2.58,-0.45,-0.43,-0.43
646,-2.97,-2.57,-2.95,-2.55,2.55,2.53,-0.43,-0.41,-0.41
652,-2.87,-2.49,-2.88,-2.50,2.50,2.47,-0.37,-0.38,-0.38
659,-2.77,-2.42,-2.80,-2.44,2.44,2.39,-0.33,-0.36,-0.36
665,-2.73,-2.40,-2.70,-2.37,2.37,2.31,-0.37,-0.33,-0.33
672,-2.58,-2.27,-2.59,-2.28,2.28,2.21,-0.30,-0.31,-0.31
679,-2.50,-2.21,-2.48,-2.18,2.18,2.11,-0.32,-0.29,-0.29
686,-2.33,-2.06,-2.36,-2.08,2.08,2.01,-0.26,-0.28,-0.28
692,-2.23,-1.97,-2.24,-1.97,1.97,1.92,-0.26,-0.26,-0.26
699,-2.12,-1.87,-2.12,-1.87,1.87,1.81,-0.26,-0.25,-0.25
706,-1.96,-1.72,-2.00,-1.76,1.76,1.72,-0.20,-0.24,-0.24
713,-1.89,-1.66,-1.90,-1.66,1.66,1.62,-0.23,-0.24,-0.24
721,-1.79,-1.56,-1.80,-1.57,1.57,1.52,-0.22,-0.23,-0.23
728,-1.71,-1.49,-1.72,-1.49,1.49,1.43,-0.23,-0.23,-0.23
735,-1.64,-1.42,-1.64,-1.41,1.41,1.35,-0.23,-0.23,-0.23
742,-1.56,-1.34,-1.58,-1.35,1.35,1.28,-0.21,-0.23,-0.23
750,-1.54,-1.31,-1.53,-1.29,1.29,1.20,-0.25,-0.23,-0.23
757,-1.43,-1.20,-1.48,-1.25,1.25,1.14,-0.19,-0.23,-0.23
765,-1.41,-1.18,-1.44,-1.20,1.20,1.07,-0.21,-0.24,-0.24
773,-1.39,-1.15,-1.40,-1.16,1.16,1.00,-0.24,-0.24,-0.24
780,-1.41,-1.17,-1.36,-1.11,1.11,0.95,-0.30,-0.25,-0.25
788,-1.35,-1.10,-1.32,-1.07,1.07,0.90,-0.29,-0.25,-0.25
796,-1.26,-1.01,-1.27,-1.02,1.02,0.85,-0.24,-0.25,-0.25
804,-1.22,-0.97,-1.22,-0.97,0.97,0.81,-0.26,-0.26,-0.26
812,-1.14,-0.89,-1.17,-0.91,0.91,0.77,-0.24,-0.26,-0.26
820,-1.09,-0.83,-1.10,-0.84,0.84,0.73,-0.26,-0.26,-0.26
828,-1.02,-0.76,-1.03,-0.77,0.77,0.69,-0.26,-0.26,-0.26
837,-0.93,-0.68,-0.94,-0.68,0.68,0.66,-0.25,-0.26,-0.26
845,-0.86,-0.61,-0.85,-0.59,0.59,0.63,-0.27,-0.26,-0.26
853,-0.79,-0.54,-0.74,-0.49,0.49,0.60,-0.30,-0.25,-0.25
862,-0.67,-0.43,-0.63,-0.39,0.39,0.58,-0.29,-0.25,-0.25
871,-0.53,-0.29,-0.52,-0.28,0.28,0.55,-0.26,-0.24,-0.24
879,-0.40,-0.17,-0.41,-0.17,0.17,0.53,-0.23,-0.23,-0.23
888,-0.25,-0.03,-0.30,-0.07,0.07,0.51,-0.18,-0.23,-0.22
897,-0.14,0.07,-0.20,0.01,-0.01,0.50,-0.16,-0.21,-0.21
906,-0.09,0.11,-0.12,0.08,-0.08,0.48,-0.18,-0.20,-0.20
915,-0.04,0.14,-0.05,0.14,-0.14,0.46,-0.18,-0.19,-0.19
924,0.01,0.18,0.00,0.17,-0.17,0.45,-0.17,-0.17,-0.17
933,0.04,0.19,0.04,0.19,-0.19,0.44,-0.16,-0.16,-0.16
943,0.05,0.18,0.06,0.20,-0.20,0.43,-0.15,-0.14,-0.14
952,0.06,0.17,0.07,0.19,-0.19,0.42,-0.13,-0.12,-0.12
962,0.07,0.16,0.07,0.16,-0.16,0.41,-0.10,-0.09,-0.09
971,0.07,0.13,0.06,0.13,-0.13,0.40,-0.06,-0.07,-0.07
981,0.06,0.10,0.04,0.08,-0.08,0.40,-0.03,-0.04,-0.04
991,0.05,0.06,0.02,0.03,-0.03,0.39,0.01,-0.01,-0.01
1001,-0.00,-0.02,-0.01,-0.03,0.03,0.38,0.02,0.02,0.02
1011,-0.05,-0.10,-0.04,-0.09,0.09,0.38,0.04,0.05,0.05
1021,-0.09,-0.18,-0.08,-0.16,0.16,0.38,0.07,0.08,0.08
1031,-0.11,-0.24,-0.11,-0.23,0.23,0.37,0.12,0.12,0.12
1041,-0.14,-0.30,-0.14,-0.30,0.30,0.37,0.16,0.16,0.16
1052,-0.17,-0.38,-0.17,-0.37,0.37,0.37,0.20,0.20,0.20
1062,-0.19,-0.44,-0.20,-0.44,0.44,0.37,0.25,0.24,0.24
1073,-0.23,-0.52,-0.22,-0.51,0.51,0.37,0.28,0.29,0.29
1084,-0.24,-0.58,-0.25,-0.58,0.58,0.37,0.33,0.33,0.33
1094,-0.24,-0.62,-0.27,-0.64,0.64,0.37,0.40,0.38,0.38
1105,-0.23,-0.66,-0.28,-0.71,0.71,0.37,0.47,0.42,0.42
1116,-0.30,-0.78,-0.29,-0.76,0.76,0.38,0.46,0.47,0.47
1128,-0.32,-0.84,-0.29,-0.81,0.81,0.38,0.48,0.52,0.52
1139,-0.28,-0.85,-0.28,-0.85,0.85,0.38,0.56,0.57,0.57
1150,-0.25,-0.87,-0.26,-0.87,0.87,0.39,0.62,0.61,0.61
1162,-0.28,-0.94,-0.23,-0.89,0.89,0.39,0.60,0.66,0.66
1173,-0.23,-0.94,-0.19,-0.89,0.89,0.40,0.66,0.70,0.70
1185,-0.14,-0.89,-0.14,-0.89,0.89,0.40,0.74,0.75,0.75
1197,-0.04,-0.83,-0.09,-0.88,0.88,0.41,0.84,0.79,0.79
1209,0.01,-0.82,-0.05,-0.87,0.87,0.41,0.88,0.82,0.82
1221,0.01,-0.85,-0.01,-0.87,0.87,0.42,0.87,0.86,0.86
1233,0.04,-0.86,0.03,-0.86,0.86,0.43,0.90,0.89,0.89
1246,0.07,-0.86,0.06,-0.86,0.86,0.44,0.93,0.92,0.92
1258,0.08,-0.87,0.08,-0.87,0.87,0.44,0.94,0.95,0.95
1271,0.08,-0.89,0.10,-0.87,0.87,0.45,0.94,0.97,0.97
1283,0.10,-0.89,0.12,-0.87,0.87,0.46,0.97,0.99,0.99
1296,0.14,-0.87,0.13,-0.87,0.87,0.47,1.01,1.00,1.00
1309,0.17,-0.85,0.14,-0.87,0.87,0.48,1.04,1.01,1.02
1322,0.17,-0.86,0.16,-0.87,0.87,0.50,1.03,1.02,1.02
1335,0.17,-0.86,0.17,-0.86,0.86,0.51,1.02,1.03,1.03
1349,0.17,-0.87,0.18,-0.85,0.85,0.52,1.01,1.03,1.03
1362,0.18,-0.86,0.19,-0.84,0.84,0.53,1.01,1.03,1.03
1376,0.22,-0.82,0.21,-0.83,0.83,0.55,1.04,1.03,1.03
1390,0.24,-0.80,0.22,-0.81,0.81,0.56,1.05,1.03,1.03
1404,0.26,-0.77,0.23,-0.80,0.80,0.58,1.06,1.03,1.03
1418,0.24,-0.79,0.24,-0.79,0.79,0.60,1.02,1.03,1.03
1432,0.21,-0.82,0.25,-0.78,0.78,0.61,0.98,1.02,1.02
1446,0.23,-0.80,0.25,-0.77,0.77,0.63,0.99,1.02,1.02
1461,0.27,-0.76,0.26,-0.76,0.76,0.65,1.03,1.02,1.02
1475,0.31,-0.72,0.27,-0.76,0.76,0.67,1.06,1.03,1.03
1490,0.31,-0.73,0.27,-0.76,0.76,0.69,1.06,1.03,1.03
1505,0.27,-0.77,0.27,-0.77,0.77,0.72,1.03,1.04,1.04
1520,0.29,-0.77,0.28,-0.78,0.78,0.74,1.06,1.05,1.05
1535,0.29,-0.79,0.28,-0.79,0.79,0.76,1.08,1.07,1.07
1550,0.26,-0.84,0.28,-0.81,0.81,0.79,1.06,1.09,1.09
1566,0.29,-0.84,0.29,-0.83,0.83,0.82,1.11,1.12,1.12
1582,0.31,-0.85,0.31,-0.85,0.85,0.85,1.15,1.16,1.15
1597,0.34,-0.86,0.33,-0.87,0.87,0.88,1.20,1.19,1.19
1613,0.33,-0.91,0.35,-0.89,0.89,0.91,1.21,1.24,1.24
1629,0.38,-0.92,0.38,-0.91,0.91,0.94,1.28,1.29,1.29
1646,0.43,-0.92,0.42,-0.93,0.93,0.98,1.36,1.35,1.35
1662,0.48,-0.94,0.46,-0.96,0.96,1.02,1.43,1.41,1.41
1679,0.52,-0.97,0.50,-0.99,0.99,1.06,1.50,1.48,1.48
1696,0.53,-1.03,0.53,-1.03,1.03,1.10,1.55,1.56,1.56
1713,0.57,-1.08,0.57,-1.07,1.07,1.15,1.64,1.64,1.64
1730,0.62,-1.11,0.61,-1.12,1.12,1.20,1.74,1.73,1.73
1747,0.67,-1.15,0.64,-1.18,1.18,1.25,1.84,1.82,1.82
1764,0.68,-1.24,0.68,-1.24,1.24,1.30,1.91,1.91,1.91
1782,0.69,-1.33,0.71,-1.30,1.30,1.36,1.98,2.01,2.01
1800,0.75,-1.37,0.75,-1.36,1.36,1.42,2.11,2.11,2.11
1818,0.80,-1.42,0.79,-1.43,1.43,1.48,2.22,2.22,2.22
1836,0.86,-1.47,0.83,-1.49,1.49,1.55,2.35,2.32,2.32
