frequency,raw
20.00,-16.25
20.20,-16.16
20.40,-16.08
20.61,-15.99
20.81,-15.91
21.02,-15.82
21.23,-15.73
21.44,-15.65
21.66,-15.56
21.87,-15.47
22.09,-15.38
22.31,-15.29
22.54,-15.20
22.76,-15.11
22.99,-15.02
23.22,-14.93
23.45,-14.84
23.69,-14.75
23.92,-14.66
24.16,-14.57
24.40,-14.47
24.65,-14.38
24.89,-14.28
25.14,-14.19
25.39,-14.09
25.65,-14.00
25.91,-13.90
26.16,-13.81
26.43,-13.72
26.69,-13.62
26.96,-13.53
27.23,-13.43
27.50,-13.33
27.77,-13.24
28.05,-13.14
28.33,-13.05
28.62,-12.95
28.90,-12.85
29.19,-12.75
29.48,-12.65
29.78,-12.55
30.08,-12.46
30.38,-12.36
30.68,-12.26
30.99,-12.16
31.30,-12.07
31.61,-11.98
31.93,-11.88
32.24,-11.78
32.57,-11.68
32.89,-11.58
33.22,-11.48
33.55,-11.39
33.89,-11.29
34.23,-11.19
34.57,-11.09
34.92,-10.99
35.27,-10.90
35.62,-10.80
35.97,-10.71
36.33,-10.61
36.70,-10.51
37.06,-10.41
37.43,-10.32
37.81,-10.22
38.19,-10.12
38.57,-10.03
38.95,-9.94
39.34,-9.85
39.74,-9.76
40.14,-9.67
40.54,-9.57
40.94,-9.47
41.35,-9.38
41.76,-9.28
42.18,-9.19
42.60,-9.09
43.03,-8.99
43.46,-8.90
43.90,-8.81
44.33,-8.72
44.78,-8.63
45.23,-8.54
45.68,-8.45
46.13,-8.36
46.60,-8.28
47.06,-8.19
47.53,-8.10
48.01,-8.01
48.49,-7.92
48.97,-7.83
49.46,-7.75
49.96,-7.66
50.46,-7.57
50.96,-7.49
51.47,-7.39
51.99,-7.30
52.51,-7.22
53.03,-7.13
53.56,-7.04
54.10,-6.95
54.64,-6.86
55.18,-6.77
55.74,-6.69
56.29,-6.61
56.86,-6.52
57.42,-6.44
58.00,-6.35
58.58,-6.27
59.16,-6.20
59.76,-6.11
60.35,-6.03
60.96,-5.94
61.57,-5.86
62.18,-5.78
62.80,-5.70
63.43,-5.61
64.07,-5.53
64.71,-5.45
65.35,-5.38
66.01,-5.30
66.67,-5.22
67.33,-5.14
68.01,-5.07
68.69,-4.99
69.37,-4.92
70.07,-4.84
70.77,-4.77
71.48,-4.70
72.19,-4.62
72.91,-4.54
73.64,-4.46
74.38,-4.38
75.12,-4.30
75.87,-4.21
76.63,-4.13
77.40,-4.05
78.17,-3.96
78.95,-3.87
79.74,-3.80
80.54,-3.71
81.35,-3.63
82.16,-3.54
82.98,-3.44
83.81,-3.36
84.65,-3.28
85.50,-3.20
86.35,-3.11
87.22,-3.03
88.09,-2.95
88.97,-2.86
89.86,-2.78
90.76,-2.70
91.66,-2.61
92.58,-2.53
93.51,-2.44
94.44,-2.36
95.39,-2.28
96.34,-2.19
97.30,-2.10
98.28,-2.02
99.26,-1.93
100.25,-1.85
101.25,-1.76
102.27,-1.68
103.29,-1.64
104.32,-1.58
105.37,-1.50
106.42,-1.42
107.48,-1.35
108.56,-1.29
109.64,-1.21
110.74,-1.15
111.85,-1.08
112.97,-1.02
114.10,-0.96
115.24,-0.91
116.39,-0.89
117.55,-0.84
118.73,-0.78
119.92,-0.72
121.12,-0.68
122.33,-0.65
123.55,-0.61
124.79,-0.53
126.03,-0.46
127.29,-0.42
128.57,-0.37
129.85,-0.32
131.15,-0.27
132.46,-0.23
133.79,-0.17
135.12,-0.11
136.48,-0.07
137.84,-0.02
139.22,0.01
140.61,0.06
142.02,0.12
143.44,0.15
144.87,0.19
146.32,0.20
147.78,0.23
149.26,0.24
150.75,0.28
152.26,0.32
153.78,0.35
155.32,0.39
156.88,0.42
158.44,0.43
160.03,0.47
161.63,0.49
163.24,0.52
164.88,0.57
166.53,0.59
168.19,0.61
169.87,0.64
171.57,0.64
173.29,0.64
175.02,0.63
176.77,0.62
178.54,0.62
180.32,0.63
182.13,0.65
183.95,0.69
185.79,0.72
187.65,0.74
189.52,0.77
191.42,0.81
193.33,0.84
195.27,0.87
197.22,0.90
199.19,0.93
201.18,0.95
203.19,0.97
205.23,0.98
207.28,0.98
209.35,0.97
211.44,0.96
213.56,0.96
215.69,0.96
217.85,0.96
220.03,0.96
222.23,0.96
224.45,0.96
226.70,0.96
228.96,0.96
231.25,0.96
233.57,0.96
235.90,0.96
238.26,0.96
240.64,0.97
243.05,0.98
245.48,0.98
247.93,0.97
250.41,0.96
252.92,0.94
255.45,0.92
258.00,0.89
260.58,0.86
263.19,0.83
265.82,0.78
268.48,0.76
271.16,0.72
273.87,0.68
276.61,0.66
279.38,0.64
282.17,0.63
284.99,0.61
287.84,0.61
290.72,0.62
293.63,0.63
296.57,0.64
299.53,0.65
302.53,0.65
305.55,0.65
308.61,0.65
311.69,0.64
314.81,0.63
317.96,0.60
321.14,0.58
324.35,0.55
327.59,0.51
330.87,0.48
334.18,0.45
337.52,0.41
340.90,0.39
344.30,0.36
347.75,0.35
351.23,0.33
354.74,0.32
358.28,0.29
361.87,0.28
365.49,0.26
369.14,0.24
372.83,0.21
376.56,0.17
380.33,0.15
384.13,0.11
387.97,0.08
391.85,0.05
395.77,0.02
399.73,0.00
403.72,-0.02
407.76,-0.04
411.84,-0.04
415.96,-0.03
420.12,-0.02
424.32,-0.02
428.56,-0.02
432.85,-0.02
437.18,-0.02
441.55,-0.02
445.96,-0.02
450.42,-0.02
454.93,-0.02
459.48,-0.02
464.07,-0.02
468.71,-0.02
473.40,-0.02
478.13,-0.02
482.91,-0.02
487.74,-0.02
492.62,-0.02
497.55,-0.02
502.52,-0.02
507.55,-0.02
512.62,-0.02
517.75,-0.02
522.93,-0.02
528.16,-0.02
533.44,-0.02
538.77,-0.02
544.16,-0.01
549.60,-0.01
555.10,-0.00
560.65,0.01
566.25,0.01
571.92,0.00
577.64,-0.02
583.41,-0.03
589.25,-0.06
595.14,-0.09
601.09,-0.13
607.10,-0.16
613.17,-0.19
619.30,-0.22
625.50,-0.26
631.75,-0.29
638.07,-0.32
644.45,-0.34
650.89,-0.36
657.40,-0.36
663.98,-0.36
670.62,-0.35
677.32,-0.34
684.10,-0.34
690.94,-0.34
697.85,-0.34
704.83,-0.34
711.87,-0.34
718.99,-0.34
726.18,-0.34
733.44,-0.34
740.78,-0.34
748.19,-0.34
755.67,-0.34
763.23,-0.34
770.86,-0.34
778.57,-0.34
786.35,-0.34
794.22,-0.34
802.16,-0.34
810.18,-0.34
818.28,-0.34
826.46,-0.35
834.73,-0.35
843.08,-0.36
851.51,-0.36
860.02,-0.35
868.62,-0.34
877.31,-0.31
886.08,-0.29
894.94,-0.27
903.89,-0.24
912.93,-0.20
922.06,-0.17
931.28,-0.13
940.59,-0.10
950.00,-0.07
959.50,-0.04
969.09,-0.02
978.78,0.00
988.57,0.00
998.46,0.00
1008.44,-0.01
1018.53,-0.03
1028.71,-0.04
1039.00,-0.03
1049.39,-0.02
1059.88,0.00
1070.48,0.02
1081.19,0.04
1092.00,0.08
1102.92,0.12
1113.95,0.16
1125.09,0.20
1136.34,0.23
1147.70,0.25
1159.18,0.25
1170.77,0.25
1182.48,0.24
1194.30,0.22
1206.25,0.20
1218.31,0.16
1230.49,0.12
1242.80,0.08
1255.22,0.04
1267.78,0.01
1280.45,-0.01
1293.26,-0.01
1306.19,-0.01
1319.25,-0.02
1332.45,-0.02
1345.77,-0.02
1359.23,-0.04
1372.82,-0.06
1386.55,-0.09
1400.41,-0.12
1414.42,-0.14
1428.56,-0.17
1442.85,-0.20
1457.28,-0.23
1471.85,-0.27
1486.57,-0.30
1501.43,-0.34
1516.45,-0.38
1531.61,-0.43
1546.93,-0.47
1562.40,-0.51
1578.02,-0.56
1593.80,-0.63
1609.74,-0.70
1625.84,-0.78
1642.10,-0.87
1658.52,-0.98
1675.10,-1.08
1691.85,-1.19
1708.77,-1.31
1725.86,-1.42
1743.12,-1.56
1760.55,-1.71
1778.15,-1.86
1795.94,-2.00
1813.90,-2.15
1832.03,-2.30
1850.36,-2.46
1868.86,-2.59
1887.55,-2.73
1906.42,-2.87
1925.49,-3.00
1944.74,-3.13
1964.19,-3.25
1983.83,-3.37
2003.67,-3.48
2023.71,-3.60
2043.94,-3.71
2064.38,-3.82
2085.03,-3.92
2105.88,-4.03
2126.94,-4.13
2148.20,-4.24
2169.69,-4.36
2191.38,-4.48
2213.30,-4.60
2235.43,-4.73
2257.78,-4.85
2280.36,-4.98
2303.17,-5.12
2326.20,-5.26
2349.46,-5.38
2372.95,-5.51
2396.68,-5.63
2420.65,-5.75
2444.86,-5.87
2469.31,-5.97
2494.00,-6.06
2518.94,-6.14
2544.13,-6.21
2569.57,-6.27
2595.27,-6.33
2621.22,-6.40
2647.43,-6.47
2673.90,-6.53
2700.64,-6.59
2727.65,-6.64
2754.93,-6.69
2782.48,-6.73
2810.30,-6.76
2838.40,-6.79
2866.79,-6.80
2895.46,-6.81
2924.41,-6.81
2953.65,-6.79
2983.19,-6.76
3013.02,-6.69
3043.15,-6.59
3073.58,-6.46
3104.32,-6.30
3135.36,-6.09
3166.72,-5.85
3198.38,-5.56
3230.37,-5.23
3262.67,-4.85
3295.30,-4.42
3328.25,-3.96
3361.53,-3.46
3395.15,-2.94
3429.10,-2.41
3463.39,-1.87
3498.03,-1.33
3533.01,-0.79
3568.34,-0.26
3604.02,0.24
3640.06,0.72
3676.46,1.18
3713.22,1.62
3750.36,2.02
3787.86,2.41
3825.74,2.76
3864.00,3.05
3902.64,3.32
3941.66,3.56
3981.08,3.76
4020.89,3.92
4061.10,4.05
4101.71,4.15
4142.73,4.22
4184.15,4.25
4226.00,4.27
4268.26,4.26
4310.94,4.22
4354.05,4.16
4397.59,4.05
4441.56,3.93
4485.98,3.77
4530.84,3.60
4576.15,3.40
4621.91,3.18
4668.13,2.94
4714.81,2.68
4761.96,2.40
4809.58,2.12
4857.67,1.84
4906.25,1.57
4955.31,1.30
5004.87,1.06
5054.91,0.85
5105.46,0.68
5156.52,0.52
5208.08,0.41
5260.16,0.35
5312.77,0.34
5365.89,0.36
5419.55,0.44
5473.75,0.56
5528.49,0.73
5583.77,0.93
5639.61,1.15
5696.00,1.38
5752.96,1.60
5810.49,1.81
5868.60,2.01
5927.28,2.19
5986.56,2.35
6046.42,2.49
6106.89,2.60
6167.96,2.67
6229.64,2.69
6291.93,2.67
6354.85,2.65
6418.40,2.62
6482.58,2.56
6547.41,2.45
6612.88,2.32
6679.01,2.14
6745.80,1.91
6813.26,1.61
6881.39,1.23
6950.21,0.76
7019.71,0.20
7089.91,-0.44
7160.81,-1.16
7232.41,-1.93
7304.74,-2.73
7377.79,-3.52
7451.56,-4.24
7526.08,-4.87
7601.34,-5.37
7677.35,-5.70
7754.13,-5.84
7831.67,-5.77
7909.98,-5.54
7989.08,-5.15
8068.98,-4.61
8149.67,-3.95
8231.16,-3.20
8313.47,-2.42
8396.61,-1.64
8480.57,-0.91
8565.38,-0.25
8651.03,0.32
8737.54,0.79
8824.92,1.16
8913.17,1.45
9002.30,1.67
9092.32,1.84
9183.25,1.98
9275.08,2.08
9367.83,2.15
9461.51,2.20
9556.12,2.23
9651.68,2.25
9748.20,2.25
9845.68,2.22
9944.14,2.16
10043.58,2.08
10144.02,1.97
10245.46,1.83
10347.91,1.68
10451.39,1.52
10555.91,1.38
10661.46,1.26
10768.08,1.19
10875.76,1.15
10984.52,1.16
11094.36,1.21
11205.31,1.32
11317.36,1.44
11430.53,1.59
11544.84,1.75
11660.29,1.94
11776.89,2.12
11894.66,2.28
12013.60,2.42
12133.74,2.52
12255.08,2.59
12377.63,2.62
12501.41,2.63
12626.42,2.61
12752.68,2.59
12880.21,2.55
13009.01,2.49
13139.10,2.43
13270.49,2.37
13403.20,2.28
13537.23,2.17
13672.60,2.02
13809.33,1.83
13947.42,1.60
14086.90,1.32
14227.77,1.01
14370.04,0.65
14513.74,0.24
14658.88,-0.22
14805.47,-0.70
14953.52,-1.19
15103.06,-1.69
15254.09,-2.20
15406.63,-2.71
15560.70,-3.23
15716.30,-3.72
15873.47,-4.21
16032.20,-4.68
16192.52,-5.16
16354.45,-5.63
16517.99,-6.11
16683.17,-6.60
16850.01,-7.10
17018.51,-7.61
17188.69,-8.11
17360.58,-8.62
17534.18,-9.11
17709.53,-9.59
17886.62,-10.04
18065.49,-10.45
18246.14,-10.80
18428.60,-11.12
18612.89,-11.41
18799.02,-11.66
18987.01,-11.88
19176.88,-12.07
19368.65,-12.23
19562.33,-12.35
19757.96,-12.44
19955.54,-12.50
