frequency,raw,error,smoothed,error_smoothed,equalization,parametric_eq,fixed_band_eq,equalized_raw,equalized_smoothed,target
20.00,-15.89,-16.42,-15.89,-16.44,6.00,4.59,2.87,-9.89,-9.89,0.53
20.20,-15.76,-16.34,-15.77,-16.36,6.00,4.67,2.95,-9.76,-9.77,0.58
20.40,-15.64,-16.27,-15.65,-16.28,6.00,4.75,3.04,-9.64,-9.65,0.63
20.61,-15.51,-16.17,-15.52,-16.19,6.00,4.83,3.13,-9.51,-9.52,0.66
20.81,-15.38,-16.09,-15.40,-16.09,6.00,4.91,3.21,-9.38,-9.40,0.71
21.02,-15.26,-16.01,-15.28,-15.99,6.00,4.99,3.31,-9.26,-9.28,0.75
21.23,-15.15,-15.92,-15.15,-15.89,6.00,5.07,3.40,-9.15,-9.15,0.77
21.44,-15.03,-15.81,-15.02,-15.79,6.00,5.15,3.50,-9.03,-9.02,0.79
21.66,-14.92,-15.73,-14.89,-15.68,6.00,5.23,3.60,-8.92,-8.89,0.80
21.87,-14.81,-15.62,-14.76,-15.57,6.00,5.31,3.70,-8.81,-8.76,0.82
22.09,-14.67,-15.50,-14.63,-15.45,6.00,5.39,3.80,-8.67,-8.63,0.83
22.31,-14.52,-15.36,-14.50,-15.33,6.00,5.46,3.91,-8.52,-8.50,0.84
22.54,-14.37,-15.22,-14.36,-15.20,6.00,5.54,4.02,-8.37,-8.36,0.84
22.76,-14.21,-15.05,-14.22,-15.07,6.00,5.62,4.14,-8.21,-8.22,0.84
22.99,-14.06,-14.89,-14.08,-14.93,6.00,5.69,4.25,-8.06,-8.08,0.83
23.22,-13.92,-14.75,-13.94,-14.79,6.00,5.76,4.37,-7.92,-7.94,0.83
23.45,-13.78,-14.61,-13.80,-14.65,6.00,5.83,4.49,-7.78,-7.80,0.83
23.69,-13.64,-14.48,-13.66,-14.51,6.00,5.90,4.62,-7.64,-7.66,0.84
23.92,-13.50,-14.34,-13.52,-14.36,6.00,5.97,4.74,-7.50,-7.52,0.84
24.16,-13.36,-14.21,-13.37,-14.22,6.00,6.04,4.87,-7.36,-7.37,0.85
24.40,-13.23,-14.09,-13.23,-14.07,6.00,6.10,5.00,-7.23,-7.23,0.86
24.65,-13.10,-13.95,-13.08,-13.93,6.00,6.16,5.14,-7.10,-7.08,0.85
24.89,-12.98,-13.83,-12.94,-13.79,6.00,6.22,5.27,-6.98,-6.94,0.85
25.14,-12.83,-13.68,-12.80,-13.65,6.00,6.28,5.41,-6.83,-6.80,0.85
25.39,-12.67,-13.53,-12.66,-13.51,6.00,6.33,5.54,-6.67,-6.66,0.86
25.65,-12.51,-13.37,-12.51,-13.37,6.00,6.38,5.68,-6.51,-6.51,0.86
25.91,-12.35,-13.20,-12.37,-13.22,6.00,6.42,5.82,-6.35,-6.37,0.85
26.16,-12.20,-13.05,-12.22,-13.08,6.00,6.47,5.96,-6.20,-6.22,0.85
26.43,-12.06,-12.91,-12.08,-12.93,6.00,6.50,6.09,-6.06,-6.08,0.85
26.69,-11.92,-12.77,-11.93,-12.78,6.00,6.54,6.23,-5.92,-5.93,0.85
26.96,-11.78,-12.64,-11.78,-12.63,6.00,6.57,6.36,-5.78,-5.78,0.86
27.23,-11.64,-12.50,-11.63,-12.48,6.00,6.59,6.50,-5.64,-5.63,0.85
27.50,-11.49,-12.35,-11.49,-12.33,6.00,6.62,6.62,-5.49,-5.49,0.85
27.77,-11.35,-12.19,-11.35,-12.19,6.00,6.63,6.75,-5.35,-5.35,0.84
28.05,-11.20,-12.04,-11.20,-12.05,6.00,6.65,6.87,-5.20,-5.20,0.84
28.33,-11.05,-11.88,-11.06,-11.90,6.00,6.65,6.98,-5.05,-5.06,0.83
28.62,-10.90,-11.73,-10.91,-11.76,6.00,6.66,7.08,-4.90,-4.91,0.83
28.90,-10.75,-11.59,-10.77,-11.61,6.00,6.66,7.18,-4.75,-4.77,0.84
29.19,-10.61,-11.44,-10.62,-11.46,6.00,6.65,7.27,-4.61,-4.62,0.83
29.48,-10.48,-11.33,-10.47,-11.31,6.00,6.64,7.35,-4.48,-4.47,0.85
29.78,-10.35,-11.19,-10.31,-11.15,6.00,6.62,7.41,-4.35,-4.31,0.84
30.08,-10.20,-11.05,-10.16,-10.99,6.00,6.60,7.47,-4.20,-4.16,0.85
30.38,-10.02,-10.86,-10.00,-10.83,6.00,6.58,7.52,-4.02,-4.00,0.84
30.68,-9.83,-10.66,-9.84,-10.67,6.00,6.55,7.55,-3.83,-3.84,0.83
30.99,-9.65,-10.49,-9.68,-10.51,6.00,6.52,7.57,-3.65,-3.68,0.83
31.30,-9.50,-10.33,-9.52,-10.35,6.00,6.48,7.57,-3.50,-3.52,0.83
31.61,-9.35,-10.18,-9.36,-10.19,6.00,6.44,7.57,-3.35,-3.36,0.83
31.93,-9.20,-10.03,-9.19,-10.02,6.00,6.40,7.55,-3.20,-3.19,0.83
32.24,-9.03,-9.85,-9.03,-9.85,6.00,6.35,7.52,-3.03,-3.03,0.82
32.57,-8.85,-9.68,-8.87,-9.69,6.00,6.30,7.47,-2.85,-2.87,0.83
32.89,-8.68,-9.50,-8.71,-9.53,6.00,6.24,7.41,-2.68,-2.71,0.82
33.22,-8.53,-9.34,-8.55,-9.37,6.00,6.18,7.35,-2.53,-2.55,0.81
33.55,-8.40,-9.21,-8.39,-9.20,6.00,6.12,7.27,-2.40,-2.39,0.81
33.89,-8.26,-9.06,-8.24,-9.04,6.00,6.06,7.18,-2.26,-2.24,0.80
34.23,-8.10,-8.91,-8.08,-8.88,6.00,5.99,7.09,-2.10,-2.08,0.81
34.57,-7.93,-8.73,-7.92,-8.72,6.00,5.93,6.98,-1.93,-1.92,0.80
34.92,-7.75,-8.55,-7.77,-8.56,6.00,5.86,6.88,-1.75,-1.77,0.79
35.27,-7.61,-8.41,-7.61,-8.41,6.00,5.78,6.76,-1.61,-1.61,0.79
35.62,-7.47,-8.26,-7.46,-8.25,6.00,5.71,6.64,-1.47,-1.46,0.79
35.97,-7.34,-8.13,-7.30,-8.09,6.00,5.64,6.52,-1.34,-1.30,0.79
36.33,-7.15,-7.94,-7.15,-7.94,6.00,5.56,6.39,-1.15,-1.15,0.80
36.70,-6.96,-7.75,-6.99,-7.78,6.00,5.48,6.26,-0.96,-0.99,0.78
37.06,-6.78,-7.56,-6.83,-7.63,6.00,5.40,6.13,-0.78,-0.83,0.78
37.43,-6.66,-7.46,-6.67,-7.47,6.00,5.32,6.00,-0.66,-0.67,0.80
37.81,-6.53,-7.33,-6.51,-7.31,6.00,5.24,5.86,-0.53,-0.51,0.80
38.19,-6.38,-7.18,-6.35,-7.15,6.00,5.16,5.73,-0.38,-0.35,0.79
38.57,-6.21,-7.01,-6.19,-6.99,6.00,5.08,5.60,-0.21,-0.19,0.80
38.95,-6.04,-6.85,-6.03,-6.83,6.00,5.00,5.47,-0.04,-0.03,0.81
39.34,-5.88,-6.68,-5.87,-6.67,6.00,4.92,5.34,0.12,0.13,0.81
39.74,-5.72,-6.52,-5.71,-6.51,6.00,4.84,5.21,0.28,0.29,0.80
40.14,-5.56,-6.37,-5.55,-6.36,5.98,4.76,5.08,0.42,0.43,0.81
40.54,-5.38,-6.19,-5.39,-6.20,5.93,4.68,4.96,0.55,0.54,0.81
40.94,-5.21,-6.01,-5.24,-6.04,5.86,4.60,4.84,0.65,0.62,0.80
41.35,-5.05,-5.85,-5.08,-5.88,5.77,4.52,4.72,0.72,0.68,0.80
41.76,-4.90,-5.69,-4.93,-5.72,5.65,4.43,4.60,0.75,0.73,0.80
42.18,-4.77,-5.57,-4.78,-5.57,5.53,4.35,4.49,0.76,0.75,0.80
42.60,-4.65,-5.44,-4.63,-5.41,5.40,4.28,4.37,0.75,0.77,0.79
43.03,-4.53,-5.31,-4.49,-5.26,5.26,4.20,4.27,0.73,0.77,0.78
43.46,-4.36,-5.14,-4.35,-5.11,5.11,4.12,4.16,0.75,0.76,0.78
43.90,-4.20,-4.96,-4.21,-4.97,4.97,4.04,4.06,0.77,0.75,0.75
44.33,-4.06,-4.80,-4.08,-4.82,4.82,3.96,3.96,0.76,0.75,0.74
44.78,-3.93,-4.66,-3.94,-4.67,4.67,3.89,3.86,0.74,0.74,0.72
45.23,-3.82,-4.54,-3.81,-4.53,4.53,3.81,3.77,0.71,0.72,0.72
45.68,-3.71,-4.42,-3.69,-4.40,4.40,3.74,3.67,0.69,0.71,0.70
46.13,-3.59,-4.28,-3.57,-4.28,4.28,3.66,3.59,0.69,0.70,0.69
46.60,-3.44,-4.13,-3.46,-4.15,4.15,3.59,3.50,0.71,0.69,0.69
47.06,-3.31,-3.99,-3.35,-4.03,4.03,3.52,3.42,0.72,0.68,0.68
47.53,-3.23,-3.90,-3.23,-3.90,3.90,3.45,3.34,0.67,0.67,0.67
48.01,-3.16,-3.84,-3.13,-3.78,3.78,3.38,3.26,0.62,0.66,0.67
48.49,-3.01,-3.67,-3.04,-3.68,3.68,3.31,3.18,0.67,0.65,0.66
48.97,-2.86,-3.50,-2.95,-3.59,3.59,3.24,3.11,0.73,0.64,0.64
49.46,-2.86,-3.48,-2.87,-3.50,3.50,3.17,3.04,0.64,0.63,0.62
49.96,-2.87,-3.48,-2.78,-3.40,3.40,3.10,2.97,0.53,0.62,0.61
50.46,-2.76,-3.37,-2.70,-3.31,3.31,3.04,2.91,0.55,0.61,0.61
50.96,-2.64,-3.24,-2.63,-3.23,3.23,2.97,2.84,0.59,0.60,0.60
51.47,-2.50,-3.08,-2.56,-3.15,3.15,2.91,2.78,0.65,0.59,0.58
51.99,-2.35,-2.93,-2.49,-3.07,3.07,2.84,2.72,0.72,0.58,0.57
52.51,-2.43,-3.01,-2.42,-3.00,3.00,2.78,2.66,0.57,0.58,0.58
53.03,-2.49,-3.07,-2.35,-2.92,2.92,2.72,2.61,0.43,0.57,0.58
53.56,-2.34,-2.91,-2.28,-2.84,2.84,2.66,2.55,0.50,0.56,0.57
54.10,-2.20,-2.76,-2.22,-2.77,2.77,2.60,2.50,0.57,0.56,0.56
54.64,-2.10,-2.65,-2.15,-2.70,2.70,2.54,2.45,0.60,0.55,0.55
55.18,-2.04,-2.59,-2.08,-2.62,2.62,2.48,2.40,0.58,0.55,0.55
55.74,-2.06,-2.60,-2.01,-2.55,2.55,2.42,2.35,0.49,0.54,0.54
56.29,-2.01,-2.54,-1.95,-2.49,2.49,2.36,2.30,0.48,0.53,0.53
56.86,-1.88,-2.40,-1.90,-2.42,2.42,2.31,2.25,0.54,0.53,0.52
57.42,-1.81,-2.31,-1.84,-2.36,2.36,2.25,2.21,0.55,0.52,0.50
58.00,-1.75,-2.25,-1.79,-2.29,2.29,2.20,2.16,0.54,0.50,0.50
58.58,-1.72,-2.22,-1.72,-2.21,2.21,2.14,2.12,0.49,0.49,0.50
59.16,-1.67,-2.15,-1.67,-2.14,2.14,2.09,2.07,0.47,0.47,0.48
59.76,-1.61,-2.08,-1.63,-2.08,2.08,2.03,2.03,0.47,0.45,0.47
60.35,-1.59,-2.03,-1.60,-2.02,2.02,1.98,1.99,0.43,0.43,0.44
60.96,-1.58,-1.99,-1.56,-1.96,1.96,1.93,1.94,0.38,0.40,0.41
61.57,-1.51,-1.89,-1.52,-1.89,1.89,1.87,1.90,0.38,0.37,0.38
62.18,-1.46,-1.80,-1.48,-1.82,1.82,1.82,1.86,0.36,0.34,0.34
62.80,-1.46,-1.76,-1.44,-1.75,1.75,1.77,1.82,0.29,0.31,0.30
63.43,-1.42,-1.69,-1.41,-1.69,1.69,1.72,1.78,0.27,0.28,0.27
64.07,-1.37,-1.60,-1.38,-1.62,1.62,1.67,1.74,0.25,0.24,0.23
64.71,-1.37,-1.56,-1.35,-1.55,1.55,1.62,1.69,0.18,0.20,0.19
65.35,-1.35,-1.52,-1.31,-1.48,1.48,1.57,1.65,0.13,0.17,0.17
66.01,-1.32,-1.45,-1.28,-1.41,1.41,1.52,1.61,0.09,0.13,0.13
66.67,-1.23,-1.32,-1.25,-1.34,1.34,1.47,1.57,0.11,0.09,0.09
67.33,-1.18,-1.23,-1.22,-1.27,1.27,1.42,1.53,0.09,0.05,0.05
68.01,-1.18,-1.20,-1.19,-1.20,1.20,1.37,1.49,0.02,0.01,0.02
68.69,-1.18,-1.16,-1.17,-1.14,1.14,1.32,1.45,-0.04,-0.03,-0.02
69.37,-1.15,-1.09,-1.14,-1.08,1.08,1.27,1.41,-0.07,-0.07,-0.06
70.07,-1.09,-0.98,-1.12,-1.02,1.02,1.22,1.37,-0.07,-0.11,-0.11
70.77,-1.08,-0.94,-1.11,-0.96,0.96,1.17,1.33,-0.12,-0.15,-0.14
71.48,-1.08,-0.90,-1.09,-0.90,0.90,1.13,1.29,-0.18,-0.19,-0.18
72.19,-1.08,-0.85,-1.08,-0.85,0.85,1.08,1.25,-0.23,-0.24,-0.23
72.91,-1.08,-0.80,-1.08,-0.80,0.80,1.03,1.22,-0.28,-0.28,-0.28
73.64,-1.08,-0.76,-1.07,-0.75,0.75,0.98,1.18,-0.33,-0.32,-0.32
74.38,-1.08,-0.71,-1.07,-0.71,0.71,0.93,1.14,-0.37,-0.37,-0.37
75.12,-1.08,-0.67,-1.08,-0.67,0.67,0.88,1.10,-0.41,-0.41,-0.42
75.87,-1.08,-0.62,-1.08,-0.63,0.63,0.83,1.06,-0.45,-0.45,-0.46
76.63,-1.08,-0.58,-1.08,-0.59,0.59,0.78,1.03,-0.49,-0.49,-0.50
77.40,-1.08,-0.54,-1.08,-0.55,0.55,0.73,0.99,-0.53,-0.53,-0.54
78.17,-1.08,-0.50,-1.08,-0.51,0.51,0.67,0.95,-0.57,-0.57,-0.59
78.95,-1.08,-0.48,-1.08,-0.47,0.47,0.62,0.92,-0.61,-0.61,-0.60
79.74,-1.08,-0.44,-1.07,-0.42,0.42,0.57,0.88,-0.66,-0.64,-0.64
80.54,-1.08,-0.41,-1.06,-0.38,0.38,0.52,0.85,-0.70,-0.68,-0.67
81.35,-1.08,-0.37,-1.05,-0.34,0.34,0.47,0.81,-0.74,-0.71,-0.71
82.16,-1.08,-0.33,-1.05,-0.30,0.30,0.42,0.78,-0.78,-0.74,-0.75
82.98,-1.08,-0.31,-1.04,-0.27,0.27,0.37,0.74,-0.82,-0.78,-0.77
83.81,-1.01,-0.20,-1.04,-0.23,0.23,0.32,0.71,-0.78,-0.81,-0.81
84.65,-0.99,-0.15,-1.03,-0.19,0.19,0.27,0.67,-0.80,-0.84,-0.84
85.50,-0.99,-0.12,-1.02,-0.15,0.15,0.22,0.64,-0.84,-0.87,-0.87
86.35,-0.99,-0.09,-1.02,-0.12,0.12,0.18,0.61,-0.87,-0.91,-0.90
87.22,-0.99,-0.06,-1.03,-0.09,0.09,0.13,0.57,-0.90,-0.94,-0.93
88.09,-0.99,-0.02,-1.03,-0.06,0.06,0.09,0.54,-0.93,-0.97,-0.97
88.97,-1.08,-0.08,-1.04,-0.03,0.03,0.04,0.51,-1.05,-1.01,-1.00
89.86,-1.08,-0.04,-1.05,-0.01,0.01,0.01,0.48,-1.07,-1.04,-1.04
90.76,-1.08,-0.00,-1.06,0.01,-0.01,-0.03,0.45,-1.09,-1.07,-1.08
91.66,-1.07,0.03,-1.08,0.03,-0.03,-0.07,0.41,-1.10,-1.11,-1.10
92.58,-1.07,0.08,-1.09,0.05,-0.05,-0.10,0.38,-1.12,-1.14,-1.15
93.51,-1.09,0.09,-1.11,0.06,-0.06,-0.13,0.35,-1.15,-1.17,-1.18
94.44,-1.14,0.06,-1.12,0.08,-0.08,-0.15,0.32,-1.22,-1.20,-1.20
95.39,-1.17,0.06,-1.13,0.11,-0.11,-0.17,0.29,-1.28,-1.24,-1.23
96.34,-1.16,0.11,-1.13,0.13,-0.13,-0.19,0.26,-1.29,-1.27,-1.27
97.30,-1.18,0.12,-1.13,0.16,-0.16,-0.20,0.23,-1.34,-1.30,-1.30
98.28,-1.19,0.14,-1.13,0.19,-0.19,-0.21,0.20,-1.38,-1.33,-1.33
99.26,-1.13,0.23,-1.14,0.22,-0.22,-0.22,0.17,-1.35,-1.36,-1.36
100.25,-1.13,0.26,-1.15,0.24,-0.24,-0.22,0.14,-1.37,-1.39,-1.39
101.25,-1.15,0.26,-1.16,0.26,-0.26,-0.23,0.12,-1.41,-1.42,-1.42
102.27,-1.16,0.28,-1.18,0.26,-0.26,-0.22,0.09,-1.43,-1.45,-1.44
103.29,-1.17,0.31,-1.21,0.27,-0.27,-0.22,0.06,-1.44,-1.48,-1.48
104.32,-1.19,0.31,-1.24,0.27,-0.27,-0.21,0.03,-1.46,-1.51,-1.50
105.37,-1.21,0.32,-1.27,0.27,-0.27,-0.20,0.01,-1.48,-1.54,-1.53
106.42,-1.25,0.31,-1.32,0.26,-0.26,-0.19,-0.02,-1.51,-1.57,-1.56
107.48,-1.35,0.25,-1.37,0.24,-0.24,-0.18,-0.04,-1.59,-1.61,-1.60
108.56,-1.46,0.18,-1.43,0.21,-0.21,-0.17,-0.07,-1.67,-1.64,-1.64
109.64,-1.50,0.17,-1.49,0.18,-0.18,-0.15,-0.09,-1.68,-1.67,-1.67
110.74,-1.53,0.18,-1.56,0.15,-0.15,-0.14,-0.11,-1.68,-1.71,-1.71
111.85,-1.66,0.07,-1.62,0.12,-0.12,-0.12,-0.14,-1.78,-1.74,-1.73
112.97,-1.74,0.04,-1.67,0.10,-0.10,-0.11,-0.16,-1.84,-1.77,-1.78
114.10,-1.74,0.06,-1.72,0.08,-0.08,-0.09,-0.18,-1.82,-1.80,-1.81
115.24,-1.76,0.07,-1.77,0.06,-0.06,-0.08,-0.19,-1.82,-1.83,-1.83
116.39,-1.84,0.03,-1.81,0.04,-0.04,-0.06,-0.21,-1.88,-1.86,-1.87
117.55,-1.91,-0.02,-1.85,0.03,-0.03,-0.05,-0.23,-1.94,-1.88,-1.89
118.73,-1.93,-0.01,-1.88,0.02,-0.02,-0.03,-0.24,-1.95,-1.90,-1.92
119.92,-1.92,0.00,-1.90,0.02,-0.02,-0.02,-0.26,-1.94,-1.93,-1.92
121.12,-1.91,0.04,-1.93,0.02,-0.02,-0.01,-0.27,-1.93,-1.94,-1.95
122.33,-1.90,0.07,-1.95,0.01,-0.01,0.01,-0.28,-1.91,-1.96,-1.97
123.55,-1.89,0.08,-1.97,0.01,-0.01,0.02,-0.29,-1.90,-1.98,-1.97
124.79,-1.90,0.09,-1.98,0.01,-0.01,0.03,-0.29,-1.91,-1.99,-1.99
126.03,-2.05,-0.05,-2.00,0.01,-0.01,0.04,-0.30,-2.06,-2.01,-2.00
127.29,-2.06,-0.05,-2.02,-0.00,0.00,0.05,-0.30,-2.06,-2.02,-2.01
128.57,-2.06,-0.03,-2.04,-0.01,0.01,0.06,-0.31,-2.05,-2.03,-2.03
129.85,-2.05,-0.01,-2.06,-0.02,0.02,0.07,-0.31,-2.04,-2.04,-2.04
131.15,-2.08,-0.02,-2.08,-0.02,0.02,0.08,-0.31,-2.06,-2.06,-2.06
132.46,-2.12,-0.05,-2.11,-0.04,0.04,0.09,-0.31,-2.08,-2.07,-2.07
133.79,-2.14,-0.06,-2.14,-0.06,0.06,0.10,-0.31,-2.08,-2.08,-2.08
135.12,-2.14,-0.04,-2.18,-0.09,0.09,0.11,-0.30,-2.05,-2.09,-2.10
136.48,-2.20,-0.10,-2.22,-0.11,0.11,0.11,-0.30,-2.09,-2.11,-2.10
137.84,-2.24,-0.12,-2.25,-0.13,0.13,0.12,-0.29,-2.11,-2.12,-2.13
139.22,-2.29,-0.15,-2.28,-0.15,0.15,0.13,-0.28,-2.14,-2.13,-2.14
140.61,-2.31,-0.15,-2.31,-0.16,0.16,0.13,-0.28,-2.15,-2.15,-2.16
142.02,-2.31,-0.15,-2.34,-0.17,0.17,0.14,-0.27,-2.14,-2.17,-2.16
143.44,-2.38,-0.20,-2.37,-0.18,0.18,0.14,-0.26,-2.20,-2.19,-2.18
144.87,-2.41,-0.20,-2.40,-0.19,0.19,0.15,-0.25,-2.22,-2.21,-2.21
146.32,-2.48,-0.25,-2.43,-0.19,0.19,0.15,-0.24,-2.29,-2.24,-2.23
147.78,-2.51,-0.26,-2.47,-0.19,0.19,0.16,-0.22,-2.32,-2.28,-2.25
149.26,-2.51,-0.22,-2.49,-0.18,0.18,0.16,-0.21,-2.33,-2.32,-2.29
150.75,-2.51,-0.17,-2.52,-0.16,0.16,0.16,-0.20,-2.35,-2.36,-2.34
152.26,-2.51,-0.11,-2.54,-0.13,0.13,0.17,-0.19,-2.38,-2.41,-2.40
153.78,-2.52,-0.07,-2.57,-0.10,0.10,0.17,-0.17,-2.42,-2.47,-2.45
155.32,-2.57,-0.06,-2.59,-0.07,0.07,0.17,-0.16,-2.50,-2.53,-2.51
156.88,-2.60,-0.03,-2.62,-0.03,0.03,0.18,-0.15,-2.57,-2.58,-2.58
158.44,-2.67,-0.02,-2.64,0.00,-0.00,0.18,-0.13,-2.68,-2.64,-2.65
160.03,-2.70,0.02,-2.66,0.04,-0.04,0.18,-0.12,-2.74,-2.70,-2.72
161.63,-2.70,0.08,-2.68,0.07,-0.07,0.18,-0.11,-2.77,-2.76,-2.78
163.24,-2.70,0.13,-2.71,0.10,-0.10,0.19,-0.09,-2.80,-2.81,-2.83
164.88,-2.70,0.17,-2.74,0.12,-0.12,0.19,-0.08,-2.82,-2.85,-2.87
166.53,-2.75,0.16,-2.77,0.12,-0.12,0.19,-0.06,-2.87,-2.89,-2.91
168.19,-2.79,0.15,-2.79,0.13,-0.13,0.19,-0.05,-2.92,-2.92,-2.94
169.87,-2.82,0.15,-2.81,0.13,-0.13,0.20,-0.04,-2.95,-2.94,-2.97
171.57,-2.82,0.15,-2.83,0.13,-0.13,0.20,-0.02,-2.95,-2.96,-2.97
173.29,-2.83,0.15,-2.85,0.12,-0.12,0.20,-0.01,-2.95,-2.97,-2.98
175.02,-2.87,0.11,-2.87,0.11,-0.11,0.20,0.01,-2.98,-2.98,-2.98
176.77,-2.92,0.06,-2.88,0.10,-0.10,0.21,0.02,-3.02,-2.98,-2.98
178.54,-2.93,0.05,-2.89,0.08,-0.08,0.21,0.03,-3.01,-2.98,-2.98
180.32,-2.93,0.03,-2.91,0.06,-0.06,0.21,0.05,-2.99,-2.97,-2.96
182.13,-2.92,0.03,-2.93,0.05,-0.05,0.21,0.06,-2.97,-2.97,-2.95
183.95,-2.91,0.04,-2.94,0.03,-0.03,0.21,0.07,-2.94,-2.97,-2.95
185.79,-2.90,0.05,-2.94,0.03,-0.03,0.22,0.09,-2.93,-2.97,-2.95
187.65,-2.97,-0.01,-2.95,0.02,-0.02,0.22,0.10,-2.99,-2.97,-2.96
189.52,-2.97,-0.01,-2.95,0.02,-0.02,0.22,0.11,-2.99,-2.97,-2.96
191.42,-2.96,0.01,-2.96,0.02,-0.02,0.22,0.13,-2.98,-2.98,-2.98
193.33,-2.94,0.05,-2.96,0.02,-0.02,0.23,0.14,-2.96,-2.99,-2.99
195.27,-2.98,0.02,-2.97,0.03,-0.03,0.23,0.15,-3.01,-3.00,-3.00
197.22,-3.01,-0.00,-2.97,0.04,-0.04,0.23,0.17,-3.05,-3.01,-3.01
199.19,-3.00,0.03,-2.99,0.04,-0.04,0.24,0.18,-3.04,-3.02,-3.03
201.18,-2.99,0.05,-3.00,0.04,-0.04,0.24,0.19,-3.03,-3.04,-3.04
203.19,-2.99,0.06,-3.02,0.04,-0.04,0.24,0.21,-3.03,-3.05,-3.05
205.23,-2.98,0.09,-3.04,0.03,-0.03,0.25,0.22,-3.01,-3.07,-3.07
207.28,-3.02,0.05,-3.05,0.03,-0.03,0.25,0.23,-3.05,-3.08,-3.07
209.35,-3.07,0.02,-3.06,0.03,-0.03,0.25,0.25,-3.10,-3.10,-3.09
211.44,-3.08,0.04,-3.08,0.03,-0.03,0.26,0.26,-3.11,-3.11,-3.12
213.56,-3.09,0.03,-3.11,0.01,-0.01,0.26,0.27,-3.10,-3.12,-3.12
215.69,-3.15,-0.02,-3.13,-0.00,0.00,0.27,0.28,-3.15,-3.13,-3.13
217.85,-3.19,-0.06,-3.15,-0.01,0.01,0.27,0.30,-3.18,-3.14,-3.13
220.03,-3.19,-0.05,-3.17,-0.03,0.03,0.27,0.31,-3.16,-3.14,-3.14
222.23,-3.20,-0.04,-3.19,-0.05,0.05,0.28,0.32,-3.15,-3.14,-3.16
224.45,-3.20,-0.05,-3.21,-0.07,0.07,0.29,0.33,-3.13,-3.14,-3.15
226.70,-3.20,-0.06,-3.22,-0.08,0.08,0.29,0.34,-3.12,-3.14,-3.14
228.96,-3.19,-0.06,-3.22,-0.10,0.10,0.30,0.35,-3.09,-3.13,-3.13
231.25,-3.24,-0.12,-3.23,-0.11,0.11,0.30,0.36,-3.13,-3.12,-3.12
233.57,-3.27,-0.17,-3.23,-0.12,0.12,0.31,0.37,-3.15,-3.10,-3.10
235.90,-3.26,-0.17,-3.22,-0.14,0.14,0.32,0.38,-3.12,-3.08,-3.09
238.26,-3.24,-0.17,-3.22,-0.15,0.15,0.32,0.39,-3.09,-3.06,-3.07
240.64,-3.22,-0.17,-3.21,-0.17,0.17,0.33,0.40,-3.05,-3.04,-3.05
243.05,-3.21,-0.20,-3.21,-0.19,0.19,0.34,0.41,-3.02,-3.02,-3.02
245.48,-3.19,-0.20,-3.21,-0.22,0.22,0.35,0.42,-2.97,-2.99,-2.99
247.93,-3.16,-0.21,-3.21,-0.25,0.25,0.36,0.43,-2.91,-2.97,-2.96
250.41,-3.18,-0.24,-3.22,-0.28,0.28,0.37,0.44,-2.90,-2.94,-2.94
252.92,-3.22,-0.32,-3.22,-0.31,0.31,0.38,0.45,-2.91,-2.91,-2.90
255.45,-3.21,-0.33,-3.23,-0.34,0.34,0.39,0.46,-2.87,-2.89,-2.88
258.00,-3.20,-0.35,-3.23,-0.37,0.37,0.40,0.46,-2.83,-2.86,-2.85
260.58,-3.24,-0.40,-3.24,-0.41,0.41,0.41,0.47,-2.83,-2.83,-2.84
263.19,-3.28,-0.48,-3.26,-0.45,0.45,0.42,0.48,-2.83,-2.81,-2.80
265.82,-3.29,-0.51,-3.27,-0.49,0.49,0.43,0.48,-2.80,-2.78,-2.79
268.48,-3.30,-0.54,-3.28,-0.53,0.53,0.45,0.49,-2.77,-2.75,-2.76
271.16,-3.30,-0.58,-3.29,-0.57,0.57,0.46,0.50,-2.74,-2.73,-2.72
273.87,-3.31,-0.60,-3.30,-0.60,0.60,0.48,0.50,-2.71,-2.70,-2.71
276.61,-3.31,-0.64,-3.30,-0.63,0.63,0.49,0.51,-2.68,-2.67,-2.67
279.38,-3.31,-0.67,-3.30,-0.66,0.66,0.51,0.52,-2.65,-2.64,-2.64
282.17,-3.30,-0.69,-3.29,-0.68,0.68,0.53,0.52,-2.62,-2.61,-2.62
284.99,-3.30,-0.72,-3.29,-0.71,0.71,0.55,0.53,-2.60,-2.58,-2.58
287.84,-3.29,-0.73,-3.28,-0.73,0.73,0.57,0.54,-2.56,-2.55,-2.56
290.72,-3.28,-0.76,-3.27,-0.75,0.75,0.59,0.54,-2.53,-2.52,-2.52
293.63,-3.27,-0.77,-3.27,-0.78,0.78,0.61,0.55,-2.49,-2.49,-2.50
296.57,-3.25,-0.79,-3.26,-0.80,0.80,0.63,0.56,-2.45,-2.46,-2.46
299.53,-3.24,-0.81,-3.26,-0.83,0.83,0.65,0.57,-2.41,-2.43,-2.43
302.53,-3.23,-0.82,-3.26,-0.86,0.86,0.68,0.57,-2.38,-2.40,-2.41
305.55,-3.22,-0.85,-3.26,-0.88,0.88,0.70,0.58,-2.34,-2.38,-2.37
308.61,-3.21,-0.86,-3.26,-0.91,0.91,0.73,0.59,-2.30,-2.35,-2.35
311.69,-3.28,-0.96,-3.26,-0.94,0.94,0.76,0.60,-2.34,-2.33,-2.32
314.81,-3.30,-1.01,-3.27,-0.96,0.96,0.79,0.61,-2.34,-2.30,-2.29
317.96,-3.29,-1.02,-3.27,-0.99,0.99,0.82,0.62,-2.30,-2.28,-2.27
321.14,-3.29,-1.03,-3.28,-1.02,1.02,0.85,0.63,-2.27,-2.26,-2.27
324.35,-3.29,-1.04,-3.28,-1.04,1.04,0.88,0.64,-2.25,-2.24,-2.25
327.59,-3.30,-1.07,-3.29,-1.06,1.06,0.91,0.65,-2.24,-2.23,-2.23
330.87,-3.30,-1.08,-3.30,-1.08,1.08,0.94,0.66,-2.22,-2.21,-2.22
334.18,-3.30,-1.10,-3.30,-1.10,1.10,0.98,0.67,-2.20,-2.20,-2.20
337.52,-3.30,-1.11,-3.30,-1.11,1.11,1.01,0.69,-2.19,-2.19,-2.19
340.90,-3.30,-1.13,-3.30,-1.12,1.12,1.04,0.70,-2.18,-2.18,-2.17
344.30,-3.30,-1.13,-3.30,-1.12,1.12,1.07,0.72,-2.18,-2.17,-2.17
347.75,-3.30,-1.13,-3.29,-1.13,1.13,1.10,0.73,-2.17,-2.17,-2.17
351.23,-3.30,-1.14,-3.29,-1.13,1.13,1.13,0.75,-2.17,-2.16,-2.16
354.74,-3.30,-1.14,-3.30,-1.14,1.14,1.16,0.76,-2.16,-2.16,-2.16
358.28,-3.29,-1.14,-3.30,-1.15,1.15,1.19,0.78,-2.14,-2.15,-2.15
361.87,-3.29,-1.14,-3.30,-1.15,1.15,1.21,0.80,-2.14,-2.15,-2.15
365.49,-3.28,-1.14,-3.31,-1.16,1.16,1.23,0.81,-2.12,-2.15,-2.14
369.14,-3.28,-1.13,-3.31,-1.16,1.16,1.25,0.83,-2.12,-2.15,-2.15
372.83,-3.27,-1.12,-3.31,-1.16,1.16,1.27,0.85,-2.11,-2.15,-2.16
376.56,-3.32,-1.16,-3.31,-1.16,1.16,1.28,0.87,-2.16,-2.15,-2.16
380.33,-3.35,-1.20,-3.31,-1.16,1.16,1.28,0.89,-2.19,-2.15,-2.15
384.13,-3.34,-1.19,-3.31,-1.15,1.15,1.29,0.91,-2.19,-2.16,-2.15
387.97,-3.34,-1.18,-3.31,-1.15,1.15,1.28,0.93,-2.19,-2.16,-2.16
391.85,-3.33,-1.16,-3.31,-1.14,1.14,1.28,0.95,-2.19,-2.17,-2.17
395.77,-3.33,-1.17,-3.30,-1.13,1.13,1.27,0.97,-2.20,-2.17,-2.16
399.73,-3.30,-1.13,-3.30,-1.13,1.13,1.25,1.00,-2.17,-2.18,-2.17
403.72,-3.26,-1.09,-3.30,-1.12,1.12,1.24,1.02,-2.14,-2.18,-2.17
407.76,-3.24,-1.06,-3.30,-1.11,1.11,1.22,1.04,-2.13,-2.18,-2.18
411.84,-3.25,-1.07,-3.29,-1.10,1.10,1.19,1.06,-2.15,-2.19,-2.18
415.96,-3.25,-1.07,-3.28,-1.09,1.09,1.17,1.08,-2.16,-2.19,-2.18
420.12,-3.25,-1.07,-3.26,-1.07,1.07,1.14,1.10,-2.18,-2.19,-2.18
424.32,-3.24,-1.06,-3.24,-1.06,1.06,1.11,1.12,-2.18,-2.18,-2.19
428.56,-3.23,-1.05,-3.21,-1.04,1.04,1.08,1.14,-2.19,-2.17,-2.18
432.85,-3.22,-1.05,-3.18,-1.03,1.03,1.05,1.16,-2.20,-2.15,-2.17
437.18,-3.19,-1.03,-3.14,-1.01,1.01,1.02,1.18,-2.18,-2.13,-2.16
441.55,-3.15,-1.03,-3.10,-0.99,0.99,0.98,1.20,-2.16,-2.11,-2.12
445.96,-3.11,-1.02,-3.06,-0.98,0.98,0.95,1.21,-2.13,-2.07,-2.09
