frequency,raw
20,-0.24
21,-0.09
22,0.04
23,0.16
24,0.28
25,0.37
26,0.46
27,0.55
28,0.63
29,0.71
30,0.75
31,0.77
32,0.77
33,0.73
34,0.67
35,0.64
36,0.61
37,0.56
38,0.51
39,0.46
40,0.43
41,0.40
42,0.36
43,0.34
44,0.32
45,0.31
46,0.29
47,0.28
48,0.26
49,0.25
50,0.25
51,0.25
52,0.25
53,0.25
54,0.25
55,0.26
56,0.28
57,0.30
58,0.32
59,0.35
60,0.39
61,0.43
62,0.49
63,0.55
64,0.61
65,0.66
66,0.70
67,0.73
68,0.76
69,0.78
70,0.81
71,0.84
72,0.87
73,0.91
74,0.95
75,0.98
76,1.00
77,1.01
78,1.03
79,1.05
80,1.08
81,1.11
82,1.12
83,1.14
84,1.15
85,1.16
86,1.16
87,1.16
88,1.16
89,1.17
90,1.17
91,1.17
92,1.17
93,1.16
94,1.16
95,1.14
96,1.14
97,1.14
98,1.13
99,1.11
100,1.09
101,1.06
102,1.03
104,0.98
105,0.97
106,0.96
107,0.95
108,0.95
109,0.94
110,0.93
111,0.91
112,0.89
113,0.87
114,0.85
115,0.83
117,0.78
118,0.75
119,0.73
120,0.73
121,0.72
123,0.70
124,0.70
125,0.68
126,0.65
128,0.59
129,0.54
130,0.49
131,0.46
133,0.41
134,0.39
135,0.38
137,0.34
138,0.30
140,0.22
141,0.18
142,0.13
144,0.06
145,0.03
147,-0.02
148,-0.03
150,-0.07
151,-0.09
153,-0.14
154,-0.18
156,-0.24
157,-0.26
159,-0.31
160,-0.33
162,-0.34
164,-0.34
165,-0.35
167,-0.36
169,-0.39
170,-0.39
172,-0.43
174,-0.46
175,-0.46
177,-0.49
179,-0.52
181,-0.55
183,-0.56
184,-0.57
186,-0.57
188,-0.57
190,-0.59
192,-0.62
194,-0.65
196,-0.69
198,-0.73
200,-0.76
202,-0.78
204,-0.79
206,-0.78
208,-0.78
210,-0.75
212,-0.73
214,-0.69
216,-0.65
218,-0.60
221,-0.54
223,-0.52
225,-0.50
227,-0.47
229,-0.46
232,-0.43
234,-0.40
236,-0.38
239,-0.34
241,-0.31
244,-0.28
246,-0.26
248,-0.24
251,-0.20
253,-0.18
256,-0.15
259,-0.12
261,-0.11
264,-0.08
266,-0.07
269,-0.05
272,-0.04
274,-0.04
277,-0.05
280,-0.06
283,-0.09
286,-0.13
288,-0.16
291,-0.22
294,-0.28
297,-0.34
300,-0.38
303,-0.41
306,-0.41
309,-0.38
312,-0.34
316,-0.25
319,-0.18
322,-0.10
325,-0.03
328,0.02
332,0.08
335,0.11
338,0.12
342,0.13
345,0.13
349,0.12
352,0.12
356,0.07
359,0.01
363,-0.06
366,-0.11
370,-0.18
374,-0.25
377,-0.30
381,-0.37
385,-0.43
389,-0.49
393,-0.55
397,-0.61
401,-0.67
405,-0.73
409,-0.79
413,-0.85
417,-0.90
421,-0.96
425,-1.02
430,-1.09
434,-1.15
438,-1.21
443,-1.30
447,-1.36
451,-1.36
456,-1.35
460,-1.34
465,-1.31
470,-1.30
474,-1.30
479,-1.30
484,-1.33
489,-1.36
494,-1.39
499,-1.41
504,-1.43
509,-1.45
514,-1.45
519,-1.46
524,-1.48
529,-1.51
535,-1.55
540,-1.59
545,-1.63
551,-1.71
556,-1.78
562,-1.88
568,-2.02
573,-2.16
579,-2.35
585,-2.57
591,-2.80
596,-2.99
602,-3.18
608,-3.33
615,-3.44
621,-3.48
627,-3.44
633,-3.39
639,-3.28
646,-3.15
652,-3.02
659,-2.90
665,-2.82
672,-2.74
679,-2.69
686,-2.67
692,-2.67
699,-2.67
706,-2.68
713,-2.68
721,-2.66
728,-2.61
735,-2.53
742,-2.42
750,-2.28
757,-2.14
765,-2.00
773,-1.86
780,-1.77
788,-1.67
796,-1.58
804,-1.51
812,-1.44
820,-1.39
828,-1.34
837,-1.28
845,-1.22
853,-1.15
862,-1.06
871,-0.98
879,-0.91
888,-0.84
897,-0.78
906,-0.70
915,-0.64
924,-0.58
933,-0.52
943,-0.44
952,-0.37
962,-0.30
971,-0.23
981,-0.14
991,-0.07
1001,0.01
1011,0.08
1021,0.13
1031,0.18
1041,0.22
1052,0.27
1062,0.31
1073,0.37
1084,0.43
1094,0.48
1105,0.53
1116,0.59
1128,0.64
1139,0.70
1150,0.75
1162,0.82
1173,0.89
1185,0.97
1197,1.05
1209,1.13
1221,1.20
1233,1.26
1246,1.32
1258,1.37
1271,1.43
1283,1.49
1296,1.55
1309,1.61
1322,1.68
1335,1.74
1349,1.83
1362,1.90
1376,1.98
1390,2.08
1404,2.19
1418,2.30
1432,2.43
1446,2.55
1461,2.67
1475,2.78
1490,2.90
1505,3.00
1520,3.11
1535,3.22
1550,3.33
1566,3.46
1582,3.59
1597,3.71
1613,3.85
1629,3.98
1646,4.14
1662,4.29
1679,4.46
1696,4.62
1713,4.78
1730,4.95
1747,5.11
1764,5.28
1782,5.47
1800,5.65
1818,5.83
1836,6.01
1854,6.18
1873,6.38
1892,6.58
1911,6.78
1930,6.99
1949,7.19
1969,7.40
1988,7.60
2008,7.82
2028,8.03
2048,8.23
2069,8.45
2090,8.64
2111,8.82
2132,9.00
2153,9.18
2175,9.34
2196,9.51
2218,9.68
2240,9.85
2263,10.03
2285,10.19
2308,10.35
2331,10.49
2355,10.63
2378,10.77
2402,10.93
2426,11.07
2450,11.20
2475,11.34
2500,11.46
2525,11.57
2550,11.66
2575,11.71
2601,11.76
2627,11.78
2653,11.78
2680,11.78
2707,11.76
2734,11.74
2761,11.75
2789,11.75
2817,11.78
2845,11.81
2873,11.83
2902,11.89
2931,11.95
2960,12.02
2990,12.12
3020,12.23
3050,12.37
3080,12.48
3111,12.58
3142,12.67
3174,12.74
3206,12.81
3238,12.88
3270,12.96
3303,13.05
3336,13.11
3369,13.16
3403,13.15
3437,13.11
3471,13.03
3506,12.91
3541,12.74
3576,12.57
3612,12.37
3648,12.16
3685,11.94
3721,11.71
3759,11.50
3796,11.31
3834,11.13
3873,11.01
3911,10.92
3950,10.86
3990,10.85
4030,10.88
4070,10.95
4111,11.06
4152,11.22
4193,11.39
4235,11.61
4278,11.85
4321,12.13
4364,12.42
4407,12.68
4451,12.92
4496,13.13
4541,13.20
4586,13.20
4632,13.12
4679,12.93
4725,12.66
4773,12.34
4820,11.99
4868,11.64
4917,11.32
4966,11.05
5016,10.85
5066,10.69
5117,10.53
5168,10.33
5220,10.10
5272,9.82
5325,9.49
5378,9.16
5432,8.83
5486,8.51
5541,8.21
5596,7.93
5652,7.62
5709,7.31
5766,6.99
5823,6.68
5882,6.38
5940,6.08
6000,5.77
6060,5.52
6120,5.27
6182,5.02
6244,4.81
6306,4.63
6369,4.50
6433,4.46
6497,4.47
6562,4.55
6628,4.64
6694,4.77
6761,4.91
6828,5.07
6897,5.22
6966,5.39
7035,5.58
7106,5.76
7177,5.98
7249,6.19
7321,6.39
7394,6.61
7468,6.86
7543,7.15
7618,7.50
7694,7.90
7771,8.36
7849,8.90
7928,9.47
8007,10.07
8087,10.72
8168,11.37
8250,11.98
8332,12.45
8415,12.73
8499,12.84
8584,12.67
8670,12.26
8757,11.68
8845,10.90
8933,10.22
9022,9.42
9113,8.37
9204,7.63
9296,7.07
9389,6.08
9483,5.31
9577,4.82
9673,4.53
9770,4.49
9868,4.59
9966,4.80
10066,5.11
10167,5.40
10268,5.63
10371,5.67
10475,5.47
10579,5.19
10685,4.81
10792,4.25
10900,3.64
11009,2.94
11119,2.33
11230,1.83
11343,1.59
11456,1.57
11571,0.94
11686,0.18
11803,0.16
11921,-0.27
12040,-0.82
12161,-0.85
12282,-1.04
12405,-1.21
12529,-1.30
12655,-1.60
12781,-2.09
12909,-2.78
13038,-3.77
13168,-4.92
13300,-6.09
13433,-7.28
13567,-8.37
13703,-9.28
13840,-9.87
13978,-9.74
14118,-9.16
14259,-8.10
14402,-6.72
14546,-5.35
14692,-4.07
14838,-3.34
14987,-3.00
15137,-3.09
15288,-3.79
15441,-4.77
15595,-5.91
15751,-7.10
15909,-8.06
16068,-8.81
16229,-9.23
16391,-9.26
16555,-9.07
16720,-8.63
16888,-7.98
17056,-7.34
17227,-6.74
17399,-6.41
17573,-6.27
17749,-6.29
17926,-6.49
18106,-6.74
18287,-7.02
18470,-7.33
18654,-7.76
18841,-8.28
19029,-8.92
19220,-9.62
19412,-10.23
19606,-10.71
19802,-10.85
20000,-10.89
