frequency,raw,error,smoothed,error_smoothed,equalization,parametric_eq,fixed_band_eq,equalized_raw,equalized_smoothed,target
20.00,-9.47,-11.88,-9.49,-11.90,6.00,6.28,2.85,-3.47,-3.49,2.41
20.20,-9.46,-11.90,-9.44,-11.88,6.00,6.28,2.93,-3.46,-3.44,2.44
20.40,-9.39,-11.86,-9.39,-11.85,6.00,6.27,3.01,-3.39,-3.39,2.47
20.61,-9.32,-11.81,-9.32,-11.82,6.00,6.27,3.10,-3.32,-3.32,2.49
20.81,-9.24,-11.76,-9.25,-11.76,6.00,6.26,3.18,-3.24,-3.25,2.52
21.02,-9.16,-11.71,-9.17,-11.71,6.00,6.25,3.28,-3.16,-3.17,2.55
21.23,-9.10,-11.66,-9.09,-11.64,6.00,6.25,3.37,-3.10,-3.09,2.56
21.44,-8.99,-11.56,-9.01,-11.58,6.00,6.24,3.47,-2.99,-3.01,2.56
21.66,-8.93,-11.51,-8.93,-11.50,6.00,6.24,3.56,-2.93,-2.93,2.57
21.87,-8.86,-11.44,-8.85,-11.43,6.00,6.23,3.67,-2.86,-2.85,2.57
22.09,-8.77,-11.36,-8.78,-11.36,6.00,6.22,3.77,-2.77,-2.78,2.58
22.31,-8.71,-11.29,-8.70,-11.29,6.00,6.22,3.88,-2.71,-2.70,2.58
22.54,-8.62,-11.21,-8.63,-11.21,6.00,6.21,3.99,-2.62,-2.63,2.58
22.76,-8.55,-11.13,-8.55,-11.13,6.00,6.20,4.10,-2.55,-2.55,2.58
22.99,-8.47,-11.04,-8.48,-11.05,6.00,6.19,4.21,-2.47,-2.48,2.57
23.22,-8.40,-10.97,-8.40,-10.97,6.00,6.19,4.33,-2.40,-2.40,2.57
23.45,-8.33,-10.90,-8.33,-10.90,6.00,6.18,4.45,-2.33,-2.33,2.57
23.69,-8.25,-10.82,-8.26,-10.82,6.00,6.17,4.58,-2.25,-2.26,2.57
23.92,-8.18,-10.75,-8.18,-10.75,6.00,6.16,4.70,-2.18,-2.18,2.57
24.16,-8.10,-10.68,-8.11,-10.68,6.00,6.16,4.83,-2.10,-2.11,2.58
24.40,-8.03,-10.61,-8.03,-10.60,6.00,6.15,4.96,-2.03,-2.03,2.58
24.65,-7.96,-10.53,-7.96,-10.53,6.00,6.14,5.10,-1.96,-1.96,2.56
24.89,-7.88,-10.45,-7.89,-10.45,6.00,6.13,5.23,-1.88,-1.89,2.56
25.14,-7.82,-10.38,-7.82,-10.39,6.00,6.12,5.37,-1.82,-1.82,2.56
25.39,-7.76,-10.32,-7.76,-10.32,6.00,6.11,5.50,-1.76,-1.76,2.56
25.65,-7.69,-10.25,-7.69,-10.25,6.00,6.11,5.64,-1.69,-1.69,2.56
25.91,-7.61,-10.16,-7.62,-10.17,6.00,6.10,5.78,-1.61,-1.62,2.55
26.16,-7.54,-10.09,-7.55,-10.09,6.00,6.09,5.92,-1.54,-1.55,2.55
26.43,-7.48,-10.03,-7.48,-10.02,6.00,6.08,6.06,-1.48,-1.48,2.55
26.69,-7.40,-9.95,-7.41,-9.96,6.00,6.07,6.19,-1.40,-1.41,2.55
26.96,-7.34,-9.89,-7.34,-9.89,6.00,6.06,6.33,-1.34,-1.34,2.54
27.23,-7.27,-9.82,-7.27,-9.81,6.00,6.05,6.46,-1.27,-1.27,2.54
27.50,-7.19,-9.74,-7.20,-9.74,6.00,6.04,6.59,-1.19,-1.20,2.54
27.77,-7.12,-9.65,-7.12,-9.66,6.00,6.03,6.72,-1.12,-1.12,2.53
28.05,-7.05,-9.58,-7.05,-9.58,6.00,6.02,6.84,-1.05,-1.05,2.53
28.33,-6.99,-9.51,-6.99,-9.51,6.00,6.01,6.96,-0.99,-0.99,2.52
28.62,-6.92,-9.44,-6.92,-9.44,6.00,6.00,7.07,-0.92,-0.92,2.52
28.90,-6.85,-9.37,-6.86,-9.37,6.00,5.99,7.17,-0.85,-0.86,2.51
29.19,-6.79,-9.30,-6.79,-9.30,6.00,5.98,7.26,-0.79,-0.79,2.50
29.48,-6.73,-9.24,-6.73,-9.23,6.00,5.97,7.35,-0.73,-0.73,2.51
29.78,-6.65,-9.15,-6.66,-9.16,6.00,5.96,7.42,-0.65,-0.66,2.50
30.08,-6.59,-9.09,-6.59,-9.09,6.00,5.94,7.49,-0.59,-0.59,2.50
30.38,-6.53,-9.02,-6.53,-9.01,6.00,5.93,7.54,-0.53,-0.53,2.49
30.68,-6.45,-8.94,-6.46,-8.94,6.00,5.92,7.58,-0.45,-0.46,2.48
30.99,-6.38,-8.86,-6.39,-8.86,6.00,5.91,7.62,-0.38,-0.39,2.47
31.30,-6.31,-8.78,-6.32,-8.79,6.00,5.90,7.63,-0.31,-0.32,2.47
31.61,-6.25,-8.72,-6.25,-8.71,6.00,5.88,7.64,-0.25,-0.25,2.47
31.93,-6.18,-8.64,-6.18,-8.64,6.00,5.87,7.63,-0.18,-0.18,2.46
32.24,-6.11,-8.55,-6.11,-8.56,6.00,5.86,7.62,-0.11,-0.11,2.44
32.57,-6.04,-8.48,-6.04,-8.48,6.00,5.85,7.59,-0.04,-0.04,2.44
32.89,-5.97,-8.41,-5.97,-8.40,6.00,5.83,7.55,0.03,0.03,2.44
33.22,-5.89,-8.32,-5.90,-8.33,6.00,5.82,7.50,0.11,0.10,2.42
33.55,-5.83,-8.25,-5.83,-8.25,6.00,5.80,7.44,0.17,0.17,2.42
33.89,-5.77,-8.18,-5.76,-8.18,6.00,5.79,7.37,0.23,0.24,2.41
34.23,-5.69,-8.10,-5.70,-8.10,6.00,5.78,7.30,0.31,0.30,2.41
34.57,-5.62,-8.02,-5.62,-8.02,6.00,5.76,7.22,0.38,0.38,2.39
34.92,-5.55,-7.93,-5.55,-7.93,6.00,5.75,7.13,0.45,0.45,2.38
35.27,-5.47,-7.85,-5.48,-7.85,6.00,5.73,7.04,0.53,0.52,2.38
35.62,-5.40,-7.77,-5.41,-7.77,6.00,5.72,6.95,0.60,0.59,2.36
35.97,-5.34,-7.69,-5.34,-7.69,6.00,5.70,6.85,0.66,0.66,2.35
36.33,-5.27,-7.62,-5.27,-7.61,6.00,5.69,6.74,0.73,0.73,2.35
36.70,-5.20,-7.54,-5.21,-7.54,6.00,5.67,6.64,0.80,0.79,2.33
37.06,-5.15,-7.47,-5.15,-7.47,6.00,5.65,6.54,0.85,0.85,2.32
37.43,-5.08,-7.40,-5.08,-7.39,6.00,5.64,6.43,0.92,0.92,2.31
37.81,-5.02,-7.32,-5.03,-7.32,6.00,5.62,6.33,0.98,0.97,2.30
38.19,-4.96,-7.25,-4.97,-7.26,6.00,5.60,6.22,1.04,1.03,2.28
38.57,-4.92,-7.20,-4.92,-7.19,6.00,5.59,6.12,1.08,1.08,2.28
38.95,-4.86,-7.13,-4.86,-7.13,6.00,5.57,6.02,1.14,1.14,2.26
39.34,-4.81,-7.06,-4.81,-7.06,6.00,5.55,5.92,1.19,1.19,2.25
39.74,-4.75,-6.99,-4.75,-6.99,6.00,5.53,5.83,1.25,1.25,2.23
40.14,-4.70,-6.93,-4.71,-6.93,6.00,5.51,5.73,1.30,1.29,2.23
40.54,-4.66,-6.88,-4.66,-6.88,6.00,5.49,5.65,1.34,1.34,2.21
40.94,-4.62,-6.83,-4.62,-6.82,6.00,5.47,5.56,1.38,1.38,2.21
41.35,-4.57,-6.76,-4.58,-6.77,6.00,5.46,5.47,1.43,1.42,2.19
41.76,-4.53,-6.72,-4.53,-6.72,6.00,5.44,5.39,1.47,1.47,2.19
42.18,-4.49,-6.67,-4.49,-6.67,6.00,5.41,5.32,1.51,1.51,2.18
42.60,-4.45,-6.61,-4.45,-6.62,6.00,5.39,5.24,1.55,1.55,2.16
43.03,-4.40,-6.56,-4.41,-6.56,6.00,5.37,5.18,1.60,1.59,2.16
43.46,-4.37,-6.51,-4.37,-6.50,6.00,5.35,5.11,1.63,1.63,2.14
43.90,-4.32,-6.43,-4.32,-6.43,6.01,5.33,5.05,1.68,1.69,2.11
44.33,-4.26,-6.36,-4.26,-6.36,6.01,5.31,4.99,1.75,1.75,2.09
44.78,-4.20,-6.28,-4.21,-6.28,6.01,5.29,4.94,1.81,1.81,2.07
45.23,-4.14,-6.20,-4.15,-6.20,6.01,5.26,4.89,1.87,1.86,2.06
45.68,-4.09,-6.13,-4.09,-6.12,5.99,5.24,4.84,1.90,1.91,2.04
46.13,-4.02,-6.04,-4.03,-6.05,5.97,5.21,4.80,1.95,1.94,2.02
46.60,-3.96,-5.97,-3.96,-5.97,5.93,5.19,4.76,1.97,1.97,2.01
47.06,-3.90,-5.89,-3.90,-5.89,5.88,5.17,4.72,1.98,1.98,1.99
47.53,-3.84,-5.81,-3.84,-5.82,5.82,5.14,4.69,1.97,1.97,1.97
48.01,-3.78,-5.74,-3.78,-5.74,5.74,5.12,4.66,1.96,1.96,1.96
48.49,-3.72,-5.65,-3.72,-5.65,5.66,5.09,4.64,1.93,1.94,1.93
48.97,-3.66,-5.56,-3.66,-5.56,5.57,5.06,4.61,1.91,1.91,1.90
49.46,-3.60,-5.47,-3.60,-5.47,5.48,5.04,4.59,1.88,1.88,1.87
49.96,-3.54,-5.38,-3.55,-5.39,5.40,5.01,4.58,1.86,1.85,1.83
50.46,-3.49,-5.32,-3.50,-5.31,5.32,4.98,4.56,1.83,1.82,1.82
50.96,-3.45,-5.25,-3.45,-5.24,5.24,4.95,4.55,1.79,1.79,1.80
51.47,-3.40,-5.17,-3.40,-5.17,5.17,4.92,4.54,1.77,1.77,1.77
51.99,-3.35,-5.10,-3.35,-5.10,5.10,4.89,4.53,1.74,1.75,1.74
52.51,-3.30,-5.03,-3.30,-5.03,5.03,4.86,4.52,1.73,1.73,1.73
53.03,-3.25,-4.96,-3.26,-4.96,4.96,4.83,4.51,1.71,1.70,1.70
53.56,-3.21,-4.89,-3.21,-4.89,4.89,4.80,4.51,1.68,1.68,1.68
54.10,-3.17,-4.83,-3.17,-4.82,4.82,4.77,4.50,1.65,1.66,1.65
54.64,-3.12,-4.75,-3.13,-4.76,4.75,4.74,4.50,1.63,1.63,1.63
55.18,-3.08,-4.68,-3.08,-4.69,4.68,4.70,4.49,1.60,1.60,1.60
55.74,-3.04,-4.62,-3.04,-4.62,4.62,4.67,4.49,1.57,1.58,1.58
56.29,-2.98,-4.54,-2.99,-4.54,4.54,4.63,4.48,1.56,1.55,1.56
56.86,-2.94,-4.47,-2.94,-4.47,4.47,4.60,4.47,1.53,1.53,1.53
57.42,-2.88,-4.38,-2.89,-4.40,4.39,4.56,4.46,1.51,1.50,1.50
58.00,-2.84,-4.32,-2.84,-4.32,4.32,4.53,4.45,1.47,1.48,1.48
58.58,-2.78,-4.24,-2.78,-4.24,4.23,4.49,4.43,1.45,1.46,1.46
59.16,-2.70,-4.14,-2.71,-4.16,4.15,4.45,4.41,1.45,1.43,1.44
59.76,-2.65,-4.07,-2.65,-4.07,4.06,4.41,4.39,1.41,1.41,1.42
60.35,-2.58,-3.97,-2.58,-3.98,3.97,4.38,4.37,1.39,1.39,1.39
60.96,-2.52,-3.89,-2.52,-3.88,3.88,4.34,4.34,1.36,1.36,1.37
61.57,-2.46,-3.79,-2.46,-3.79,3.79,4.29,4.31,1.33,1.33,1.32
62.18,-2.40,-3.69,-2.40,-3.70,3.70,4.25,4.27,1.30,1.30,1.29
62.80,-2.35,-3.62,-2.35,-3.61,3.62,4.21,4.23,1.27,1.27,1.26
63.43,-2.30,-3.53,-2.30,-3.54,3.54,4.17,4.19,1.24,1.23,1.23
64.07,-2.27,-3.48,-2.27,-3.47,3.47,4.12,4.14,1.20,1.20,1.20
64.71,-2.22,-3.40,-2.23,-3.41,3.41,4.08,4.09,1.18,1.18,1.18
65.35,-2.21,-3.36,-2.20,-3.35,3.35,4.04,4.04,1.14,1.15,1.15
66.01,-2.17,-3.29,-2.18,-3.30,3.31,3.99,3.98,1.14,1.13,1.12
66.67,-2.17,-3.27,-2.18,-3.27,3.28,3.94,3.92,1.10,1.10,1.09
67.33,-2.17,-3.24,-2.18,-3.24,3.25,3.89,3.85,1.08,1.07,1.06
68.01,-2.21,-3.24,-2.20,-3.23,3.23,3.85,3.78,1.02,1.03,1.03
68.69,-2.21,-3.21,-2.22,-3.22,3.22,3.80,3.71,1.00,1.00,1.00
69.37,-2.24,-3.21,-2.24,-3.21,3.21,3.75,3.64,0.96,0.97,0.97
70.07,-2.25,-3.19,-2.25,-3.19,3.20,3.70,3.56,0.94,0.94,0.94
70.77,-2.26,-3.18,-2.28,-3.18,3.18,3.64,3.48,0.92,0.91,0.91
71.48,-2.30,-3.18,-2.29,-3.17,3.16,3.59,3.40,0.86,0.87,0.88
72.19,-2.30,-3.15,-2.31,-3.15,3.13,3.54,3.32,0.83,0.83,0.84
72.91,-2.30,-3.11,-2.30,-3.11,3.09,3.48,3.24,0.79,0.79,0.81
73.64,-2.29,-3.06,-2.29,-3.06,3.05,3.43,3.16,0.75,0.76,0.77
74.38,-2.25,-3.00,-2.26,-3.00,2.99,3.37,3.07,0.74,0.73,0.74
75.12,-2.23,-2.94,-2.22,-2.93,2.93,3.32,2.99,0.70,0.71,0.70
75.87,-2.17,-2.85,-2.18,-2.86,2.86,3.26,2.91,0.69,0.68,0.67
76.63,-2.14,-2.79,-2.14,-2.78,2.79,3.20,2.82,0.65,0.65,0.64
77.40,-2.10,-2.72,-2.10,-2.71,2.72,3.14,2.74,0.62,0.62,0.61
78.17,-2.06,-2.63,-2.07,-2.65,2.65,3.08,2.66,0.59,0.58,0.57
78.95,-2.04,-2.59,-2.04,-2.58,2.59,3.02,2.58,0.54,0.55,0.55
79.74,-2.00,-2.52,-2.01,-2.52,2.53,2.96,2.49,0.52,0.52,0.52
80.54,-1.99,-2.47,-1.98,-2.46,2.47,2.90,2.41,0.48,0.49,0.48
81.35,-1.95,-2.40,-1.97,-2.41,2.42,2.84,2.33,0.46,0.45,0.45
82.16,-1.95,-2.36,-1.95,-2.37,2.36,2.77,2.26,0.41,0.41,0.41
82.98,-1.95,-2.34,-1.94,-2.31,2.31,2.71,2.18,0.36,0.38,0.38
83.81,-1.91,-2.25,-1.93,-2.27,2.26,2.64,2.10,0.35,0.33,0.34
84.65,-1.91,-2.21,-1.91,-2.21,2.21,2.58,2.03,0.30,0.30,0.30
85.50,-1.90,-2.17,-1.89,-2.16,2.16,2.51,1.95,0.26,0.27,0.27
86.35,-1.86,-2.09,-1.87,-2.11,2.10,2.45,1.88,0.24,0.23,0.23
87.22,-1.86,-2.05,-1.85,-2.05,2.05,2.38,1.81,0.18,0.19,0.19
88.09,-1.82,-1.97,-1.83,-1.99,1.99,2.31,1.74,0.17,0.16,0.15
88.97,-1.82,-1.94,-1.82,-1.93,1.93,2.24,1.67,0.10,0.11,0.12
89.86,-1.78,-1.86,-1.79,-1.87,1.87,2.17,1.60,0.08,0.07,0.08
90.76,-1.78,-1.81,-1.77,-1.81,1.80,2.10,1.54,0.02,0.03,0.03
91.66,-1.74,-1.74,-1.75,-1.74,1.74,2.03,1.47,-0.00,-0.01,-0.01
92.58,-1.73,-1.67,-1.73,-1.67,1.68,1.96,1.41,-0.06,-0.05,-0.06
93.51,-1.69,-1.60,-1.70,-1.61,1.61,1.89,1.34,-0.08,-0.09,-0.09
94.44,-1.69,-1.56,-1.68,-1.55,1.55,1.82,1.28,-0.15,-0.14,-0.14
95.39,-1.66,-1.48,-1.67,-1.49,1.48,1.75,1.22,-0.18,-0.19,-0.18
96.34,-1.65,-1.42,-1.66,-1.42,1.42,1.68,1.16,-0.23,-0.24,-0.24
97.30,-1.65,-1.37,-1.63,-1.35,1.36,1.61,1.10,-0.29,-0.28,-0.28
98.28,-1.60,-1.28,-1.62,-1.29,1.30,1.54,1.05,-0.31,-0.32,-0.33
99.26,-1.60,-1.23,-1.61,-1.24,1.24,1.46,0.99,-0.37,-0.37,-0.37
100.25,-1.60,-1.19,-1.60,-1.18,1.18,1.39,0.94,-0.43,-0.42,-0.42
101.25,-1.60,-1.14,-1.59,-1.12,1.12,1.32,0.88,-0.48,-0.47,-0.46
102.27,-1.56,-1.05,-1.58,-1.06,1.07,1.25,0.83,-0.50,-0.51,-0.51
103.29,-1.56,-1.00,-1.56,-1.01,1.01,1.18,0.78,-0.55,-0.55,-0.57
104.32,-1.56,-0.96,-1.56,-0.95,0.96,1.10,0.73,-0.60,-0.59,-0.60
105.37,-1.56,-0.91,-1.56,-0.91,0.91,1.03,0.68,-0.65,-0.65,-0.65
106.42,-1.56,-0.87,-1.56,-0.87,0.86,0.96,0.63,-0.70,-0.70,-0.70
107.48,-1.56,-0.82,-1.56,-0.82,0.81,0.89,0.58,-0.75,-0.75,-0.74
108.56,-1.56,-0.77,-1.56,-0.76,0.76,0.82,0.53,-0.81,-0.80,-0.80
109.64,-1.54,-0.70,-1.55,-0.71,0.70,0.75,0.49,-0.84,-0.84,-0.84
110.74,-1.54,-0.65,-1.54,-0.65,0.65,0.68,0.44,-0.89,-0.89,-0.89
111.85,-1.52,-0.59,-1.53,-0.59,0.59,0.61,0.40,-0.93,-0.94,-0.94
112.97,-1.52,-0.52,-1.52,-0.53,0.53,0.54,0.35,-0.99,-0.99,-1.00
114.10,-1.52,-0.48,-1.52,-0.47,0.47,0.47,0.31,-1.05,-1.05,-1.05
115.24,-1.52,-0.42,-1.52,-0.42,0.42,0.40,0.27,-1.11,-1.11,-1.10
116.39,-1.52,-0.37,-1.52,-0.37,0.36,0.33,0.23,-1.16,-1.16,-1.16
117.55,-1.52,-0.31,-1.51,-0.31,0.31,0.26,0.19,-1.21,-1.21,-1.21
118.73,-1.50,-0.24,-1.51,-0.25,0.26,0.20,0.15,-1.24,-1.25,-1.26
119.92,-1.50,-0.20,-1.51,-0.20,0.21,0.13,0.11,-1.29,-1.30,-1.31
121.12,-1.52,-0.16,-1.51,-0.16,0.16,0.06,0.07,-1.36,-1.36,-1.36
122.33,-1.52,-0.11,-1.52,-0.11,0.11,0.00,0.04,-1.41,-1.41,-1.41
123.55,-1.52,-0.07,-1.52,-0.07,0.06,-0.06,0.00,-1.46,-1.46,-1.45
124.79,-1.52,-0.02,-1.52,-0.02,0.01,-0.13,-0.03,-1.51,-1.51,-1.50
126.03,-1.52,0.03,-1.52,0.03,-0.04,-0.19,-0.07,-1.56,-1.56,-1.55
127.29,-1.52,0.08,-1.52,0.09,-0.09,-0.25,-0.10,-1.61,-1.61,-1.60
128.57,-1.52,0.14,-1.52,0.14,-0.13,-0.31,-0.13,-1.66,-1.66,-1.66
129.85,-1.52,0.19,-1.52,0.19,-0.18,-0.37,-0.16,-1.71,-1.71,-1.71
131.15,-1.52,0.24,-1.52,0.24,-0.23,-0.43,-0.19,-1.76,-1.76,-1.76
132.46,-1.52,0.29,-1.52,0.28,-0.28,-0.49,-0.22,-1.81,-1.81,-1.81
133.79,-1.52,0.32,-1.52,0.33,-0.33,-0.55,-0.25,-1.85,-1.85,-1.84
135.12,-1.52,0.38,-1.52,0.37,-0.38,-0.60,-0.28,-1.90,-1.90,-1.90
136.48,-1.52,0.41,-1.52,0.42,-0.42,-0.66,-0.31,-1.94,-1.94,-1.94
137.84,-1.52,0.46,-1.52,0.46,-0.46,-0.71,-0.34,-1.98,-1.98,-1.98
139.22,-1.52,0.51,-1.52,0.51,-0.50,-0.77,-0.37,-2.03,-2.03,-2.03
140.61,-1.52,0.55,-1.52,0.55,-0.54,-0.82,-0.40,-2.07,-2.07,-2.08
142.02,-1.52,0.58,-1.52,0.58,-0.58,-0.87,-0.42,-2.10,-2.10,-2.10
143.44,-1.52,0.62,-1.52,0.62,-0.62,-0.92,-0.45,-2.14,-2.14,-2.14
144.87,-1.52,0.66,-1.52,0.65,-0.66,-0.97,-0.48,-2.18,-2.18,-2.18
146.32,-1.52,0.70,-1.52,0.69,-0.69,-1.02,-0.51,-2.22,-2.22,-2.22
147.78,-1.52,0.73,-1.52,0.73,-0.73,-1.07,-0.54,-2.25,-2.25,-2.25
149.26,-1.52,0.76,-1.52,0.77,-0.77,-1.11,-0.56,-2.29,-2.29,-2.29
150.75,-1.52,0.81,-1.52,0.81,-0.81,-1.16,-0.59,-2.33,-2.33,-2.33
152.26,-1.52,0.85,-1.52,0.85,-0.85,-1.20,-0.62,-2.38,-2.37,-2.37
153.78,-1.50,0.90,-1.51,0.90,-0.90,-1.24,-0.65,-2.40,-2.41,-2.41
155.32,-1.50,0.95,-1.50,0.94,-0.95,-1.29,-0.68,-2.45,-2.45,-2.45
156.88,-1.50,0.98,-1.49,0.99,-0.99,-1.33,-0.71,-2.50,-2.49,-2.48
158.44,-1.48,1.04,-1.49,1.04,-1.04,-1.37,-0.74,-2.52,-2.53,-2.53
160.03,-1.47,1.10,-1.48,1.09,-1.09,-1.41,-0.78,-2.56,-2.56,-2.57
161.63,-1.47,1.14,-1.47,1.14,-1.13,-1.44,-0.81,-2.60,-2.60,-2.61
163.24,-1.47,1.18,-1.47,1.18,-1.17,-1.48,-0.84,-2.64,-2.64,-2.65
164.88,-1.47,1.21,-1.47,1.21,-1.21,-1.51,-0.88,-2.68,-2.68,-2.68
166.53,-1.47,1.25,-1.47,1.25,-1.25,-1.55,-0.91,-2.72,-2.72,-2.72
168.19,-1.47,1.29,-1.47,1.28,-1.29,-1.58,-0.95,-2.76,-2.77,-2.76
169.87,-1.47,1.32,-1.47,1.32,-1.33,-1.62,-0.98,-2.81,-2.81,-2.80
171.57,-1.47,1.36,-1.47,1.37,-1.38,-1.65,-1.02,-2.85,-2.84,-2.83
173.29,-1.45,1.42,-1.45,1.42,-1.42,-1.68,-1.06,-2.87,-2.87,-2.87
175.02,-1.43,1.47,-1.44,1.47,-1.46,-1.71,-1.10,-2.89,-2.90,-2.91
176.77,-1.43,1.52,-1.43,1.52,-1.50,-1.74,-1.14,-2.94,-2.94,-2.95
178.54,-1.43,1.56,-1.43,1.56,-1.55,-1.76,-1.18,-2.98,-2.98,-2.99
180.32,-1.43,1.59,-1.43,1.60,-1.59,-1.79,-1.22,-3.03,-3.03,-3.03
182.13,-1.43,1.63,-1.44,1.63,-1.64,-1.82,-1.26,-3.07,-3.08,-3.06
183.95,-1.43,1.67,-1.43,1.67,-1.68,-1.84,-1.31,-3.11,-3.11,-3.10
185.79,-1.43,1.70,-1.42,1.72,-1.72,-1.86,-1.35,-3.15,-3.14,-3.13
187.65,-1.39,1.78,-1.41,1.77,-1.76,-1.89,-1.40,-3.15,-3.16,-3.17
189.52,-1.39,1.81,-1.39,1.81,-1.80,-1.91,-1.44,-3.19,-3.19,-3.20
191.42,-1.39,1.84,-1.39,1.85,-1.84,-1.93,-1.49,-3.23,-3.23,-3.23
193.33,-1.39,1.87,-1.40,1.86,-1.88,-1.95,-1.54,-3.27,-3.27,-3.26
195.27,-1.39,1.90,-1.39,1.90,-1.91,-1.97,-1.59,-3.31,-3.30,-3.29
197.22,-1.39,1.93,-1.38,1.94,-1.95,-1.99,-1.64,-3.34,-3.33,-3.32
199.19,-1.35,2.00,-1.36,1.99,-1.98,-2.01,-1.69,-3.33,-3.34,-3.36
201.18,-1.34,2.03,-1.35,2.03,-2.01,-2.03,-1.74,-3.36,-3.36,-3.37
203.19,-1.34,2.05,-1.34,2.05,-2.04,-2.04,-1.79,-3.39,-3.39,-3.39
205.23,-1.34,2.07,-1.34,2.07,-2.07,-2.06,-1.84,-3.42,-3.41,-3.41
207.28,-1.34,2.08,-1.33,2.10,-2.10,-2.08,-1.89,-3.44,-3.43,-3.42
209.35,-1.30,2.14,-1.32,2.13,-2.13,-2.09,-1.94,-3.43,-3.44,-3.44
211.44,-1.30,2.16,-1.31,2.15,-2.15,-2.10,-1.99,-3.45,-3.46,-3.47
213.56,-1.30,2.17,-1.30,2.17,-2.17,-2.12,-2.04,-3.47,-3.47,-3.47
215.69,-1.30,2.17,-1.29,2.19,-2.19,-2.13,-2.09,-3.50,-3.48,-3.47
217.85,-1.26,2.22,-1.28,2.21,-2.21,-2.14,-2.14,-3.48,-3.49,-3.49
220.03,-1.26,2.24,-1.27,2.23,-2.23,-2.15,-2.18,-3.49,-3.50,-3.50
222.23,-1.26,2.25,-1.26,2.25,-2.25,-2.16,-2.23,-3.51,-3.50,-3.51
224.45,-1.26,2.24,-1.25,2.26,-2.26,-2.17,-2.27,-3.52,-3.51,-3.50
226.70,-1.21,2.29,-1.23,2.28,-2.27,-2.18,-2.32,-3.49,-3.50,-3.50
228.96,-1.21,2.29,-1.22,2.28,-2.28,-2.19,-2.36,-3.50,-3.50,-3.50
231.25,-1.21,2.28,-1.21,2.29,-2.29,-2.20,-2.40,-3.51,-3.50,-3.50
233.57,-1.21,2.28,-1.20,2.30,-2.30,-2.21,-2.43,-3.51,-3.50,-3.50
235.90,-1.17,2.32,-1.19,2.31,-2.31,-2.22,-2.47,-3.48,-3.49,-3.49
238.26,-1.17,2.32,-1.18,2.31,-2.31,-2.22,-2.50,-3.48,-3.49,-3.49
240.64,-1.17,2.31,-1.16,2.32,-2.31,-2.23,-2.52,-3.49,-3.48,-3.48
243.05,-1.16,2.31,-1.16,2.32,-2.32,-2.23,-2.55,-3.48,-3.47,-3.47
245.48,-1.13,2.33,-1.15,2.31,-2.32,-2.24,-2.57,-3.45,-3.47,-3.46
247.93,-1.13,2.32,-1.13,2.32,-2.32,-2.24,-2.59,-3.46,-3.45,-3.45
250.41,-1.13,2.31,-1.11,2.33,-2.32,-2.25,-2.61,-3.46,-3.44,-3.45
252.92,-1.08,2.34,-1.10,2.32,-2.32,-2.25,-2.62,-3.41,-3.42,-3.42
255.45,-1.08,2.32,-1.08,2.32,-2.32,-2.26,-2.63,-3.40,-3.40,-3.40
258.00,-1.08,2.31,-1.07,2.32,-2.31,-2.26,-2.63,-3.40,-3.38,-3.39
260.58,-1.05,2.32,-1.06,2.31,-2.31,-2.26,-2.64,-3.36,-3.37,-3.38
263.19,-1.04,2.31,-1.05,2.30,-2.30,-2.26,-2.64,-3.35,-3.35,-3.35
265.82,-1.04,2.30,-1.04,2.30,-2.30,-2.27,-2.63,-3.34,-3.33,-3.34
268.48,-1.04,2.27,-1.03,2.29,-2.29,-2.27,-2.63,-3.33,-3.32,-3.31
271.16,-1.00,2.29,-1.02,2.27,-2.28,-2.27,-2.62,-3.29,-3.31,-3.29
273.87,-1.00,2.27,-1.00,2.27,-2.28,-2.27,-2.61,-3.28,-3.28,-3.28
276.61,-1.00,2.25,-0.98,2.27,-2.27,-2.27,-2.60,-3.27,-3.25,-3.25
279.38,-0.95,2.28,-0.97,2.27,-2.26,-2.27,-2.59,-3.22,-3.23,-3.24
282.17,-0.95,2.27,-0.96,2.26,-2.25,-2.27,-2.57,-3.20,-3.21,-3.22
284.99,-0.95,2.24,-0.95,2.25,-2.24,-2.27,-2.56,-3.19,-3.18,-3.20
287.84,-0.95,2.23,-0.95,2.23,-2.22,-2.27,-2.54,-3.17,-3.17,-3.18
290.72,-0.95,2.20,-0.95,2.20,-2.20,-2.27,-2.53,-3.15,-3.15,-3.16
293.63,-0.95,2.19,-0.95,2.18,-2.18,-2.27,-2.51,-3.13,-3.13,-3.14
296.57,-0.95,2.16,-0.96,2.16,-2.16,-2.27,-2.49,-3.11,-3.12,-3.11
299.53,-0.95,2.15,-0.96,2.14,-2.15,-2.26,-2.48,-3.10,-3.11,-3.10
302.53,-0.95,2.13,-0.94,2.13,-2.15,-2.26,-2.46,-3.10,-3.09,-3.08
305.55,-0.91,2.13,-0.91,2.14,-2.16,-2.26,-2.44,-3.07,-3.07,-3.05
308.61,-0.86,2.17,-0.86,2.16,-2.19,-2.26,-2.43,-3.05,-3.05,-3.03
311.69,-0.79,2.21,-0.79,2.20,-2.22,-2.25,-2.41,-3.02,-3.02,-3.00
314.81,-0.72,2.24,-0.72,2.25,-2.26,-2.25,-2.40,-2.99,-2.99,-2.97
317.96,-0.64,2.31,-0.64,2.31,-2.31,-2.25,-2.39,-2.95,-2.95,-2.95
321.14,-0.57,2.36,-0.57,2.36,-2.34,-2.24,-2.37,-2.92,-2.92,-2.93
324.35,-0.50,2.41,-0.51,2.40,-2.37,-2.24,-2.36,-2.87,-2.88,-2.92
327.59,-0.48,2.41,-0.47,2.42,-2.38,-2.24,-2.36,-2.87,-2.85,-2.89
330.87,-0.43,2.44,-0.46,2.42,-2.38,-2.23,-2.35,-2.82,-2.84,-2.87
334.18,-0.48,2.37,-0.47,2.38,-2.37,-2.23,-2.34,-2.85,-2.84,-2.85
337.52,-0.49,2.34,-0.49,2.34,-2.35,-2.22,-2.34,-2.84,-2.84,-2.84
340.90,-0.52,2.29,-0.52,2.30,-2.32,-2.22,-2.34,-2.84,-2.84,-2.81
344.30,-0.52,2.27,-0.52,2.27,-2.29,-2.22,-2.34,-2.81,-2.81,-2.79
347.75,-0.52,2.25,-0.53,2.24,-2.26,-2.21,-2.34,-2.78,-2.79,-2.77
351.23,-0.52,2.23,-0.52,2.24,-2.24,-2.21,-2.34,-2.76,-2.76,-2.76
354.74,-0.52,2.22,-0.51,2.23,-2.23,-2.20,-2.35,-2.75,-2.74,-2.74
358.28,-0.48,2.24,-0.50,2.22,-2.22,-2.20,-2.36,-2.70,-2.72,-2.72
361.87,-0.48,2.22,-0.48,2.22,-2.22,-2.19,-2.36,-2.70,-2.70,-2.70
365.49,-0.48,2.20,-0.47,2.22,-2.22,-2.19,-2.38,-2.71,-2.69,-2.69
369.14,-0.43,2.24,-0.45,2.23,-2.23,-2.18,-2.39,-2.66,-2.67,-2.68
372.83,-0.43,2.23,-0.42,2.24,-2.23,-2.18,-2.40,-2.66,-2.65,-2.66
376.56,-0.40,2.25,-0.41,2.24,-2.23,-2.17,-2.42,-2.63,-2.64,-2.65
380.33,-0.39,2.23,-0.40,2.23,-2.23,-2.17,-2.44,-2.63,-2.63,-2.62
384.13,-0.39,2.22,-0.38,2.24,-2.24,-2.16,-2.46,-2.63,-2.61,-2.61
387.97,-0.35,2.25,-0.37,2.24,-2.24,-2.16,-2.48,-2.59,-2.60,-2.61
391.85,-0.35,2.24,-0.36,2.24,-2.24,-2.16,-2.50,-2.59,-2.60,-2.60
395.77,-0.35,2.23,-0.34,2.24,-2.24,-2.15,-2.53,-2.59,-2.58,-2.58
399.73,-0.34,2.23,-0.33,2.24,-2.24,-2.15,-2.55,-2.58,-2.57,-2.57
403.72,-0.30,2.26,-0.32,2.24,-2.24,-2.14,-2.58,-2.54,-2.56,-2.56
407.76,-0.30,2.25,-0.30,2.24,-2.24,-2.14,-2.60,-2.54,-2.55,-2.55
411.84,-0.30,2.23,-0.29,2.25,-2.24,-2.13,-2.63,-2.55,-2.53,-2.53
415.96,-0.28,2.24,-0.28,2.24,-2.24,-2.13,-2.66,-2.53,-2.53,-2.53
420.12,-0.26,2.25,-0.27,2.24,-2.24,-2.13,-2.69,-2.51,-2.52,-2.52
424.32,-0.26,2.24,-0.26,2.25,-2.25,-2.12,-2.71,-2.51,-2.51,-2.51
428.56,-0.26,2.24,-0.25,2.25,-2.25,-2.12,-2.74,-2.51,-2.50,-2.50
432.85,-0.22,2.27,-0.24,2.25,-2.25,-2.11,-2.77,-2.48,-2.49,-2.49
437.18,-0.22,2.26,-0.22,2.25,-2.26,-2.11,-2.80,-2.48,-2.48,-2.48
441.55,-0.22,2.24,-0.21,2.26,-2.26,-2.11,-2.82,-2.49,-2.47,-2.46
445.96,-0.17,2.28,-0.19,2.26,-2.27,-2.11,-2.85,-2.44,-2.46,-2.45
450.42,-0.17,2.27,-0.17,2.27,-2.27,-2.10,-2.87,-2.45,-2.44,-2.44
454.93,-0.13,2.29,-0.14,2.29,-2.28,-2.10,-2.89,-2.41,-2.42,-2.42
