frequency,raw,smoothed,error,error_smoothed,equalization,parametric_eq,fixed_band_eq,equalized_raw,equalized_smoothed,target
20.00,5.09,5.09,-1.77,-1.77,1.79,0.99,0.37,6.88,6.88,6.86
20.20,5.10,5.10,-1.76,-1.76,1.76,0.99,0.39,6.86,6.86,6.86
20.40,5.11,5.11,-1.75,-1.74,1.74,0.99,0.40,6.84,6.85,6.85
20.61,5.13,5.13,-1.73,-1.72,1.71,0.98,0.41,6.83,6.84,6.85
20.81,5.16,5.16,-1.70,-1.69,1.68,0.98,0.42,6.83,6.84,6.85
21.02,5.20,5.19,-1.65,-1.66,1.65,0.98,0.44,6.84,6.84,6.85
21.23,5.23,5.23,-1.62,-1.62,1.61,0.98,0.45,6.84,6.84,6.85
21.44,5.27,5.27,-1.58,-1.58,1.58,0.97,0.46,6.85,6.85,6.85
21.66,5.32,5.31,-1.53,-1.54,1.54,0.97,0.48,6.86,6.85,6.85
21.87,5.36,5.36,-1.49,-1.49,1.50,0.97,0.49,6.86,6.86,6.85
22.09,5.39,5.39,-1.46,-1.46,1.46,0.97,0.51,6.85,6.86,6.85
22.31,5.43,5.43,-1.42,-1.42,1.43,0.96,0.52,6.86,6.85,6.85
22.54,5.46,5.45,-1.39,-1.39,1.40,0.96,0.54,6.85,6.85,6.85
22.76,5.48,5.48,-1.37,-1.36,1.37,0.96,0.55,6.84,6.85,6.85
22.99,5.51,5.50,-1.34,-1.34,1.34,0.95,0.57,6.84,6.84,6.84
23.22,5.53,5.53,-1.32,-1.31,1.31,0.95,0.59,6.84,6.84,6.84
23.45,5.56,5.56,-1.29,-1.29,1.28,0.95,0.60,6.84,6.84,6.84
23.69,5.59,5.58,-1.25,-1.26,1.26,0.94,0.62,6.84,6.84,6.84
23.92,5.61,5.61,-1.23,-1.23,1.23,0.94,0.64,6.83,6.84,6.84
24.16,5.64,5.64,-1.20,-1.20,1.20,0.94,0.66,6.84,6.84,6.84
24.40,5.67,5.67,-1.17,-1.17,1.17,0.93,0.68,6.84,6.84,6.84
24.65,5.70,5.70,-1.14,-1.14,1.14,0.93,0.70,6.84,6.84,6.84
24.89,5.73,5.72,-1.11,-1.11,1.12,0.92,0.71,6.84,6.84,6.84
25.14,5.75,5.75,-1.09,-1.09,1.09,0.92,0.73,6.84,6.84,6.83
25.39,5.77,5.77,-1.06,-1.06,1.07,0.91,0.75,6.84,6.84,6.83
25.65,5.79,5.79,-1.04,-1.04,1.05,0.91,0.77,6.83,6.83,6.83
25.91,5.81,5.80,-1.02,-1.03,1.02,0.90,0.79,6.83,6.83,6.83
26.16,5.82,5.82,-1.01,-1.01,1.00,0.90,0.81,6.82,6.83,6.83
26.43,5.84,5.84,-0.99,-0.99,0.99,0.89,0.83,6.82,6.82,6.83
26.69,5.86,5.86,-0.97,-0.97,0.97,0.89,0.85,6.82,6.82,6.83
26.96,5.88,5.88,-0.95,-0.95,0.95,0.88,0.86,6.82,6.82,6.82
27.23,5.90,5.90,-0.92,-0.92,0.93,0.88,0.88,6.82,6.82,6.82
27.50,5.92,5.92,-0.90,-0.90,0.91,0.87,0.90,6.82,6.82,6.82
27.77,5.94,5.93,-0.88,-0.88,0.89,0.87,0.91,6.82,6.82,6.82
28.05,5.95,5.95,-0.87,-0.86,0.87,0.86,0.93,6.81,6.82,6.82
28.33,5.97,5.97,-0.85,-0.85,0.85,0.85,0.94,6.81,6.81,6.81
28.62,5.99,5.98,-0.82,-0.83,0.83,0.85,0.96,6.81,6.81,6.81
28.90,6.00,6.00,-0.81,-0.81,0.81,0.84,0.97,6.80,6.81,6.81
29.19,6.02,6.02,-0.79,-0.79,0.79,0.83,0.98,6.80,6.80,6.81
29.48,6.04,6.04,-0.77,-0.77,0.77,0.82,0.99,6.80,6.80,6.80
29.78,6.06,6.06,-0.74,-0.74,0.75,0.82,1.00,6.80,6.80,6.80
30.08,6.08,6.07,-0.72,-0.72,0.73,0.81,1.01,6.80,6.80,6.80
30.38,6.09,6.09,-0.71,-0.71,0.71,0.80,1.01,6.80,6.80,6.80
30.68,6.10,6.10,-0.70,-0.69,0.70,0.79,1.02,6.79,6.80,6.79
30.99,6.11,6.11,-0.68,-0.68,0.69,0.78,1.02,6.79,6.79,6.79
31.30,6.12,6.11,-0.67,-0.67,0.68,0.77,1.02,6.79,6.79,6.79
31.61,6.12,6.12,-0.67,-0.67,0.67,0.76,1.02,6.79,6.79,6.78
31.93,6.12,6.12,-0.66,-0.66,0.66,0.75,1.02,6.78,6.78,6.78
32.24,6.12,6.12,-0.66,-0.66,0.66,0.74,1.01,6.77,6.77,6.78
32.57,6.12,6.12,-0.66,-0.65,0.65,0.73,1.01,6.77,6.77,6.77
32.89,6.13,6.13,-0.64,-0.64,0.64,0.72,1.00,6.77,6.77,6.77
33.22,6.14,6.14,-0.63,-0.63,0.63,0.71,0.99,6.77,6.77,6.77
33.55,6.15,6.15,-0.62,-0.62,0.62,0.70,0.98,6.76,6.76,6.76
33.89,6.16,6.16,-0.60,-0.60,0.60,0.69,0.97,6.76,6.76,6.76
34.23,6.17,6.17,-0.59,-0.59,0.59,0.68,0.96,6.75,6.75,6.75
34.57,6.18,6.18,-0.57,-0.57,0.57,0.66,0.95,6.75,6.75,6.75
34.92,6.19,6.19,-0.56,-0.56,0.56,0.65,0.93,6.74,6.74,6.75
35.27,6.20,6.20,-0.54,-0.54,0.54,0.64,0.92,6.74,6.74,6.74
35.62,6.21,6.21,-0.53,-0.53,0.53,0.63,0.90,6.74,6.74,6.74
35.97,6.22,6.21,-0.51,-0.52,0.52,0.61,0.89,6.74,6.74,6.73
36.33,6.22,6.22,-0.51,-0.51,0.51,0.60,0.87,6.73,6.73,6.73
36.70,6.22,6.22,-0.50,-0.50,0.50,0.59,0.85,6.72,6.72,6.72
37.06,6.22,6.22,-0.50,-0.50,0.50,0.58,0.84,6.72,6.71,6.71
37.43,6.22,6.21,-0.49,-0.49,0.49,0.57,0.82,6.71,6.71,6.71
37.81,6.21,6.21,-0.50,-0.49,0.48,0.56,0.80,6.69,6.70,6.70
38.19,6.22,6.21,-0.48,-0.48,0.48,0.55,0.78,6.70,6.69,6.70
38.57,6.22,6.22,-0.47,-0.47,0.47,0.54,0.76,6.69,6.69,6.69
38.95,6.22,6.22,-0.47,-0.46,0.46,0.53,0.75,6.68,6.68,6.68
39.34,6.23,6.22,-0.45,-0.45,0.45,0.52,0.73,6.68,6.68,6.68
39.74,6.23,6.23,-0.44,-0.44,0.44,0.51,0.71,6.67,6.67,6.67
40.14,6.23,6.23,-0.43,-0.43,0.44,0.51,0.69,6.66,6.66,6.66
40.54,6.23,6.23,-0.43,-0.43,0.43,0.50,0.68,6.66,6.66,6.65
40.94,6.22,6.22,-0.43,-0.42,0.43,0.50,0.66,6.64,6.65,6.65
41.35,6.22,6.22,-0.42,-0.42,0.42,0.49,0.64,6.64,6.64,6.64
41.76,6.21,6.21,-0.42,-0.42,0.42,0.49,0.63,6.63,6.63,6.63
42.18,6.20,6.20,-0.42,-0.42,0.42,0.49,0.61,6.62,6.62,6.62
42.60,6.19,6.19,-0.42,-0.42,0.42,0.49,0.60,6.61,6.61,6.61
43.03,6.18,6.18,-0.42,-0.42,0.42,0.49,0.58,6.60,6.60,6.60
43.46,6.18,6.17,-0.41,-0.42,0.42,0.48,0.57,6.60,6.59,6.59
43.90,6.16,6.16,-0.42,-0.42,0.42,0.48,0.55,6.58,6.58,6.58
44.33,6.15,6.15,-0.42,-0.42,0.42,0.48,0.54,6.57,6.57,6.57
44.78,6.14,6.13,-0.42,-0.42,0.42,0.48,0.53,6.56,6.56,6.56
45.23,6.12,6.12,-0.43,-0.42,0.42,0.48,0.51,6.54,6.54,6.55
45.68,6.11,6.11,-0.43,-0.43,0.42,0.48,0.50,6.53,6.53,6.53
46.13,6.10,6.09,-0.42,-0.43,0.43,0.48,0.49,6.52,6.52,6.52
46.60,6.08,6.08,-0.43,-0.43,0.43,0.48,0.48,6.50,6.51,6.51
47.06,6.07,6.07,-0.43,-0.43,0.43,0.47,0.47,6.50,6.50,6.49
47.53,6.06,6.05,-0.42,-0.43,0.43,0.47,0.46,6.49,6.49,6.48
48.01,6.04,6.04,-0.43,-0.43,0.43,0.47,0.45,6.47,6.47,6.47
48.49,6.02,6.02,-0.43,-0.43,0.43,0.47,0.44,6.45,6.45,6.45
48.97,6.00,6.00,-0.44,-0.44,0.43,0.46,0.43,6.43,6.43,6.44
49.46,5.98,5.98,-0.44,-0.44,0.43,0.46,0.42,6.41,6.41,6.42
49.96,5.97,5.97,-0.44,-0.44,0.43,0.45,0.41,6.40,6.40,6.40
50.46,5.96,5.96,-0.43,-0.43,0.42,0.45,0.40,6.38,6.39,6.39
50.96,5.96,5.95,-0.41,-0.42,0.42,0.44,0.39,6.38,6.38,6.37
51.47,5.95,5.94,-0.40,-0.41,0.42,0.44,0.39,6.36,6.36,6.35
51.99,5.93,5.93,-0.41,-0.40,0.41,0.43,0.38,6.34,6.34,6.33
52.51,5.91,5.91,-0.41,-0.41,0.41,0.43,0.37,6.31,6.32,6.31
53.03,5.89,5.89,-0.41,-0.41,0.41,0.42,0.36,6.29,6.29,6.29
53.56,5.87,5.87,-0.41,-0.40,0.40,0.41,0.35,6.27,6.27,6.27
54.10,5.85,5.85,-0.40,-0.41,0.40,0.40,0.35,6.25,6.25,6.25
54.64,5.83,5.82,-0.40,-0.41,0.40,0.39,0.34,6.23,6.23,6.23
55.18,5.80,5.80,-0.41,-0.41,0.40,0.39,0.33,6.20,6.21,6.21
55.74,5.78,5.78,-0.41,-0.41,0.40,0.38,0.32,6.18,6.18,6.18
56.29,5.76,5.76,-0.40,-0.40,0.40,0.37,0.32,6.16,6.16,6.16
56.86,5.74,5.74,-0.40,-0.40,0.40,0.36,0.31,6.14,6.14,6.14
57.42,5.72,5.71,-0.39,-0.40,0.40,0.35,0.30,6.12,6.11,6.11
58.00,5.69,5.69,-0.40,-0.39,0.40,0.33,0.29,6.08,6.09,6.08
58.58,5.66,5.66,-0.40,-0.40,0.39,0.32,0.28,6.05,6.05,6.06
59.16,5.64,5.63,-0.39,-0.39,0.39,0.31,0.27,6.03,6.02,6.03
59.76,5.61,5.61,-0.39,-0.39,0.38,0.30,0.26,5.99,5.99,6.00
60.35,5.59,5.59,-0.38,-0.38,0.38,0.29,0.25,5.97,5.97,5.97
60.96,5.57,5.57,-0.37,-0.37,0.37,0.27,0.24,5.94,5.94,5.94
61.57,5.55,5.54,-0.36,-0.36,0.37,0.26,0.23,5.92,5.91,5.91
62.18,5.52,5.52,-0.36,-0.36,0.36,0.25,0.22,5.88,5.88,5.87
62.80,5.49,5.49,-0.35,-0.35,0.36,0.23,0.20,5.85,5.85,5.84
63.43,5.46,5.45,-0.35,-0.35,0.36,0.22,0.19,5.81,5.81,5.81
64.07,5.42,5.42,-0.35,-0.35,0.35,0.20,0.18,5.77,5.77,5.77
64.71,5.39,5.39,-0.35,-0.35,0.34,0.19,0.16,5.73,5.73,5.74
65.35,5.36,5.36,-0.34,-0.34,0.33,0.17,0.15,5.69,5.69,5.70
66.01,5.34,5.34,-0.32,-0.32,0.32,0.16,0.13,5.65,5.65,5.66
66.67,5.32,5.32,-0.30,-0.30,0.30,0.14,0.12,5.62,5.62,5.62
67.33,5.31,5.30,-0.27,-0.28,0.28,0.12,0.10,5.59,5.59,5.58
68.01,5.29,5.28,-0.25,-0.26,0.27,0.10,0.08,5.55,5.55,5.54
68.69,5.26,5.26,-0.24,-0.24,0.25,0.09,0.07,5.51,5.51,5.50
69.37,5.23,5.23,-0.23,-0.23,0.23,0.07,0.05,5.46,5.46,5.46
70.07,5.20,5.20,-0.21,-0.21,0.21,0.05,0.03,5.41,5.41,5.41
70.77,5.17,5.17,-0.20,-0.20,0.19,0.03,0.01,5.36,5.36,5.37
71.48,5.15,5.14,-0.17,-0.18,0.17,0.01,-0.01,5.32,5.32,5.32
72.19,5.12,5.12,-0.16,-0.15,0.15,-0.01,-0.03,5.27,5.27,5.27
72.91,5.10,5.10,-0.13,-0.13,0.13,-0.03,-0.05,5.23,5.23,5.23
73.64,5.07,5.07,-0.11,-0.11,0.10,-0.05,-0.07,5.17,5.17,5.18
74.38,5.05,5.05,-0.08,-0.08,0.08,-0.07,-0.09,5.13,5.13,5.13
75.12,5.02,5.02,-0.06,-0.05,0.05,-0.09,-0.11,5.07,5.07,5.07
75.87,5.00,5.00,-0.02,-0.03,0.03,-0.11,-0.13,5.03,5.02,5.02
76.63,4.97,4.97,-0.00,-0.00,0.00,-0.13,-0.16,4.97,4.97,4.97
77.40,4.94,4.94,0.02,0.02,-0.02,-0.15,-0.18,4.92,4.92,4.91
78.17,4.91,4.90,0.05,0.04,-0.04,-0.17,-0.20,4.86,4.86,4.86
78.95,4.87,4.87,0.06,0.06,-0.07,-0.20,-0.23,4.80,4.80,4.80
79.74,4.83,4.83,0.08,0.09,-0.09,-0.22,-0.25,4.74,4.74,4.75
80.54,4.80,4.80,0.11,0.11,-0.11,-0.24,-0.27,4.69,4.68,4.69
81.35,4.77,4.76,0.14,0.14,-0.13,-0.27,-0.30,4.63,4.63,4.63
82.16,4.73,4.73,0.16,0.16,-0.16,-0.29,-0.32,4.57,4.58,4.57
82.98,4.70,4.69,0.19,0.19,-0.18,-0.31,-0.35,4.52,4.51,4.51
83.81,4.66,4.66,0.21,0.21,-0.21,-0.34,-0.37,4.45,4.44,4.44
84.65,4.62,4.62,0.24,0.24,-0.25,-0.36,-0.40,4.37,4.37,4.38
85.50,4.59,4.59,0.27,0.27,-0.29,-0.39,-0.43,4.30,4.30,4.32
86.35,4.57,4.57,0.31,0.31,-0.33,-0.41,-0.45,4.23,4.23,4.25
87.22,4.55,4.55,0.36,0.36,-0.38,-0.44,-0.48,4.17,4.17,4.19
88.09,4.55,4.55,0.42,0.42,-0.42,-0.46,-0.51,4.12,4.12,4.12
88.97,4.54,4.54,0.48,0.48,-0.46,-0.49,-0.54,4.07,4.08,4.06
89.86,4.53,4.52,0.54,0.53,-0.50,-0.52,-0.57,4.03,4.02,3.99
90.76,4.48,4.48,0.56,0.56,-0.53,-0.54,-0.60,3.95,3.95,3.92
91.66,4.42,4.42,0.56,0.57,-0.55,-0.57,-0.62,3.86,3.86,3.85
92.58,4.35,4.35,0.56,0.56,-0.57,-0.60,-0.65,3.78,3.78,3.78
93.51,4.28,4.28,0.56,0.57,-0.58,-0.62,-0.69,3.69,3.70,3.71
94.44,4.22,4.22,0.57,0.58,-0.59,-0.65,-0.72,3.62,3.63,3.64
95.39,4.17,4.17,0.60,0.60,-0.60,-0.68,-0.75,3.56,3.56,3.57
96.34,4.12,4.12,0.62,0.62,-0.62,-0.70,-0.78,3.50,3.50,3.50
97.30,4.08,4.07,0.65,0.64,-0.64,-0.73,-0.81,3.44,3.43,3.43
98.28,4.02,4.02,0.66,0.66,-0.66,-0.76,-0.84,3.36,3.36,3.36
99.26,3.97,3.97,0.68,0.69,-0.69,-0.78,-0.87,3.28,3.29,3.29
100.25,3.93,3.93,0.71,0.71,-0.72,-0.81,-0.90,3.21,3.21,3.21
101.25,3.89,3.89,0.75,0.75,-0.75,-0.84,-0.94,3.14,3.14,3.14
102.27,3.85,3.85,0.78,0.78,-0.78,-0.87,-0.97,3.07,3.07,3.07
103.29,3.81,3.81,0.81,0.81,-0.82,-0.89,-1.00,2.99,2.99,2.99
104.32,3.77,3.77,0.85,0.85,-0.85,-0.92,-1.03,2.91,2.92,2.92
105.37,3.74,3.74,0.89,0.89,-0.89,-0.95,-1.06,2.85,2.85,2.85
106.42,3.71,3.71,0.93,0.93,-0.93,-0.98,-1.10,2.78,2.78,2.78
107.48,3.68,3.68,0.98,0.98,-0.97,-1.00,-1.13,2.71,2.71,2.70
108.56,3.65,3.64,1.02,1.02,-1.01,-1.03,-1.16,2.64,2.63,2.63
109.64,3.61,3.61,1.05,1.05,-1.05,-1.06,-1.19,2.56,2.56,2.56
110.74,3.57,3.57,1.08,1.08,-1.09,-1.08,-1.21,2.48,2.48,2.48
111.85,3.53,3.53,1.12,1.12,-1.12,-1.11,-1.24,2.40,2.41,2.41
112.97,3.50,3.50,1.16,1.16,-1.15,-1.13,-1.27,2.34,2.34,2.34
114.10,3.47,3.46,1.20,1.19,-1.18,-1.16,-1.30,2.29,2.28,2.27
115.24,3.42,3.42,1.22,1.22,-1.20,-1.19,-1.32,2.21,2.21,2.20
116.39,3.36,3.36,1.23,1.23,-1.23,-1.21,-1.34,2.13,2.13,2.13
117.55,3.30,3.30,1.24,1.24,-1.25,-1.24,-1.36,2.05,2.05,2.06
118.73,3.24,3.24,1.25,1.25,-1.27,-1.26,-1.38,1.97,1.97,1.99
119.92,3.19,3.19,1.27,1.27,-1.29,-1.28,-1.40,1.90,1.90,1.92
121.12,3.15,3.15,1.30,1.30,-1.31,-1.31,-1.42,1.84,1.83,1.85
122.33,3.11,3.11,1.33,1.33,-1.33,-1.33,-1.43,1.78,1.78,1.78
123.55,3.07,3.07,1.36,1.36,-1.35,-1.35,-1.44,1.72,1.72,1.71
124.79,3.03,3.02,1.38,1.38,-1.36,-1.38,-1.45,1.66,1.66,1.64
126.03,2.97,2.97,1.39,1.39,-1.37,-1.40,-1.46,1.60,1.60,1.58
127.29,2.91,2.90,1.39,1.39,-1.37,-1.42,-1.47,1.53,1.53,1.51
128.57,2.83,2.83,1.38,1.38,-1.37,-1.44,-1.47,1.46,1.46,1.45
129.85,2.75,2.75,1.36,1.36,-1.37,-1.46,-1.48,1.38,1.38,1.38
131.15,2.67,2.67,1.35,1.35,-1.37,-1.48,-1.48,1.30,1.30,1.32
132.46,2.60,2.60,1.34,1.34,-1.36,-1.50,-1.48,1.23,1.23,1.26
133.79,2.54,2.54,1.34,1.34,-1.36,-1.52,-1.48,1.18,1.18,1.20
135.12,2.49,2.49,1.35,1.35,-1.35,-1.54,-1.47,1.14,1.14,1.14
136.48,2.45,2.45,1.37,1.37,-1.34,-1.55,-1.47,1.11,1.11,1.08
137.84,2.41,2.40,1.39,1.38,-1.33,-1.57,-1.46,1.07,1.07,1.02
139.22,2.34,2.33,1.38,1.37,-1.33,-1.59,-1.46,1.01,1.00,0.96
140.61,2.26,2.25,1.35,1.35,-1.34,-1.60,-1.45,0.92,0.91,0.91
142.02,2.17,2.17,1.32,1.32,-1.36,-1.62,-1.44,0.81,0.81,0.85
143.44,2.11,2.12,1.31,1.33,-1.40,-1.63,-1.43,0.71,0.72,0.80
144.87,2.11,2.12,1.37,1.38,-1.45,-1.64,-1.42,0.66,0.68,0.74
146.32,2.18,2.17,1.49,1.48,-1.51,-1.66,-1.41,0.67,0.66,0.69
147.78,2.25,2.24,1.61,1.60,-1.58,-1.67,-1.40,0.67,0.66,0.64
149.26,2.30,2.30,1.71,1.71,-1.66,-1.68,-1.39,0.64,0.63,0.59
150.75,2.33,2.33,1.79,1.79,-1.74,-1.69,-1.38,0.59,0.58,0.54
152.26,2.34,2.33,1.85,1.85,-1.82,-1.70,-1.38,0.52,0.52,0.49
153.78,2.33,2.33,1.89,1.89,-1.88,-1.71,-1.37,0.44,0.44,0.44
155.32,2.31,2.31,1.91,1.92,-1.93,-1.71,-1.36,0.38,0.38,0.39
156.88,2.30,2.30,1.95,1.95,-1.96,-1.72,-1.35,0.33,0.33,0.35
158.44,2.28,2.28,1.97,1.98,-1.98,-1.73,-1.34,0.29,0.30,0.31
160.03,2.27,2.26,2.01,2.00,-1.99,-1.73,-1.34,0.27,0.27,0.26
161.63,2.23,2.23,2.02,2.01,-2.00,-1.74,-1.33,0.23,0.23,0.21
163.24,2.18,2.18,2.01,2.01,-1.99,-1.74,-1.32,0.18,0.18,0.17
164.88,2.12,2.12,1.99,1.99,-1.99,-1.74,-1.32,0.13,0.13,0.13
166.53,2.06,2.06,1.97,1.97,-1.98,-1.75,-1.32,0.08,0.08,0.09
168.19,2.00,2.00,1.95,1.95,-1.96,-1.75,-1.31,0.04,0.04,0.05
169.87,1.95,1.95,1.93,1.93,-1.95,-1.75,-1.31,0.00,0.00,0.01
171.57,1.90,1.90,1.92,1.92,-1.93,-1.75,-1.31,-0.03,-0.03,-0.02
173.29,1.86,1.85,1.92,1.91,-1.92,-1.75,-1.31,-0.06,-0.07,-0.06
175.02,1.81,1.81,1.90,1.91,-1.91,-1.74,-1.31,-0.10,-0.10,-0.09
176.77,1.78,1.78,1.90,1.90,-1.90,-1.74,-1.32,-0.12,-0.12,-0.13
178.54,1.74,1.74,1.90,1.90,-1.89,-1.74,-1.32,-0.15,-0.15,-0.16
180.32,1.70,1.70,1.89,1.89,-1.88,-1.73,-1.33,-0.18,-0.18,-0.19
182.13,1.65,1.65,1.87,1.87,-1.86,-1.73,-1.33,-0.21,-0.21,-0.22
183.95,1.59,1.59,1.84,1.84,-1.84,-1.72,-1.34,-0.25,-0.25,-0.25
185.79,1.54,1.54,1.82,1.82,-1.82,-1.71,-1.35,-0.28,-0.29,-0.28
187.65,1.48,1.48,1.79,1.79,-1.80,-1.71,-1.36,-0.32,-0.32,-0.31
189.52,1.44,1.44,1.77,1.77,-1.78,-1.70,-1.37,-0.34,-0.34,-0.34
191.42,1.39,1.39,1.75,1.75,-1.75,-1.69,-1.38,-0.37,-0.37,-0.36
193.33,1.35,1.34,1.74,1.73,-1.73,-1.68,-1.39,-0.39,-0.39,-0.39
195.27,1.30,1.30,1.71,1.72,-1.72,-1.67,-1.40,-0.42,-0.42,-0.42
197.22,1.26,1.26,1.70,1.70,-1.70,-1.66,-1.41,-0.44,-0.44,-0.44
199.19,1.22,1.22,1.68,1.68,-1.68,-1.65,-1.43,-0.46,-0.46,-0.46
201.18,1.18,1.18,1.66,1.66,-1.66,-1.63,-1.44,-0.48,-0.48,-0.49
203.19,1.14,1.14,1.65,1.65,-1.64,-1.62,-1.46,-0.51,-0.51,-0.51
205.23,1.10,1.10,1.63,1.63,-1.63,-1.61,-1.47,-0.53,-0.53,-0.53
207.28,1.06,1.06,1.61,1.61,-1.61,-1.59,-1.49,-0.55,-0.55,-0.55
209.35,1.02,1.02,1.59,1.59,-1.59,-1.58,-1.50,-0.57,-0.57,-0.57
211.44,0.98,0.98,1.57,1.57,-1.57,-1.56,-1.52,-0.59,-0.59,-0.59
213.56,0.94,0.94,1.55,1.55,-1.55,-1.55,-1.53,-0.61,-0.61,-0.61
215.69,0.91,0.90,1.53,1.53,-1.53,-1.53,-1.54,-0.62,-0.63,-0.63
217.85,0.87,0.87,1.51,1.51,-1.51,-1.51,-1.56,-0.64,-0.64,-0.64
220.03,0.83,0.83,1.49,1.49,-1.49,-1.50,-1.57,-0.66,-0.66,-0.66
222.23,0.80,0.79,1.48,1.47,-1.47,-1.48,-1.58,-0.67,-0.68,-0.68
224.45,0.76,0.76,1.45,1.45,-1.45,-1.46,-1.59,-0.69,-0.69,-0.69
226.70,0.72,0.72,1.43,1.43,-1.43,-1.44,-1.60,-0.71,-0.71,-0.71
228.96,0.69,0.68,1.41,1.41,-1.41,-1.42,-1.61,-0.72,-0.72,-0.72
231.25,0.65,0.65,1.39,1.39,-1.39,-1.40,-1.62,-0.74,-0.74,-0.74
233.57,0.61,0.61,1.36,1.36,-1.36,-1.38,-1.62,-0.76,-0.76,-0.75
235.90,0.57,0.57,1.34,1.34,-1.34,-1.36,-1.62,-0.77,-0.77,-0.78
238.26,0.53,0.53,1.32,1.32,-1.32,-1.34,-1.62,-0.79,-0.79,-0.79
240.64,0.49,0.49,1.29,1.29,-1.29,-1.32,-1.62,-0.80,-0.80,-0.80
243.05,0.45,0.45,1.26,1.27,-1.27,-1.29,-1.62,-0.82,-0.81,-0.81
245.48,0.42,0.41,1.24,1.24,-1.24,-1.27,-1.61,-0.82,-0.83,-0.83
247.93,0.38,0.38,1.21,1.21,-1.21,-1.25,-1.60,-0.84,-0.84,-0.84
250.41,0.34,0.34,1.19,1.19,-1.19,-1.22,-1.59,-0.85,-0.85,-0.85
252.92,0.30,0.30,1.16,1.16,-1.16,-1.20,-1.57,-0.86,-0.86,-0.86
255.45,0.27,0.26,1.14,1.13,-1.13,-1.18,-1.55,-0.87,-0.87,-0.87
258.00,0.23,0.23,1.11,1.11,-1.11,-1.15,-1.53,-0.88,-0.88,-0.88
260.58,0.19,0.19,1.08,1.08,-1.08,-1.13,-1.51,-0.89,-0.89,-0.89
263.19,0.16,0.15,1.06,1.05,-1.05,-1.10,-1.49,-0.90,-0.90,-0.90
265.82,0.12,0.12,1.02,1.03,-1.03,-1.08,-1.46,-0.91,-0.91,-0.91
268.48,0.09,0.09,1.00,1.00,-1.00,-1.05,-1.43,-0.92,-0.92,-0.91
271.16,0.06,0.05,0.98,0.98,-0.98,-1.03,-1.40,-0.92,-0.92,-0.92
273.87,0.02,0.02,0.95,0.95,-0.95,-1.00,-1.36,-0.93,-0.93,-0.93
276.61,-0.01,-0.01,0.93,0.93,-0.93,-0.98,-1.33,-0.94,-0.94,-0.94
279.38,-0.04,-0.04,0.90,0.90,-0.90,-0.95,-1.29,-0.94,-0.94,-0.95
282.17,-0.07,-0.07,0.88,0.88,-0.88,-0.92,-1.25,-0.95,-0.95,-0.95
284.99,-0.10,-0.10,0.85,0.85,-0.85,-0.90,-1.21,-0.95,-0.95,-0.95
287.84,-0.13,-0.13,0.81,0.82,-0.82,-0.87,-1.17,-0.95,-0.95,-0.95
290.72,-0.16,-0.16,0.79,0.79,-0.79,-0.84,-1.12,-0.95,-0.95,-0.95
293.63,-0.19,-0.19,0.77,0.76,-0.76,-0.82,-1.08,-0.95,-0.95,-0.96
296.57,-0.22,-0.22,0.73,0.73,-0.73,-0.79,-1.03,-0.95,-0.95,-0.96
299.53,-0.25,-0.26,0.70,0.70,-0.70,-0.76,-0.99,-0.95,-0.95,-0.95
302.53,-0.29,-0.29,0.66,0.66,-0.67,-0.73,-0.94,-0.96,-0.96,-0.96
305.55,-0.32,-0.32,0.63,0.63,-0.64,-0.70,-0.89,-0.96,-0.96,-0.95
308.61,-0.35,-0.35,0.60,0.60,-0.60,-0.68,-0.85,-0.96,-0.96,-0.96
311.69,-0.38,-0.38,0.57,0.57,-0.57,-0.65,-0.80,-0.95,-0.95,-0.95
314.81,-0.41,-0.41,0.54,0.54,-0.54,-0.62,-0.75,-0.95,-0.95,-0.96
317.96,-0.44,-0.44,0.51,0.51,-0.51,-0.59,-0.70,-0.95,-0.95,-0.95
321.14,-0.47,-0.47,0.48,0.48,-0.48,-0.56,-0.65,-0.95,-0.95,-0.96
324.35,-0.50,-0.50,0.45,0.45,-0.45,-0.53,-0.60,-0.95,-0.95,-0.95
327.59,-0.53,-0.53,0.41,0.42,-0.42,-0.50,-0.56,-0.95,-0.95,-0.94
330.87,-0.56,-0.56,0.39,0.38,-0.38,-0.47,-0.51,-0.95,-0.95,-0.95
334.18,-0.59,-0.59,0.35,0.35,-0.35,-0.44,-0.46,-0.95,-0.95,-0.94
337.52,-0.62,-0.62,0.32,0.32,-0.32,-0.41,-0.41,-0.94,-0.94,-0.95
340.90,-0.65,-0.65,0.29,0.29,-0.29,-0.38,-0.36,-0.94,-0.94,-0.94
344.30,-0.67,-0.68,0.26,0.26,-0.26,-0.35,-0.31,-0.93,-0.93,-0.93
347.75,-0.70,-0.70,0.22,0.22,-0.22,-0.32,-0.27,-0.93,-0.93,-0.93
351.23,-0.73,-0.73,0.20,0.19,-0.19,-0.29,-0.22,-0.92,-0.92,-0.93
354.74,-0.76,-0.76,0.15,0.16,-0.16,-0.26,-0.17,-0.92,-0.92,-0.91
358.28,-0.78,-0.79,0.13,0.13,-0.13,-0.23,-0.12,-0.91,-0.91,-0.92
361.87,-0.81,-0.81,0.10,0.10,-0.10,-0.20,-0.07,-0.91,-0.91,-0.91
365.49,-0.84,-0.84,0.06,0.06,-0.06,-0.17,-0.03,-0.91,-0.90,-0.90
369.14,-0.86,-0.87,0.04,0.03,-0.03,-0.13,0.02,-0.90,-0.90,-0.90
372.83,-0.89,-0.89,-0.01,0.00,-0.00,-0.10,0.07,-0.90,-0.89,-0.89
376.56,-0.91,-0.91,-0.02,-0.03,0.03,-0.07,0.12,-0.89,-0.89,-0.89
380.33,-0.93,-0.94,-0.05,-0.05,0.05,-0.04,0.16,-0.88,-0.88,-0.88
384.13,-0.96,-0.96,-0.08,-0.08,0.08,-0.01,0.21,-0.88,-0.87,-0.88
387.97,-0.98,-0.98,-0.11,-0.11,0.11,0.03,0.26,-0.87,-0.87,-0.88
391.85,-1.00,-1.01,-0.15,-0.14,0.14,0.06,0.30,-0.86,-0.87,-0.86
395.77,-1.03,-1.03,-0.17,-0.17,0.17,0.09,0.35,-0.86,-0.86,-0.86
399.73,-1.05,-1.05,-0.20,-0.20,0.20,0.12,0.39,-0.85,-0.85,-0.85
403.72,-1.07,-1.07,-0.23,-0.23,0.23,0.16,0.44,-0.84,-0.85,-0.84
407.76,-1.09,-1.10,-0.25,-0.26,0.26,0.19,0.48,-0.84,-0.84,-0.85
411.84,-1.12,-1.12,-0.29,-0.28,0.28,0.22,0.53,-0.84,-0.84,-0.84
415.96,-1.14,-1.14,-0.31,-0.31,0.31,0.26,0.57,-0.83,-0.83,-0.83
420.12,-1.16,-1.16,-0.33,-0.34,0.33,0.29,0.61,-0.83,-0.83,-0.83
424.32,-1.18,-1.18,-0.36,-0.36,0.36,0.32,0.65,-0.82,-0.82,-0.82
428.56,-1.20,-1.20,-0.39,-0.39,0.39,0.36,0.69,-0.82,-0.82,-0.81
432.85,-1.22,-1.22,-0.42,-0.41,0.41,0.39,0.73,-0.81,-0.81,-0.80
437.18,-1.23,-1.24,-0.43,-0.43,0.44,0.42,0.77,-0.79,-0.80,-0.81
441.55,-1.25,-1.25,-0.45,-0.46,0.46,0.46,0.81,-0.79,-0.79,-0.80
445.96,-1.27,-1.27,-0.48,-0.49,0.49,0.49,0.85,-0.78,-0.78,-0.79
450.42,-1.29,-1.29,-0.52,-0.52,0.52,0.52,0.88,-0.78,-0.78,-0.77
454.93,-1.31,-1.31,-0.55,-0.55,0.54,0.56,0.91,-0.77,-0.77,-0.76
459.48,-1.32,-1.33,-0.57,-0.57,0.57,0.59,0.95,-0.76,-0.76,-0.75
464.07,-1.34,-1.34,-0.59,-0.59,0.59,0.62,0.97,-0.75,-0.75,-0.75
468.71,-1.36,-1.36,-0.62,-0.61,0.62,0.66,1.00,-0.75,-0.74,-0.74
473.40,-1.37,-1.38,-0.64,-0.64,0.64,0.69,1.03,-0.73,-0.73,-0.74
478.13,-1.39,-1.39,-0.67,-0.66,0.66,0.72,1.05,-0.73,-0.73,-0.73
482.91,-1.40,-1.40,-0.68,-0.69,0.69,0.75,1.07,-0.71,-0.72,-0.72
487.74,-1.42,-1.42,-0.71,-0.71,0.71,0.78,1.09,-0.71,-0.71,-0.71
492.62,-1.43,-1.44,-0.73,-0.73,0.74,0.81,1.11,-0.70,-0.70,-0.70
497.55,-1.45,-1.45,-0.76,-0.76,0.76,0.85,1.12,-0.69,-0.69,-0.69
502.52,-1.46,-1.46,-0.78,-0.78,0.78,0.88,1.13,-0.68,-0.68,-0.68
507.55,-1.47,-1.47,-0.81,-0.81,0.81,0.90,1.14,-0.67,-0.67,-0.66
512.62,-1.48,-1.48,-0.83,-0.83,0.83,0.93,1.15,-0.66,-0.66,-0.65
517.75,-1.49,-1.49,-0.85,-0.85,0.85,0.96,1.15,-0.65,-0.65,-0.64
