frequency,raw,error,smoothed,error_smoothed,equalization,parametric_eq,equalized_raw,equalized_smoothed,target
20.00,-6.07,-5.35,-6.07,-5.34,5.34,1.99,-0.73,-0.73,-0.72
20.20,-6.04,-5.32,-6.03,-5.30,5.30,2.05,-0.74,-0.73,-0.72
20.40,-6.00,-5.28,-5.99,-5.26,5.26,2.11,-0.74,-0.73,-0.72
20.61,-5.97,-5.25,-5.96,-5.23,5.23,2.17,-0.75,-0.73,-0.72
20.81,-5.94,-5.22,-5.92,-5.19,5.19,2.23,-0.75,-0.73,-0.72
21.02,-5.90,-5.18,-5.89,-5.16,5.16,2.30,-0.75,-0.73,-0.72
21.23,-5.85,-5.13,-5.85,-5.12,5.12,2.37,-0.73,-0.73,-0.72
21.44,-5.80,-5.08,-5.82,-5.09,5.09,2.43,-0.71,-0.73,-0.73
21.66,-5.74,-5.02,-5.79,-5.06,5.06,2.51,-0.68,-0.73,-0.73
21.87,-5.69,-4.96,-5.76,-5.03,5.03,2.58,-0.66,-0.74,-0.73
22.09,-5.67,-4.94,-5.74,-5.00,5.00,2.66,-0.67,-0.74,-0.73
22.31,-5.69,-4.96,-5.71,-4.97,4.97,2.73,-0.72,-0.74,-0.73
22.54,-5.71,-4.98,-5.68,-4.95,4.95,2.81,-0.76,-0.74,-0.73
22.76,-5.73,-5.00,-5.66,-4.92,4.92,2.90,-0.81,-0.74,-0.73
22.99,-5.75,-5.02,-5.65,-4.90,4.90,2.98,-0.85,-0.74,-0.73
23.22,-5.69,-4.96,-5.63,-4.88,4.88,3.07,-0.81,-0.75,-0.73
23.45,-5.62,-4.89,-5.61,-4.86,4.86,3.15,-0.76,-0.75,-0.74
23.69,-5.55,-4.82,-5.59,-4.84,4.84,3.24,-0.71,-0.75,-0.74
23.92,-5.48,-4.74,-5.57,-4.82,4.82,3.34,-0.66,-0.75,-0.74
24.16,-5.47,-4.73,-5.54,-4.79,4.79,3.43,-0.68,-0.75,-0.74
24.40,-5.50,-4.76,-5.52,-4.77,4.77,3.53,-0.73,-0.75,-0.74
24.65,-5.52,-4.78,-5.49,-4.74,4.74,3.62,-0.78,-0.75,-0.74
24.89,-5.54,-4.80,-5.46,-4.72,4.72,3.72,-0.83,-0.75,-0.74
25.14,-5.51,-4.77,-5.44,-4.69,4.69,3.82,-0.82,-0.75,-0.75
25.39,-5.43,-4.68,-5.41,-4.67,4.67,3.92,-0.76,-0.75,-0.75
25.65,-5.36,-4.61,-5.39,-4.64,4.64,4.02,-0.72,-0.75,-0.75
25.91,-5.29,-4.54,-5.37,-4.61,4.61,4.12,-0.68,-0.76,-0.75
26.16,-5.28,-4.53,-5.35,-4.59,4.59,4.22,-0.69,-0.76,-0.75
26.43,-5.30,-4.55,-5.33,-4.57,4.57,4.32,-0.73,-0.76,-0.75
26.69,-5.33,-4.58,-5.31,-4.54,4.54,4.42,-0.79,-0.76,-0.76
26.96,-5.36,-4.60,-5.28,-4.52,4.52,4.52,-0.84,-0.76,-0.76
27.23,-5.31,-4.55,-5.26,-4.50,4.50,4.61,-0.81,-0.76,-0.76
27.50,-5.26,-4.50,-5.24,-4.48,4.48,4.71,-0.78,-0.76,-0.76
27.77,-5.20,-4.44,-5.23,-4.46,4.46,4.80,-0.74,-0.77,-0.76
28.05,-5.16,-4.40,-5.22,-4.44,4.44,4.89,-0.72,-0.78,-0.76
28.33,-5.16,-4.39,-5.21,-4.43,4.43,4.97,-0.74,-0.79,-0.77
28.62,-5.16,-4.39,-5.20,-4.41,4.41,5.05,-0.76,-0.79,-0.77
28.90,-5.16,-4.39,-5.18,-4.38,4.38,5.13,-0.78,-0.79,-0.77
29.19,-5.17,-4.40,-5.15,-4.36,4.36,5.20,-0.81,-0.79,-0.77
29.48,-5.17,-4.40,-5.13,-4.34,4.34,5.26,-0.83,-0.79,-0.78
29.78,-5.18,-4.40,-5.10,-4.32,4.32,5.32,-0.87,-0.79,-0.78
30.08,-5.17,-4.39,-5.08,-4.29,4.29,5.37,-0.88,-0.79,-0.78
30.38,-5.10,-4.32,-5.07,-4.27,4.27,5.41,-0.83,-0.79,-0.78
30.68,-5.03,-4.25,-5.05,-4.25,4.25,5.44,-0.78,-0.80,-0.79
30.99,-4.96,-4.17,-5.04,-4.23,4.23,5.47,-0.73,-0.80,-0.79
31.30,-4.96,-4.17,-5.02,-4.21,4.21,5.49,-0.75,-0.80,-0.79
31.61,-4.96,-4.17,-5.00,-4.20,4.20,5.50,-0.76,-0.80,-0.79
31.93,-4.96,-4.16,-4.99,-4.18,4.18,5.51,-0.78,-0.81,-0.80
32.24,-4.96,-4.16,-4.98,-4.17,4.17,5.51,-0.80,-0.81,-0.80
32.57,-4.96,-4.16,-4.96,-4.15,4.15,5.50,-0.81,-0.81,-0.80
32.89,-4.96,-4.16,-4.96,-4.14,4.14,5.48,-0.82,-0.81,-0.81
33.22,-4.96,-4.15,-4.95,-4.14,4.14,5.45,-0.83,-0.81,-0.81
33.55,-4.96,-4.15,-4.94,-4.13,4.13,5.42,-0.84,-0.82,-0.81
33.89,-4.96,-4.15,-4.94,-4.12,4.12,5.39,-0.85,-0.83,-0.82
34.23,-4.96,-4.14,-4.94,-4.11,4.11,5.35,-0.85,-0.83,-0.82
34.57,-4.96,-4.14,-4.94,-4.10,4.10,5.30,-0.86,-0.84,-0.82
34.92,-4.96,-4.13,-4.93,-4.09,4.09,5.25,-0.87,-0.84,-0.83
35.27,-4.93,-4.10,-4.92,-4.08,4.08,5.20,-0.85,-0.84,-0.83
35.62,-4.90,-4.07,-4.91,-4.07,4.07,5.14,-0.84,-0.84,-0.83
35.97,-4.86,-4.02,-4.90,-4.05,4.05,5.08,-0.81,-0.84,-0.84
36.33,-4.86,-4.02,-4.89,-4.04,4.04,5.02,-0.82,-0.85,-0.84
36.70,-4.86,-4.01,-4.88,-4.03,4.03,4.96,-0.83,-0.85,-0.85
37.06,-4.86,-4.01,-4.87,-4.02,4.02,4.90,-0.84,-0.85,-0.85
37.43,-4.86,-4.01,-4.87,-4.01,4.01,4.84,-0.85,-0.86,-0.86
37.81,-4.86,-4.00,-4.86,-4.00,4.00,4.78,-0.86,-0.86,-0.86
38.19,-4.86,-4.00,-4.86,-3.99,3.99,4.71,-0.87,-0.87,-0.87
38.57,-4.86,-3.99,-4.85,-3.98,3.98,4.65,-0.88,-0.87,-0.87
38.95,-4.86,-3.99,-4.85,-3.98,3.98,4.59,-0.88,-0.88,-0.88
39.34,-4.86,-3.98,-4.86,-3.97,3.97,4.54,-0.89,-0.88,-0.88
39.74,-4.86,-3.98,-4.86,-3.97,3.97,4.48,-0.89,-0.89,-0.89
40.14,-4.86,-3.97,-4.86,-3.97,3.97,4.43,-0.90,-0.90,-0.89
40.54,-4.86,-3.96,-4.86,-3.96,3.96,4.38,-0.90,-0.90,-0.90
40.94,-4.86,-3.96,-4.86,-3.96,3.96,4.33,-0.90,-0.90,-0.90
41.35,-4.86,-3.95,-4.86,-3.95,3.95,4.28,-0.91,-0.91,-0.91
41.76,-4.86,-3.95,-4.86,-3.94,3.94,4.24,-0.92,-0.92,-0.92
42.18,-4.86,-3.94,-4.86,-3.94,3.94,4.20,-0.92,-0.92,-0.92
42.60,-4.86,-3.93,-4.86,-3.93,3.93,4.16,-0.93,-0.93,-0.93
43.03,-4.86,-3.93,-4.86,-3.92,3.92,4.13,-0.94,-0.94,-0.94
43.46,-4.86,-3.92,-4.86,-3.91,3.91,4.09,-0.95,-0.95,-0.94
43.90,-4.86,-3.91,-4.86,-3.90,3.90,4.07,-0.96,-0.95,-0.95
44.33,-4.86,-3.90,-4.86,-3.90,3.90,4.04,-0.97,-0.96,-0.96
44.78,-4.86,-3.90,-4.85,-3.89,3.89,4.02,-0.97,-0.97,-0.97
45.23,-4.86,-3.89,-4.85,-3.88,3.88,4.00,-0.98,-0.97,-0.97
45.68,-4.86,-3.88,-4.86,-3.87,3.87,3.98,-0.99,-0.98,-0.98
46.13,-4.86,-3.87,-4.86,-3.87,3.87,3.97,-0.99,-0.99,-0.99
46.60,-4.86,-3.86,-4.87,-3.87,3.87,3.96,-1.00,-1.00,-1.00
47.06,-4.86,-3.85,-4.87,-3.86,3.86,3.95,-1.00,-1.01,-1.01
47.53,-4.85,-3.84,-4.88,-3.86,3.86,3.95,-0.99,-1.02,-1.02
48.01,-4.84,-3.82,-4.89,-3.86,3.86,3.95,-0.98,-1.03,-1.02
48.49,-4.88,-3.85,-4.90,-3.86,3.86,3.95,-1.02,-1.04,-1.03
48.97,-4.92,-3.88,-4.91,-3.86,3.86,3.95,-1.06,-1.05,-1.04
49.46,-4.94,-3.89,-4.92,-3.86,3.86,3.96,-1.08,-1.06,-1.05
49.96,-4.96,-3.90,-4.93,-3.86,3.86,3.97,-1.10,-1.07,-1.06
50.46,-4.96,-3.89,-4.94,-3.86,3.86,3.98,-1.10,-1.08,-1.08
50.96,-4.96,-3.88,-4.95,-3.85,3.85,3.99,-1.11,-1.09,-1.09
51.47,-4.96,-3.86,-4.95,-3.85,3.85,4.00,-1.11,-1.10,-1.10
51.99,-4.96,-3.85,-4.96,-3.84,3.84,4.02,-1.12,-1.12,-1.11
52.51,-4.96,-3.84,-4.97,-3.84,3.84,4.03,-1.12,-1.13,-1.12
53.03,-4.96,-3.83,-4.97,-3.83,3.83,4.05,-1.13,-1.14,-1.13
53.56,-4.96,-3.82,-4.97,-3.82,3.82,4.06,-1.14,-1.15,-1.15
54.10,-4.96,-3.80,-4.97,-3.81,3.81,4.08,-1.16,-1.16,-1.16
54.64,-4.96,-3.79,-4.96,-3.79,3.79,4.10,-1.17,-1.17,-1.17
55.18,-4.96,-3.78,-4.96,-3.78,3.78,4.11,-1.18,-1.18,-1.19
55.74,-4.96,-3.76,-4.96,-3.77,3.77,4.13,-1.20,-1.20,-1.20
56.29,-4.96,-3.75,-4.96,-3.75,3.75,4.14,-1.21,-1.21,-1.21
56.86,-4.96,-3.73,-4.96,-3.73,3.73,4.15,-1.23,-1.23,-1.23
57.42,-4.96,-3.72,-4.96,-3.72,3.72,4.16,-1.24,-1.24,-1.24
58.00,-4.96,-3.70,-4.96,-3.70,3.70,4.17,-1.26,-1.26,-1.26
58.58,-4.96,-3.69,-4.96,-3.68,3.68,4.17,-1.28,-1.28,-1.27
59.16,-4.96,-3.67,-4.96,-3.66,3.66,4.17,-1.30,-1.30,-1.29
59.76,-4.96,-3.66,-4.96,-3.64,3.64,4.17,-1.32,-1.31,-1.31
60.35,-4.96,-3.64,-4.95,-3.62,3.62,4.16,-1.34,-1.33,-1.32
60.96,-4.96,-3.62,-4.95,-3.61,3.61,4.15,-1.36,-1.34,-1.34
61.57,-4.96,-3.60,-4.94,-3.59,3.59,4.14,-1.37,-1.36,-1.36
62.18,-4.96,-3.59,-4.95,-3.57,3.57,4.12,-1.39,-1.37,-1.38
62.80,-4.96,-3.57,-4.96,-3.56,3.56,4.09,-1.40,-1.40,-1.39
63.43,-4.96,-3.55,-4.97,-3.55,3.55,4.07,-1.41,-1.42,-1.41
64.07,-4.96,-3.53,-4.98,-3.54,3.54,4.03,-1.42,-1.44,-1.43
64.71,-4.95,-3.50,-5.00,-3.53,3.53,4.00,-1.42,-1.47,-1.45
65.35,-4.95,-3.48,-5.02,-3.52,3.52,3.96,-1.43,-1.49,-1.47
66.01,-4.96,-3.47,-5.03,-3.52,3.52,3.92,-1.44,-1.51,-1.49
66.67,-5.03,-3.52,-5.05,-3.51,3.51,3.87,-1.52,-1.53,-1.51
67.33,-5.09,-3.56,-5.06,-3.51,3.51,3.82,-1.58,-1.55,-1.54
68.01,-5.15,-3.59,-5.08,-3.51,3.51,3.76,-1.65,-1.57,-1.56
68.69,-5.18,-3.60,-5.09,-3.50,3.50,3.71,-1.68,-1.59,-1.58
69.37,-5.18,-3.58,-5.12,-3.50,3.50,3.65,-1.68,-1.62,-1.60
70.07,-5.16,-3.54,-5.14,-3.50,3.50,3.59,-1.66,-1.64,-1.63
70.77,-5.16,-3.51,-5.16,-3.50,3.50,3.52,-1.67,-1.66,-1.65
71.48,-5.16,-3.49,-5.18,-3.49,3.49,3.46,-1.67,-1.69,-1.67
72.19,-5.14,-3.44,-5.20,-3.49,3.49,3.39,-1.65,-1.71,-1.70
72.91,-5.12,-3.40,-5.23,-3.49,3.49,3.32,-1.63,-1.74,-1.72
73.64,-5.21,-3.46,-5.25,-3.49,3.49,3.26,-1.73,-1.76,-1.75
74.38,-5.26,-3.49,-5.27,-3.48,3.48,3.19,-1.78,-1.78,-1.77
75.12,-5.28,-3.48,-5.29,-3.48,3.48,3.12,-1.80,-1.81,-1.80
75.87,-5.38,-3.56,-5.31,-3.48,3.48,3.05,-1.90,-1.83,-1.83
76.63,-5.36,-3.51,-5.34,-3.48,3.48,2.98,-1.88,-1.86,-1.85
77.40,-5.34,-3.46,-5.36,-3.48,3.48,2.91,-1.86,-1.89,-1.88
78.17,-5.38,-3.47,-5.39,-3.47,3.47,2.85,-1.91,-1.92,-1.91
78.95,-5.46,-3.53,-5.41,-3.47,3.47,2.78,-1.99,-1.95,-1.94
79.74,-5.46,-3.50,-5.43,-3.46,3.46,2.71,-2.00,-1.97,-1.96
80.54,-5.46,-3.47,-5.45,-3.45,3.45,2.65,-2.01,-2.00,-1.99
81.35,-5.46,-3.44,-5.47,-3.44,3.44,2.59,-2.02,-2.03,-2.02
82.16,-5.46,-3.41,-5.48,-3.42,3.42,2.52,-2.04,-2.06,-2.05
82.98,-5.46,-3.38,-5.48,-3.40,3.40,2.46,-2.07,-2.09,-2.08
83.81,-5.44,-3.33,-5.49,-3.37,3.37,2.40,-2.07,-2.12,-2.11
84.65,-5.48,-3.34,-5.49,-3.34,3.34,2.35,-2.14,-2.15,-2.14
85.50,-5.47,-3.30,-5.49,-3.30,3.30,2.29,-2.17,-2.19,-2.17
86.35,-5.44,-3.24,-5.48,-3.25,3.25,2.24,-2.19,-2.23,-2.20
87.22,-5.45,-3.22,-5.46,-3.20,3.20,2.18,-2.25,-2.26,-2.24
88.09,-5.46,-3.19,-5.42,-3.14,3.14,2.13,-2.33,-2.29,-2.27
88.97,-5.46,-3.16,-5.38,-3.07,3.07,2.08,-2.39,-2.31,-2.30
89.86,-5.40,-3.07,-5.34,-2.99,2.99,2.03,-2.41,-2.35,-2.33
90.76,-5.34,-2.98,-5.30,-2.91,2.91,1.99,-2.43,-2.39,-2.36
91.66,-5.27,-2.88,-5.24,-2.82,2.82,1.94,-2.45,-2.42,-2.40
92.58,-5.20,-2.77,-5.18,-2.73,2.73,1.90,-2.47,-2.45,-2.43
93.51,-5.15,-2.69,-5.12,-2.64,2.64,1.86,-2.51,-2.48,-2.46
94.44,-5.03,-2.54,-5.04,-2.54,2.54,1.82,-2.49,-2.50,-2.49
95.39,-4.87,-2.35,-4.97,-2.44,2.44,1.78,-2.44,-2.54,-2.53
96.34,-4.79,-2.23,-4.90,-2.34,2.34,1.74,-2.46,-2.57,-2.56
97.30,-4.76,-2.17,-4.83,-2.24,2.24,1.70,-2.53,-2.60,-2.59
98.28,-4.77,-2.15,-4.77,-2.14,2.14,1.67,-2.63,-2.63,-2.63
99.26,-4.80,-2.14,-4.71,-2.04,2.04,1.64,-2.76,-2.67,-2.66
100.25,-4.70,-2.01,-4.65,-1.95,1.95,1.60,-2.76,-2.70,-2.69
101.25,-4.51,-1.79,-4.59,-1.85,1.85,1.57,-2.66,-2.74,-2.73
102.27,-4.49,-1.73,-4.53,-1.76,1.76,1.54,-2.73,-2.77,-2.76
103.29,-4.47,-1.68,-4.47,-1.67,1.67,1.51,-2.80,-2.80,-2.79
104.32,-4.46,-1.64,-4.42,-1.58,1.58,1.49,-2.88,-2.84,-2.82
105.37,-4.45,-1.59,-4.37,-1.49,1.49,1.46,-2.96,-2.88,-2.86
106.42,-4.36,-1.47,-4.32,-1.40,1.40,1.43,-2.96,-2.91,-2.89
107.48,-4.27,-1.35,-4.26,-1.32,1.32,1.41,-2.95,-2.94,-2.93
108.56,-4.21,-1.25,-4.21,-1.24,1.24,1.38,-2.98,-2.97,-2.96
109.64,-4.11,-1.12,-4.15,-1.15,1.15,1.36,-2.96,-3.00,-2.99
110.74,-4.02,-1.00,-4.10,-1.08,1.08,1.34,-2.94,-3.02,-3.02
111.85,-4.01,-0.96,-4.06,-1.01,1.01,1.31,-3.01,-3.06,-3.05
112.97,-4.03,-0.95,-4.03,-0.94,0.94,1.29,-3.09,-3.08,-3.08
114.10,-4.03,-0.92,-3.99,-0.88,0.88,1.27,-3.15,-3.11,-3.11
115.24,-3.97,-0.83,-3.96,-0.83,0.83,1.25,-3.14,-3.13,-3.14
116.39,-3.95,-0.78,-3.95,-0.79,0.79,1.23,-3.16,-3.16,-3.17
117.55,-3.93,-0.74,-3.94,-0.75,0.75,1.20,-3.18,-3.19,-3.19
118.73,-3.92,-0.70,-3.94,-0.72,0.72,1.18,-3.20,-3.22,-3.22
119.92,-3.91,-0.67,-3.95,-0.70,0.70,1.16,-3.21,-3.25,-3.24
121.12,-3.91,-0.65,-3.96,-0.68,0.68,1.14,-3.23,-3.28,-3.26
122.33,-3.93,-0.65,-3.97,-0.67,0.67,1.12,-3.26,-3.30,-3.28
123.55,-3.97,-0.67,-3.98,-0.66,0.66,1.10,-3.31,-3.32,-3.30
124.79,-4.02,-0.70,-3.99,-0.65,0.65,1.08,-3.37,-3.34,-3.32
126.03,-4.08,-0.74,-4.00,-0.64,0.64,1.06,-3.44,-3.35,-3.34
127.29,-4.07,-0.71,-4.01,-0.64,0.64,1.04,-3.43,-3.37,-3.36
128.57,-4.06,-0.69,-4.03,-0.63,0.63,1.01,-3.43,-3.39,-3.38
129.85,-4.06,-0.67,-4.04,-0.63,0.63,0.99,-3.43,-3.41,-3.40
131.15,-4.05,-0.64,-4.06,-0.63,0.63,0.97,-3.43,-3.43,-3.41
132.46,-4.05,-0.62,-4.07,-0.62,0.62,0.95,-3.43,-3.45,-3.43
133.79,-4.04,-0.59,-4.09,-0.62,0.62,0.93,-3.42,-3.47,-3.45
135.12,-4.04,-0.57,-4.10,-0.61,0.61,0.90,-3.43,-3.49,-3.47
136.48,-4.09,-0.60,-4.11,-0.61,0.61,0.88,-3.48,-3.51,-3.49
137.84,-4.13,-0.62,-4.13,-0.60,0.60,0.86,-3.53,-3.52,-3.51
139.22,-4.13,-0.60,-4.14,-0.60,0.60,0.83,-3.53,-3.54,-3.54
140.61,-4.13,-0.58,-4.15,-0.59,0.59,0.81,-3.54,-3.56,-3.56
142.02,-4.20,-0.62,-4.17,-0.59,0.59,0.79,-3.61,-3.58,-3.58
143.44,-4.22,-0.62,-4.19,-0.58,0.58,0.77,-3.64,-3.61,-3.60
144.87,-4.23,-0.61,-4.20,-0.57,0.57,0.74,-3.66,-3.63,-3.62
146.32,-4.23,-0.59,-4.21,-0.57,0.57,0.72,-3.67,-3.65,-3.64
147.78,-4.23,-0.57,-4.22,-0.56,0.56,0.70,-3.67,-3.66,-3.66
149.26,-4.23,-0.55,-4.23,-0.55,0.55,0.68,-3.68,-3.68,-3.68
150.75,-4.23,-0.54,-4.24,-0.54,0.54,0.65,-3.69,-3.70,-3.70
152.26,-4.23,-0.52,-4.25,-0.53,0.53,0.63,-3.71,-3.72,-3.71
153.78,-4.23,-0.50,-4.25,-0.51,0.51,0.61,-3.72,-3.74,-3.73
155.32,-4.23,-0.48,-4.25,-0.49,0.49,0.59,-3.74,-3.76,-3.75
156.88,-4.23,-0.47,-4.26,-0.48,0.48,0.57,-3.75,-3.78,-3.76
158.44,-4.23,-0.45,-4.25,-0.46,0.46,0.54,-3.77,-3.79,-3.78
160.03,-4.23,-0.43,-4.25,-0.43,0.43,0.52,-3.80,-3.81,-3.80
161.63,-4.23,-0.42,-4.24,-0.41,0.41,0.50,-3.82,-3.83,-3.82
163.24,-4.26,-0.43,-4.23,-0.38,0.38,0.48,-3.88,-3.85,-3.83
164.88,-4.32,-0.47,-4.22,-0.35,0.35,0.46,-3.97,-3.87,-3.85
166.53,-4.26,-0.39,-4.21,-0.32,0.32,0.44,-3.94,-3.89,-3.87
168.19,-4.20,-0.31,-4.20,-0.29,0.29,0.42,-3.91,-3.90,-3.89
169.87,-4.15,-0.24,-4.18,-0.26,0.26,0.40,-3.89,-3.92,-3.91
171.57,-4.16,-0.24,-4.17,-0.23,0.23,0.38,-3.93,-3.94,-3.93
173.29,-4.15,-0.21,-4.15,-0.20,0.20,0.36,-3.95,-3.95,-3.94
175.02,-4.07,-0.11,-4.13,-0.17,0.17,0.34,-3.90,-3.96,-3.96
176.77,-4.07,-0.10,-4.11,-0.14,0.14,0.32,-3.93,-3.97,-3.97
178.54,-4.07,-0.09,-4.09,-0.11,0.11,0.30,-3.96,-3.98,-3.98
180.32,-4.07,-0.08,-4.07,-0.09,0.09,0.28,-3.98,-3.98,-3.99
182.13,-4.07,-0.08,-4.05,-0.07,0.07,0.26,-4.00,-3.98,-3.99
183.95,-4.06,-0.07,-4.04,-0.05,0.05,0.25,-4.01,-3.99,-4.00
185.79,-4.04,-0.05,-4.03,-0.04,0.04,0.23,-4.00,-3.99,-4.00
187.65,-4.03,-0.04,-4.02,-0.03,0.03,0.21,-4.01,-3.99,-3.99
189.52,-4.01,-0.02,-4.01,-0.02,0.02,0.19,-4.00,-3.99,-3.99
191.42,-4.00,-0.02,-4.00,-0.01,0.01,0.17,-3.99,-3.99,-3.98
193.33,-3.99,-0.01,-3.99,-0.00,0.00,0.16,-3.99,-3.98,-3.98
195.27,-3.97,0.00,-3.98,0.01,-0.01,0.14,-3.98,-3.98,-3.97
197.22,-3.96,0.01,-3.97,0.01,-0.01,0.12,-3.97,-3.98,-3.97
199.19,-3.95,0.02,-3.96,0.02,-0.02,0.10,-3.97,-3.98,-3.97
201.18,-3.94,0.03,-3.95,0.03,-0.03,0.09,-3.97,-3.98,-3.97
203.19,-3.93,0.04,-3.94,0.03,-0.03,0.07,-3.96,-3.98,-3.97
205.23,-3.93,0.04,-3.94,0.04,-0.04,0.06,-3.97,-3.98,-3.97
207.28,-3.93,0.05,-3.94,0.05,-0.05,0.04,-3.98,-3.98,-3.98
209.35,-3.93,0.05,-3.94,0.05,-0.05,0.02,-3.98,-3.99,-3.98
211.44,-3.94,0.05,-3.94,0.06,-0.06,0.01,-4.00,-4.00,-3.99
213.56,-3.94,0.06,-3.94,0.06,-0.06,-0.01,-4.01,-4.01,-4.00
215.69,-3.94,0.07,-3.94,0.07,-0.07,-0.02,-4.01,-4.01,-4.01
217.85,-3.95,0.07,-3.95,0.08,-0.08,-0.04,-4.03,-4.02,-4.02
220.03,-3.95,0.08,-3.95,0.08,-0.08,-0.05,-4.03,-4.03,-4.03
222.23,-3.95,0.09,-3.95,0.09,-0.09,-0.06,-4.04,-4.04,-4.04
224.45,-3.95,0.09,-3.95,0.09,-0.09,-0.08,-4.04,-4.04,-4.05
226.70,-3.95,0.10,-3.95,0.10,-0.10,-0.09,-4.05,-4.04,-4.05
228.96,-3.95,0.10,-3.94,0.10,-0.10,-0.10,-4.05,-4.04,-4.05
231.25,-3.94,0.11,-3.94,0.11,-0.11,-0.12,-4.05,-4.04,-4.05
233.57,-3.93,0.11,-3.93,0.11,-0.11,-0.13,-4.04,-4.04,-4.04
235.90,-3.92,0.11,-3.91,0.12,-0.12,-0.14,-4.04,-4.03,-4.03
238.26,-3.90,0.12,-3.90,0.12,-0.12,-0.15,-4.02,-4.02,-4.02
240.64,-3.89,0.12,-3.88,0.13,-0.13,-0.16,-4.02,-4.01,-4.01
243.05,-3.88,0.12,-3.87,0.13,-0.13,-0.17,-4.02,-4.00,-4.00
245.48,-3.86,0.13,-3.85,0.14,-0.14,-0.18,-4.00,-3.99,-3.99
247.93,-3.83,0.14,-3.84,0.14,-0.14,-0.19,-3.98,-3.98,-3.98
250.41,-3.81,0.15,-3.82,0.15,-0.15,-0.19,-3.96,-3.97,-3.96
252.92,-3.79,0.16,-3.81,0.15,-0.15,-0.20,-3.94,-3.96,-3.95
255.45,-3.78,0.16,-3.80,0.16,-0.16,-0.21,-3.94,-3.95,-3.94
258.00,-3.77,0.16,-3.79,0.16,-0.16,-0.21,-3.93,-3.95,-3.94
260.58,-3.77,0.16,-3.78,0.16,-0.16,-0.22,-3.93,-3.95,-3.93
263.19,-3.76,0.17,-3.77,0.17,-0.17,-0.22,-3.93,-3.94,-3.93
265.82,-3.77,0.16,-3.77,0.17,-0.17,-0.23,-3.94,-3.93,-3.93
268.48,-3.77,0.16,-3.76,0.17,-0.17,-0.23,-3.94,-3.93,-3.93
271.16,-3.77,0.16,-3.76,0.16,-0.16,-0.23,-3.94,-3.93,-3.93
273.87,-3.78,0.15,-3.77,0.16,-0.16,-0.24,-3.94,-3.93,-3.93
276.61,-3.78,0.15,-3.77,0.16,-0.16,-0.24,-3.94,-3.93,-3.93
279.38,-3.78,0.15,-3.78,0.15,-0.15,-0.24,-3.93,-3.93,-3.93
282.17,-3.77,0.16,-3.78,0.14,-0.14,-0.24,-3.92,-3.93,-3.93
284.99,-3.77,0.15,-3.78,0.14,-0.14,-0.25,-3.91,-3.92,-3.93
287.84,-3.76,0.16,-3.79,0.13,-0.13,-0.25,-3.89,-3.92,-3.92
290.72,-3.75,0.16,-3.79,0.12,-0.12,-0.25,-3.87,-3.91,-3.91
293.63,-3.82,0.08,-3.80,0.11,-0.11,-0.25,-3.93,-3.91,-3.91
296.57,-3.83,0.07,-3.80,0.11,-0.11,-0.25,-3.94,-3.90,-3.90
299.53,-3.81,0.08,-3.80,0.10,-0.10,-0.25,-3.91,-3.90,-3.89
302.53,-3.80,0.08,-3.79,0.10,-0.10,-0.25,-3.90,-3.89,-3.88
305.55,-3.79,0.08,-3.79,0.10,-0.10,-0.25,-3.89,-3.88,-3.87
308.61,-3.78,0.08,-3.78,0.10,-0.10,-0.25,-3.88,-3.88,-3.86
311.69,-3.78,0.07,-3.77,0.10,-0.10,-0.26,-3.88,-3.87,-3.86
314.81,-3.77,0.08,-3.76,0.10,-0.10,-0.26,-3.88,-3.86,-3.85
317.96,-3.77,0.08,-3.75,0.11,-0.11,-0.26,-3.88,-3.86,-3.85
321.14,-3.76,0.08,-3.74,0.12,-0.12,-0.26,-3.88,-3.85,-3.84
324.35,-3.69,0.15,-3.72,0.13,-0.13,-0.26,-3.82,-3.85,-3.84
327.59,-3.67,0.17,-3.71,0.13,-0.13,-0.26,-3.81,-3.85,-3.84
330.87,-3.67,0.17,-3.71,0.14,-0.14,-0.26,-3.81,-3.85,-3.84
334.18,-3.67,0.17,-3.70,0.15,-0.15,-0.26,-3.82,-3.85,-3.84
337.52,-3.68,0.16,-3.69,0.16,-0.16,-0.26,-3.84,-3.85,-3.85
340.90,-3.68,0.16,-3.68,0.16,-0.16,-0.27,-3.84,-3.85,-3.85
344.30,-3.68,0.16,-3.67,0.17,-0.17,-0.27,-3.85,-3.84,-3.85
347.75,-3.68,0.16,-3.66,0.18,-0.18,-0.27,-3.86,-3.84,-3.84
351.23,-3.68,0.16,-3.65,0.18,-0.18,-0.27,-3.87,-3.84,-3.84
354.74,-3.67,0.17,-3.65,0.19,-0.19,-0.28,-3.86,-3.84,-3.84
358.28,-3.67,0.16,-3.64,0.20,-0.20,-0.28,-3.87,-3.84,-3.83
361.87,-3.66,0.17,-3.63,0.21,-0.21,-0.28,-3.87,-3.83,-3.83
365.49,-3.59,0.23,-3.61,0.22,-0.22,-0.29,-3.81,-3.83,-3.82
369.14,-3.56,0.25,-3.60,0.23,-0.23,-0.29,-3.79,-3.82,-3.81
372.83,-3.54,0.26,-3.57,0.24,-0.24,-0.29,-3.78,-3.82,-3.81
376.56,-3.53,0.27,-3.55,0.26,-0.26,-0.30,-3.79,-3.81,-3.80
380.33,-3.53,0.26,-3.53,0.27,-0.27,-0.30,-3.80,-3.80,-3.79
384.13,-3.52,0.27,-3.51,0.29,-0.29,-0.31,-3.81,-3.80,-3.79
387.97,-3.51,0.27,-3.49,0.31,-0.31,-0.31,-3.82,-3.80,-3.78
391.85,-3.47,0.31,-3.46,0.33,-0.33,-0.31,-3.80,-3.79,-3.78
395.77,-3.41,0.37,-3.44,0.35,-0.35,-0.32,-3.76,-3.79,-3.78
399.73,-3.40,0.38,-3.42,0.37,-0.37,-0.33,-3.77,-3.79,-3.78
403.72,-3.42,0.36,-3.40,0.39,-0.39,-0.33,-3.81,-3.79,-3.78
407.76,-3.35,0.43,-3.37,0.41,-0.41,-0.34,-3.76,-3.78,-3.78
411.84,-3.32,0.46,-3.35,0.43,-0.43,-0.34,-3.75,-3.78,-3.78
415.96,-3.32,0.46,-3.33,0.45,-0.45,-0.35,-3.77,-3.77,-3.78
420.12,-3.32,0.45,-3.30,0.46,-0.46,-0.36,-3.79,-3.76,-3.77
424.32,-3.30,0.46,-3.27,0.48,-0.48,-0.37,-3.78,-3.75,-3.76
428.56,-3.21,0.53,-3.24,0.50,-0.50,-0.37,-3.71,-3.74,-3.74
432.85,-3.17,0.55,-3.20,0.51,-0.51,-0.38,-3.68,-3.71,-3.72
437.18,-3.15,0.54,-3.16,0.53,-0.53,-0.39,-3.68,-3.69,-3.69
441.55,-3.13,0.52,-3.11,0.55,-0.55,-0.40,-3.68,-3.65,-3.65
445.96,-3.08,0.53,-3.05,0.56,-0.56,-0.41,-3.64,-3.61,-3.61
450.42,-3.03,0.53,-2.98,0.58,-0.58,-0.42,-3.61,-3.56,-3.56
454.93,-2.99,0.52,-2.91,0.60,-0.60,-0.43,-3.59,-3.51,-3.51
459.48,-2.90,0.55,-2.84,0.62,-0.62,-0.44,-3.52,-3.46,-3.46
464.07,-2.77,0.63,-2.77,0.63,-0.63,-0.45,-3.41,-3.40,-3.40
468.71,-2.70,0.64,-2.70,0.65,-0.65,-0.46,-3.35,-3.35,-3.34
473.40,-2.56,0.72,-2.63,0.67,-0.67,-0.47,-3.23,-3.30,-3.28
478.13,-2.47,0.76,-2.56,0.69,-0.69,-0.48,-3.16,-3.25,-3.23
482.91,-2.43,0.75,-2.49,0.71,-0.71,-0.50,-3.14,-3.20,-3.18
487.74,-2.39,0.74,-2.43,0.73,-0.73,-0.51,-3.12,-3.15,-3.13
492.62,-2.35,0.74,-2.36,0.75,-0.75,-0.52,-3.10,-3.11,-3.09
497.55,-2.31,0.74,-2.31,0.77,-0.77,-0.54,-3.08,-3.08,-3.05
502.52,-2.29,0.74,-2.27,0.79,-0.79,-0.55,-3.08,-3.05,-3.03
507.55,-2.31,0.70,-2.23,0.81,-0.81,-0.57,-3.12,-3.03,-3.01
512.62,-2.23,0.77,-2.20,0.83,-0.83,-0.59,-3.06,-3.02,-3.00
517.75,-2.14,0.85,-2.18,0.85,-0.85,-0.60,-2.99,-3.02,-2.99
522.93,-2.18,0.82,-2.16,0.86,-0.86,-0.62,-3.05,-3.02,-3.00
528.16,-2.13,0.88,-2.15,0.88,-0.88,-0.64,-3.01,-3.04,-3.01
533.44,-2.10,0.93,-2.15,0.90,-0.90,-0.66,-3.00,-3.05,-3.03
538.77,-2.11,0.95,-2.15,0.91,-0.91,-0.68,-3.02,-3.06,-3.06
544.16,-2.15,0.93,-2.17,0.92,-0.92,-0.70,-3.07,-3.09,-3.09
549.60,-2.19,0.92,-2.18,0.93,-0.93,-0.72,-3.12,-3.12,-3.12
555.10,-2.14,1.01,-2.21,0.94,-0.94,-0.74,-3.08,-3.15,-3.15
560.65,-2.17,1.01,-2.23,0.94,-0.94,-0.76,-3.12,-3.17,-3.18
566.25,-2.24,0.96,-2.25,0.95,-0.95,-0.78,-3.19,-3.20,-3.20
571.92,-2.29,0.94,-2.28,0.95,-0.95,-0.81,-3.24,-3.23,-3.23
577.64,-2.33,0.92,-2.30,0.95,-0.95,-0.83,-3.29,-3.25,-3.25
583.41,-2.35,0.91,-2.31,0.96,-0.96,-0.86,-3.31,-3.27,-3.26
