frequency,raw,error,smoothed,error_smoothed,equalization,parametric_eq,fixed_band_eq,equalized_raw,equalized_smoothed,target
20.00,2.21,2.86,2.22,2.85,-2.85,-1.68,-1.00,-0.63,-0.63,-0.65
20.20,2.17,2.82,2.17,2.81,-2.81,-1.70,-1.03,-0.63,-0.64,-0.65
20.40,2.12,2.77,2.12,2.77,-2.77,-1.72,-1.06,-0.65,-0.64,-0.65
20.61,2.08,2.73,2.08,2.73,-2.73,-1.74,-1.10,-0.65,-0.65,-0.65
20.81,2.04,2.69,2.03,2.70,-2.70,-1.76,-1.13,-0.66,-0.66,-0.65
21.02,1.99,2.64,1.99,2.67,-2.67,-1.78,-1.16,-0.68,-0.68,-0.65
21.23,1.96,2.63,1.95,2.64,-2.64,-1.80,-1.20,-0.68,-0.69,-0.67
21.44,1.91,2.59,1.91,2.61,-2.61,-1.82,-1.23,-0.70,-0.70,-0.68
21.66,1.86,2.56,1.87,2.58,-2.58,-1.84,-1.27,-0.72,-0.71,-0.70
21.87,1.82,2.54,1.83,2.56,-2.56,-1.86,-1.31,-0.74,-0.73,-0.72
22.09,1.79,2.52,1.79,2.53,-2.53,-1.88,-1.35,-0.74,-0.75,-0.73
22.31,1.74,2.50,1.75,2.51,-2.51,-1.90,-1.39,-0.77,-0.76,-0.76
22.54,1.70,2.48,1.71,2.49,-2.49,-1.92,-1.43,-0.79,-0.78,-0.78
22.76,1.68,2.48,1.67,2.48,-2.48,-1.94,-1.47,-0.80,-0.81,-0.80
22.99,1.64,2.48,1.64,2.47,-2.47,-1.96,-1.52,-0.83,-0.83,-0.83
23.22,1.60,2.47,1.60,2.45,-2.45,-1.98,-1.56,-0.85,-0.85,-0.86
23.45,1.57,2.46,1.57,2.44,-2.44,-2.01,-1.60,-0.87,-0.87,-0.89
23.69,1.54,2.44,1.54,2.43,-2.43,-2.03,-1.65,-0.89,-0.89,-0.90
23.92,1.51,2.43,1.51,2.42,-2.42,-2.05,-1.70,-0.91,-0.91,-0.92
24.16,1.48,2.41,1.48,2.41,-2.41,-2.07,-1.75,-0.93,-0.93,-0.93
24.40,1.44,2.39,1.45,2.40,-2.40,-2.09,-1.79,-0.96,-0.95,-0.95
24.65,1.41,2.38,1.42,2.39,-2.39,-2.11,-1.84,-0.98,-0.97,-0.97
24.89,1.39,2.38,1.39,2.38,-2.38,-2.13,-1.89,-0.99,-0.99,-0.99
25.14,1.36,2.36,1.36,2.37,-2.37,-2.15,-1.94,-1.01,-1.00,-1.00
25.39,1.34,2.36,1.34,2.36,-2.36,-2.17,-2.00,-1.02,-1.02,-1.02
25.65,1.31,2.34,1.31,2.35,-2.35,-2.19,-2.05,-1.04,-1.03,-1.03
25.91,1.29,2.35,1.29,2.34,-2.34,-2.21,-2.10,-1.05,-1.05,-1.06
26.16,1.27,2.34,1.27,2.33,-2.33,-2.23,-2.15,-1.06,-1.07,-1.07
26.43,1.25,2.33,1.25,2.33,-2.33,-2.25,-2.20,-1.08,-1.08,-1.08
26.69,1.23,2.33,1.23,2.32,-2.32,-2.27,-2.25,-1.09,-1.10,-1.10
26.96,1.21,2.32,1.21,2.32,-2.32,-2.29,-2.30,-1.11,-1.11,-1.11
27.23,1.19,2.31,1.19,2.32,-2.32,-2.31,-2.35,-1.12,-1.13,-1.12
27.50,1.16,2.29,1.17,2.31,-2.31,-2.33,-2.40,-1.15,-1.14,-1.13
27.77,1.15,2.30,1.15,2.31,-2.31,-2.35,-2.44,-1.16,-1.15,-1.15
28.05,1.14,2.31,1.14,2.31,-2.31,-2.37,-2.49,-1.17,-1.17,-1.17
28.33,1.12,2.31,1.13,2.31,-2.31,-2.39,-2.53,-1.19,-1.18,-1.19
28.62,1.11,2.31,1.11,2.31,-2.31,-2.41,-2.57,-1.20,-1.19,-1.20
28.90,1.10,2.31,1.10,2.31,-2.31,-2.43,-2.61,-1.20,-1.20,-1.21
29.19,1.08,2.31,1.09,2.31,-2.31,-2.45,-2.65,-1.23,-1.22,-1.23
29.48,1.08,2.31,1.08,2.31,-2.31,-2.47,-2.68,-1.23,-1.23,-1.23
29.78,1.07,2.31,1.07,2.31,-2.31,-2.49,-2.71,-1.24,-1.24,-1.24
30.08,1.06,2.31,1.06,2.32,-2.32,-2.51,-2.74,-1.26,-1.26,-1.25
30.38,1.05,2.32,1.05,2.32,-2.32,-2.53,-2.76,-1.27,-1.27,-1.27
30.68,1.04,2.32,1.04,2.33,-2.33,-2.55,-2.79,-1.29,-1.29,-1.28
30.99,1.04,2.35,1.03,2.33,-2.33,-2.57,-2.80,-1.29,-1.30,-1.30
31.30,1.02,2.34,1.02,2.34,-2.34,-2.59,-2.82,-1.32,-1.32,-1.32
31.61,1.01,2.34,1.01,2.34,-2.34,-2.60,-2.83,-1.33,-1.33,-1.33
31.93,1.00,2.35,1.00,2.35,-2.35,-2.62,-2.84,-1.35,-1.35,-1.35
32.24,0.98,2.36,0.99,2.36,-2.36,-2.64,-2.84,-1.38,-1.37,-1.38
32.57,0.98,2.37,0.98,2.37,-2.37,-2.66,-2.84,-1.39,-1.39,-1.39
32.89,0.96,2.36,0.97,2.38,-2.38,-2.68,-2.84,-1.42,-1.41,-1.40
33.22,0.96,2.39,0.96,2.39,-2.39,-2.69,-2.84,-1.43,-1.43,-1.43
33.55,0.94,2.39,0.95,2.40,-2.40,-2.71,-2.83,-1.46,-1.45,-1.45
33.89,0.94,2.41,0.94,2.41,-2.41,-2.73,-2.82,-1.47,-1.47,-1.47
34.23,0.93,2.42,0.93,2.42,-2.42,-2.75,-2.81,-1.49,-1.49,-1.49
34.57,0.92,2.43,0.92,2.43,-2.43,-2.76,-2.80,-1.51,-1.51,-1.51
34.92,0.92,2.45,0.92,2.45,-2.45,-2.78,-2.78,-1.53,-1.53,-1.53
35.27,0.91,2.46,0.91,2.46,-2.46,-2.80,-2.76,-1.55,-1.55,-1.54
35.62,0.91,2.48,0.91,2.47,-2.47,-2.81,-2.75,-1.56,-1.57,-1.57
35.97,0.90,2.49,0.90,2.49,-2.49,-2.83,-2.73,-1.59,-1.59,-1.59
36.33,0.90,2.50,0.90,2.50,-2.50,-2.85,-2.71,-1.60,-1.61,-1.60
36.70,0.89,2.51,0.89,2.52,-2.52,-2.86,-2.69,-1.63,-1.63,-1.62
37.06,0.89,2.54,0.89,2.53,-2.53,-2.88,-2.67,-1.64,-1.64,-1.65
37.43,0.89,2.55,0.89,2.55,-2.55,-2.89,-2.65,-1.66,-1.66,-1.66
37.81,0.88,2.56,0.88,2.57,-2.57,-2.91,-2.63,-1.68,-1.68,-1.68
38.19,0.88,2.58,0.88,2.58,-2.58,-2.92,-2.61,-1.70,-1.70,-1.70
38.57,0.87,2.59,0.88,2.60,-2.60,-2.94,-2.59,-1.73,-1.72,-1.72
38.95,0.87,2.61,0.87,2.61,-2.61,-2.95,-2.57,-1.74,-1.74,-1.74
39.34,0.87,2.63,0.87,2.63,-2.63,-2.97,-2.55,-1.75,-1.76,-1.76
39.74,0.87,2.66,0.87,2.64,-2.64,-2.98,-2.53,-1.77,-1.77,-1.78
40.14,0.86,2.65,0.86,2.65,-2.65,-3.00,-2.52,-1.79,-1.79,-1.79
40.54,0.86,2.67,0.86,2.67,-2.67,-3.01,-2.51,-1.81,-1.81,-1.81
40.94,0.86,2.69,0.86,2.68,-2.68,-3.02,-2.49,-1.82,-1.82,-1.83
41.35,0.85,2.70,0.85,2.69,-2.69,-3.04,-2.48,-1.84,-1.84,-1.85
41.76,0.85,2.70,0.85,2.71,-2.71,-3.05,-2.47,-1.86,-1.86,-1.85
42.18,0.85,2.72,0.85,2.72,-2.72,-3.06,-2.47,-1.87,-1.87,-1.87
42.60,0.84,2.73,0.84,2.74,-2.74,-3.07,-2.46,-1.90,-1.89,-1.89
43.03,0.84,2.74,0.84,2.75,-2.75,-3.09,-2.46,-1.91,-1.91,-1.89
43.46,0.84,2.76,0.84,2.76,-2.76,-3.10,-2.45,-1.92,-1.92,-1.92
43.90,0.84,2.78,0.84,2.78,-2.78,-3.11,-2.45,-1.94,-1.94,-1.94
44.33,0.83,2.79,0.83,2.79,-2.79,-3.12,-2.46,-1.96,-1.95,-1.96
44.78,0.82,2.79,0.83,2.80,-2.80,-3.13,-2.46,-1.98,-1.97,-1.97
45.23,0.83,2.83,0.83,2.81,-2.81,-3.14,-2.46,-1.98,-1.99,-2.00
45.68,0.82,2.83,0.82,2.83,-2.83,-3.15,-2.47,-2.01,-2.00,-2.01
46.13,0.82,2.85,0.82,2.84,-2.84,-3.16,-2.48,-2.02,-2.02,-2.03
46.60,0.82,2.86,0.81,2.85,-2.85,-3.17,-2.49,-2.03,-2.04,-2.03
47.06,0.81,2.86,0.81,2.87,-2.87,-3.18,-2.50,-2.06,-2.06,-2.05
47.53,0.81,2.88,0.80,2.88,-2.88,-3.19,-2.52,-2.07,-2.07,-2.07
48.01,0.80,2.87,0.80,2.89,-2.89,-3.20,-2.54,-2.09,-2.09,-2.07
48.49,0.79,2.89,0.79,2.90,-2.90,-3.21,-2.55,-2.11,-2.11,-2.10
48.97,0.78,2.91,0.78,2.91,-2.91,-3.22,-2.57,-2.13,-2.13,-2.13
49.46,0.77,2.92,0.78,2.92,-2.92,-3.23,-2.59,-2.15,-2.14,-2.15
49.96,0.76,2.94,0.77,2.93,-2.93,-3.23,-2.61,-2.17,-2.16,-2.18
50.46,0.76,2.94,0.76,2.94,-2.94,-3.24,-2.64,-2.18,-2.18,-2.18
50.96,0.75,2.95,0.75,2.95,-2.95,-3.25,-2.66,-2.20,-2.20,-2.20
51.47,0.74,2.97,0.74,2.95,-2.95,-3.25,-2.69,-2.21,-2.22,-2.22
51.99,0.72,2.96,0.72,2.96,-2.96,-3.26,-2.71,-2.24,-2.24,-2.24
52.51,0.71,2.96,0.71,2.97,-2.97,-3.27,-2.74,-2.26,-2.26,-2.25
53.03,0.70,2.97,0.70,2.98,-2.98,-3.27,-2.77,-2.28,-2.28,-2.27
53.56,0.69,2.98,0.69,2.99,-2.99,-3.28,-2.79,-2.29,-2.30,-2.29
54.10,0.68,2.99,0.68,2.99,-2.99,-3.28,-2.82,-2.31,-2.31,-2.31
54.64,0.66,2.99,0.67,3.00,-3.00,-3.29,-2.85,-2.34,-2.33,-2.33
55.18,0.65,3.00,0.65,3.00,-3.00,-3.29,-2.88,-2.35,-2.35,-2.35
55.74,0.64,3.01,0.64,3.00,-3.00,-3.30,-2.90,-2.36,-2.37,-2.37
56.29,0.62,3.00,0.62,3.01,-3.01,-3.30,-2.93,-2.39,-2.38,-2.38
56.86,0.61,3.02,0.61,3.01,-3.01,-3.31,-2.95,-2.40,-2.40,-2.40
57.42,0.60,3.03,0.60,3.01,-3.01,-3.31,-2.97,-2.41,-2.42,-2.43
58.00,0.58,3.02,0.58,3.02,-3.02,-3.31,-2.99,-2.44,-2.44,-2.44
58.58,0.56,3.02,0.56,3.02,-3.02,-3.32,-3.01,-2.46,-2.46,-2.46
59.16,0.55,3.03,0.55,3.02,-3.02,-3.32,-3.03,-2.47,-2.48,-2.47
59.76,0.53,3.02,0.53,3.03,-3.03,-3.32,-3.05,-2.50,-2.50,-2.49
60.35,0.51,3.02,0.51,3.03,-3.03,-3.32,-3.06,-2.52,-2.52,-2.51
60.96,0.49,3.01,0.49,3.03,-3.03,-3.33,-3.07,-2.54,-2.53,-2.52
61.57,0.47,3.02,0.47,3.03,-3.03,-3.33,-3.08,-2.56,-2.55,-2.55
62.18,0.45,3.03,0.45,3.02,-3.02,-3.33,-3.09,-2.57,-2.57,-2.58
62.80,0.44,3.03,0.43,3.02,-3.02,-3.33,-3.09,-2.58,-2.59,-2.59
63.43,0.41,3.03,0.41,3.02,-3.02,-3.33,-3.10,-2.61,-2.61,-2.62
64.07,0.39,3.03,0.39,3.01,-3.01,-3.33,-3.09,-2.62,-2.62,-2.64
64.71,0.37,3.01,0.37,3.01,-3.01,-3.33,-3.09,-2.64,-2.64,-2.64
65.35,0.34,3.00,0.35,3.00,-3.00,-3.33,-3.09,-2.66,-2.66,-2.66
66.01,0.32,2.99,0.32,3.00,-3.00,-3.33,-3.08,-2.68,-2.67,-2.67
66.67,0.30,2.99,0.30,2.99,-2.99,-3.33,-3.07,-2.69,-2.69,-2.69
67.33,0.28,2.98,0.28,2.98,-2.98,-3.33,-3.06,-2.70,-2.70,-2.70
68.01,0.25,2.97,0.25,2.97,-2.97,-3.33,-3.05,-2.72,-2.72,-2.72
68.69,0.23,2.96,0.23,2.96,-2.96,-3.33,-3.03,-2.73,-2.73,-2.73
69.37,0.20,2.95,0.20,2.95,-2.95,-3.32,-3.02,-2.75,-2.75,-2.75
70.07,0.17,2.93,0.18,2.94,-2.94,-3.32,-3.00,-2.77,-2.76,-2.76
70.77,0.15,2.93,0.15,2.93,-2.93,-3.32,-2.98,-2.78,-2.78,-2.78
71.48,0.13,2.93,0.12,2.92,-2.92,-3.32,-2.96,-2.79,-2.80,-2.80
72.19,0.09,2.90,0.10,2.92,-2.92,-3.31,-2.95,-2.83,-2.82,-2.81
72.91,0.07,2.91,0.07,2.91,-2.91,-3.31,-2.93,-2.84,-2.84,-2.84
73.64,0.04,2.90,0.04,2.90,-2.90,-3.31,-2.91,-2.86,-2.86,-2.86
74.38,0.01,2.89,0.01,2.90,-2.90,-3.30,-2.89,-2.88,-2.88,-2.88
75.12,-0.01,2.90,-0.01,2.89,-2.89,-3.30,-2.88,-2.90,-2.90,-2.91
75.87,-0.04,2.89,-0.04,2.89,-2.89,-3.30,-2.86,-2.92,-2.93,-2.93
76.63,-0.07,2.88,-0.07,2.88,-2.88,-3.29,-2.85,-2.95,-2.95,-2.95
77.40,-0.10,2.87,-0.10,2.88,-2.88,-3.29,-2.83,-2.98,-2.98,-2.97
78.17,-0.13,2.88,-0.13,2.88,-2.88,-3.28,-2.82,-3.01,-3.00,-3.01
78.95,-0.15,2.87,-0.15,2.87,-2.87,-3.28,-2.81,-3.02,-3.03,-3.02
79.74,-0.18,2.87,-0.18,2.87,-2.87,-3.27,-2.80,-3.05,-3.06,-3.05
80.54,-0.22,2.86,-0.21,2.87,-2.87,-3.27,-2.79,-3.09,-3.08,-3.08
81.35,-0.24,2.87,-0.24,2.87,-2.87,-3.26,-2.78,-3.11,-3.11,-3.11
82.16,-0.27,2.87,-0.27,2.87,-2.87,-3.26,-2.78,-3.14,-3.14,-3.14
82.98,-0.30,2.87,-0.30,2.87,-2.87,-3.25,-2.77,-3.17,-3.17,-3.17
83.81,-0.33,2.88,-0.33,2.87,-2.87,-3.24,-2.77,-3.20,-3.20,-3.21
84.65,-0.37,2.87,-0.36,2.87,-2.87,-3.24,-2.78,-3.24,-3.23,-3.24
85.50,-0.39,2.87,-0.39,2.87,-2.87,-3.23,-2.78,-3.26,-3.27,-3.26
86.35,-0.42,2.88,-0.42,2.87,-2.87,-3.22,-2.78,-3.29,-3.30,-3.30
87.22,-0.46,2.87,-0.45,2.88,-2.88,-3.22,-2.79,-3.33,-3.33,-3.33
88.09,-0.48,2.89,-0.49,2.88,-2.88,-3.21,-2.80,-3.36,-3.36,-3.37
88.97,-0.52,2.87,-0.52,2.88,-2.88,-3.20,-2.81,-3.40,-3.40,-3.39
89.86,-0.55,2.88,-0.55,2.88,-2.88,-3.20,-2.83,-3.43,-3.43,-3.43
90.76,-0.58,2.89,-0.58,2.88,-2.88,-3.19,-2.84,-3.46,-3.47,-3.47
91.66,-0.62,2.88,-0.61,2.89,-2.89,-3.18,-2.86,-3.50,-3.50,-3.50
92.58,-0.65,2.90,-0.65,2.89,-2.89,-3.17,-2.88,-3.54,-3.54,-3.55
93.51,-0.69,2.88,-0.68,2.89,-2.89,-3.17,-2.90,-3.58,-3.57,-3.56
94.44,-0.71,2.89,-0.71,2.90,-2.90,-3.16,-2.93,-3.61,-3.61,-3.60
95.39,-0.74,2.90,-0.74,2.90,-2.90,-3.15,-2.96,-3.64,-3.65,-3.64
96.34,-0.78,2.91,-0.78,2.91,-2.91,-3.14,-2.98,-3.69,-3.69,-3.69
97.30,-0.81,2.92,-0.81,2.92,-2.92,-3.13,-3.01,-3.73,-3.73,-3.73
98.28,-0.84,2.93,-0.84,2.93,-2.93,-3.13,-3.04,-3.77,-3.77,-3.77
99.26,-0.87,2.95,-0.87,2.94,-2.94,-3.12,-3.08,-3.81,-3.81,-3.81
100.25,-0.90,2.95,-0.90,2.95,-2.95,-3.11,-3.11,-3.85,-3.85,-3.85
101.25,-0.94,2.95,-0.94,2.96,-2.96,-3.10,-3.15,-3.90,-3.89,-3.89
102.27,-0.97,2.97,-0.97,2.97,-2.97,-3.10,-3.18,-3.94,-3.94,-3.94
103.29,-1.00,2.99,-1.00,2.98,-2.98,-3.09,-3.22,-3.98,-3.98,-3.99
104.32,-1.03,3.00,-1.03,3.00,-3.00,-3.08,-3.26,-4.03,-4.03,-4.03
105.37,-1.06,3.01,-1.06,3.01,-3.01,-3.07,-3.29,-4.07,-4.08,-4.07
106.42,-1.10,3.02,-1.10,3.03,-3.03,-3.07,-3.33,-4.13,-4.12,-4.12
107.48,-1.13,3.04,-1.13,3.04,-3.04,-3.06,-3.37,-4.17,-4.17,-4.17
108.56,-1.16,3.06,-1.16,3.06,-3.06,-3.05,-3.41,-4.22,-4.22,-4.22
109.64,-1.19,3.08,-1.19,3.07,-3.07,-3.04,-3.44,-4.26,-4.27,-4.27
110.74,-1.23,3.08,-1.23,3.09,-3.09,-3.04,-3.47,-4.32,-4.32,-4.31
111.85,-1.26,3.10,-1.26,3.11,-3.11,-3.03,-3.51,-4.37,-4.37,-4.36
112.97,-1.29,3.13,-1.29,3.12,-3.12,-3.02,-3.54,-4.41,-4.42,-4.42
114.10,-1.33,3.13,-1.32,3.14,-3.14,-3.02,-3.57,-4.47,-4.46,-4.46
115.24,-1.35,3.16,-1.36,3.16,-3.16,-3.01,-3.59,-4.50,-4.51,-4.51
116.39,-1.39,3.18,-1.39,3.17,-3.17,-3.01,-3.61,-4.56,-4.56,-4.57
117.55,-1.42,3.20,-1.42,3.19,-3.19,-3.00,-3.63,-4.61,-4.61,-4.62
118.73,-1.46,3.20,-1.45,3.20,-3.20,-3.00,-3.65,-4.66,-4.66,-4.66
119.92,-1.49,3.21,-1.49,3.21,-3.21,-2.99,-3.66,-4.70,-4.70,-4.70
121.12,-1.52,3.23,-1.52,3.23,-3.23,-2.99,-3.67,-4.75,-4.75,-4.75
122.33,-1.55,3.24,-1.55,3.24,-3.24,-2.98,-3.67,-4.79,-4.79,-4.79
123.55,-1.59,3.24,-1.58,3.25,-3.25,-2.98,-3.67,-4.84,-4.84,-4.83
124.79,-1.62,3.26,-1.62,3.26,-3.26,-2.97,-3.67,-4.88,-4.88,-4.88
126.03,-1.65,3.26,-1.65,3.27,-3.27,-2.97,-3.66,-4.92,-4.92,-4.91
127.29,-1.68,3.28,-1.68,3.28,-3.28,-2.97,-3.64,-4.96,-4.96,-4.96
128.57,-1.72,3.29,-1.71,3.29,-3.29,-2.97,-3.62,-5.01,-5.00,-5.01
129.85,-1.74,3.30,-1.75,3.29,-3.29,-2.97,-3.60,-5.03,-5.04,-5.04
131.15,-1.78,3.30,-1.78,3.30,-3.30,-2.97,-3.58,-5.08,-5.07,-5.08
132.46,-1.81,3.31,-1.81,3.30,-3.30,-2.97,-3.54,-5.11,-5.11,-5.12
133.79,-1.84,3.30,-1.84,3.30,-3.30,-2.97,-3.51,-5.14,-5.14,-5.14
135.12,-1.88,3.30,-1.88,3.30,-3.30,-2.97,-3.47,-5.18,-5.17,-5.18
136.48,-1.91,3.29,-1.91,3.29,-3.29,-2.97,-3.43,-5.20,-5.20,-5.20
137.84,-1.94,3.28,-1.94,3.29,-3.29,-2.97,-3.39,-5.23,-5.23,-5.22
139.22,-1.97,3.29,-1.97,3.28,-3.28,-2.97,-3.34,-5.25,-5.25,-5.26
140.61,-2.01,3.28,-2.01,3.27,-3.27,-2.97,-3.29,-5.28,-5.28,-5.29
142.02,-2.04,3.25,-2.04,3.26,-3.26,-2.98,-3.24,-5.30,-5.30,-5.29
143.44,-2.08,3.23,-2.07,3.24,-3.24,-2.98,-3.19,-5.32,-5.31,-5.31
144.87,-2.11,3.23,-2.11,3.23,-3.23,-2.99,-3.13,-5.33,-5.33,-5.34
146.32,-2.14,3.21,-2.14,3.21,-3.21,-2.99,-3.08,-5.35,-5.35,-5.35
147.78,-2.17,3.19,-2.17,3.19,-3.19,-3.00,-3.02,-5.36,-5.37,-5.36
149.26,-2.20,3.17,-2.21,3.17,-3.17,-3.00,-2.97,-5.37,-5.38,-5.37
150.75,-2.25,3.15,-2.24,3.15,-3.15,-3.01,-2.91,-5.40,-5.40,-5.40
152.26,-2.28,3.13,-2.28,3.13,-3.13,-3.02,-2.86,-5.41,-5.41,-5.41
153.78,-2.31,3.12,-2.31,3.11,-3.11,-3.02,-2.80,-5.42,-5.43,-5.43
155.32,-2.35,3.09,-2.35,3.09,-3.09,-3.03,-2.74,-5.44,-5.44,-5.44
156.88,-2.39,3.06,-2.38,3.08,-3.08,-3.04,-2.69,-5.46,-5.46,-5.45
158.44,-2.42,3.06,-2.42,3.06,-3.06,-3.04,-2.64,-5.48,-5.47,-5.47
160.03,-2.45,3.05,-2.45,3.04,-3.04,-3.05,-2.58,-5.49,-5.49,-5.50
161.63,-2.50,3.02,-2.49,3.02,-3.02,-3.05,-2.53,-5.52,-5.51,-5.52
163.24,-2.53,3.00,-2.53,3.00,-3.00,-3.06,-2.48,-5.53,-5.52,-5.53
164.88,-2.56,2.98,-2.56,2.98,-2.98,-3.06,-2.43,-5.54,-5.54,-5.54
166.53,-2.60,2.96,-2.60,2.96,-2.96,-3.07,-2.39,-5.56,-5.56,-5.56
168.19,-2.64,2.95,-2.64,2.94,-2.94,-3.07,-2.34,-5.58,-5.58,-5.59
169.87,-2.68,2.92,-2.68,2.93,-2.93,-3.07,-2.29,-5.61,-5.60,-5.60
171.57,-2.71,2.91,-2.71,2.91,-2.91,-3.07,-2.25,-5.62,-5.63,-5.62
173.29,-2.75,2.89,-2.75,2.90,-2.90,-3.06,-2.21,-5.65,-5.65,-5.64
175.02,-2.79,2.88,-2.79,2.88,-2.88,-3.06,-2.17,-5.67,-5.67,-5.66
176.77,-2.83,2.87,-2.83,2.87,-2.87,-3.05,-2.13,-5.70,-5.70,-5.70
178.54,-2.87,2.86,-2.87,2.86,-2.86,-3.04,-2.10,-5.72,-5.72,-5.73
180.32,-2.91,2.84,-2.91,2.84,-2.84,-3.03,-2.06,-5.75,-5.75,-5.75
182.13,-2.95,2.83,-2.95,2.83,-2.83,-3.02,-2.03,-5.78,-5.78,-5.78
183.95,-3.00,2.81,-2.99,2.81,-2.81,-3.00,-2.00,-5.81,-5.81,-5.81
185.79,-3.03,2.80,-3.03,2.80,-2.80,-2.98,-1.97,-5.83,-5.83,-5.83
187.65,-3.07,2.80,-3.08,2.78,-2.78,-2.95,-1.94,-5.85,-5.86,-5.87
189.52,-3.12,2.77,-3.12,2.77,-2.77,-2.93,-1.91,-5.88,-5.88,-5.89
191.42,-3.16,2.75,-3.16,2.75,-2.75,-2.90,-1.89,-5.91,-5.91,-5.91
193.33,-3.20,2.73,-3.20,2.73,-2.73,-2.87,-1.86,-5.93,-5.93,-5.92
195.27,-3.25,2.70,-3.25,2.71,-2.71,-2.83,-1.84,-5.96,-5.95,-5.95
197.22,-3.29,2.68,-3.29,2.69,-2.69,-2.79,-1.82,-5.98,-5.98,-5.97
199.19,-3.33,2.68,-3.33,2.66,-2.66,-2.75,-1.80,-5.99,-5.99,-6.01
201.18,-3.37,2.65,-3.37,2.64,-2.64,-2.71,-1.78,-6.01,-6.01,-6.02
203.19,-3.42,2.61,-3.41,2.62,-2.62,-2.66,-1.76,-6.04,-6.03,-6.03
205.23,-3.46,2.59,-3.45,2.59,-2.59,-2.62,-1.74,-6.05,-6.05,-6.05
207.28,-3.49,2.56,-3.49,2.57,-2.57,-2.57,-1.72,-6.06,-6.06,-6.05
209.35,-3.54,2.54,-3.53,2.55,-2.55,-2.52,-1.71,-6.09,-6.08,-6.08
211.44,-3.57,2.53,-3.57,2.52,-2.52,-2.46,-1.69,-6.09,-6.09,-6.10
213.56,-3.61,2.50,-3.61,2.50,-2.50,-2.41,-1.68,-6.10,-6.10,-6.11
215.69,-3.65,2.45,-3.64,2.47,-2.47,-2.35,-1.66,-6.12,-6.11,-6.10
217.85,-3.69,2.42,-3.68,2.44,-2.44,-2.29,-1.65,-6.13,-6.12,-6.11
220.03,-3.72,2.41,-3.71,2.41,-2.41,-2.24,-1.63,-6.13,-6.12,-6.13
222.23,-3.75,2.39,-3.75,2.37,-2.37,-2.18,-1.62,-6.12,-6.13,-6.14
224.45,-3.79,2.33,-3.79,2.34,-2.34,-2.12,-1.60,-6.13,-6.13,-6.12
226.70,-3.83,2.30,-3.83,2.30,-2.30,-2.06,-1.59,-6.13,-6.13,-6.13
228.96,-3.86,2.27,-3.87,2.25,-2.25,-1.99,-1.57,-6.11,-6.12,-6.13
231.25,-3.91,2.20,-3.91,2.20,-2.20,-1.93,-1.56,-6.11,-6.12,-6.11
233.57,-3.95,2.15,-3.96,2.15,-2.15,-1.87,-1.54,-6.10,-6.11,-6.10
235.90,-4.00,2.10,-4.01,2.09,-2.09,-1.81,-1.52,-6.09,-6.10,-6.10
238.26,-4.05,2.04,-4.06,2.02,-2.02,-1.75,-1.50,-6.07,-6.08,-6.09
240.64,-4.11,1.96,-4.12,1.95,-1.95,-1.68,-1.48,-6.06,-6.07,-6.07
243.05,-4.17,1.88,-4.18,1.87,-1.87,-1.62,-1.46,-6.04,-6.05,-6.05
245.48,-4.24,1.79,-4.24,1.79,-1.79,-1.56,-1.43,-6.03,-6.03,-6.03
247.93,-4.31,1.70,-4.30,1.71,-1.71,-1.50,-1.41,-6.02,-6.01,-6.01
250.41,-4.37,1.63,-4.37,1.62,-1.62,-1.43,-1.38,-5.99,-5.99,-6.00
252.92,-4.44,1.52,-4.44,1.52,-1.52,-1.37,-1.35,-5.96,-5.97,-5.96
255.45,-4.52,1.42,-4.51,1.43,-1.43,-1.31,-1.32,-5.95,-5.94,-5.94
258.00,-4.59,1.32,-4.59,1.33,-1.33,-1.24,-1.29,-5.92,-5.92,-5.91
260.58,-4.66,1.24,-4.66,1.23,-1.23,-1.18,-1.26,-5.89,-5.89,-5.90
263.19,-4.74,1.13,-4.73,1.13,-1.13,-1.11,-1.23,-5.87,-5.87,-5.87
265.82,-4.81,1.03,-4.81,1.03,-1.03,-1.05,-1.19,-5.84,-5.84,-5.84
268.48,-4.88,0.94,-4.88,0.94,-0.94,-0.98,-1.15,-5.81,-5.82,-5.82
271.16,-4.95,0.83,-4.95,0.84,-0.84,-0.92,-1.12,-5.79,-5.79,-5.78
273.87,-5.03,0.73,-5.02,0.74,-0.74,-0.85,-1.08,-5.77,-5.76,-5.76
276.61,-5.10,0.63,-5.10,0.64,-0.64,-0.78,-1.04,-5.74,-5.74,-5.73
279.38,-5.16,0.55,-5.17,0.54,-0.54,-0.72,-0.99,-5.70,-5.71,-5.71
282.17,-5.24,0.44,-5.24,0.45,-0.45,-0.65,-0.95,-5.69,-5.68,-5.68
284.99,-5.31,0.35,-5.30,0.35,-0.35,-0.58,-0.91,-5.66,-5.65,-5.66
287.84,-5.38,0.25,-5.37,0.25,-0.25,-0.51,-0.86,-5.63,-5.63,-5.63
290.72,-5.43,0.16,-5.44,0.16,-0.16,-0.43,-0.82,-5.59,-5.59,-5.59
293.63,-5.50,0.07,-5.50,0.06,-0.06,-0.36,-0.77,-5.56,-5.56,-5.57
296.57,-5.57,-0.03,-5.57,-0.03,0.03,-0.28,-0.72,-5.54,-5.53,-5.54
299.53,-5.63,-0.12,-5.63,-0.13,0.13,-0.21,-0.68,-5.50,-5.50,-5.51
302.53,-5.69,-0.21,-5.69,-0.22,0.22,-0.13,-0.63,-5.47,-5.47,-5.48
305.55,-5.75,-0.32,-5.75,-0.31,0.31,-0.05,-0.58,-5.44,-5.44,-5.43
308.61,-5.80,-0.39,-5.80,-0.40,0.40,0.03,-0.53,-5.40,-5.40,-5.41
311.69,-5.86,-0.49,-5.86,-0.49,0.49,0.12,-0.48,-5.37,-5.37,-5.37
314.81,-5.91,-0.58,-5.91,-0.57,0.57,0.20,-0.43,-5.34,-5.34,-5.33
317.96,-5.96,-0.66,-5.96,-0.65,0.65,0.29,-0.38,-5.31,-5.31,-5.30
321.14,-6.00,-0.73,-6.00,-0.73,0.73,0.38,-0.33,-5.27,-5.27,-5.27
324.35,-6.05,-0.80,-6.04,-0.80,0.80,0.47,-0.28,-5.25,-5.24,-5.24
327.59,-6.09,-0.88,-6.07,-0.86,0.86,0.57,-0.23,-5.23,-5.21,-5.21
330.87,-6.12,-0.94,-6.11,-0.92,0.92,0.66,-0.17,-5.20,-5.18,-5.18
334.18,-6.16,-1.00,-6.14,-0.98,0.98,0.76,-0.12,-5.18,-5.16,-5.16
337.52,-6.18,-1.05,-6.17,-1.04,1.04,0.86,-0.07,-5.14,-5.13,-5.13
340.90,-6.20,-1.10,-6.20,-1.09,1.09,0.96,-0.02,-5.11,-5.11,-5.10
344.30,-6.23,-1.15,-6.23,-1.14,1.14,1.05,0.04,-5.08,-5.08,-5.08
347.75,-6.24,-1.18,-6.26,-1.20,1.20,1.15,0.09,-5.04,-5.06,-5.06
351.23,-6.25,-1.21,-6.29,-1.25,1.25,1.25,0.14,-5.00,-5.04,-5.04
354.74,-6.27,-1.25,-6.32,-1.30,1.30,1.35,0.20,-4.97,-5.02,-5.02
358.28,-6.32,-1.32,-6.35,-1.35,1.35,1.44,0.25,-4.97,-5.00,-5.00
361.87,-6.37,-1.39,-6.38,-1.40,1.40,1.54,0.30,-4.97,-4.98,-4.98
365.49,-6.42,-1.47,-6.41,-1.45,1.45,1.62,0.36,-4.97,-4.96,-4.95
369.14,-6.45,-1.51,-6.44,-1.50,1.50,1.71,0.41,-4.95,-4.94,-4.94
372.83,-6.49,-1.57,-6.47,-1.55,1.55,1.78,0.47,-4.94,-4.92,-4.92
376.56,-6.51,-1.61,-6.50,-1.60,1.60,1.85,0.52,-4.91,-4.90,-4.90
380.33,-6.54,-1.66,-6.52,-1.64,1.64,1.92,0.58,-4.90,-4.88,-4.87
384.13,-6.55,-1.69,-6.54,-1.68,1.68,1.97,0.63,-4.86,-4.86,-4.86
387.97,-6.57,-1.73,-6.56,-1.72,1.72,2.01,0.69,-4.85,-4.84,-4.84
391.85,-6.57,-1.75,-6.57,-1.76,1.76,2.05,0.74,-4.81,-4.81,-4.82
395.77,-6.58,-1.79,-6.58,-1.78,1.78,2.07,0.80,-4.80,-4.79,-4.79
399.73,-6.57,-1.80,-6.58,-1.81,1.81,2.08,0.85,-4.76,-4.77,-4.77
403.72,-6.57,-1.82,-6.58,-1.83,1.83,2.08,0.90,-4.74,-4.75,-4.75
407.76,-6.57,-1.84,-6.57,-1.84,1.84,2.07,0.96,-4.73,-4.73,-4.73
411.84,-6.56,-1.86,-6.56,-1.86,1.86,2.05,1.01,-4.70,-4.70,-4.70
415.96,-6.53,-1.85,-6.55,-1.87,1.87,2.02,1.06,-4.66,-4.68,-4.68
420.12,-6.52,-1.86,-6.53,-1.87,1.87,1.98,1.11,-4.65,-4.66,-4.66
424.32,-6.50,-1.87,-6.51,-1.87,1.87,1.93,1.16,-4.63,-4.64,-4.63
428.56,-6.47,-1.86,-6.48,-1.86,1.86,1.88,1.21,-4.61,-4.61,-4.61
432.85,-6.45,-1.86,-6.44,-1.85,1.85,1.82,1.25,-4.60,-4.59,-4.59
437.18,-6.41,-1.84,-6.39,-1.83,1.83,1.75,1.30,-4.58,-4.56,-4.56
441.55,-6.37,-1.83,-6.34,-1.80,1.80,1.68,1.34,-4.57,-4.54,-4.54
