frequency,raw
20.00,3.61
20.20,3.65
20.40,3.70
20.61,3.74
20.81,3.79
21.02,3.83
21.23,3.88
21.44,3.93
21.66,3.98
21.87,4.02
22.09,4.07
22.31,4.12
22.54,4.16
22.76,4.21
22.99,4.26
23.22,4.30
23.45,4.35
23.69,4.40
23.92,4.44
24.16,4.49
24.40,4.53
24.65,4.58
24.89,4.62
25.14,4.67
25.39,4.71
25.65,4.76
25.91,4.80
26.16,4.85
26.43,4.89
26.69,4.94
26.96,4.98
27.23,5.02
27.50,5.07
27.77,5.11
28.05,5.15
28.33,5.19
28.62,5.23
28.90,5.28
29.19,5.32
29.48,5.35
29.78,5.39
30.08,5.43
30.38,5.47
30.68,5.51
30.99,5.55
31.30,5.58
31.61,5.61
31.93,5.64
32.24,5.67
32.57,5.70
32.89,5.73
33.22,5.76
33.55,5.78
33.89,5.81
34.23,5.84
34.57,5.86
34.92,5.88
35.27,5.91
35.62,5.93
35.97,5.96
36.33,5.99
36.70,6.02
37.06,6.04
37.43,6.07
37.81,6.10
38.19,6.13
38.57,6.16
38.95,6.19
39.34,6.21
39.74,6.24
40.14,6.27
40.54,6.29
40.94,6.31
41.35,6.33
41.76,6.36
42.18,6.38
42.60,6.40
43.03,6.42
43.46,6.44
43.90,6.46
44.33,6.48
44.78,6.51
45.23,6.53
45.68,6.55
46.13,6.58
46.60,6.60
47.06,6.62
47.53,6.65
48.01,6.67
48.49,6.69
48.97,6.71
49.46,6.73
49.96,6.75
50.46,6.77
50.96,6.79
51.47,6.80
51.99,6.82
52.51,6.84
53.03,6.85
53.56,6.86
54.10,6.87
54.64,6.88
55.18,6.89
55.74,6.90
56.29,6.91
56.86,6.91
57.42,6.91
58.00,6.92
58.58,6.93
59.16,6.93
59.76,6.94
60.35,6.94
60.96,6.95
61.57,6.96
62.18,6.97
62.80,6.98
63.43,7.00
64.07,7.02
64.71,7.05
65.35,7.07
66.01,7.09
66.67,7.12
67.33,7.14
68.01,7.16
68.69,7.18
69.37,7.20
70.07,7.22
70.77,7.24
71.48,7.25
72.19,7.26
72.91,7.27
73.64,7.28
74.38,7.28
75.12,7.27
75.87,7.26
76.63,7.25
77.40,7.25
78.17,7.25
78.95,7.25
79.74,7.25
80.54,7.25
81.35,7.25
82.16,7.25
82.98,7.25
83.81,7.25
84.65,7.25
85.50,7.25
86.35,7.25
87.22,7.25
88.09,7.25
88.97,7.25
89.86,7.25
90.76,7.25
91.66,7.25
92.58,7.25
93.51,7.25
94.44,7.25
95.39,7.25
96.34,7.25
97.30,7.25
98.28,7.25
99.26,7.25
100.25,7.25
101.25,7.25
102.27,7.25
103.29,7.25
104.32,7.25
105.37,7.25
106.42,7.25
107.48,7.25
108.56,7.25
109.64,7.25
110.74,7.25
111.85,7.26
112.97,7.26
114.10,7.27
115.24,7.27
116.39,7.26
117.55,7.25
118.73,7.24
119.92,7.21
121.12,7.18
122.33,7.16
123.55,7.13
124.79,7.09
126.03,7.05
127.29,7.02
128.57,6.99
129.85,6.96
131.15,6.94
132.46,6.93
133.79,6.91
135.12,6.91
136.48,6.91
137.84,6.92
139.22,6.92
140.61,6.93
142.02,6.93
143.44,6.93
144.87,6.93
146.32,6.93
147.78,6.93
149.26,6.93
150.75,6.93
152.26,6.93
153.78,6.93
155.32,6.93
156.88,6.93
158.44,6.93
160.03,6.93
161.63,6.93
163.24,6.93
164.88,6.93
166.53,6.93
168.19,6.93
169.87,6.93
171.57,6.93
173.29,6.93
175.02,6.94
176.77,6.95
178.54,6.95
180.32,6.94
182.13,6.93
183.95,6.91
185.79,6.88
187.65,6.86
189.52,6.83
191.42,6.80
193.33,6.76
195.27,6.73
197.22,6.70
199.19,6.67
201.18,6.64
203.19,6.62
205.23,6.60
207.28,6.58
209.35,6.58
211.44,6.59
213.56,6.59
215.69,6.60
217.85,6.60
220.03,6.60
222.23,6.59
224.45,6.59
226.70,6.58
228.96,6.58
231.25,6.59
233.57,6.61
235.90,6.63
238.26,6.65
240.64,6.67
243.05,6.71
245.48,6.74
247.93,6.79
250.41,6.81
252.92,6.85
255.45,6.87
258.00,6.90
260.58,6.93
263.19,6.94
265.82,6.95
268.48,6.95
271.16,6.94
273.87,6.93
276.61,6.93
279.38,6.93
282.17,6.93
284.99,6.93
287.84,6.93
290.72,6.93
293.63,6.93
296.57,6.93
299.53,6.94
302.53,6.95
305.55,6.95
308.61,6.94
311.69,6.92
314.81,6.91
317.96,6.88
321.14,6.85
324.35,6.82
327.59,6.78
330.87,6.75
334.18,6.71
337.52,6.67
340.90,6.65
344.30,6.62
347.75,6.61
351.23,6.59
354.74,6.58
358.28,6.59
361.87,6.60
365.49,6.62
369.14,6.62
372.83,6.61
376.56,6.60
380.33,6.58
384.13,6.56
387.97,6.54
391.85,6.50
395.77,6.47
399.73,6.44
403.72,6.42
407.76,6.39
411.84,6.36
415.96,6.33
420.12,6.29
424.32,6.26
428.56,6.22
432.85,6.20
437.18,6.17
441.55,6.16
445.96,6.12
450.42,6.08
454.93,6.03
459.48,5.97
464.07,5.93
468.71,5.88
473.40,5.84
478.13,5.79
482.91,5.74
487.74,5.70
492.62,5.65
497.55,5.62
502.52,5.57
507.55,5.52
512.62,5.47
517.75,5.42
522.93,5.38
528.16,5.34
533.44,5.29
538.77,5.23
544.16,5.17
549.60,5.11
555.10,5.05
560.65,4.99
566.25,4.93
571.92,4.86
577.64,4.80
583.41,4.73
589.25,4.66
595.14,4.59
601.09,4.52
607.10,4.46
613.17,4.39
619.30,4.31
625.50,4.22
631.75,4.14
638.07,4.05
644.45,3.97
650.89,3.87
657.40,3.77
663.98,3.68
670.62,3.59
677.32,3.50
684.10,3.41
690.94,3.32
697.85,3.22
704.83,3.13
711.87,3.04
718.99,2.97
726.18,2.88
733.44,2.78
740.78,2.69
748.19,2.61
755.67,2.53
763.23,2.44
770.86,2.37
778.57,2.29
786.35,2.22
794.22,2.14
802.16,2.07
810.18,2.00
818.28,1.93
826.46,1.86
834.73,1.80
843.08,1.72
851.51,1.63
860.02,1.56
868.62,1.48
877.31,1.38
886.08,1.29
894.94,1.19
903.89,1.09
912.93,0.99
922.06,0.88
931.28,0.76
940.59,0.66
950.00,0.54
959.50,0.44
969.09,0.32
978.78,0.21
988.57,0.11
998.46,0.02
1008.44,-0.08
1018.53,-0.18
1028.71,-0.27
1039.00,-0.35
1049.39,-0.43
1059.88,-0.52
1070.48,-0.60
1081.19,-0.66
1092.00,-0.74
1102.92,-0.82
1113.95,-0.90
1125.09,-0.97
1136.34,-1.04
1147.70,-1.12
1159.18,-1.18
1170.77,-1.25
1182.48,-1.32
1194.30,-1.38
1206.25,-1.45
1218.31,-1.51
1230.49,-1.57
1242.80,-1.61
1255.22,-1.67
1267.78,-1.73
1280.45,-1.78
1293.26,-1.83
1306.19,-1.86
1319.25,-1.91
1332.45,-1.96
1345.77,-2.02
1359.23,-2.08
1372.82,-2.13
1386.55,-2.18
1400.41,-2.23
1414.42,-2.28
1428.56,-2.34
1442.85,-2.38
1457.28,-2.42
1471.85,-2.45
1486.57,-2.47
1501.43,-2.48
1516.45,-2.49
1531.61,-2.50
1546.93,-2.50
1562.40,-2.50
1578.02,-2.50
1593.80,-2.50
1609.74,-2.50
1625.84,-2.50
1642.10,-2.50
1658.52,-2.49
1675.10,-2.47
1691.85,-2.44
1708.77,-2.40
1725.86,-2.35
1743.12,-2.29
1760.55,-2.23
1778.15,-2.15
1795.94,-2.05
1813.90,-1.94
1832.03,-1.83
1850.36,-1.71
1868.86,-1.60
1887.55,-1.47
1906.42,-1.34
1925.49,-1.20
1944.74,-1.05
1964.19,-0.88
1983.83,-0.70
2003.67,-0.51
2023.71,-0.31
2043.94,-0.12
2064.38,0.08
2085.03,0.28
2105.88,0.48
2126.94,0.68
2148.20,0.88
2169.69,1.07
2191.38,1.27
2213.30,1.44
2235.43,1.61
2257.78,1.77
2280.36,1.93
2303.17,2.08
2326.20,2.23
2349.46,2.38
2372.95,2.52
2396.68,2.65
2420.65,2.78
2444.86,2.90
2469.31,3.01
2494.00,3.11
2518.94,3.20
2544.13,3.29
2569.57,3.36
2595.27,3.42
2621.22,3.49
2647.43,3.56
2673.90,3.62
2700.64,3.68
2727.65,3.73
2754.93,3.78
2782.48,3.83
2810.30,3.87
2838.40,3.90
2866.79,3.93
2895.46,3.96
2924.41,3.98
2953.65,4.00
2983.19,4.03
3013.02,4.06
3043.15,4.09
3073.58,4.12
3104.32,4.14
3135.36,4.17
3166.72,4.20
3198.38,4.22
3230.37,4.25
3262.67,4.27
3295.30,4.30
3328.25,4.33
3361.53,4.37
3395.15,4.40
3429.10,4.43
3463.39,4.45
3498.03,4.48
3533.01,4.51
3568.34,4.54
3604.02,4.57
3640.06,4.60
3676.46,4.63
3713.22,4.66
3750.36,4.67
3787.86,4.68
3825.74,4.68
3864.00,4.67
3902.64,4.66
3941.66,4.65
3981.08,4.64
4020.89,4.63
4061.10,4.64
4101.71,4.65
4142.73,4.66
4184.15,4.68
4226.00,4.70
4268.26,4.72
4310.94,4.75
4354.05,4.79
4397.59,4.83
4441.56,4.89
4485.98,4.94
4530.84,5.00
4576.15,5.06
4621.91,5.13
4668.13,5.22
4714.81,5.32
4761.96,5.42
4809.58,5.54
4857.67,5.66
4906.25,5.81
4955.31,5.97
5004.87,6.13
5054.91,6.30
5105.46,6.48
5156.52,6.66
5208.08,6.85
5260.16,7.03
5312.77,7.20
5365.89,7.36
5419.55,7.51
5473.75,7.63
5528.49,7.71
5583.77,7.78
5639.61,7.82
5696.00,7.85
5752.96,7.86
5810.49,7.84
5868.60,7.78
5927.28,7.70
5986.56,7.59
6046.42,7.46
6106.89,7.30
6167.96,7.11
6229.64,6.89
6291.93,6.65
6354.85,6.36
6418.40,6.04
6482.58,5.70
6547.41,5.30
6612.88,4.84
6679.01,4.32
6745.80,3.75
6813.26,3.14
6881.39,2.51
6950.21,1.85
7019.71,1.17
7089.91,0.49
7160.81,-0.21
7232.41,-0.90
7304.74,-1.57
7377.79,-2.23
7451.56,-2.85
7526.08,-3.43
7601.34,-4.00
7677.35,-4.54
7754.13,-5.03
7831.67,-5.49
7909.98,-5.92
7989.08,-6.35
8068.98,-6.78
8149.67,-7.16
8231.16,-7.53
8313.47,-7.87
8396.61,-8.19
8480.57,-8.50
8565.38,-8.79
8651.03,-9.04
8737.54,-9.27
8824.92,-9.47
8913.17,-9.66
9002.30,-9.82
9092.32,-9.98
9183.25,-10.10
9275.08,-10.22
9367.83,-10.31
9461.51,-10.38
9556.12,-10.43
9651.68,-10.46
9748.20,-10.47
9845.68,-10.45
9944.14,-10.38
10043.58,-10.27
10144.02,-10.15
10245.46,-10.00
10347.91,-9.82
10451.39,-9.62
10555.91,-9.38
10661.46,-9.14
10768.08,-8.92
10875.76,-8.71
10984.52,-8.52
11094.36,-8.36
11205.31,-8.24
11317.36,-8.15
11430.53,-8.10
11544.84,-8.09
11660.29,-8.11
11776.89,-8.17
11894.66,-8.23
12013.60,-8.34
12133.74,-8.45
12255.08,-8.60
12377.63,-8.79
12501.41,-8.99
12626.42,-9.25
12752.68,-9.57
12880.21,-9.94
13009.01,-10.40
13139.10,-10.95
13270.49,-11.58
13403.20,-12.29
13537.23,-13.08
13672.60,-13.91
13809.33,-14.80
13947.42,-15.72
14086.90,-16.65
14227.77,-17.58
14370.04,-18.46
14513.74,-19.29
14658.88,-20.08
14805.47,-20.81
14953.52,-21.46
15103.06,-22.03
15254.09,-22.51
15406.63,-22.91
15560.70,-23.22
15716.30,-23.40
15873.47,-23.47
16032.20,-23.42
16192.52,-23.23
16354.45,-22.90
16517.99,-22.46
16683.17,-21.92
16850.01,-21.30
17018.51,-20.63
17188.69,-19.93
17360.58,-19.21
17534.18,-18.51
17709.53,-17.86
17886.62,-17.25
18065.49,-16.72
18246.14,-16.30
18428.60,-15.95
18612.89,-15.65
18799.02,-15.42
18987.01,-15.25
19176.88,-15.13
19368.65,-15.08
19562.33,-15.08
19757.96,-15.13
19955.54,-15.25
