frequency,raw
20.00,-10.85
20.20,-10.81
20.40,-10.76
20.61,-10.69
20.81,-10.63
21.02,-10.56
21.23,-10.50
21.44,-10.44
21.66,-10.38
21.87,-10.32
22.09,-10.26
22.31,-10.21
22.54,-10.16
22.76,-10.09
22.99,-10.01
23.22,-9.92
23.45,-9.84
23.69,-9.75
23.92,-9.64
24.16,-9.53
24.40,-9.42
24.65,-9.31
24.89,-9.23
25.14,-9.14
25.39,-9.05
25.65,-8.97
25.91,-8.90
26.16,-8.80
26.43,-8.74
26.69,-8.66
26.96,-8.57
27.23,-8.51
27.50,-8.40
27.77,-8.34
28.05,-8.23
28.33,-8.13
28.62,-8.05
28.90,-7.95
29.19,-7.84
29.48,-7.78
29.78,-7.67
30.08,-7.60
30.38,-7.51
30.68,-7.43
30.99,-7.35
31.30,-7.26
31.61,-7.18
31.93,-7.09
32.24,-7.03
32.57,-6.95
32.89,-6.88
33.22,-6.82
33.55,-6.76
33.89,-6.70
34.23,-6.63
34.57,-6.55
34.92,-6.49
35.27,-6.42
35.62,-6.32
35.97,-6.25
36.33,-6.16
36.70,-6.09
37.06,-6.01
37.43,-5.95
37.81,-5.88
38.19,-5.81
38.57,-5.74
38.95,-5.66
39.34,-5.59
39.74,-5.49
40.14,-5.43
40.54,-5.33
40.94,-5.28
41.35,-5.20
41.76,-5.13
42.18,-5.09
42.60,-5.03
43.03,-4.98
43.46,-4.93
43.90,-4.90
44.33,-4.84
44.78,-4.81
45.23,-4.75
45.68,-4.69
46.13,-4.63
46.60,-4.55
47.06,-4.48
47.53,-4.40
48.01,-4.33
48.49,-4.27
48.97,-4.21
49.46,-4.18
49.96,-4.13
50.46,-4.11
50.96,-4.08
51.47,-4.04
51.99,-4.02
52.51,-3.97
53.03,-3.92
53.56,-3.88
54.10,-3.83
54.64,-3.78
55.18,-3.74
55.74,-3.69
56.29,-3.64
56.86,-3.60
57.42,-3.54
58.00,-3.48
58.58,-3.44
59.16,-3.38
59.76,-3.34
60.35,-3.30
60.96,-3.24
61.57,-3.19
62.18,-3.14
62.80,-3.10
63.43,-3.05
64.07,-2.99
64.71,-2.95
65.35,-2.91
66.01,-2.88
66.67,-2.83
67.33,-2.82
68.01,-2.78
68.69,-2.74
69.37,-2.72
70.07,-2.69
70.77,-2.64
71.48,-2.61
72.19,-2.57
72.91,-2.54
73.64,-2.50
74.38,-2.46
75.12,-2.45
75.87,-2.41
76.63,-2.39
77.40,-2.36
78.17,-2.32
78.95,-2.27
79.74,-2.24
80.54,-2.20
81.35,-2.18
82.16,-2.13
82.98,-2.09
83.81,-2.06
84.65,-2.04
85.50,-2.00
86.35,-1.99
87.22,-1.96
88.09,-1.95
88.97,-1.95
89.86,-1.90
90.76,-1.90
91.66,-1.90
92.58,-1.88
93.51,-1.85
94.44,-1.85
95.39,-1.85
96.34,-1.82
97.30,-1.81
98.28,-1.81
99.26,-1.81
100.25,-1.76
101.25,-1.76
102.27,-1.76
103.29,-1.76
104.32,-1.73
105.37,-1.71
106.42,-1.71
107.48,-1.71
108.56,-1.71
109.64,-1.67
110.74,-1.67
111.85,-1.67
112.97,-1.67
114.10,-1.67
115.24,-1.67
116.39,-1.69
117.55,-1.67
118.73,-1.67
119.92,-1.67
121.12,-1.67
122.33,-1.67
123.55,-1.62
124.79,-1.62
126.03,-1.62
127.29,-1.62
128.57,-1.62
129.85,-1.62
131.15,-1.62
132.46,-1.62
133.79,-1.62
135.12,-1.62
136.48,-1.62
137.84,-1.62
139.22,-1.62
140.61,-1.62
142.02,-1.62
143.44,-1.62
144.87,-1.67
146.32,-1.67
147.78,-1.67
149.26,-1.67
150.75,-1.71
152.26,-1.71
153.78,-1.71
155.32,-1.75
156.88,-1.76
158.44,-1.76
160.03,-1.76
161.63,-1.76
163.24,-1.78
164.88,-1.78
166.53,-1.78
168.19,-1.78
169.87,-1.78
171.57,-1.76
173.29,-1.76
175.02,-1.76
176.77,-1.76
178.54,-1.76
180.32,-1.76
182.13,-1.76
183.95,-1.72
185.79,-1.71
187.65,-1.71
189.52,-1.71
191.42,-1.71
193.33,-1.71
195.27,-1.71
197.22,-1.71
199.19,-1.72
201.18,-1.76
203.19,-1.76
205.23,-1.79
207.28,-1.81
209.35,-1.83
211.44,-1.85
213.56,-1.89
215.69,-1.92
217.85,-1.95
220.03,-2.00
222.23,-2.04
224.45,-2.09
226.70,-2.13
228.96,-2.18
231.25,-2.23
233.57,-2.28
235.90,-2.34
238.26,-2.39
240.64,-2.43
243.05,-2.48
245.48,-2.53
247.93,-2.56
250.41,-2.62
252.92,-2.64
255.45,-2.68
258.00,-2.69
260.58,-2.74
263.19,-2.75
265.82,-2.78
268.48,-2.78
271.16,-2.81
273.87,-2.83
276.61,-2.83
279.38,-2.83
282.17,-2.83
284.99,-2.85
287.84,-2.85
290.72,-2.88
293.63,-2.88
296.57,-2.88
299.53,-2.88
302.53,-2.88
305.55,-2.88
308.61,-2.88
311.69,-2.88
314.81,-2.88
317.96,-2.85
321.14,-2.85
324.35,-2.83
327.59,-2.83
330.87,-2.83
334.18,-2.83
337.52,-2.83
340.90,-2.83
344.30,-2.79
347.75,-2.78
351.23,-2.78
354.74,-2.78
358.28,-2.78
361.87,-2.75
365.49,-2.74
369.14,-2.74
372.83,-2.74
376.56,-2.71
380.33,-2.69
384.13,-2.69
387.97,-2.66
391.85,-2.64
395.77,-2.64
399.73,-2.60
403.72,-2.60
407.76,-2.60
411.84,-2.55
415.96,-2.55
420.12,-2.55
424.32,-2.55
428.56,-2.53
432.85,-2.50
437.18,-2.50
441.55,-2.50
445.96,-2.50
450.42,-2.47
454.93,-2.46
459.48,-2.46
464.07,-2.42
468.71,-2.41
473.40,-2.38
478.13,-2.36
482.91,-2.36
487.74,-2.32
492.62,-2.32
497.55,-2.27
502.52,-2.27
507.55,-2.23
512.62,-2.23
517.75,-2.19
522.93,-2.18
528.16,-2.15
533.44,-2.13
538.77,-2.12
544.16,-2.09
549.60,-2.07
555.10,-2.04
560.65,-2.01
566.25,-1.99
571.92,-1.96
577.64,-1.95
583.41,-1.91
589.25,-1.90
595.14,-1.85
601.09,-1.84
607.10,-1.81
613.17,-1.78
619.30,-1.76
625.50,-1.72
631.75,-1.71
638.07,-1.67
644.45,-1.63
650.89,-1.60
657.40,-1.57
663.98,-1.53
670.62,-1.50
677.32,-1.48
684.10,-1.44
690.94,-1.41
697.85,-1.38
704.83,-1.34
711.87,-1.29
718.99,-1.26
726.18,-1.22
733.44,-1.17
740.78,-1.14
748.19,-1.11
755.67,-1.06
763.23,-1.03
770.86,-0.99
778.57,-0.94
786.35,-0.90
794.22,-0.86
802.16,-0.81
810.18,-0.77
818.28,-0.72
826.46,-0.69
834.73,-0.64
843.08,-0.60
851.51,-0.57
860.02,-0.51
868.62,-0.48
877.31,-0.45
886.08,-0.41
894.94,-0.37
903.89,-0.34
912.93,-0.30
922.06,-0.27
931.28,-0.22
940.59,-0.21
950.00,-0.18
959.50,-0.13
969.09,-0.10
978.78,-0.08
988.57,-0.04
998.46,-0.00
1008.44,0.01
1018.53,0.06
1028.71,0.06
1039.00,0.10
1049.39,0.10
1059.88,0.10
1070.48,0.15
1081.19,0.15
1092.00,0.15
1102.92,0.19
1113.95,0.20
1125.09,0.21
1136.34,0.24
1147.70,0.27
1159.18,0.30
1170.77,0.33
1182.48,0.36
1194.30,0.39
1206.25,0.43
1218.31,0.48
1230.49,0.48
1242.80,0.52
1255.22,0.52
1267.78,0.56
1280.45,0.57
1293.26,0.61
1306.19,0.65
1319.25,0.68
1332.45,0.71
1345.77,0.77
1359.23,0.82
1372.82,0.85
1386.55,0.91
1400.41,0.94
1414.42,0.97
1428.56,1.02
1442.85,1.06
1457.28,1.08
1471.85,1.08
1486.57,1.08
1501.43,1.08
1516.45,1.08
1531.61,1.08
1546.93,1.03
1562.40,1.03
1578.02,1.03
1593.80,1.03
1609.74,1.08
1625.84,1.08
1642.10,1.08
1658.52,1.08
1675.10,1.08
1691.85,1.08
1708.77,1.08
1725.86,1.06
1743.12,1.03
1760.55,1.03
1778.15,0.99
1795.94,0.99
1813.90,0.95
1832.03,0.94
1850.36,0.89
1868.86,0.86
1887.55,0.85
1906.42,0.80
1925.49,0.80
1944.74,0.75
1964.19,0.75
1983.83,0.75
2003.67,0.75
2023.71,0.75
2043.94,0.78
2064.38,0.85
2085.03,0.91
2105.88,1.02
2126.94,1.13
2148.20,1.27
2169.69,1.39
2191.38,1.55
2213.30,1.68
2235.43,1.83
2257.78,1.97
2280.36,2.12
2303.17,2.23
2326.20,2.39
2349.46,2.51
2372.95,2.65
2396.68,2.81
2420.65,2.95
2444.86,3.12
2469.31,3.29
2494.00,3.48
2518.94,3.66
2544.13,3.85
2569.57,4.04
2595.27,4.22
2621.22,4.41
2647.43,4.60
2673.90,4.80
2700.64,5.00
2727.65,5.22
2754.93,5.45
2782.48,5.72
2810.30,5.95
2838.40,6.20
2866.79,6.44
2895.46,6.63
2924.41,6.81
2953.65,6.97
2983.19,7.07
3013.02,7.14
3043.15,7.18
3073.58,7.14
3104.32,7.07
3135.36,6.99
3166.72,6.90
3198.38,6.79
3230.37,6.69
3262.67,6.59
3295.30,6.51
3328.25,6.46
3361.53,6.40
3395.15,6.39
3429.10,6.39
3463.39,6.44
3498.03,6.49
3533.01,6.55
3568.34,6.64
3604.02,6.73
3640.06,6.84
3676.46,6.98
3713.22,7.14
3750.36,7.28
3787.86,7.47
3825.74,7.65
3864.00,7.84
3902.64,8.01
3941.66,8.19
3981.08,8.37
4020.89,8.53
4061.10,8.66
4101.71,8.82
4142.73,8.94
4184.15,9.06
4226.00,9.16
4268.26,9.27
4310.94,9.36
4354.05,9.47
4397.59,9.58
4441.56,9.68
4485.98,9.84
4530.84,9.98
4576.15,10.17
4621.91,10.33
4668.13,10.46
4714.81,10.57
4761.96,10.65
4809.58,10.59
4857.67,10.49
4906.25,10.31
4955.31,10.11
5004.87,9.87
5054.91,9.67
5105.46,9.47
5156.52,9.35
5208.08,9.27
5260.16,9.31
5312.77,9.41
5365.89,9.57
5419.55,9.74
5473.75,9.91
5528.49,10.06
5583.77,10.23
5639.61,10.34
5696.00,10.44
5752.96,10.51
5810.49,10.58
5868.60,10.68
5927.28,10.78
5986.56,10.85
6046.42,10.93
6106.89,10.94
6167.96,10.86
6229.64,10.65
6291.93,10.37
6354.85,9.94
6418.40,9.42
6482.58,8.82
6547.41,8.14
6612.88,7.43
6679.01,6.64
6745.80,5.88
6813.26,5.11
6881.39,4.33
6950.21,3.57
7019.71,2.81
7089.91,2.03
7160.81,1.27
7232.41,0.55
7304.74,-0.16
7377.79,-0.74
7451.56,-1.23
7526.08,-1.60
7601.34,-1.83
7677.35,-1.95
7754.13,-1.91
7831.67,-1.85
7909.98,-1.81
7989.08,-1.82
8068.98,-1.90
8149.67,-1.94
8231.16,-1.99
8313.47,-1.88
8396.61,-1.71
8480.57,-1.44
8565.38,-1.07
8651.03,-0.68
8737.54,-0.28
8824.92,0.10
8913.17,0.36
9002.30,0.53
9092.32,0.50
9183.25,0.35
9275.08,0.12
9367.83,-0.15
9461.51,-0.45
9556.12,-0.80
9651.68,-1.08
9748.20,-1.35
9845.68,-1.53
9944.14,-1.67
10043.58,-1.74
10144.02,-1.80
10245.46,-1.81
10347.91,-1.86
10451.39,-1.91
10555.91,-2.02
10661.46,-2.13
10768.08,-2.26
10875.76,-2.41
10984.52,-2.51
11094.36,-2.61
11205.31,-2.62
11317.36,-2.52
11430.53,-2.39
11544.84,-2.18
11660.29,-1.93
11776.89,-1.65
11894.66,-1.34
12013.60,-1.06
12133.74,-0.77
12255.08,-0.55
12377.63,-0.34
12501.41,-0.21
12626.42,-0.13
12752.68,-0.20
12880.21,-0.41
13009.01,-0.72
13139.10,-1.18
13270.49,-1.74
13403.20,-2.38
13537.23,-3.17
13672.60,-3.99
13809.33,-4.91
13947.42,-5.90
14086.90,-7.03
14227.77,-8.25
14370.04,-9.55
14513.74,-10.86
14658.88,-12.06
14805.47,-13.06
14953.52,-13.80
15103.06,-14.24
15254.09,-14.13
15406.63,-13.58
15560.70,-12.80
15716.30,-11.80
15873.47,-10.69
16032.20,-9.61
16192.52,-8.64
16354.45,-7.86
16517.99,-7.31
16683.17,-6.97
16850.01,-6.91
17018.51,-7.20
17188.69,-7.64
17360.58,-8.24
17534.18,-8.92
17709.53,-9.68
17886.62,-10.40
18065.49,-11.08
18246.14,-11.74
18428.60,-12.30
18612.89,-12.84
18799.02,-13.36
18987.01,-13.85
19176.88,-14.35
19368.65,-14.73
19562.33,-15.14
19757.96,-15.43
19955.54,-15.60
