frequency,raw,error,smoothed,error_smoothed,equalization,equalized_raw,equalized_smoothed,target
20,-4.476086739183024,-4.492565901577212,-4.430391522548106,-4.446856309072567,4.446856309072566,-0.02923043011045756,0.016464786524459818,0.016479162394188673
21,-4.147937531524737,-4.165583617994034,-4.166245335093424,-4.183893052709641,4.183893052709641,0.035955521184904526,0.017647717616217307,0.017646086469297995
22,-3.875926603896607,-3.8946891748891783,-3.9187367194670983,-3.937510347467513,3.937510347467512,0.061583743570905014,0.018773628000413822,0.01876257099257117
23,-3.6588305964932295,-3.6786578062283715,-3.6878656756691295,-3.7077081933461824,3.707708193346183,0.04887759685295334,0.019842517677053362,0.01982720973514196
24,-3.462685842763179,-3.4835241863109654,-3.4736322036995126,-3.494486590345645,3.494486590345644,0.031800747582465316,0.020854386646131484,0.020838343547786575
25,-3.2670867174127256,-3.288880746327441,-3.277340265996542,-3.2991515660483834,3.2991515660483843,0.03206484863565873,0.021811300051842508,0.02179402891471538
26,-3.0722609444797553,-3.0949529486897323,-3.0973786512406383,-3.1200900221338426,3.1200900221338435,0.04782907765408817,0.022711370893205185,0.022692004209976968
27,-2.974462573627803,-2.997996721174806,-2.9323505122631577,-2.955902919074423,2.9559029190744224,-0.0185596545533806,0.023552406811264692,0.023534147547003226
28,-2.7800399465373298,-2.8043534215052626,-2.7804385474895996,-2.8047691183276915,2.8047691183276906,0.024729171790360827,0.02433057083809098,0.02431347496793279
29,-2.6808142930477525,-2.705839012392527,-2.639693697457535,-2.664733907493672,2.6647339074936727,-0.016080385554079868,0.025040210036137545,0.02502471934477457
30,-2.4832301649842963,-2.5088914184552595,-2.508829889888566,-2.5345044338889293,2.5345044338889298,0.05127426890463349,0.02567454400036384,0.025661253470963263
31,-2.380082403990218,-2.406297463550391,-2.387021615826832,-2.413247044729104,2.4132470447291032,0.033164640738885254,0.026225428902271197,0.026215059560172893
32,-2.2848663744436655,-2.3115431833858007,-2.27397191259334,-2.3006556227866177,2.3006556227866173,0.01578924834295181,0.02668371019327731,0.0266768089421352
33,-2.1701087170500037,-2.197144782423641,-2.169715907273639,-2.1967553861003934,2.1967553861003934,0.026646669050389704,0.027039478826754504,0.027036065373637452
34,-2.0644270227340042,-2.0917094087262074,-2.0743088489248085,-2.1015911235442823,2.101591123544282,0.037164100810277656,0.027282274619473412,0.027282385992203118
35,-1.9585794894291166,-1.9859842817237534,-1.9876511036358462,-2.0150525048379215,2.015052504837922,0.05647301540880534,0.027401401202075792,0.02740479229463677
36,-1.9490887547912523,-1.9764810821051473,-1.9093658222408614,-1.9367520020077058,1.936752002007706,-0.01233675278354629,0.027386179766844654,0.02739232731389496
37,-1.843539126369826,-1.870773477975626,-1.8388221209531102,-1.8660483197303275,1.8660483197303273,0.02250919336050128,0.027226198777217103,0.02723435160580001
38,-1.7499284701558024,-1.7768492479708056,-1.775268012040419,-1.8021795455426464,1.802179545542647,0.05225107538684459,0.02691153350222808,0.026920777815003127
39,-1.7336298190575676,-1.7600720371867289,-1.7179957773425865,-1.7444286776598488,1.7444286776598488,0.010798858602281136,0.02643290031726231,0.026442218129161255
40,-1.634745353999183,-1.6605353835933854,-1.6664863901102218,-1.6922681373185622,1.692268137318562,0.05752278331937899,0.025781747208340144,0.0257900295942024
41,-1.6355271425560773,-1.6604835305632917,-1.6204655235049734,-1.6454157848969273,1.6454157848969273,0.009888642340849962,0.024950261391953887,0.024956388007214336
42,-1.6388884331511449,-1.6628226187150061,-1.5798481550937136,-1.603779444117406,1.6037794441174067,-0.03510898903373816,0.023931289023693125,0.023934185563861288
43,-1.5472248712415717,-1.5699417287627861,-1.5445938912720782,-1.5673120588854106,1.5673120588854106,0.020087187643838877,0.02271816761333234,0.02271685752121444
44,-1.4557384660756516,-1.4770365911276628,-1.5145302068982534,-1.5358346799463956,1.5358346799463956,0.08009621387074395,0.021304473048142203,0.02129812505201123
45,-1.4600316438905452,-1.4797033056007063,-1.4892216851593376,-1.5089053751696107,1.5089053751696104,0.04887373127906525,0.019683690010272814,0.019671661710161104
46,-1.463433767031015,-1.4812644588575652,-1.4679476401607023,-1.485796457475502,1.4857964574755018,0.02236269044448691,0.01784881731479948,0.017830691826550282
47,-1.466112403275171,-1.4818799328913634,-1.4498072694989586,-1.4655991923928897,1.4655991923928897,-0.0005132108822811787,0.015791922893931165,0.015767529616192544
48,-1.4683331983638044,-1.4818062897500428,-1.4339168862755374,-1.4474205523557742,1.4474205523557737,-0.020912646008030666,0.013503666080236343,0.013473091386238423
49,-1.4701775345897445,-1.4811139267683844,-1.419620899721929,-1.4305937060697729,1.4305937060697729,-0.039583828519971664,0.010972806347843811,0.010936392178639842
50,-1.3745292420264938,-1.3826732909314057,-1.406629029734748,-1.4148147483941749,1.4148147483941749,0.04028550636768102,0.008185718659426966,0.008144048904911827
51,-1.3755031439221264,-1.3805829547958304,-1.395021926036958,-1.4001478614996992,1.400147861499699,0.024644717577572584,0.0051259354627408715,0.005079810873704016
52,-1.3749982376763512,-1.3767223753928342,-1.3851231823861945,-1.3868969166619811,1.3868969166619807,0.011898678985629463,0.0017737342757861985,0.001724137716482943
53,-1.3737407468649447,-1.37179458923053,-1.3772924580726187,-1.3753982459460317,1.375398245946032,0.0016574990810873658,-0.0018942121265865808,-0.0019461576344146359
54,-1.3722245957892296,-1.366266408531629,-1.3717255482086257,-1.3658204395719014,1.3658204395719014,-0.006404156217328261,-0.005905108636724332,-0.005958187257600667
55,-1.3709875612502371,-1.3606443853257135,-1.3683394978849082,-1.3580492750237827,1.3580492750237825,-0.012938286226454654,-0.010290222861125686,-0.010343175924523607
56,-1.3703234269216473,-1.3551868760231591,-1.3667797262857424,-1.3516947512813877,1.3516947512813882,-0.018628675640259162,-0.01508497500435424,-0.015136550898488199
57,-1.3701403767028262,-1.3497624460983737,-1.3665321967243922,-1.3462032675079292,1.3462032675079294,-0.023937109194896777,-0.020328929216462788,-0.020377930604452477
58,-1.3700663268443591,-1.3439553138642655,-1.3670817884271784,-1.3410161014937714,1.3410161014937714,-0.029050225350587766,-0.02606568693340705,-0.026111012980093662
59,-1.3697434565341184,-1.3373600884434775,-1.3680453691082262,-1.335702682669873,1.3357026826698735,-0.03404077386424498,-0.0323426864383527,-0.03238336809064091
60,-1.3691250093694753,-1.3298788664185164,-1.3692268451326162,-1.3300159289515414,1.3300159289515414,-0.03910908041793393,-0.03921091618107475,-0.03924614295095896
61,-1.3685762935597716,-1.3218226040976728,-1.3705799461334005,-1.3238553939764746,1.3238553939764748,-0.044720899583296836,-0.046724552156925725,-0.04675368946209879
62,-1.3686983313345236,-1.3137352028922082,-1.3721037468674484,-1.3171632151187165,1.3171632151187163,-0.05153511621580731,-0.054940531748732147,-0.05496312844231532
63,-1.369961075358756,-1.3060272112585323,-1.3737199083635998,-1.3098018305627757,1.3098018305627754,-0.06015924479598067,-0.06391807780082437,-0.06393386410022384
64,-1.372349383591056,-1.298622319731681,-1.3751824229011105,-1.301464235642646,1.3014642356426462,-0.07088514794840983,-0.07371818725846424,-0.073727063859375
65,-1.375216456908542,-1.290811338684044,-1.3760535763888448,-1.2916504776717805,1.2916504776717803,-0.08356597923676179,-0.08440309871706453,-0.08440511822449803
66,-1.3774141272173932,-1.2813830327822606,-1.3757537841348282,-1.2797180320767896,1.2797180320767902,-0.09769609514060296,-0.09603575205803794,-0.09603109443513258
67,-1.3776213119302778,-1.2689531158487422,-1.3736689575505263,-1.2649897057085306,1.2649897057085302,-0.11263160622174762,-0.10867925184199612,-0.10866819608153566
68,-1.3747161109116353,-1.2523368720912407,-1.3692846771422054,-1.2468883321313111,1.2468883321313111,-0.12782777878032414,-0.12239634501089425,-0.12237923882039459
69,-1.3680616325244301,-1.2308354825652543,-1.3623138781244055,-1.225064956513577,1.225064956513577,-0.1429966760108532,-0.13724892161082858,-0.1372261499591758
70,-1.3576586749328081,-1.2043891777836424,-1.3527911178259053,-1.1994935745115618,1.1994935745115618,-0.15816510042124632,-0.15329754331434353,-0.1532694971491657
71,-1.3441810376275012,-1.1736129887252924,-1.3411167512101723,-1.1705157515162967,1.1705157515162967,-0.17366528611120446,-0.17060099969387554,-0.17056804890220878
72,-1.3289071007764774,-1.139728733498702,-1.3280442840604327,-1.1388283938006536,1.1388283938006536,-0.19007870697582385,-0.18921589025977914,-0.18917836727777537
73,-1.3135276317405602,-1.1043732007348603,-1.3146119212363185,-1.105415686289556,1.105415686289556,-0.2081119454510041,-0.20919623494676243,-0.20915443100569986
74,-1.2998034901306954,-1.0692562045139402,-1.3020251199408734,-1.071432000744582,1.0714320007445821,-0.2283714893861133,-0.23059311919629133,-0.2305472856167552
75,-1.2890984420557776,-1.0356937261360517,-1.2915022627798085,-1.038047880411308,1.038047880411308,-0.2510505616444696,-0.2534543823685005,-0.2534047159197259
76,-1.281903903785012,-1.0041329683602673,-1.284101731114796,-1.0062773812873433,1.0062773812873436,-0.2756265224976684,-0.2778243498274524,-0.2777709354247446
77,-1.2775410147801538,-0.9738547277102163,-1.2805553553210645,-0.9768117819003188,0.9768117819003189,-0.3007292328798349,-0.30374357342074554,-0.3036862870699375
78,-1.274212255832049,-0.9430253059987164,-1.281137436744237,-0.9498889433156013,0.949888943315601,-0.32432331251644797,-0.33124849342863594,-0.33118694983333263
79,-1.2694686372720732,-0.9091639908215647,-1.285596498820413,-0.9252255712134951,0.9252255712134956,-0.3442430660585776,-0.36037092760691736,-0.3603046464505084
80,-1.2609903866779555,-0.8699240382392852,-1.2931670983508343,-0.9020296960810648,0.9020296960810648,-0.35896069059689073,-0.39113740226976956,-0.3910663484386703
81,-1.337668280063897,-0.9141743041980221,-1.3026630685136773,-0.8790944967657529,0.8790944967657531,-0.4585737832981439,-0.42356857174792417,-0.4234939758658749
82,-1.3420127045973758,-0.884408613884405,-1.312636061372341,-0.8549568734685389,0.8549568734685389,-0.4870558311288369,-0.457679187903802,-0.4576040907129708
83,-1.2841751596330226,-0.7907675754621306,-1.32157044200745,-0.8280913591218484,0.8280913591218486,-0.45608380051117403,-0.4934790828856015,-0.49340758417089203
84,-1.3313102233785183,-0.8004008636573323,-1.3280825340397726,-0.7971073733863343,0.7971073733863345,-0.5342028499921838,-0.5309751606534381,-0.530909359721186
85,-1.3564658456154397,-0.7863578303164933,-1.3310990554086772,-0.7609256773679026,0.7609256773679025,-0.5955401682475372,-0.5701733780407747,-0.5701080152989464
86,-1.3391312705565954,-0.7281357413719718,-1.3300005666292884,-0.7189220373102756,0.7189220373102755,-0.6202092332463199,-0.611078529319013,-0.6109955291846236
87,-1.325638371479088,-0.6720814160002861,-1.3247231448039383,-0.671033899410663,0.671033899410663,-0.654604472068425,-0.6536892453932752,-0.6535569554788019
88,-1.3151670382595597,-0.6173969022008499,-1.3158107493540698,-0.6178237767904557,0.6178237767904557,-0.697343261469104,-0.6979869725636141,-0.6977701360587099
89,-1.3062347984044307,-0.5626293616205313,-1.304403046508159,-0.5604819143951845,0.5604819143951845,-0.7457528840092462,-0.7439211321129746,-0.7436054367838993
90,-1.2972982457716726,-0.5062727293674623,-1.2921363890037871,-0.500739169103644,0.500739169103644,-0.7965590766680286,-0.7913972199001431,-0.7910255164042104
91,-1.2871539446066835,-0.4471688074854252,-1.28094015186664,-0.4406620714625965,0.44066207146259645,-0.8464918731440871,-0.8402780804040435,-0.8399851371212583
92,-1.2750684779597572,-0.3846374519002005,-1.272734010576725,-0.38232601211819484,0.3823260121181947,-0.8927424658415625,-0.8904079984585304,-0.8904310260595567
93,-1.2607624804538513,-0.3184606834489052,-1.2690701418241415,-0.3274076028870229,0.3274076028870229,-0.9333548775668283,-0.9416625389371185,-0.9423017970049461
94,-1.2444156382147153,-0.24888769656403964,-1.2708023143894716,-0.2767873393842307,0.2767873393842307,-0.9676282988304846,-0.9940149750052408,-0.9955279416506757
95,-1.2267408364824002,-0.1767089372492654,-1.2778811737288174,-0.23028417672208462,0.2302841767220846,-0.9964566597603156,-1.0475969970067327,-1.0500318992331348
96,-1.314239860782408,-0.20851164796896327,-1.2893564583427826,-0.186632712593446,0.186632712593446,-1.127607148188962,-1.1027237457493366,-1.1057282128134447
97,-1.2893578259716292,-0.12683404643306995,-1.303610906565344,-0.143753938360778,0.143753938360778,-1.1456038876108512,-1.159856968204566,-1.1625237795385592
98,-1.34261657787353,-0.12229837690452516,-1.3187740701181077,-0.09927681356768495,0.09927681356768496,-1.243339764305845,-1.2194972565504227,-1.2203182009690048
99,-1.3647059072463212,-0.08570166927725764,-1.3331975535732288,-0.051174580026616436,0.051174580026616436,-1.313531327219705,-1.2820229735466124,-1.2790042379690636
100,-1.3610049304091445,-0.022536557699656568,-1.345846305542597,0.0016734550061247417,-0.0016734550061247386,-1.3626783854152693,-1.347519760548722,-1.338468372709488
101,-1.3610057663815904,0.03758571165805891,-1.3564874074565596,0.05917120910424241,-0.05917120910424242,-1.4201769754858329,-1.415658616560802,-1.3985914780396493
102,-1.3630247172222054,0.09622487465094665,-1.3656297041026924,0.12004433638496864,-0.12004433638496861,-1.483069053607174,-1.485674040487661,-1.459249591873152
104,-1.3651545162271939,0.21712490028419484,-1.3742562243555216,0.1822099923970228,-0.1822099923970228,-1.5473645086242167,-1.5564662167525445,-1.5822794165113887
105,-1.365853109643147,0.27784855420499355,-1.3834601347245905,0.24335092113667456,-0.24335092113667456,-1.6092040307798214,-1.626811055861265,-1.6437016638481405
106,-1.36434606835136,0.34079866764964484,-1.3941159665945424,0.30150749270097965,-0.30150749270097965,-1.6658535610523395,-1.695623459295522,-1.7051447360010048
107,-1.3956997331037801,0.37077782360399403,-1.4066854961368227,0.35551188892338104,-0.3555118889233809,-1.751211622027161,-1.7621973850602037,-1.7664775567077742
108,-1.4713441442247344,0.3562260670152251,-1.421190972506584,0.40515940459980004,-0.40515940459980004,-1.8765035488245343,-1.826350377106384,-1.8275702112399594
109,-1.4625476112478162,0.42574744957836774,-1.4373200336102518,0.4511093101835567,-0.4511093101835569,-1.913656921431373,-1.8884293437938087,-1.888295060826184
110,-1.4227408013773446,0.5257870520092589,-1.4545862984474076,0.49459178529903164,-0.49459178529903153,-1.9173325866763762,-1.9491780837464392,-1.9485278533866035
111,-1.4348636476552081,0.5732851611272589,-1.4724715076851704,0.5370381933761317,-0.5370381933761318,-1.97190184103134,-2.0095097010613023,-2.008148808782467
112,-1.5253998632975518,0.5416437926779203,-1.4905118039346368,0.5797422155070369,-0.5797422155070371,-2.105142078804589,-2.070254019441674,-2.067043655975472
113,-1.522440274985881,0.6026643244524779,-1.5083375660350458,0.6236152453013795,-0.6236152453013794,-2.1460555202872604,-2.1319528113364252,-2.125104599438359
114,-1.5176004022133416,0.6646307907184781,-1.525705049542725,0.6690494917946961,-0.6690494917946962,-2.186649894008038,-2.194754541337421,-2.1822311929318197
115,-1.5130468728603037,0.7252842275355209,-1.5425531452271133,0.7158712710889015,-0.7158712710889016,-2.228918143949205,-2.2584244163160148,-2.2383311003958246
117,-1.5666454396713951,0.7813880026244853,-1.5590845142913419,0.7633640456125728,-0.7633640456125725,-2.3300094852839677,-2.3224485599039144,-2.3480334422958804
118,-1.6219026848838192,0.7788111216911646,-1.5758286996105195,0.8103572213755321,-0.8103572213755319,-2.4322599062593513,-2.386185920986051,-2.400713806574984
119,-1.6139537420680132,0.8381441762698829,-1.5936223916366339,0.8553928788751326,-0.8553928788751325,-2.4693466209431456,-2.4490152705117665,-2.452097918337896
120,-1.5810916509564898,0.9210459620767195,-1.6134578977841896,0.8969791069765434,-0.8969791069765429,-2.4780707579330326,-2.5104370047607327,-2.5021376130332094
121,-1.586661090194232,0.9641331502047144,-1.6362047863397207,0.9339087563799098,-0.9339087563799097,-2.5205698465741415,-2.57011354271963,-2.5507942403989463
123,-1.6933997049756524,0.952037141992307,-1.662279284736239,0.9655777794108726,-0.9655777794108726,-2.658977484386525,-2.6278570641471117,-2.6454368469679594
124,-1.692297499963497,0.997644485939919,-1.691386503988749,0.9922027553974335,-0.9922027553974334,-2.6845002553609305,-2.6835892593861823,-2.689941985903416
125,-1.691070278289271,1.0419229619089516,-1.7224617419277828,1.014838104336357,-1.0148381043363568,-2.705908382625628,-2.73729984626414,-2.7329932401982227
126,-1.716741119630386,1.057850616867258,-1.7538793923422795,1.0351413402260818,-1.0351413402260816,-2.7518824598564677,-2.7890207325683614,-2.774591736497644
128,-1.805727990544806,1.0498411198636954,-1.7838984767474049,1.0549193525452722,-1.0549193525452725,-2.8606473430900783,-2.8388178292926773,-2.8555691104085015
129,-1.871771357569977,1.0212154556617015,-1.8112111622290799,1.07557933478182,-1.0755793347818203,-2.9473506923517974,-2.8867904970109004,-2.8929868132316785
130,-1.87409416325672,1.0549114060765312,-1.8354004047426793,1.0976646133106325,-1.0976646133106327,-2.971758776567353,-2.9330650180533118,-2.9290055693332513
131,-1.8698718929979412,1.093780501538001,-1.8571265905956178,1.1206476535454337,-1.120647653545434,-2.990519546543375,-2.9777742441410515,-2.9636523945359423
133,-1.8653064767616085,1.1661030366226635,-1.8779514105183668,1.143074957067037,-1.1430749570670373,-3.008381433828646,-3.021026367585404,-3.031409513384272
134,-1.860746501805939,1.2014448531695419,-1.899838071970772,1.1630367909871624,-1.1630367909871624,-3.0237832927931017,-3.0628748629579343,-3.062191354975481
135,-1.8770320511028389,1.2146920487591,-1.924488547283586,1.1788152288539044,-1.1788152288539049,-3.055847279956744,-3.1033037761374906,-3.091724099861939
137,-1.9488355675436944,1.2009588977942076,-1.9527419432022513,1.1894947298826128,-1.1894947298826126,-3.138330297426307,-3.142236673084864,-3.149794465337902
138,-1.9686326566037706,1.2072024810159852,-1.9842373967115208,1.1953297021527758,-1.1953297021527758,-3.1639623587565464,-3.179567098864297,-3.1758351376197558
140,-2.0376301503787704,1.1896588196812217,-2.017448615296008,1.1977499041559114,-1.1977499041559112,-3.235380054534682,-3.215198519451919,-3.227288970059992
141,-2.0446357529750596,1.2055021834572308,-2.0500651244934773,1.199012373140115,-1.1990123731401152,-3.2436481261151746,-3.2490774976335928,-3.2501379364322904
142,-2.105493615801343,1.1664914435523572,-2.07958015518475,1.2016272941144324,-1.2016272941144324,-3.307120909915775,-3.281207449299182,-3.2719850593537
144,-2.1300780115381865,1.185430846752475,-2.1038887408938893,1.207750930754429,-1.207750930754429,-3.3378289422926155,-3.3116396716483183,-3.3155088582906616
145,-2.1308149479008405,1.2037497067096408,-2.1217172215052402,1.21873132883539,-1.21873132883539,-3.3495462767362305,-3.3404485503406303,-3.3345646546104812
147,-2.132003165706149,1.2408057356668305,-2.1327822189270114,1.2349218080705726,-1.2349218080705726,-3.3669249737767215,-3.367704026997584,-3.3728089013729794
148,-2.1327350895543637,1.2566177062394313,-2.1376784288763817,1.2557756665937498,-1.2557756665937496,-3.388510756148113,-3.3934540954701315,-3.389352795793795
150,-2.1322449233254472,1.2906100038088502,-2.137581056560375,1.2801430805758436,-1.2801430805758436,-3.412388003901291,-3.4177241371362186,-3.4228549271342974
151,-2.1302681329996704,1.3068761920330876,-2.1338931602008517,1.306638105144631,-1.3066381051446312,-3.4369062381443016,-3.440531265345483,-3.437144325032758
