frequency,raw,error,smoothed,error_smoothed,equalization,parametric_eq,equalized_raw,equalized_smoothed,target
20,-21.56,-21.02,-21.56,-21.02,6.00,3.00,-15.56,-15.56,-0.54
21,-20.79,-20.25,-20.71,-20.18,6.00,3.43,-14.79,-14.71,-0.54
22,-19.90,-19.36,-19.89,-19.35,6.00,3.91,-13.90,-13.89,-0.54
23,-19.06,-18.52,-19.10,-18.56,6.00,4.42,-13.06,-13.10,-0.54
24,-18.26,-17.72,-18.33,-17.80,6.00,4.95,-12.26,-12.33,-0.54
25,-17.58,-17.04,-17.60,-17.06,6.00,5.51,-11.58,-11.60,-0.54
26,-16.82,-16.28,-16.89,-16.35,6.00,6.06,-10.82,-10.89,-0.54
27,-16.23,-15.69,-16.21,-15.67,6.00,6.58,-10.23,-10.21,-0.54
28,-15.49,-14.95,-15.55,-15.02,6.00,7.04,-9.49,-9.55,-0.54
29,-14.94,-14.40,-14.93,-14.39,6.00,7.41,-8.94,-8.93,-0.54
30,-14.35,-13.81,-14.33,-13.79,6.00,7.66,-8.35,-8.33,-0.54
31,-13.77,-13.23,-13.75,-13.22,6.00,7.78,-7.77,-7.75,-0.54
32,-13.22,-12.68,-13.20,-12.67,6.00,7.75,-7.22,-7.20,-0.54
33,-12.69,-12.15,-12.67,-12.14,6.00,7.62,-6.69,-6.67,-0.54
34,-12.17,-11.63,-12.16,-11.63,6.00,7.39,-6.17,-6.16,-0.54
35,-11.68,-11.14,-11.67,-11.14,6.00,7.11,-5.68,-5.67,-0.54
36,-11.20,-10.66,-11.20,-10.67,6.00,6.79,-5.20,-5.20,-0.54
37,-10.75,-10.21,-10.75,-10.21,6.00,6.46,-4.75,-4.75,-0.54
38,-10.31,-9.77,-10.31,-9.77,6.00,6.14,-4.31,-4.31,-0.54
39,-9.89,-9.35,-9.88,-9.35,6.00,5.83,-3.89,-3.88,-0.54
40,-9.52,-8.98,-9.47,-8.94,6.00,5.54,-3.52,-3.47,-0.54
41,-9.08,-8.54,-9.08,-8.54,6.00,5.27,-3.08,-3.08,-0.54
42,-8.70,-8.16,-8.70,-8.16,6.00,5.03,-2.70,-2.70,-0.54
43,-8.33,-7.79,-8.33,-7.79,6.00,4.81,-2.33,-2.33,-0.54
44,-7.96,-7.42,-7.97,-7.44,6.00,4.61,-1.96,-1.97,-0.54
45,-7.70,-7.16,-7.63,-7.10,6.00,4.44,-1.70,-1.63,-0.54
46,-7.29,-6.75,-7.31,-6.77,6.00,4.29,-1.29,-1.31,-0.54
47,-6.97,-6.43,-6.99,-6.45,5.95,4.15,-1.02,-1.04,-0.54
48,-6.65,-6.11,-6.69,-6.15,5.85,4.04,-0.80,-0.84,-0.54
49,-6.42,-5.88,-6.40,-5.86,5.69,3.93,-0.72,-0.71,-0.54
50,-6.19,-5.65,-6.12,-5.59,5.51,3.85,-0.68,-0.62,-0.54
51,-5.80,-5.26,-5.86,-5.33,5.30,3.77,-0.50,-0.56,-0.54
52,-5.59,-5.05,-5.61,-5.07,5.07,3.70,-0.51,-0.54,-0.54
53,-5.37,-4.83,-5.37,-4.83,4.83,3.63,-0.53,-0.54,-0.54
54,-5.16,-4.62,-5.14,-4.61,4.61,3.58,-0.55,-0.54,-0.54
55,-4.95,-4.41,-4.92,-4.39,4.39,3.52,-0.56,-0.54,-0.54
56,-4.64,-4.10,-4.71,-4.18,4.18,3.47,-0.46,-0.54,-0.54
57,-4.54,-4.00,-4.51,-3.98,3.98,3.41,-0.56,-0.54,-0.54
58,-4.35,-3.81,-4.32,-3.78,3.78,3.36,-0.56,-0.54,-0.54
59,-4.16,-3.62,-4.13,-3.60,3.60,3.30,-0.56,-0.54,-0.54
60,-3.97,-3.43,-3.95,-3.42,3.42,3.24,-0.55,-0.54,-0.54
61,-3.78,-3.24,-3.78,-3.24,3.24,3.18,-0.54,-0.54,-0.54
62,-3.60,-3.06,-3.60,-3.07,3.07,3.11,-0.53,-0.54,-0.54
63,-3.42,-2.88,-3.43,-2.90,2.90,3.03,-0.52,-0.54,-0.54
64,-3.24,-2.70,-3.27,-2.73,2.73,2.95,-0.50,-0.54,-0.54
65,-3.22,-2.68,-3.11,-2.57,2.57,2.87,-0.65,-0.54,-0.54
66,-2.92,-2.38,-2.95,-2.41,2.41,2.78,-0.51,-0.54,-0.54
67,-2.86,-2.32,-2.79,-2.26,2.26,2.69,-0.60,-0.54,-0.54
68,-2.59,-2.05,-2.64,-2.10,2.10,2.60,-0.48,-0.54,-0.54
69,-2.52,-1.98,-2.49,-1.96,1.96,2.50,-0.56,-0.54,-0.54
70,-2.27,-1.73,-2.35,-1.81,1.81,2.40,-0.46,-0.54,-0.54
71,-2.23,-1.69,-2.21,-1.67,1.67,2.30,-0.56,-0.54,-0.54
72,-2.07,-1.53,-2.07,-1.54,1.54,2.20,-0.53,-0.54,-0.54
73,-1.94,-1.40,-1.94,-1.41,1.41,2.10,-0.53,-0.54,-0.54
74,-1.91,-1.37,-1.82,-1.28,1.28,2.00,-0.62,-0.54,-0.54
75,-1.62,-1.08,-1.70,-1.16,1.16,1.90,-0.45,-0.54,-0.54
76,-1.62,-1.08,-1.58,-1.05,1.05,1.80,-0.57,-0.54,-0.54
77,-1.48,-0.94,-1.48,-0.94,0.94,1.70,-0.54,-0.54,-0.54
78,-1.33,-0.79,-1.37,-0.84,0.84,1.61,-0.49,-0.54,-0.54
79,-1.29,-0.75,-1.27,-0.74,0.74,1.51,-0.55,-0.54,-0.54
80,-1.21,-0.67,-1.18,-0.65,0.65,1.42,-0.56,-0.54,-0.54
81,-1.07,-0.53,-1.09,-0.56,0.56,1.32,-0.51,-0.54,-0.54
82,-0.97,-0.43,-1.01,-0.48,0.48,1.23,-0.49,-0.54,-0.54
83,-0.97,-0.43,-0.93,-0.40,0.40,1.14,-0.57,-0.54,-0.54
84,-0.97,-0.43,-0.86,-0.32,0.32,1.05,-0.64,-0.54,-0.54
85,-0.73,-0.19,-0.79,-0.25,0.25,0.97,-0.47,-0.54,-0.54
86,-0.64,-0.10,-0.73,-0.19,0.19,0.88,-0.45,-0.54,-0.54
87,-0.64,-0.10,-0.66,-0.13,0.13,0.80,-0.51,-0.54,-0.54
88,-0.64,-0.10,-0.60,-0.07,0.07,0.72,-0.57,-0.54,-0.54
89,-0.64,-0.10,-0.55,-0.01,0.01,0.64,-0.63,-0.54,-0.54
90,-0.53,0.01,-0.49,0.05,-0.05,0.56,-0.57,-0.54,-0.54
91,-0.40,0.14,-0.44,0.10,-0.10,0.48,-0.50,-0.54,-0.54
92,-0.32,0.22,-0.38,0.15,-0.15,0.40,-0.47,-0.54,-0.54
93,-0.32,0.22,-0.34,0.20,-0.20,0.33,-0.52,-0.54,-0.54
94,-0.32,0.22,-0.29,0.25,-0.25,0.25,-0.57,-0.54,-0.54
95,-0.32,0.22,-0.24,0.29,-0.29,0.18,-0.61,-0.54,-0.54
96,-0.28,0.26,-0.20,0.34,-0.34,0.11,-0.61,-0.54,-0.54
97,-0.17,0.37,-0.16,0.37,-0.37,0.04,-0.54,-0.54,-0.54
98,-0.05,0.49,-0.13,0.41,-0.41,-0.03,-0.46,-0.54,-0.54
99,0.00,0.54,-0.09,0.44,-0.44,-0.10,-0.44,-0.54,-0.54
100,0.00,0.54,-0.06,0.48,-0.48,-0.17,-0.47,-0.54,-0.54
101,0.00,0.54,-0.03,0.51,-0.51,-0.23,-0.50,-0.54,-0.54
102,0.00,0.54,-0.00,0.53,-0.53,-0.29,-0.53,-0.54,-0.54
104,0.00,0.54,0.03,0.56,-0.56,-0.42,-0.56,-0.54,-0.54
105,0.00,0.54,0.06,0.59,-0.59,-0.47,-0.59,-0.54,-0.54
106,0.00,0.54,0.09,0.62,-0.62,-0.53,-0.62,-0.54,-0.54
107,0.00,0.54,0.12,0.65,-0.65,-0.59,-0.65,-0.54,-0.54
108,0.07,0.61,0.15,0.69,-0.69,-0.64,-0.61,-0.54,-0.54
109,0.18,0.72,0.18,0.72,-0.72,-0.69,-0.54,-0.54,-0.54
110,0.28,0.82,0.22,0.75,-0.75,-0.74,-0.47,-0.54,-0.54
111,0.33,0.87,0.24,0.78,-0.78,-0.79,-0.45,-0.54,-0.54
112,0.33,0.87,0.27,0.81,-0.81,-0.83,-0.48,-0.54,-0.54
113,0.33,0.87,0.30,0.83,-0.83,-0.87,-0.50,-0.54,-0.54
114,0.33,0.87,0.31,0.85,-0.85,-0.91,-0.52,-0.54,-0.54
115,0.33,0.87,0.33,0.86,-0.86,-0.95,-0.53,-0.54,-0.54
117,0.33,0.87,0.34,0.87,-0.87,-1.02,-0.54,-0.54,-0.54
118,0.33,0.87,0.34,0.88,-0.88,-1.05,-0.55,-0.54,-0.54
119,0.33,0.87,0.35,0.88,-0.88,-1.07,-0.55,-0.54,-0.54
120,0.33,0.87,0.35,0.88,-0.88,-1.10,-0.55,-0.54,-0.54
121,0.33,0.87,0.34,0.88,-0.88,-1.12,-0.55,-0.54,-0.54
123,0.33,0.87,0.34,0.88,-0.88,-1.15,-0.55,-0.54,-0.54
124,0.33,0.87,0.34,0.88,-0.88,-1.17,-0.54,-0.54,-0.54
125,0.33,0.87,0.34,0.87,-0.87,-1.18,-0.54,-0.54,-0.54
126,0.33,0.87,0.34,0.87,-0.87,-1.19,-0.54,-0.54,-0.54
128,0.33,0.87,0.34,0.87,-0.87,-1.20,-0.54,-0.54,-0.54
129,0.33,0.87,0.34,0.87,-0.87,-1.20,-0.54,-0.54,-0.54
130,0.33,0.87,0.34,0.87,-0.87,-1.20,-0.54,-0.54,-0.54
131,0.33,0.87,0.34,0.87,-0.87,-1.19,-0.54,-0.54,-0.54
133,0.33,0.87,0.34,0.88,-0.88,-1.18,-0.54,-0.54,-0.54
134,0.33,0.87,0.34,0.88,-0.88,-1.17,-0.54,-0.54,-0.54
135,0.33,0.87,0.34,0.88,-0.88,-1.16,-0.54,-0.54,-0.54
137,0.33,0.87,0.34,0.87,-0.87,-1.14,-0.54,-0.54,-0.54
138,0.33,0.87,0.33,0.87,-0.87,-1.13,-0.53,-0.54,-0.54
140,0.33,0.87,0.32,0.86,-0.86,-1.09,-0.52,-0.54,-0.54
141,0.33,0.87,0.31,0.84,-0.84,-1.08,-0.51,-0.54,-0.54
142,0.25,0.79,0.29,0.83,-0.83,-1.06,-0.57,-0.54,-0.54
144,0.24,0.78,0.27,0.80,-0.80,-1.02,-0.56,-0.54,-0.54
145,0.32,0.86,0.24,0.78,-0.78,-1.00,-0.45,-0.54,-0.54
147,0.33,0.87,0.21,0.75,-0.75,-0.96,-0.41,-0.54,-0.54
148,0.27,0.81,0.18,0.72,-0.72,-0.94,-0.44,-0.54,-0.54
150,0.12,0.66,0.15,0.69,-0.69,-0.89,-0.56,-0.54,-0.54
151,0.04,0.58,0.12,0.66,-0.66,-0.87,-0.61,-0.54,-0.54
153,0.00,0.54,0.09,0.63,-0.63,-0.83,-0.63,-0.54,-0.54
154,0.00,0.54,0.07,0.60,-0.60,-0.80,-0.60,-0.54,-0.54
156,0.00,0.54,0.05,0.58,-0.58,-0.76,-0.58,-0.54,-0.54
157,0.00,0.54,0.03,0.57,-0.57,-0.74,-0.57,-0.54,-0.54
159,0.00,0.54,0.02,0.56,-0.56,-0.69,-0.55,-0.54,-0.54
160,0.00,0.54,0.01,0.55,-0.55,-0.67,-0.54,-0.54,-0.54
162,0.00,0.54,0.00,0.54,-0.54,-0.62,-0.53,-0.54,-0.54
164,0.00,0.54,-0.01,0.53,-0.53,-0.58,-0.53,-0.54,-0.54
165,0.00,0.54,-0.02,0.52,-0.52,-0.56,-0.52,-0.54,-0.54
167,0.00,0.54,-0.03,0.51,-0.51,-0.52,-0.50,-0.54,-0.54
169,0.00,0.54,-0.05,0.49,-0.49,-0.48,-0.49,-0.54,-0.54
170,0.00,0.54,-0.07,0.47,-0.47,-0.46,-0.47,-0.54,-0.54
172,0.00,0.54,-0.09,0.44,-0.44,-0.42,-0.44,-0.54,-0.54
174,-0.10,0.44,-0.12,0.42,-0.42,-0.38,-0.51,-0.54,-0.54
175,-0.16,0.38,-0.15,0.39,-0.39,-0.36,-0.54,-0.54,-0.54
177,-0.29,0.25,-0.18,0.35,-0.35,-0.32,-0.64,-0.54,-0.54
179,-0.32,0.22,-0.22,0.32,-0.32,-0.29,-0.64,-0.54,-0.54
181,-0.32,0.22,-0.25,0.29,-0.29,-0.25,-0.60,-0.54,-0.54
183,-0.32,0.22,-0.29,0.25,-0.25,-0.22,-0.57,-0.54,-0.54
184,-0.32,0.22,-0.32,0.22,-0.22,-0.20,-0.53,-0.54,-0.54
186,-0.32,0.22,-0.35,0.18,-0.18,-0.17,-0.50,-0.54,-0.54
188,-0.32,0.22,-0.39,0.15,-0.15,-0.13,-0.47,-0.54,-0.54
190,-0.32,0.22,-0.42,0.12,-0.12,-0.10,-0.43,-0.54,-0.54
192,-0.40,0.14,-0.45,0.08,-0.08,-0.07,-0.48,-0.54,-0.54
194,-0.52,0.02,-0.49,0.05,-0.05,-0.04,-0.56,-0.54,-0.54
196,-0.63,-0.09,-0.53,0.01,-0.01,-0.01,-0.64,-0.54,-0.54
198,-0.64,-0.10,-0.56,-0.03,0.03,0.02,-0.61,-0.54,-0.54
200,-0.64,-0.10,-0.60,-0.07,0.07,0.05,-0.57,-0.54,-0.54
202,-0.64,-0.10,-0.65,-0.11,0.11,0.08,-0.53,-0.54,-0.54
204,-0.64,-0.10,-0.69,-0.15,0.15,0.10,-0.48,-0.54,-0.54
206,-0.64,-0.10,-0.73,-0.20,0.20,0.13,-0.44,-0.54,-0.54
208,-0.67,-0.13,-0.78,-0.24,0.24,0.16,-0.43,-0.54,-0.54
210,-0.88,-0.34,-0.82,-0.29,0.29,0.19,-0.59,-0.54,-0.54
212,-0.97,-0.43,-0.87,-0.33,0.33,0.21,-0.63,-0.54,-0.54
214,-0.97,-0.43,-0.91,-0.38,0.38,0.24,-0.59,-0.54,-0.54
216,-0.97,-0.43,-0.96,-0.42,0.42,0.26,-0.55,-0.54,-0.54
218,-0.97,-0.43,-1.00,-0.47,0.47,0.29,-0.50,-0.54,-0.54
221,-1.02,-0.48,-1.04,-0.51,0.51,0.33,-0.51,-0.54,-0.54
223,-1.12,-0.58,-1.09,-0.55,0.55,0.36,-0.57,-0.54,-0.54
225,-1.13,-0.59,-1.13,-0.59,0.59,0.38,-0.53,-0.54,-0.54
227,-1.16,-0.62,-1.17,-0.64,0.64,0.41,-0.52,-0.54,-0.54
229,-1.25,-0.71,-1.21,-0.68,0.68,0.43,-0.57,-0.54,-0.54
232,-1.29,-0.75,-1.26,-0.72,0.72,0.47,-0.57,-0.54,-0.54
234,-1.29,-0.75,-1.30,-0.76,0.76,0.50,-0.52,-0.54,-0.54
236,-1.29,-0.75,-1.34,-0.81,0.81,0.53,-0.48,-0.54,-0.54
239,-1.29,-0.75,-1.39,-0.85,0.85,0.56,-0.44,-0.54,-0.54
241,-1.35,-0.81,-1.43,-0.89,0.89,0.59,-0.46,-0.54,-0.54
244,-1.48,-0.94,-1.47,-0.93,0.93,0.63,-0.55,-0.54,-0.54
246,-1.58,-1.04,-1.50,-0.96,0.96,0.66,-0.61,-0.54,-0.54
248,-1.62,-1.08,-1.53,-0.99,0.99,0.69,-0.62,-0.54,-0.54
251,-1.62,-1.08,-1.56,-1.02,1.02,0.73,-0.60,-0.54,-0.54
253,-1.62,-1.08,-1.58,-1.04,1.04,0.75,-0.58,-0.54,-0.54
256,-1.62,-1.08,-1.59,-1.06,1.06,0.80,-0.56,-0.54,-0.54
259,-1.62,-1.08,-1.60,-1.07,1.07,0.84,-0.55,-0.54,-0.54
261,-1.62,-1.08,-1.61,-1.08,1.08,0.87,-0.54,-0.54,-0.54
264,-1.62,-1.08,-1.62,-1.08,1.08,0.91,-0.53,-0.54,-0.54
266,-1.62,-1.08,-1.63,-1.09,1.09,0.94,-0.53,-0.54,-0.54
269,-1.62,-1.08,-1.64,-1.10,1.10,0.99,-0.52,-0.54,-0.54
272,-1.62,-1.08,-1.65,-1.11,1.11,1.03,-0.51,-0.54,-0.54
274,-1.62,-1.08,-1.66,-1.13,1.13,1.07,-0.49,-0.54,-0.54
277,-1.62,-1.08,-1.68,-1.15,1.15,1.11,-0.47,-0.54,-0.54
280,-1.62,-1.08,-1.71,-1.17,1.17,1.16,-0.45,-0.54,-0.54
283,-1.70,-1.16,-1.74,-1.20,1.20,1.21,-0.50,-0.54,-0.54
286,-1.82,-1.28,-1.77,-1.23,1.23,1.26,-0.58,-0.54,-0.54
288,-1.90,-1.36,-1.81,-1.27,1.27,1.29,-0.63,-0.54,-0.54
291,-1.94,-1.40,-1.85,-1.31,1.31,1.34,-0.63,-0.54,-0.54
294,-1.94,-1.40,-1.89,-1.35,1.35,1.40,-0.59,-0.54,-0.54
297,-1.94,-1.40,-1.93,-1.39,1.39,1.45,-0.54,-0.54,-0.54
300,-1.94,-1.40,-1.97,-1.44,1.44,1.50,-0.50,-0.54,-0.54
303,-1.94,-1.40,-2.02,-1.48,1.48,1.56,-0.46,-0.54,-0.54
306,-1.94,-1.40,-2.06,-1.53,1.53,1.61,-0.41,-0.54,-0.54
309,-2.14,-1.60,-2.11,-1.57,1.57,1.67,-0.57,-0.54,-0.54
312,-2.27,-1.73,-2.16,-1.62,1.62,1.73,-0.65,-0.54,-0.54
316,-2.27,-1.73,-2.20,-1.67,1.67,1.80,-0.60,-0.54,-0.54
319,-2.27,-1.73,-2.26,-1.72,1.72,1.86,-0.55,-0.54,-0.54
322,-2.27,-1.73,-2.31,-1.77,1.77,1.92,-0.49,-0.54,-0.54
325,-2.29,-1.75,-2.36,-1.83,1.83,1.99,-0.46,-0.54,-0.54
328,-2.39,-1.85,-2.42,-1.89,1.89,2.05,-0.50,-0.54,-0.54
332,-2.53,-1.99,-2.48,-1.95,1.95,2.13,-0.58,-0.54,-0.54
335,-2.59,-2.05,-2.54,-2.01,2.01,2.20,-0.58,-0.54,-0.54
338,-2.59,-2.05,-2.61,-2.07,2.07,2.26,-0.52,-0.54,-0.54
342,-2.59,-2.05,-2.67,-2.13,2.13,2.35,-0.45,-0.54,-0.54
345,-2.69,-2.15,-2.73,-2.20,2.20,2.42,-0.49,-0.54,-0.54
349,-2.92,-2.38,-2.80,-2.26,2.26,2.51,-0.65,-0.54,-0.54
352,-2.92,-2.38,-2.86,-2.33,2.33,2.58,-0.59,-0.54,-0.54
356,-2.92,-2.38,-2.93,-2.39,2.39,2.68,-0.53,-0.54,-0.54
359,-2.93,-2.39,-2.99,-2.45,2.45,2.75,-0.47,-0.54,-0.54
363,-3.05,-2.51,-3.05,-2.51,2.51,2.85,-0.53,-0.54,-0.54
366,-3.14,-2.60,-3.11,-2.57,2.57,2.92,-0.56,-0.54,-0.54
370,-3.24,-2.70,-3.17,-2.63,2.63,3.02,-0.60,-0.54,-0.54
374,-3.24,-2.70,-3.23,-2.69,2.69,3.12,-0.55,-0.54,-0.54
377,-3.24,-2.70,-3.28,-2.75,2.75,3.20,-0.49,-0.54,-0.54
381,-3.27,-2.73,-3.34,-2.80,2.80,3.30,-0.46,-0.54,-0.54
385,-3.39,-2.85,-3.40,-2.86,2.86,3.41,-0.53,-0.54,-0.54
389,-3.51,-2.97,-3.45,-2.92,2.92,3.51,-0.59,-0.54,-0.54
393,-3.56,-3.02,-3.51,-2.97,2.97,3.61,-0.59,-0.54,-0.54
397,-3.56,-3.02,-3.56,-3.03,3.03,3.72,-0.53,-0.54,-0.54
401,-3.56,-3.02,-3.62,-3.08,3.08,3.82,-0.47,-0.54,-0.54
405,-3.64,-3.10,-3.67,-3.14,3.14,3.93,-0.50,-0.54,-0.54
409,-3.75,-3.21,-3.73,-3.19,3.19,4.03,-0.55,-0.54,-0.54
413,-3.86,-3.32,-3.79,-3.25,3.25,4.13,-0.61,-0.54,-0.54
417,-3.89,-3.35,-3.84,-3.31,3.31,4.23,-0.58,-0.54,-0.54
421,-3.89,-3.35,-3.90,-3.36,3.36,4.33,-0.52,-0.54,-0.54
425,-3.89,-3.35,-3.96,-3.42,3.42,4.43,-0.46,-0.54,-0.54
430,-3.99,-3.45,-4.02,-3.48,3.48,4.55,-0.51,-0.54,-0.54
434,-4.10,-3.56,-4.08,-3.54,3.54,4.64,-0.56,-0.54,-0.54
438,-4.20,-3.66,-4.14,-3.60,3.60,4.73,-0.60,-0.54,-0.54
443,-4.21,-3.67,-4.20,-3.66,3.66,4.83,-0.54,-0.54,-0.54
447,-4.21,-3.67,-4.26,-3.73,3.73,4.91,-0.48,-0.54,-0.54
451,-4.21,-3.67,-4.32,-3.79,3.79,4.98,-0.42,-0.54,-0.54
456,-4.45,-3.91,-4.39,-3.85,3.85,5.07,-0.60,-0.54,-0.54
460,-4.54,-4.00,-4.45,-3.91,3.91,5.13,-0.62,-0.54,-0.54
465,-4.54,-4.00,-4.51,-3.98,3.98,5.21,-0.56,-0.54,-0.54
470,-4.54,-4.00,-4.57,-4.04,4.04,5.27,-0.50,-0.54,-0.54
474,-4.60,-4.06,-4.64,-4.10,4.10,5.31,-0.50,-0.54,-0.54
479,-4.72,-4.18,-4.70,-4.16,4.16,5.36,-0.56,-0.54,-0.54
484,-4.84,-4.30,-4.76,-4.22,4.22,5.39,-0.62,-0.54,-0.54
489,-4.86,-4.32,-4.82,-4.28,4.28,5.41,-0.58,-0.54,-0.54
494,-4.86,-4.32,-4.88,-4.34,4.34,5.43,-0.51,-0.54,-0.54
499,-4.86,-4.32,-4.94,-4.41,4.41,5.43,-0.45,-0.54,-0.54
504,-4.97,-4.43,-5.01,-4.47,4.47,5.42,-0.50,-0.54,-0.54
509,-5.08,-4.54,-5.07,-4.54,4.54,5.41,-0.54,-0.54,-0.54
514,-5.19,-4.65,-5.14,-4.60,4.60,5.38,-0.58,-0.54,-0.54
519,-5.19,-4.65,-5.21,-4.67,4.67,5.35,-0.51,-0.54,-0.54
524,-5.25,-4.71,-5.28,-4.75,4.75,5.31,-0.50,-0.54,-0.54
529,-5.36,-4.82,-5.36,-4.82,4.82,5.26,-0.54,-0.54,-0.54
535,-5.49,-4.95,-5.43,-4.90,4.90,5.19,-0.59,-0.54,-0.54
540,-5.51,-4.97,-5.51,-4.98,4.98,5.13,-0.53,-0.54,-0.54
545,-5.53,-4.99,-5.59,-5.06,5.06,5.06,-0.47,-0.54,-0.54
551,-5.66,-5.12,-5.67,-5.13,5.13,4.97,-0.52,-0.54,-0.54
556,-5.76,-5.22,-5.75,-5.21,5.21,4.89,-0.55,-0.54,-0.54
562,-5.83,-5.29,-5.82,-5.29,5.29,4.79,-0.54,-0.54,-0.54
568,-5.84,-5.30,-5.89,-5.36,5.36,4.68,-0.48,-0.54,-0.54
573,-5.94,-5.40,-5.96,-5.42,5.42,4.60,-0.51,-0.54,-0.54
579,-6.05,-5.51,-6.02,-5.48,5.48,4.49,-0.57,-0.54,-0.54
585,-6.16,-5.62,-6.07,-5.53,5.53,4.38,-0.62,-0.54,-0.54
591,-6.16,-5.62,-6.11,-5.58,5.58,4.26,-0.58,-0.54,-0.54
596,-6.16,-5.62,-6.15,-5.61,5.61,4.17,-0.54,-0.54,-0.54
602,-6.16,-5.62,-6.18,-5.64,5.64,4.06,-0.52,-0.54,-0.54
608,-6.16,-5.62,-6.19,-5.65,5.65,3.95,-0.50,-0.54,-0.54
615,-6.16,-5.62,-6.19,-5.66,5.66,3.82,-0.50,-0.54,-0.54
621,-6.16,-5.62,-6.18,-5.65,5.65,3.71,-0.51,-0.54,-0.54
627,-6.16,-5.62,-6.16,-5.62,5.62,3.60,-0.53,-0.54,-0.54
633,-6.16,-5.62,-6.12,-5.59,5.59,3.49,-0.57,-0.54,-0.54
639,-6.12,-5.58,-6.07,-5.53,5.53,3.39,-0.58,-0.54,-0.54
646,-6.00,-5.46,-6.00,-5.47,5.47,3.27,-0.53,-0.54,-0.54
652,-5.90,-5.36,-5.92,-5.38,5.38,3.17,-0.51,-0.54,-0.54
659,-5.83,-5.29,-5.82,-5.28,5.28,3.05,-0.54,-0.54,-0.54
665,-5.83,-5.29,-5.70,-5.17,5.17,2.96,-0.66,-0.54,-0.54
672,-5.60,-5.06,-5.57,-5.03,5.03,2.85,-0.56,-0.54,-0.54
679,-5.44,-4.90,-5.42,-4.89,4.89,2.74,-0.55,-0.54,-0.54
686,-5.30,-4.76,-5.26,-4.73,4.73,2.64,-0.57,-0.54,-0.54
692,-5.10,-4.56,-5.09,-4.55,4.55,2.56,-0.54,-0.54,-0.54
699,-4.87,-4.33,-4.91,-4.37,4.37,2.46,-0.49,-0.54,-0.54
706,-4.67,-4.13,-4.72,-4.18,4.18,2.36,-0.48,-0.54,-0.54
713,-4.56,-4.02,-4.53,-3.99,3.99,2.27,-0.57,-0.54,-0.54
721,-4.33,-3.79,-4.33,-3.80,3.80,2.17,-0.53,-0.54,-0.54
728,-4.12,-3.58,-4.13,-3.60,3.60,2.08,-0.52,-0.54,-0.54
735,-3.90,-3.36,-3.94,-3.40,3.40,2.00,-0.50,-0.54,-0.54
742,-3.69,-3.15,-3.74,-3.21,3.21,1.92,-0.48,-0.54,-0.54
750,-3.50,-2.96,-3.55,-3.01,3.01,1.83,-0.49,-0.54,-0.54
757,-3.40,-2.86,-3.35,-2.82,2.82,1.75,-0.58,-0.54,-0.54
765,-3.16,-2.62,-3.17,-2.63,2.63,1.67,-0.53,-0.54,-0.54
773,-3.00,-2.46,-2.98,-2.44,2.44,1.59,-0.55,-0.54,-0.54
780,-2.88,-2.34,-2.80,-2.26,2.26,1.52,-0.62,-0.54,-0.54
788,-2.65,-2.11,-2.62,-2.08,2.08,1.44,-0.57,-0.54,-0.54
796,-2.42,-1.88,-2.44,-1.90,1.90,1.36,-0.51,-0.54,-0.54
804,-2.23,-1.69,-2.27,-1.73,1.73,1.29,-0.50,-0.54,-0.54
812,-2.12,-1.58,-2.10,-1.56,1.56,1.22,-0.55,-0.54,-0.54
820,-1.92,-1.38,-1.94,-1.40,1.40,1.15,-0.51,-0.54,-0.54
828,-1.74,-1.20,-1.78,-1.25,1.25,1.08,-0.49,-0.54,-0.54
837,-1.62,-1.08,-1.64,-1.10,1.10,1.01,-0.52,-0.54,-0.54
845,-1.51,-0.97,-1.50,-0.96,0.96,0.95,-0.55,-0.54,-0.54
853,-1.40,-0.86,-1.36,-0.83,0.83,0.89,-0.57,-0.54,-0.54
862,-1.27,-0.73,-1.24,-0.70,0.70,0.82,-0.56,-0.54,-0.54
871,-1.04,-0.50,-1.12,-0.59,0.59,0.75,-0.45,-0.54,-0.54
879,-0.97,-0.43,-1.01,-0.48,0.48,0.70,-0.49,-0.54,-0.54
888,-0.95,-0.41,-0.91,-0.37,0.37,0.64,-0.57,-0.54,-0.54
897,-0.83,-0.29,-0.81,-0.28,0.28,0.58,-0.55,-0.54,-0.54
906,-0.72,-0.18,-0.72,-0.19,0.19,0.52,-0.53,-0.54,-0.54
915,-0.64,-0.10,-0.64,-0.10,0.10,0.46,-0.54,-0.54,-0.54
924,-0.64,-0.10,-0.56,-0.02,0.02,0.40,-0.62,-0.54,-0.54
933,-0.46,0.08,-0.48,0.06,-0.06,0.35,-0.51,-0.54,-0.54
943,-0.32,0.22,-0.41,0.13,-0.13,0.29,-0.45,-0.54,-0.54
952,-0.32,0.22,-0.34,0.20,-0.20,0.24,-0.52,-0.54,-0.54
962,-0.32,0.22,-0.27,0.27,-0.27,0.18,-0.59,-0.54,-0.54
971,-0.26,0.28,-0.20,0.33,-0.33,0.13,-0.59,-0.54,-0.54
981,-0.15,0.39,-0.14,0.40,-0.40,0.08,-0.55,-0.54,-0.54
991,-0.03,0.51,-0.07,0.46,-0.46,0.03,-0.49,-0.54,-0.54
1001,0.00,0.54,-0.01,0.52,-0.52,-0.02,-0.52,-0.54,-0.54
1011,0.00,0.54,0.05,0.58,-0.58,-0.07,-0.58,-0.54,-0.54
1021,0.00,0.54,0.11,0.64,-0.64,-0.12,-0.64,-0.54,-0.54
1031,0.17,0.71,0.16,0.70,-0.70,-0.17,-0.53,-0.54,-0.54
1041,0.33,0.87,0.22,0.75,-0.75,-0.22,-0.42,-0.54,-0.54
1052,0.33,0.87,0.27,0.81,-0.81,-0.27,-0.47,-0.54,-0.54
1062,0.33,0.87,0.32,0.86,-0.86,-0.31,-0.53,-0.54,-0.54
1073,0.33,0.87,0.37,0.91,-0.91,-0.36,-0.58,-0.54,-0.54
1084,0.33,0.87,0.42,0.96,-0.96,-0.41,-0.63,-0.54,-0.54
1094,0.43,0.97,0.47,1.01,-1.01,-0.46,-0.57,-0.54,-0.54
1105,0.55,1.09,0.51,1.05,-1.05,-0.51,-0.50,-0.54,-0.54
1116,0.65,1.19,0.56,1.10,-1.10,-0.56,-0.44,-0.54,-0.54
1128,0.65,1.19,0.61,1.14,-1.14,-0.61,-0.49,-0.54,-0.54
1139,0.65,1.19,0.65,1.19,-1.19,-0.66,-0.53,-0.54,-0.54
1150,0.65,1.19,0.70,1.23,-1.23,-0.70,-0.58,-0.54,-0.54
1162,0.65,1.19,0.74,1.28,-1.28,-0.76,-0.63,-0.54,-0.54
1173,0.74,1.28,0.79,1.33,-1.33,-0.80,-0.59,-0.54,-0.54
1185,0.85,1.39,0.84,1.38,-1.38,-0.86,-0.53,-0.54,-0.54
1197,0.96,1.50,0.89,1.43,-1.43,-0.91,-0.47,-0.54,-0.54
1209,0.98,1.52,0.95,1.48,-1.48,-0.96,-0.50,-0.54,-0.54
1221,0.98,1.52,1.00,1.54,-1.54,-1.01,-0.55,-0.54,-0.54
1233,0.98,1.52,1.06,1.59,-1.59,-1.07,-0.61,-0.54,-0.54
1246,1.09,1.63,1.11,1.65,-1.65,-1.13,-0.56,-0.54,-0.54
1258,1.20,1.74,1.17,1.70,-1.70,-1.18,-0.50,-0.54,-0.54
1271,1.30,1.84,1.23,1.76,-1.76,-1.24,-0.46,-0.54,-0.54
1283,1.30,1.84,1.28,1.82,-1.82,-1.30,-0.52,-0.54,-0.54
1296,1.30,1.84,1.34,1.88,-1.88,-1.36,-0.57,-0.54,-0.54
1309,1.33,1.87,1.40,1.93,-1.93,-1.42,-0.60,-0.54,-0.54
1322,1.44,1.98,1.45,1.99,-1.99,-1.48,-0.55,-0.54,-0.54
1335,1.55,2.09,1.51,2.05,-2.05,-1.55,-0.49,-0.54,-0.54
1349,1.63,2.17,1.57,2.11,-2.11,-1.61,-0.47,-0.54,-0.54
1362,1.63,2.17,1.63,2.16,-2.16,-1.68,-0.53,-0.54,-0.54
1376,1.63,2.17,1.69,2.22,-2.22,-1.75,-0.59,-0.54,-0.54
1390,1.68,2.22,1.75,2.28,-2.28,-1.82,-0.60,-0.54,-0.54
1404,1.79,2.33,1.81,2.34,-2.34,-1.90,-0.55,-0.54,-0.54
1418,1.90,2.44,1.87,2.40,-2.40,-1.97,-0.50,-0.54,-0.54
1432,1.95,2.49,1.93,2.46,-2.46,-2.04,-0.51,-0.54,-0.54
1446,1.95,2.49,1.98,2.52,-2.52,-2.12,-0.57,-0.54,-0.54
1461,1.95,2.49,2.04,2.57,-2.57,-2.20,-0.62,-0.54,-0.54
1475,2.10,2.64,2.09,2.63,-2.63,-2.28,-0.52,-0.54,-0.54
1490,2.27,2.81,2.14,2.68,-2.68,-2.36,-0.40,-0.54,-0.54
1505,2.27,2.81,2.19,2.73,-2.73,-2.45,-0.45,-0.54,-0.54
1520,2.27,2.81,2.23,2.77,-2.77,-2.53,-0.50,-0.54,-0.54
1535,2.27,2.81,2.28,2.81,-2.81,-2.62,-0.54,-0.54,-0.54
1550,2.27,2.81,2.32,2.86,-2.86,-2.70,-0.58,-0.54,-0.54
1566,2.27,2.81,2.36,2.90,-2.90,-2.79,-0.62,-0.54,-0.54
