frequency,raw,smoothed,error,error_smoothed,equalization,parametric_eq,fixed_band_eq,equalized_raw,equalized_smoothed,target
20.00,-23.33,-23.34,-24.19,-24.21,6.00,6.94,2.80,-17.33,-17.34,0.86
20.20,-23.10,-23.08,-24.01,-24.00,6.00,6.94,2.88,-17.10,-17.08,0.91
20.40,-22.86,-22.84,-23.83,-23.80,6.00,6.93,2.96,-16.86,-16.84,0.96
20.61,-22.63,-22.62,-23.62,-23.62,6.00,6.92,3.05,-16.63,-16.62,0.99
20.81,-22.39,-22.39,-23.44,-23.43,6.00,6.92,3.13,-16.39,-16.39,1.04
21.02,-22.18,-22.21,-23.26,-23.28,6.00,6.91,3.23,-16.18,-16.21,1.08
21.23,-22.08,-22.07,-23.18,-23.17,6.00,6.90,3.32,-16.08,-16.07,1.10
21.44,-21.98,-21.97,-23.11,-23.09,6.00,6.89,3.41,-15.98,-15.97,1.12
21.66,-21.89,-21.89,-23.03,-23.03,6.00,6.89,3.51,-15.89,-15.89,1.14
21.87,-21.79,-21.79,-22.94,-22.95,6.00,6.88,3.61,-15.79,-15.79,1.15
22.09,-21.68,-21.68,-22.85,-22.85,6.00,6.87,3.71,-15.68,-15.68,1.17
22.31,-21.56,-21.56,-22.74,-22.74,6.00,6.86,3.82,-15.56,-15.56,1.18
22.54,-21.44,-21.45,-22.62,-22.63,6.00,6.85,3.93,-15.44,-15.45,1.18
22.76,-21.31,-21.32,-22.49,-22.49,6.00,6.85,4.04,-15.31,-15.32,1.18
22.99,-21.20,-21.18,-22.36,-22.34,6.00,6.84,4.15,-15.20,-15.18,1.17
23.22,-21.01,-21.01,-22.17,-22.18,6.00,6.83,4.27,-15.01,-15.01,1.17
23.45,-20.81,-20.82,-21.98,-21.98,6.00,6.82,4.39,-14.81,-14.82,1.17
23.69,-20.62,-20.62,-21.79,-21.79,6.00,6.81,4.51,-14.62,-14.62,1.17
23.92,-20.42,-20.44,-21.60,-21.61,6.00,6.80,4.64,-14.42,-14.44,1.17
24.16,-20.27,-20.28,-21.46,-21.46,6.00,6.79,4.76,-14.27,-14.28,1.18
24.40,-20.14,-20.14,-21.34,-21.32,6.00,6.78,4.89,-14.14,-14.14,1.19
24.65,-20.01,-20.00,-21.19,-21.19,6.00,6.77,5.02,-14.01,-14.00,1.18
24.89,-19.87,-19.87,-21.05,-21.06,6.00,6.76,5.16,-13.87,-13.87,1.18
25.14,-19.74,-19.75,-20.92,-20.93,6.00,6.75,5.29,-13.74,-13.75,1.18
25.39,-19.63,-19.63,-20.82,-20.82,6.00,6.74,5.43,-13.63,-13.63,1.19
25.65,-19.52,-19.52,-20.70,-20.70,6.00,6.73,5.56,-13.52,-13.52,1.19
25.91,-19.40,-19.39,-20.57,-20.57,6.00,6.72,5.70,-13.40,-13.39,1.18
26.16,-19.23,-19.23,-20.41,-20.41,6.00,6.71,5.84,-13.23,-13.23,1.18
26.43,-19.06,-19.05,-20.23,-20.22,6.00,6.69,5.97,-13.06,-13.05,1.17
26.69,-18.87,-18.87,-20.04,-20.04,6.00,6.68,6.11,-12.87,-12.87,1.17
26.96,-18.69,-18.70,-19.87,-19.88,6.00,6.67,6.24,-12.69,-12.70,1.18
27.23,-18.57,-18.57,-19.75,-19.75,6.00,6.66,6.38,-12.57,-12.57,1.18
27.50,-18.47,-18.47,-19.64,-19.65,6.00,6.65,6.50,-12.47,-12.47,1.18
27.77,-18.35,-18.35,-19.52,-19.52,6.00,6.63,6.63,-12.35,-12.35,1.17
28.05,-18.22,-18.19,-19.39,-19.35,6.00,6.62,6.75,-12.22,-12.19,1.17
28.33,-17.96,-17.97,-19.12,-19.13,6.00,6.61,6.86,-11.96,-11.97,1.15
28.62,-17.72,-17.72,-18.87,-18.87,6.00,6.59,6.97,-11.72,-11.72,1.15
28.90,-17.45,-17.48,-18.62,-18.63,6.00,6.58,7.07,-11.45,-11.48,1.16
29.19,-17.29,-17.30,-18.43,-18.45,6.00,6.56,7.17,-11.29,-11.30,1.15
29.48,-17.15,-17.15,-18.32,-18.31,6.00,6.55,7.25,-11.15,-11.15,1.17
29.78,-17.03,-17.02,-18.18,-18.18,6.00,6.54,7.33,-11.03,-11.02,1.16
30.08,-16.88,-16.86,-18.04,-18.02,6.00,6.52,7.39,-10.88,-10.86,1.16
30.38,-16.68,-16.68,-17.83,-17.83,6.00,6.51,7.45,-10.68,-10.68,1.15
30.68,-16.49,-16.48,-17.64,-17.64,6.00,6.49,7.49,-10.49,-10.48,1.15
30.99,-16.29,-16.31,-17.44,-17.45,6.00,6.47,7.52,-10.29,-10.31,1.15
31.30,-16.16,-16.16,-17.30,-17.31,6.00,6.46,7.54,-10.16,-10.16,1.15
31.61,-16.04,-16.03,-17.18,-17.17,6.00,6.44,7.55,-10.04,-10.03,1.14
31.93,-15.92,-15.91,-17.06,-17.05,6.00,6.42,7.54,-9.92,-9.91,1.14
32.24,-15.78,-15.79,-16.91,-16.93,6.00,6.41,7.53,-9.78,-9.79,1.13
32.57,-15.67,-15.67,-16.80,-16.80,6.00,6.39,7.50,-9.67,-9.67,1.14
32.89,-15.53,-15.52,-16.67,-16.65,6.00,6.37,7.47,-9.53,-9.52,1.13
33.22,-15.36,-15.36,-16.49,-16.48,6.00,6.36,7.42,-9.36,-9.36,1.12
33.55,-15.17,-15.18,-16.29,-16.30,6.00,6.34,7.36,-9.17,-9.18,1.12
33.89,-14.99,-14.99,-16.09,-16.10,6.00,6.32,7.30,-8.99,-8.99,1.11
34.23,-14.82,-14.82,-15.93,-15.92,6.00,6.30,7.23,-8.82,-8.82,1.11
34.57,-14.65,-14.65,-15.74,-15.75,6.00,6.28,7.15,-8.65,-8.65,1.10
34.92,-14.48,-14.47,-15.57,-15.57,6.00,6.26,7.07,-8.48,-8.47,1.10
35.27,-14.28,-14.26,-15.37,-15.35,6.00,6.24,6.98,-8.28,-8.26,1.09
35.62,-14.06,-14.06,-15.15,-15.15,6.00,6.22,6.89,-8.06,-8.06,1.09
35.97,-13.84,-13.89,-14.93,-14.98,6.00,6.20,6.79,-7.84,-7.89,1.09
36.33,-13.76,-13.78,-14.86,-14.86,6.00,6.18,6.69,-7.76,-7.78,1.09
36.70,-13.70,-13.68,-14.77,-14.76,6.00,6.16,6.59,-7.70,-7.68,1.08
37.06,-13.58,-13.53,-14.66,-14.62,6.00,6.14,6.49,-7.58,-7.53,1.07
37.43,-13.32,-13.32,-14.41,-14.40,6.00,6.12,6.39,-7.32,-7.32,1.09
37.81,-13.06,-13.09,-14.14,-14.17,6.00,6.10,6.29,-7.06,-7.09,1.09
38.19,-12.87,-12.88,-13.95,-13.97,6.00,6.08,6.20,-6.87,-6.88,1.08
38.57,-12.74,-12.73,-13.82,-13.81,6.00,6.06,6.10,-6.74,-6.73,1.09
38.95,-12.60,-12.59,-13.69,-13.67,6.00,6.04,6.00,-6.60,-6.59,1.09
39.34,-12.43,-12.44,-13.52,-13.53,6.00,6.02,5.91,-6.43,-6.44,1.09
39.74,-12.27,-12.27,-13.35,-13.35,6.00,5.99,5.82,-6.27,-6.27,1.08
40.14,-12.09,-12.08,-13.17,-13.17,6.00,5.97,5.73,-6.09,-6.08,1.09
40.54,-11.90,-11.90,-12.98,-12.98,6.00,5.95,5.65,-5.90,-5.90,1.08
40.94,-11.70,-11.71,-12.78,-12.78,6.00,5.93,5.56,-5.70,-5.71,1.07
41.35,-11.52,-11.52,-12.59,-12.59,6.00,5.91,5.49,-5.52,-5.52,1.07
41.76,-11.35,-11.36,-12.42,-12.42,6.00,5.89,5.41,-5.35,-5.36,1.06
42.18,-11.20,-11.22,-12.27,-12.28,6.00,5.87,5.34,-5.20,-5.22,1.07
42.60,-11.08,-11.08,-12.13,-12.14,6.00,5.85,5.27,-5.08,-5.08,1.05
43.03,-10.96,-10.90,-12.00,-11.95,6.00,5.83,5.21,-4.96,-4.90,1.04
43.46,-10.69,-10.69,-11.73,-11.72,6.00,5.82,5.15,-4.69,-4.69,1.03
43.90,-10.44,-10.49,-11.45,-11.50,6.00,5.80,5.09,-4.44,-4.49,1.01
44.33,-10.29,-10.31,-11.28,-11.30,6.00,5.79,5.04,-4.29,-4.31,0.99
44.78,-10.19,-10.15,-11.16,-11.12,6.00,5.77,5.00,-4.19,-4.15,0.97
45.23,-9.99,-9.95,-10.95,-10.91,6.00,5.76,4.95,-3.99,-3.95,0.96
45.68,-9.72,-9.74,-10.66,-10.68,6.00,5.75,4.91,-3.72,-3.74,0.94
46.13,-9.49,-9.55,-10.42,-10.48,6.00,5.74,4.87,-3.49,-3.55,0.93
46.60,-9.42,-9.41,-10.34,-10.32,6.00,5.74,4.84,-3.42,-3.41,0.93
47.06,-9.32,-9.28,-10.23,-10.19,6.00,5.73,4.81,-3.32,-3.28,0.91
47.53,-9.13,-9.14,-10.03,-10.04,6.00,5.73,4.79,-3.13,-3.14,0.90
48.01,-8.94,-8.96,-9.83,-9.85,6.00,5.74,4.77,-2.94,-2.96,0.90
48.49,-8.77,-8.77,-9.64,-9.64,6.00,5.74,4.75,-2.77,-2.77,0.88
48.97,-8.60,-8.60,-9.46,-9.46,6.00,5.75,4.73,-2.60,-2.60,0.85
49.46,-8.41,-8.42,-9.25,-9.25,6.00,5.77,4.72,-2.41,-2.42,0.83
49.96,-8.23,-8.19,-9.04,-9.01,6.00,5.79,4.70,-2.23,-2.19,0.81
50.46,-7.95,-7.94,-8.76,-8.75,6.00,5.81,4.70,-1.95,-1.94,0.81
50.96,-7.67,-7.72,-8.46,-8.51,6.00,5.84,4.69,-1.67,-1.72,0.80
51.47,-7.56,-7.55,-8.33,-8.32,6.00,5.87,4.68,-1.56,-1.55,0.77
51.99,-7.45,-7.45,-8.21,-8.21,6.00,5.91,4.68,-1.45,-1.45,0.76
52.51,-7.36,-7.36,-8.11,-8.11,6.00,5.95,4.68,-1.36,-1.36,0.76
53.03,-7.26,-7.20,-8.01,-7.95,6.00,5.98,4.67,-1.26,-1.20,0.75
53.56,-7.01,-7.02,-7.74,-7.76,6.00,6.02,4.67,-1.01,-1.02,0.74
54.10,-6.79,-6.84,-7.51,-7.57,6.00,6.04,4.67,-0.79,-0.84,0.72
54.64,-6.68,-6.65,-7.38,-7.36,6.01,6.06,4.66,-0.67,-0.64,0.71
55.18,-6.51,-6.47,-7.21,-7.16,6.03,6.07,4.66,-0.49,-0.44,0.70
55.74,-6.24,-6.26,-6.92,-6.95,6.04,6.05,4.65,-0.20,-0.22,0.68
56.29,-6.01,-6.03,-6.69,-6.70,6.03,6.02,4.64,0.02,-0.00,0.67
56.86,-5.84,-5.84,-6.49,-6.49,6.01,5.96,4.63,0.17,0.17,0.66
57.42,-5.66,-5.67,-6.29,-6.30,5.97,5.88,4.62,0.30,0.30,0.63
58.00,-5.51,-5.46,-6.12,-6.08,5.89,5.77,4.60,0.39,0.43,0.62
58.58,-5.24,-5.25,-5.84,-5.85,5.79,5.64,4.57,0.55,0.54,0.61
59.16,-5.00,-5.05,-5.59,-5.64,5.64,5.48,4.55,0.63,0.59,0.59
59.76,-4.90,-4.88,-5.46,-5.45,5.46,5.31,4.51,0.56,0.58,0.57
60.35,-4.74,-4.73,-5.27,-5.26,5.25,5.11,4.48,0.51,0.52,0.52
60.96,-4.58,-4.55,-5.07,-5.04,5.03,4.91,4.43,0.45,0.48,0.49
61.57,-4.32,-4.33,-4.77,-4.77,4.80,4.70,4.38,0.48,0.47,0.45
62.18,-4.08,-4.11,-4.49,-4.52,4.56,4.49,4.33,0.48,0.45,0.41
62.80,-3.93,-3.93,-4.30,-4.29,4.35,4.27,4.27,0.41,0.41,0.36
63.43,-3.79,-3.79,-4.11,-4.11,4.14,4.05,4.20,0.34,0.35,0.32
64.07,-3.67,-3.66,-3.94,-3.93,3.93,3.84,4.12,0.27,0.27,0.27
64.71,-3.52,-3.51,-3.74,-3.74,3.73,3.62,4.04,0.21,0.21,0.22
65.35,-3.35,-3.36,-3.54,-3.54,3.52,3.41,3.95,0.17,0.17,0.19
66.01,-3.20,-3.19,-3.33,-3.33,3.32,3.20,3.86,0.12,0.12,0.14
66.67,-3.03,-3.04,-3.11,-3.13,3.10,2.99,3.76,0.07,0.06,0.09
67.33,-2.86,-2.87,-2.90,-2.91,2.87,2.79,3.66,0.01,0.00,0.04
68.01,-2.72,-2.66,-2.71,-2.66,2.64,2.58,3.55,-0.08,-0.02,-0.00
68.69,-2.42,-2.44,-2.36,-2.39,2.40,2.38,3.43,-0.02,-0.04,-0.05
69.37,-2.19,-2.23,-2.09,-2.13,2.17,2.18,3.32,-0.03,-0.06,-0.10
70.07,-2.06,-2.04,-1.90,-1.89,1.94,1.98,3.19,-0.12,-0.11,-0.16
70.77,-1.92,-1.90,-1.71,-1.69,1.71,1.78,3.07,-0.20,-0.18,-0.20
71.48,-1.76,-1.76,-1.50,-1.50,1.49,1.58,2.94,-0.26,-0.27,-0.26
72.19,-1.60,-1.62,-1.27,-1.31,1.28,1.38,2.80,-0.31,-0.34,-0.32
72.91,-1.50,-1.48,-1.13,-1.11,1.09,1.18,2.67,-0.42,-0.40,-0.38
73.64,-1.35,-1.33,-0.92,-0.90,0.90,0.97,2.53,-0.45,-0.43,-0.43
74.38,-1.19,-1.20,-0.69,-0.71,0.72,0.77,2.39,-0.47,-0.48,-0.49
75.12,-1.03,-1.06,-0.48,-0.51,0.53,0.57,2.25,-0.49,-0.53,-0.55
75.87,-0.98,-0.94,-0.38,-0.34,0.35,0.37,2.10,-0.64,-0.60,-0.61
76.63,-0.83,-0.83,-0.18,-0.17,0.16,0.17,1.96,-0.68,-0.67,-0.66
77.40,-0.70,-0.72,0.01,-0.00,-0.03,-0.04,1.81,-0.72,-0.74,-0.71
78.17,-0.57,-0.57,0.20,0.19,-0.21,-0.24,1.67,-0.79,-0.78,-0.77
78.95,-0.44,-0.42,0.36,0.39,-0.39,-0.43,1.52,-0.84,-0.82,-0.80
79.74,-0.26,-0.27,0.59,0.59,-0.58,-0.63,1.37,-0.84,-0.85,-0.86
80.54,-0.12,-0.13,0.79,0.78,-0.76,-0.82,1.23,-0.88,-0.89,-0.90
81.35,0.00,-0.00,0.96,0.95,-0.94,-1.00,1.08,-0.93,-0.94,-0.96
82.16,0.09,0.10,1.10,1.10,-1.10,-1.18,0.93,-1.01,-1.00,-1.00
82.98,0.20,0.22,1.23,1.27,-1.26,-1.35,0.78,-1.07,-1.04,-1.04
83.81,0.34,0.34,1.44,1.43,-1.41,-1.51,0.63,-1.06,-1.07,-1.10
84.65,0.45,0.43,1.60,1.57,-1.55,-1.66,0.48,-1.09,-1.12,-1.14
85.50,0.49,0.48,1.68,1.67,-1.68,-1.80,0.33,-1.18,-1.19,-1.18
86.35,0.51,0.55,1.75,1.78,-1.80,-1.94,0.18,-1.29,-1.26,-1.23
87.22,0.59,0.62,1.88,1.91,-1.93,-2.06,0.03,-1.34,-1.31,-1.28
88.09,0.76,0.72,2.10,2.05,-2.06,-2.18,-0.12,-1.29,-1.34,-1.33
88.97,0.81,0.80,2.20,2.19,-2.18,-2.29,-0.27,-1.37,-1.38,-1.38
89.86,0.86,0.87,2.30,2.30,-2.31,-2.39,-0.42,-1.44,-1.44,-1.43
90.76,0.89,0.94,2.38,2.42,-2.43,-2.48,-0.57,-1.53,-1.49,-1.49
91.66,1.04,1.01,2.56,2.55,-2.54,-2.56,-0.73,-1.51,-1.53,-1.53
92.58,1.10,1.08,2.70,2.67,-2.65,-2.64,-0.88,-1.55,-1.57,-1.59
93.51,1.11,1.14,2.75,2.77,-2.75,-2.72,-1.03,-1.63,-1.61,-1.64
94.44,1.15,1.16,2.83,2.84,-2.83,-2.79,-1.18,-1.68,-1.67,-1.68
95.39,1.19,1.18,2.92,2.91,-2.91,-2.86,-1.33,-1.72,-1.73,-1.72
96.34,1.20,1.20,2.98,2.97,-2.99,-2.92,-1.48,-1.78,-1.79,-1.78
97.30,1.20,1.22,3.03,3.04,-3.05,-2.98,-1.63,-1.85,-1.84,-1.82
98.28,1.21,1.23,3.08,3.10,-3.11,-3.04,-1.79,-1.90,-1.88,-1.87
99.26,1.27,1.25,3.19,3.17,-3.16,-3.10,-1.94,-1.89,-1.91,-1.92
100.25,1.26,1.26,3.23,3.22,-3.21,-3.16,-2.09,-1.94,-1.95,-1.96
101.25,1.24,1.26,3.25,3.26,-3.25,-3.21,-2.24,-2.01,-2.00,-2.01
102.27,1.23,1.23,3.29,3.29,-3.29,-3.26,-2.38,-2.06,-2.06,-2.05
103.29,1.21,1.22,3.32,3.32,-3.33,-3.31,-2.53,-2.11,-2.11,-2.11
104.32,1.19,1.20,3.34,3.34,-3.35,-3.35,-2.68,-2.16,-2.16,-2.15
105.37,1.17,1.17,3.37,3.37,-3.38,-3.40,-2.82,-2.20,-2.20,-2.19
106.42,1.14,1.15,3.38,3.39,-3.39,-3.44,-2.96,-2.25,-2.24,-2.24
107.48,1.12,1.12,3.42,3.42,-3.40,-3.48,-3.10,-2.27,-2.28,-2.29
108.56,1.09,1.08,3.45,3.43,-3.40,-3.51,-3.24,-2.31,-2.33,-2.35
109.64,1.01,1.03,3.41,3.43,-3.41,-3.54,-3.37,-2.39,-2.38,-2.40
110.74,0.96,0.97,3.42,3.41,-3.42,-3.56,-3.50,-2.45,-2.45,-2.45
111.85,0.92,0.90,3.41,3.40,-3.43,-3.59,-3.62,-2.50,-2.53,-2.49
112.97,0.83,0.86,3.39,3.41,-3.45,-3.60,-3.74,-2.61,-2.59,-2.55
114.10,0.82,0.83,3.42,3.43,-3.46,-3.62,-3.85,-2.64,-2.63,-2.60
115.24,0.82,0.82,3.47,3.47,-3.48,-3.63,-3.96,-2.65,-2.66,-2.64
116.39,0.82,0.83,3.52,3.53,-3.49,-3.63,-4.06,-2.67,-2.66,-2.70
117.55,0.83,0.82,3.57,3.56,-3.52,-3.63,-4.15,-2.68,-2.69,-2.73
118.73,0.80,0.79,3.58,3.57,-3.54,-3.64,-4.24,-2.73,-2.74,-2.78
119.92,0.74,0.75,3.54,3.56,-3.56,-3.63,-4.31,-2.81,-2.81,-2.80
121.12,0.69,0.70,3.54,3.54,-3.57,-3.63,-4.38,-2.88,-2.87,-2.84
122.33,0.66,0.67,3.54,3.54,-3.57,-3.63,-4.44,-2.91,-2.90,-2.87
123.55,0.66,0.68,3.56,3.58,-3.57,-3.62,-4.49,-2.91,-2.90,-2.90
124.79,0.67,0.67,3.60,3.60,-3.57,-3.62,-4.53,-2.90,-2.90,-2.93
126.03,0.67,0.63,3.63,3.59,-3.57,-3.61,-4.57,-2.89,-2.94,-2.96
127.29,0.55,0.58,3.53,3.56,-3.56,-3.62,-4.59,-3.01,-2.99,-2.98
128.57,0.49,0.52,3.51,3.54,-3.56,-3.62,-4.61,-3.06,-3.03,-3.02
129.85,0.49,0.49,3.54,3.54,-3.55,-3.62,-4.61,-3.05,-3.05,-3.05
131.15,0.49,0.47,3.57,3.55,-3.54,-3.63,-4.61,-3.04,-3.07,-3.07
132.46,0.45,0.43,3.56,3.53,-3.53,-3.64,-4.60,-3.07,-3.10,-3.10
133.79,0.34,0.37,3.47,3.50,-3.51,-3.65,-4.58,-3.17,-3.14,-3.13
135.12,0.31,0.33,3.48,3.49,-3.50,-3.66,-4.55,-3.19,-3.17,-3.16
136.48,0.31,0.31,3.49,3.49,-3.49,-3.67,-4.53,-3.18,-3.18,-3.18
137.84,0.31,0.28,3.53,3.50,-3.48,-3.69,-4.49,-3.17,-3.20,-3.21
139.22,0.22,0.23,3.47,3.47,-3.47,-3.70,-4.45,-3.24,-3.24,-3.25
140.61,0.14,0.17,3.42,3.45,-3.45,-3.71,-4.40,-3.31,-3.28,-3.28
142.02,0.12,0.13,3.42,3.43,-3.43,-3.72,-4.35,-3.31,-3.30,-3.29
143.44,0.12,0.10,3.45,3.43,-3.41,-3.73,-4.29,-3.29,-3.32,-3.32
144.87,0.06,0.05,3.43,3.41,-3.39,-3.73,-4.24,-3.32,-3.34,-3.36
146.32,-0.04,-0.01,3.37,3.39,-3.37,-3.73,-4.18,-3.40,-3.37,-3.40
147.78,-0.09,-0.08,3.35,3.35,-3.35,-3.73,-4.12,-3.44,-3.44,-3.43
149.26,-0.13,-0.15,3.35,3.33,-3.36,-3.73,-4.06,-3.48,-3.51,-3.48
150.75,-0.23,-0.21,3.32,3.33,-3.37,-3.72,-3.99,-3.60,-3.59,-3.55
152.26,-0.28,-0.26,3.34,3.35,-3.40,-3.72,-3.93,-3.67,-3.66,-3.61
153.78,-0.29,-0.28,3.39,3.40,-3.42,-3.70,-3.87,-3.71,-3.71,-3.68
155.32,-0.28,-0.27,3.48,3.48,-3.46,-3.69,-3.81,-3.74,-3.74,-3.75
156.88,-0.28,-0.28,3.55,3.55,-3.51,-3.67,-3.75,-3.78,-3.78,-3.83
158.44,-0.29,-0.32,3.63,3.60,-3.56,-3.65,-3.69,-3.84,-3.87,-3.91
160.03,-0.39,-0.38,3.61,3.61,-3.61,-3.63,-3.63,-3.99,-3.99,-3.99
161.63,-0.47,-0.44,3.60,3.62,-3.65,-3.61,-3.57,-4.11,-4.09,-4.06
163.24,-0.49,-0.48,3.64,3.65,-3.67,-3.59,-3.51,-4.16,-4.15,-4.13
164.88,-0.49,-0.49,3.69,3.68,-3.69,-3.56,-3.46,-4.17,-4.18,-4.17
166.53,-0.50,-0.51,3.73,3.72,-3.69,-3.53,-3.41,-4.18,-4.19,-4.22
168.19,-0.56,-0.55,3.71,3.71,-3.68,-3.50,-3.36,-4.23,-4.23,-4.26
169.87,-0.61,-0.61,3.69,3.68,-3.67,-3.47,-3.31,-4.27,-4.28,-4.30
171.57,-0.70,-0.68,3.62,3.63,-3.64,-3.44,-3.27,-4.34,-4.33,-4.32
173.29,-0.74,-0.75,3.60,3.59,-3.61,-3.41,-3.23,-4.34,-4.35,-4.33
175.02,-0.81,-0.78,3.53,3.56,-3.56,-3.37,-3.19,-4.37,-4.35,-4.34
176.77,-0.83,-0.82,3.53,3.53,-3.52,-3.34,-3.15,-4.34,-4.34,-4.35
178.54,-0.83,-0.87,3.53,3.48,-3.47,-3.30,-3.11,-4.30,-4.34,-4.36
180.32,-0.94,-0.93,3.41,3.43,-3.43,-3.27,-3.08,-4.37,-4.36,-4.35
182.13,-1.01,-0.98,3.34,3.37,-3.40,-3.23,-3.05,-4.40,-4.37,-4.34
183.95,-1.02,-1.00,3.34,3.35,-3.36,-3.19,-3.02,-4.38,-4.37,-4.36
185.79,-1.00,-1.01,3.36,3.35,-3.34,-3.16,-3.00,-4.33,-4.35,-4.36
187.65,-1.01,-1.04,3.37,3.33,-3.32,-3.12,-2.98,-4.32,-4.36,-4.38
189.52,-1.11,-1.08,3.28,3.30,-3.30,-3.08,-2.96,-4.41,-4.39,-4.39
191.42,-1.15,-1.13,3.26,3.28,-3.30,-3.04,-2.94,-4.45,-4.43,-4.41
193.33,-1.15,-1.14,3.28,3.28,-3.30,-3.01,-2.92,-4.45,-4.45,-4.43
195.27,-1.13,-1.14,3.32,3.30,-3.31,-2.97,-2.91,-4.44,-4.45,-4.44
197.22,-1.14,-1.15,3.33,3.31,-3.31,-2.93,-2.90,-4.45,-4.47,-4.46
199.19,-1.19,-1.17,3.30,3.32,-3.31,-2.89,-2.89,-4.50,-4.48,-4.49
201.18,-1.20,-1.18,3.31,3.33,-3.31,-2.85,-2.88,-4.50,-4.49,-4.51
203.19,-1.19,-1.20,3.34,3.32,-3.30,-2.82,-2.87,-4.49,-4.50,-4.52
205.23,-1.22,-1.24,3.33,3.29,-3.28,-2.78,-2.87,-4.50,-4.53,-4.55
207.28,-1.33,-1.30,3.23,3.26,-3.25,-2.74,-2.86,-4.58,-4.55,-4.55
209.35,-1.39,-1.37,3.19,3.21,-3.21,-2.70,-2.86,-4.60,-4.58,-4.58
211.44,-1.41,-1.45,3.21,3.15,-3.16,-2.67,-2.86,-4.57,-4.61,-4.61
213.56,-1.53,-1.51,3.09,3.11,-3.11,-2.63,-2.86,-4.64,-4.62,-4.61
215.69,-1.60,-1.57,3.03,3.06,-3.06,-2.59,-2.86,-4.65,-4.63,-4.63
217.85,-1.61,-1.64,3.03,3.00,-3.01,-2.56,-2.86,-4.61,-4.65,-4.64
220.03,-1.70,-1.70,2.96,2.95,-2.96,-2.52,-2.86,-4.66,-4.66,-4.65
222.23,-1.78,-1.77,2.90,2.90,-2.92,-2.49,-2.86,-4.69,-4.68,-4.67
224.45,-1.84,-1.80,2.83,2.87,-2.88,-2.45,-2.86,-4.71,-4.68,-4.67
226.70,-1.82,-1.82,2.85,2.85,-2.84,-2.42,-2.86,-4.66,-4.66,-4.67
228.96,-1.78,-1.83,2.88,2.83,-2.81,-2.38,-2.86,-4.59,-4.64,-4.66
231.25,-1.88,-1.85,2.77,2.80,-2.79,-2.35,-2.86,-4.67,-4.64,-4.65
233.57,-1.90,-1.88,2.74,2.76,-2.78,-2.32,-2.85,-4.67,-4.65,-4.64
235.90,-1.89,-1.89,2.74,2.74,-2.77,-2.28,-2.85,-4.65,-4.66,-4.63
238.26,-1.87,-1.87,2.75,2.75,-2.76,-2.25,-2.84,-4.62,-4.63,-4.62
240.64,-1.85,-1.85,2.75,2.74,-2.75,-2.22,-2.84,-4.59,-4.60,-4.60
243.05,-1.84,-1.83,2.73,2.74,-2.73,-2.19,-2.83,-4.57,-4.56,-4.57
245.48,-1.82,-1.80,2.73,2.74,-2.71,-2.16,-2.82,-4.53,-4.51,-4.54
247.93,-1.79,-1.81,2.73,2.71,-2.68,-2.13,-2.80,-4.47,-4.49,-4.51
250.41,-1.81,-1.83,2.69,2.67,-2.65,-2.10,-2.79,-4.46,-4.48,-4.50
252.92,-1.90,-1.84,2.57,2.62,-2.62,-2.07,-2.77,-4.51,-4.46,-4.47
255.45,-1.87,-1.88,2.58,2.57,-2.58,-2.04,-2.75,-4.44,-4.46,-4.44
258.00,-1.88,-1.92,2.55,2.51,-2.53,-2.01,-2.73,-4.40,-4.44,-4.42
260.58,-1.97,-1.93,2.44,2.47,-2.48,-1.98,-2.71,-4.44,-4.41,-4.41
263.19,-1.97,-1.94,2.41,2.44,-2.43,-1.95,-2.68,-4.39,-4.37,-4.38
265.82,-1.93,-1.95,2.44,2.41,-2.39,-1.93,-2.66,-4.31,-4.33,-4.36
268.48,-1.93,-1.95,2.41,2.39,-2.37,-1.90,-2.63,-4.29,-4.32,-4.34
271.16,-1.97,-1.97,2.34,2.34,-2.36,-1.88,-2.60,-4.33,-4.33,-4.30
273.87,-2.01,-1.98,2.28,2.30,-2.37,-1.85,-2.57,-4.38,-4.35,-4.29
276.61,-1.95,-1.93,2.31,2.32,-2.39,-1.83,-2.54,-4.34,-4.33,-4.25
279.38,-1.85,-1.84,2.38,2.39,-2.42,-1.80,-2.50,-4.26,-4.25,-4.23
282.17,-1.71,-1.72,2.50,2.48,-2.45,-1.78,-2.47,-4.15,-4.17,-4.20
284.99,-1.63,-1.65,2.54,2.53,-2.48,-1.75,-2.44,-4.10,-4.12,-4.17
287.84,-1.62,-1.61,2.54,2.54,-2.50,-1.73,-2.40,-4.11,-4.10,-4.15
290.72,-1.61,-1.60,2.51,2.52,-2.51,-1.71,-2.37,-4.11,-4.11,-4.12
293.63,-1.60,-1.59,2.50,2.50,-2.49,-1.69,-2.33,-4.09,-4.08,-4.09
296.57,-1.59,-1.58,2.47,2.48,-2.46,-1.67,-2.30,-4.05,-4.04,-4.06
299.53,-1.58,-1.61,2.46,2.42,-2.41,-1.65,-2.26,-3.98,-4.02,-4.03
302.53,-1.67,-1.66,2.35,2.34,-2.35,-1.63,-2.23,-4.01,-4.01,-4.02
305.55,-1.75,-1.71,2.22,2.27,-2.29,-1.61,-2.19,-4.03,-3.99,-3.97
308.61,-1.75,-1.76,2.21,2.20,-2.23,-1.59,-2.16,-3.97,-3.98,-3.95
311.69,-1.76,-1.78,2.17,2.14,-2.17,-1.57,-2.12,-3.93,-3.95,-3.93
314.81,-1.82,-1.80,2.08,2.11,-2.12,-1.55,-2.09,-3.93,-3.92,-3.90
317.96,-1.83,-1.81,2.06,2.07,-2.07,-1.54,-2.06,-3.90,-3.89,-3.88
321.14,-1.83,-1.84,2.05,2.04,-2.03,-1.52,-2.03,-3.86,-3.87,-3.88
324.35,-1.84,-1.86,2.02,2.00,-1.99,-1.50,-2.00,-3.83,-3.85,-3.86
327.59,-1.92,-1.89,1.93,1.95,-1.94,-1.49,-1.97,-3.86,-3.84,-3.84
330.87,-1.94,-1.92,1.90,1.92,-1.89,-1.47,-1.95,-3.83,-3.81,-3.84
334.18,-1.94,-1.95,1.88,1.87,-1.84,-1.46,-1.92,-3.78,-3.79,-3.82
337.52,-1.97,-2.00,1.85,1.81,-1.79,-1.44,-1.89,-3.76,-3.79,-3.81
340.90,-2.09,-2.06,1.71,1.73,-1.75,-1.43,-1.87,-3.83,-3.81,-3.79
344.30,-2.15,-2.12,1.64,1.67,-1.71,-1.42,-1.85,-3.85,-3.83,-3.79
347.75,-2.15,-2.15,1.64,1.63,-1.67,-1.40,-1.83,-3.82,-3.82,-3.79
351.23,-2.14,-2.15,1.65,1.64,-1.65,-1.39,-1.81,-3.78,-3.79,-3.78
354.74,-2.14,-2.14,1.65,1.65,-1.63,-1.38,-1.79,-3.77,-3.77,-3.78
358.28,-2.14,-2.13,1.64,1.65,-1.63,-1.37,-1.77,-3.76,-3.75,-3.77
361.87,-2.13,-2.13,1.65,1.64,-1.63,-1.36,-1.76,-3.76,-3.77,-3.78
365.49,-2.13,-2.14,1.64,1.63,-1.65,-1.35,-1.74,-3.77,-3.79,-3.77
369.14,-2.17,-2.13,1.62,1.64,-1.66,-1.34,-1.73,-3.83,-3.80,-3.78
372.83,-2.13,-2.12,1.66,1.66,-1.67,-1.33,-1.72,-3.80,-3.79,-3.78
376.56,-2.08,-2.10,1.71,1.68,-1.68,-1.33,-1.71,-3.75,-3.78,-3.78
380.33,-2.09,-2.08,1.69,1.70,-1.68,-1.32,-1.70,-3.76,-3.75,-3.78
384.13,-2.09,-2.07,1.69,1.71,-1.68,-1.31,-1.69,-3.76,-3.75,-3.78
387.97,-2.08,-2.09,1.71,1.69,-1.68,-1.30,-1.69,-3.75,-3.77,-3.79
391.85,-2.11,-2.13,1.70,1.66,-1.67,-1.30,-1.68,-3.78,-3.80,-3.80
395.77,-2.20,-2.17,1.60,1.63,-1.66,-1.29,-1.68,-3.85,-3.82,-3.79
399.73,-2.22,-2.20,1.59,1.60,-1.63,-1.29,-1.67,-3.85,-3.83,-3.80
403.72,-2.19,-2.19,1.62,1.62,-1.61,-1.28,-1.67,-3.79,-3.80,-3.80
407.76,-2.19,-2.19,1.63,1.62,-1.59,-1.28,-1.67,-3.77,-3.78,-3.82
411.84,-2.19,-2.23,1.63,1.58,-1.57,-1.28,-1.67,-3.76,-3.81,-3.82
415.96,-2.32,-2.28,1.50,1.54,-1.56,-1.28,-1.67,-3.88,-3.84,-3.82
420.12,-2.35,-2.31,1.47,1.51,-1.55,-1.27,-1.67,-3.90,-3.86,-3.82
424.32,-2.29,-2.31,1.54,1.51,-1.53,-1.27,-1.67,-3.82,-3.85,-3.82
