frequency,raw,smoothed,error,error_smoothed,equalization,parametric_eq,fixed_band_eq,equalized_raw,equalized_smoothed,target
20.00,5.03,5.04,-1.23,-1.23,1.28,0.19,-1.61,6.31,6.32,6.27
20.20,5.14,5.14,-1.12,-1.13,1.14,0.13,-1.66,6.29,6.28,6.27
20.40,5.25,5.25,-1.01,-1.02,1.00,0.07,-1.70,6.26,6.25,6.27
20.61,5.36,5.37,-0.90,-0.89,0.86,0.00,-1.75,6.22,6.23,6.27
20.81,5.51,5.51,-0.76,-0.76,0.72,-0.06,-1.80,6.22,6.22,6.26
21.02,5.66,5.66,-0.60,-0.60,0.57,-0.13,-1.86,6.23,6.23,6.26
21.23,5.82,5.83,-0.44,-0.44,0.42,-0.20,-1.91,6.24,6.24,6.26
21.44,6.01,6.00,-0.26,-0.26,0.26,-0.28,-1.97,6.27,6.26,6.26
21.66,6.17,6.18,-0.09,-0.08,0.09,-0.35,-2.02,6.26,6.27,6.26
21.87,6.36,6.35,0.10,0.09,-0.08,-0.43,-2.08,6.28,6.27,6.26
22.09,6.53,6.52,0.27,0.26,-0.25,-0.51,-2.14,6.28,6.27,6.26
22.31,6.69,6.68,0.43,0.43,-0.41,-0.59,-2.21,6.27,6.27,6.26
22.54,6.83,6.84,0.57,0.58,-0.57,-0.67,-2.27,6.26,6.27,6.26
22.76,6.98,6.98,0.73,0.72,-0.72,-0.76,-2.34,6.26,6.26,6.26
22.99,7.12,7.12,0.87,0.87,-0.87,-0.84,-2.40,6.26,6.26,6.26
23.22,7.26,7.26,1.01,1.01,-1.01,-0.93,-2.47,6.25,6.25,6.26
23.45,7.39,7.40,1.14,1.14,-1.15,-1.02,-2.54,6.25,6.25,6.25
23.69,7.53,7.53,1.28,1.28,-1.29,-1.12,-2.61,6.25,6.25,6.25
23.92,7.68,7.67,1.42,1.42,-1.42,-1.21,-2.69,6.25,6.25,6.25
24.16,7.81,7.81,1.55,1.56,-1.56,-1.31,-2.76,6.24,6.25,6.25
24.40,7.95,7.95,1.70,1.70,-1.70,-1.41,-2.84,6.25,6.25,6.25
24.65,8.08,8.08,1.83,1.83,-1.83,-1.51,-2.91,6.25,6.25,6.25
24.89,8.22,8.22,1.97,1.97,-1.96,-1.62,-2.99,6.25,6.25,6.25
25.14,8.35,8.34,2.10,2.10,-2.09,-1.73,-3.07,6.26,6.25,6.25
25.39,8.47,8.46,2.22,2.22,-2.21,-1.84,-3.15,6.26,6.25,6.24
25.65,8.57,8.58,2.33,2.33,-2.33,-1.95,-3.23,6.25,6.25,6.24
25.91,8.68,8.68,2.44,2.44,-2.44,-2.06,-3.30,6.25,6.24,6.24
26.16,8.79,8.78,2.55,2.54,-2.54,-2.18,-3.38,6.24,6.24,6.24
26.43,8.88,8.88,2.64,2.65,-2.65,-2.29,-3.46,6.23,6.24,6.24
26.69,8.98,8.99,2.75,2.75,-2.75,-2.41,-3.54,6.23,6.23,6.24
26.96,9.09,9.09,2.86,2.85,-2.86,-2.53,-3.62,6.23,6.23,6.24
27.23,9.19,9.19,2.96,2.96,-2.97,-2.66,-3.69,6.22,6.23,6.23
27.50,9.30,9.31,3.07,3.07,-3.08,-2.78,-3.77,6.23,6.23,6.23
27.77,9.42,9.42,3.19,3.19,-3.19,-2.91,-3.84,6.23,6.23,6.23
28.05,9.53,9.53,3.31,3.30,-3.30,-3.03,-3.91,6.24,6.23,6.23
28.33,9.63,9.64,3.41,3.41,-3.41,-3.16,-3.97,6.23,6.23,6.23
28.62,9.74,9.74,3.52,3.52,-3.52,-3.28,-4.03,6.22,6.22,6.22
28.90,9.85,9.85,3.63,3.63,-3.63,-3.41,-4.09,6.22,6.22,6.22
29.19,9.95,9.96,3.74,3.74,-3.74,-3.54,-4.15,6.22,6.22,6.22
29.48,10.06,10.06,3.85,3.85,-3.85,-3.66,-4.20,6.22,6.22,6.22
29.78,10.16,10.16,3.95,3.95,-3.95,-3.79,-4.24,6.21,6.21,6.21
30.08,10.26,10.26,4.05,4.05,-4.05,-3.91,-4.28,6.21,6.21,6.21
30.38,10.36,10.36,4.15,4.15,-4.15,-4.03,-4.32,6.21,6.21,6.21
30.68,10.45,10.46,4.25,4.25,-4.25,-4.15,-4.35,6.20,6.21,6.21
30.99,10.55,10.55,4.35,4.35,-4.35,-4.27,-4.37,6.21,6.20,6.20
31.30,10.64,10.64,4.44,4.44,-4.44,-4.38,-4.39,6.20,6.20,6.20
31.61,10.72,10.73,4.53,4.53,-4.53,-4.49,-4.40,6.19,6.19,6.20
31.93,10.81,10.81,4.62,4.62,-4.62,-4.59,-4.41,6.19,6.19,6.19
32.24,10.89,10.90,4.71,4.71,-4.71,-4.69,-4.41,6.19,6.19,6.19
32.57,10.97,10.97,4.79,4.79,-4.79,-4.78,-4.41,6.18,6.19,6.19
32.89,11.05,11.05,4.87,4.87,-4.87,-4.87,-4.40,6.19,6.18,6.18
33.22,11.11,11.12,4.94,4.94,-4.94,-4.95,-4.38,6.18,6.18,6.18
33.55,11.18,11.18,5.01,5.01,-5.00,-5.02,-4.37,6.18,6.18,6.17
33.89,11.23,11.23,5.06,5.06,-5.06,-5.09,-4.34,6.17,6.17,6.17
34.23,11.27,11.28,5.11,5.11,-5.11,-5.15,-4.32,6.17,6.17,6.17
34.57,11.31,11.31,5.15,5.15,-5.15,-5.20,-4.29,6.16,6.16,6.16
34.92,11.34,11.34,5.19,5.18,-5.18,-5.24,-4.26,6.16,6.16,6.16
35.27,11.36,11.36,5.21,5.21,-5.21,-5.28,-4.22,6.15,6.15,6.15
35.62,11.37,11.38,5.23,5.23,-5.23,-5.31,-4.19,6.15,6.15,6.15
35.97,11.38,11.38,5.24,5.24,-5.24,-5.32,-4.15,6.14,6.14,6.14
36.33,11.38,11.38,5.25,5.25,-5.25,-5.34,-4.11,6.14,6.14,6.14
36.70,11.38,11.38,5.25,5.25,-5.25,-5.34,-4.07,6.13,6.13,6.13
37.06,11.37,11.37,5.25,5.25,-5.25,-5.34,-4.03,6.13,6.13,6.13
37.43,11.36,11.36,5.24,5.24,-5.24,-5.33,-3.99,6.12,6.12,6.12
37.81,11.34,11.35,5.23,5.23,-5.23,-5.31,-3.95,6.11,6.11,6.11
38.19,11.32,11.32,5.22,5.22,-5.22,-5.29,-3.91,6.11,6.11,6.11
38.57,11.30,11.30,5.20,5.20,-5.20,-5.26,-3.88,6.10,6.10,6.10
38.95,11.27,11.28,5.18,5.18,-5.18,-5.23,-3.84,6.09,6.09,6.09
39.34,11.25,11.25,5.17,5.16,-5.16,-5.19,-3.80,6.09,6.09,6.09
39.74,11.22,11.22,5.14,5.14,-5.14,-5.15,-3.77,6.08,6.08,6.08
40.14,11.19,11.19,5.12,5.12,-5.12,-5.11,-3.74,6.07,6.07,6.07
40.54,11.15,11.16,5.09,5.09,-5.09,-5.06,-3.71,6.06,6.06,6.07
40.94,11.12,11.12,5.07,5.07,-5.06,-5.01,-3.68,6.06,6.06,6.06
41.35,11.08,11.08,5.04,5.04,-5.03,-4.96,-3.65,6.05,6.05,6.05
41.76,11.04,11.04,5.00,5.00,-5.00,-4.91,-3.63,6.04,6.04,6.04
42.18,10.99,10.99,4.96,4.96,-4.96,-4.85,-3.61,6.03,6.03,6.03
42.60,10.94,10.95,4.92,4.92,-4.92,-4.80,-3.59,6.02,6.02,6.02
43.03,10.89,10.89,4.88,4.88,-4.88,-4.74,-3.57,6.01,6.01,6.01
43.46,10.84,10.84,4.84,4.84,-4.84,-4.69,-3.56,6.00,6.00,6.00
43.90,10.78,10.78,4.79,4.79,-4.79,-4.64,-3.55,5.99,5.99,5.99
44.33,10.72,10.73,4.74,4.75,-4.75,-4.58,-3.54,5.98,5.98,5.98
44.78,10.67,10.67,4.71,4.70,-4.70,-4.53,-3.54,5.97,5.97,5.97
45.23,10.61,10.61,4.66,4.66,-4.66,-4.48,-3.54,5.96,5.96,5.96
45.68,10.55,10.55,4.61,4.61,-4.61,-4.43,-3.54,5.95,5.95,5.95
46.13,10.49,10.49,4.56,4.56,-4.56,-4.38,-3.54,5.93,5.93,5.93
46.60,10.43,10.44,4.51,4.52,-4.52,-4.33,-3.55,5.92,5.92,5.92
47.06,10.38,10.38,4.48,4.47,-4.47,-4.29,-3.56,5.91,5.91,5.91
47.53,10.32,10.32,4.43,4.43,-4.43,-4.24,-3.57,5.89,5.89,5.89
48.01,10.26,10.27,4.39,4.39,-4.39,-4.20,-3.58,5.87,5.88,5.88
48.49,10.21,10.21,4.35,4.35,-4.35,-4.16,-3.60,5.86,5.86,5.86
48.97,10.16,10.16,4.32,4.31,-4.32,-4.12,-3.61,5.85,5.85,5.85
49.46,10.11,10.11,4.28,4.28,-4.28,-4.09,-3.63,5.83,5.83,5.83
49.96,10.06,10.06,4.25,4.25,-4.25,-4.05,-3.66,5.82,5.82,5.82
50.46,10.01,10.01,4.21,4.22,-4.21,-4.02,-3.68,5.80,5.80,5.80
50.96,9.96,9.97,4.18,4.18,-4.18,-3.99,-3.70,5.79,5.79,5.78
51.47,9.91,9.91,4.15,4.15,-4.14,-3.96,-3.73,5.77,5.77,5.76
51.99,9.85,9.85,4.11,4.11,-4.10,-3.93,-3.76,5.75,5.75,5.75
52.51,9.78,9.79,4.06,4.06,-4.06,-3.90,-3.79,5.72,5.73,5.73
53.03,9.72,9.72,4.02,4.02,-4.02,-3.88,-3.81,5.70,5.70,5.71
53.56,9.66,9.66,3.98,3.98,-3.98,-3.85,-3.84,5.68,5.68,5.69
54.10,9.60,9.61,3.94,3.94,-3.95,-3.83,-3.87,5.66,5.66,5.66
54.64,9.55,9.55,3.91,3.91,-3.91,-3.81,-3.90,5.65,5.64,5.64
55.18,9.49,9.49,3.87,3.87,-3.87,-3.79,-3.93,5.62,5.62,5.62
55.74,9.43,9.43,3.84,3.84,-3.84,-3.77,-3.95,5.60,5.60,5.60
56.29,9.37,9.37,3.80,3.80,-3.81,-3.75,-3.98,5.57,5.57,5.57
56.86,9.31,9.32,3.77,3.77,-3.77,-3.73,-4.00,5.54,5.55,5.55
57.42,9.26,9.26,3.74,3.74,-3.74,-3.72,-4.02,5.53,5.52,5.52
58.00,9.20,9.20,3.71,3.71,-3.70,-3.70,-4.04,5.50,5.50,5.50
58.58,9.13,9.14,3.67,3.67,-3.66,-3.68,-4.05,5.47,5.47,5.47
59.16,9.07,9.07,3.63,3.63,-3.63,-3.67,-4.07,5.45,5.44,5.44
59.76,9.00,9.00,3.59,3.59,-3.59,-3.65,-4.07,5.41,5.41,5.41
60.35,8.93,8.93,3.55,3.55,-3.56,-3.64,-4.08,5.38,5.38,5.38
60.96,8.86,8.87,3.51,3.52,-3.52,-3.62,-4.08,5.34,5.34,5.35
61.57,8.80,8.80,3.49,3.48,-3.49,-3.61,-4.08,5.31,5.31,5.32
62.18,8.74,8.74,3.46,3.46,-3.46,-3.59,-4.07,5.28,5.28,5.29
62.80,8.68,8.68,3.43,3.43,-3.43,-3.58,-4.06,5.25,5.25,5.25
63.43,8.62,8.62,3.40,3.40,-3.40,-3.56,-4.04,5.22,5.22,5.22
64.07,8.56,8.56,3.38,3.38,-3.37,-3.54,-4.02,5.19,5.19,5.18
64.71,8.49,8.50,3.35,3.35,-3.35,-3.53,-4.00,5.15,5.15,5.15
65.35,8.43,8.43,3.32,3.32,-3.32,-3.51,-3.97,5.11,5.11,5.11
66.01,8.36,8.36,3.29,3.29,-3.29,-3.49,-3.94,5.07,5.07,5.07
66.67,8.29,8.30,3.26,3.26,-3.26,-3.47,-3.91,5.03,5.03,5.03
67.33,8.22,8.23,3.23,3.23,-3.24,-3.45,-3.87,4.99,4.99,4.99
68.01,8.16,8.16,3.21,3.21,-3.21,-3.43,-3.83,4.95,4.95,4.95
68.69,8.09,8.09,3.18,3.18,-3.18,-3.41,-3.78,4.91,4.91,4.91
69.37,8.02,8.03,3.16,3.16,-3.15,-3.39,-3.74,4.87,4.87,4.87
70.07,7.95,7.95,3.13,3.13,-3.13,-3.36,-3.69,4.83,4.83,4.82
70.77,7.88,7.88,3.11,3.10,-3.10,-3.34,-3.64,4.78,4.78,4.78
71.48,7.80,7.81,3.07,3.07,-3.08,-3.31,-3.59,4.73,4.73,4.73
72.19,7.73,7.73,3.05,3.05,-3.05,-3.28,-3.54,4.68,4.68,4.68
72.91,7.65,7.66,3.02,3.02,-3.02,-3.26,-3.48,4.63,4.63,4.64
73.64,7.58,7.58,3.00,3.00,-3.00,-3.23,-3.43,4.59,4.59,4.59
74.38,7.51,7.51,2.98,2.97,-2.97,-3.20,-3.38,4.54,4.54,4.54
75.12,7.43,7.43,2.95,2.95,-2.94,-3.17,-3.32,4.49,4.49,4.49
75.87,7.35,7.35,2.92,2.92,-2.92,-3.14,-3.27,4.43,4.44,4.43
76.63,7.27,7.27,2.89,2.89,-2.89,-3.10,-3.21,4.38,4.38,4.38
77.40,7.19,7.19,2.87,2.87,-2.87,-3.07,-3.16,4.32,4.32,4.33
78.17,7.11,7.12,2.84,2.85,-2.85,-3.04,-3.11,4.26,4.27,4.27
78.95,7.04,7.04,2.83,2.83,-2.83,-3.00,-3.06,4.21,4.21,4.21
79.74,6.96,6.97,2.81,2.81,-2.81,-2.97,-3.01,4.16,4.16,4.16
80.54,6.89,6.89,2.79,2.79,-2.79,-2.93,-2.96,4.10,4.10,4.10
81.35,6.81,6.81,2.77,2.77,-2.77,-2.90,-2.92,4.04,4.04,4.04
82.16,6.73,6.73,2.75,2.76,-2.75,-2.86,-2.87,3.98,3.98,3.98
82.98,6.65,6.65,2.74,2.74,-2.74,-2.82,-2.83,3.92,3.92,3.92
83.81,6.57,6.57,2.72,2.72,-2.72,-2.78,-2.79,3.85,3.85,3.86
84.65,6.49,6.49,2.70,2.70,-2.70,-2.75,-2.75,3.79,3.79,3.79
85.50,6.41,6.41,2.68,2.68,-2.68,-2.71,-2.71,3.73,3.73,3.73
86.35,6.33,6.33,2.67,2.67,-2.67,-2.67,-2.68,3.67,3.67,3.67
87.22,6.25,6.25,2.65,2.65,-2.65,-2.63,-2.64,3.60,3.60,3.60
88.09,6.17,6.17,2.64,2.64,-2.64,-2.59,-2.61,3.54,3.53,3.53
88.97,6.08,6.09,2.62,2.62,-2.62,-2.55,-2.58,3.46,3.47,3.47
89.86,6.00,6.01,2.60,2.60,-2.61,-2.52,-2.55,3.40,3.40,3.40
90.76,5.92,5.92,2.59,2.59,-2.59,-2.48,-2.53,3.33,3.33,3.33
91.66,5.84,5.84,2.58,2.58,-2.58,-2.44,-2.51,3.27,3.27,3.26
92.58,5.75,5.76,2.56,2.56,-2.56,-2.40,-2.48,3.19,3.20,3.19
93.51,5.67,5.67,2.55,2.55,-2.55,-2.36,-2.46,3.13,3.12,3.13
94.44,5.58,5.58,2.53,2.53,-2.53,-2.33,-2.45,3.05,3.05,3.05
95.39,5.49,5.50,2.51,2.51,-2.51,-2.29,-2.43,2.98,2.98,2.98
96.34,5.41,5.41,2.50,2.50,-2.50,-2.25,-2.42,2.92,2.91,2.91
97.30,5.32,5.32,2.48,2.48,-2.48,-2.21,-2.40,2.84,2.84,2.84
98.28,5.23,5.23,2.46,2.47,-2.46,-2.18,-2.39,2.77,2.77,2.77
99.26,5.14,5.14,2.45,2.45,-2.45,-2.14,-2.38,2.70,2.70,2.70
100.25,5.05,5.05,2.43,2.43,-2.43,-2.11,-2.37,2.62,2.62,2.62
101.25,4.96,4.96,2.41,2.41,-2.41,-2.07,-2.37,2.55,2.55,2.55
102.27,4.87,4.87,2.39,2.39,-2.40,-2.04,-2.36,2.48,2.48,2.48
103.29,4.78,4.79,2.38,2.38,-2.38,-2.00,-2.36,2.40,2.40,2.41
104.32,4.70,4.70,2.37,2.37,-2.37,-1.97,-2.35,2.34,2.33,2.33
105.37,4.61,4.61,2.35,2.35,-2.35,-1.94,-2.35,2.26,2.26,2.26
106.42,4.52,4.52,2.34,2.34,-2.33,-1.90,-2.34,2.19,2.19,2.19
107.48,4.43,4.43,2.32,2.32,-2.31,-1.87,-2.34,2.12,2.12,2.11
108.56,4.33,4.34,2.29,2.30,-2.29,-1.84,-2.34,2.04,2.04,2.04
109.64,4.24,4.24,2.27,2.27,-2.27,-1.81,-2.33,1.97,1.97,1.97
110.74,4.14,4.14,2.25,2.25,-2.25,-1.78,-2.33,1.90,1.90,1.90
111.85,4.04,4.04,2.22,2.22,-2.22,-1.75,-2.33,1.82,1.82,1.82
112.97,3.94,3.94,2.19,2.19,-2.20,-1.72,-2.32,1.75,1.75,1.75
114.10,3.84,3.85,2.16,2.17,-2.17,-1.69,-2.32,1.67,1.67,1.68
115.24,3.75,3.75,2.15,2.14,-2.15,-1.66,-2.31,1.60,1.60,1.61
116.39,3.66,3.66,2.13,2.13,-2.13,-1.63,-2.30,1.54,1.53,1.54
117.55,3.57,3.57,2.11,2.11,-2.11,-1.61,-2.29,1.47,1.47,1.47
118.73,3.48,3.48,2.09,2.09,-2.08,-1.58,-2.28,1.40,1.40,1.40
119.92,3.39,3.39,2.07,2.06,-2.06,-1.55,-2.27,1.33,1.33,1.33
121.12,3.29,3.30,2.03,2.04,-2.03,-1.53,-2.25,1.26,1.27,1.26
122.33,3.20,3.20,2.01,2.01,-2.00,-1.50,-2.24,1.20,1.20,1.19
123.55,3.10,3.10,1.98,1.98,-1.97,-1.48,-2.22,1.13,1.13,1.12
124.79,2.99,3.00,1.94,1.94,-1.94,-1.45,-2.20,1.05,1.05,1.06
126.03,2.89,2.89,1.90,1.90,-1.91,-1.43,-2.18,0.98,0.99,0.99
127.29,2.79,2.80,1.87,1.87,-1.88,-1.40,-2.15,0.92,0.92,0.92
128.57,2.70,2.70,1.84,1.84,-1.84,-1.38,-2.12,0.86,0.86,0.86
129.85,2.60,2.61,1.81,1.81,-1.81,-1.36,-2.09,0.79,0.80,0.80
131.15,2.51,2.51,1.78,1.78,-1.78,-1.33,-2.06,0.74,0.73,0.73
132.46,2.41,2.42,1.74,1.75,-1.74,-1.31,-2.03,0.67,0.67,0.67
133.79,2.32,2.32,1.71,1.71,-1.71,-1.29,-1.99,0.61,0.61,0.61
135.12,2.23,2.23,1.68,1.68,-1.68,-1.27,-1.95,0.55,0.55,0.55
136.48,2.13,2.14,1.64,1.65,-1.65,-1.25,-1.92,0.49,0.49,0.49
137.84,2.04,2.04,1.61,1.61,-1.61,-1.22,-1.88,0.43,0.43,0.43
139.22,1.95,1.95,1.58,1.58,-1.58,-1.20,-1.83,0.37,0.37,0.37
140.61,1.86,1.86,1.55,1.55,-1.55,-1.18,-1.79,0.32,0.32,0.32
142.02,1.77,1.77,1.51,1.51,-1.51,-1.16,-1.75,0.26,0.26,0.26
143.44,1.68,1.68,1.48,1.48,-1.47,-1.14,-1.70,0.21,0.21,0.21
144.87,1.59,1.59,1.44,1.44,-1.44,-1.12,-1.65,0.16,0.16,0.15
146.32,1.50,1.50,1.40,1.40,-1.40,-1.10,-1.61,0.11,0.11,0.10
147.78,1.40,1.41,1.35,1.36,-1.35,-1.08,-1.56,0.05,0.05,0.05
149.26,1.31,1.31,1.31,1.31,-1.31,-1.06,-1.51,0.00,-0.00,-0.00
150.75,1.21,1.22,1.26,1.27,-1.27,-1.04,-1.46,-0.06,-0.05,-0.05
152.26,1.12,1.13,1.22,1.23,-1.23,-1.02,-1.41,-0.10,-0.10,-0.10
153.78,1.04,1.04,1.19,1.19,-1.19,-1.01,-1.37,-0.14,-0.15,-0.15
155.32,0.95,0.96,1.15,1.15,-1.15,-0.99,-1.32,-0.20,-0.20,-0.19
156.88,0.87,0.87,1.11,1.11,-1.12,-0.97,-1.27,-0.24,-0.24,-0.24
158.44,0.79,0.80,1.08,1.08,-1.09,-0.95,-1.22,-0.29,-0.29,-0.28
160.03,0.72,0.72,1.05,1.05,-1.06,-0.93,-1.17,-0.33,-0.33,-0.33
161.63,0.65,0.65,1.03,1.03,-1.03,-0.91,-1.12,-0.37,-0.37,-0.38
163.24,0.58,0.58,1.00,1.00,-1.00,-0.90,-1.08,-0.41,-0.41,-0.42
164.88,0.51,0.51,0.97,0.97,-0.97,-0.88,-1.03,-0.45,-0.45,-0.46
166.53,0.44,0.44,0.94,0.94,-0.94,-0.86,-0.98,-0.49,-0.49,-0.50
168.19,0.36,0.37,0.90,0.90,-0.90,-0.84,-0.94,-0.54,-0.54,-0.54
169.87,0.29,0.29,0.87,0.87,-0.87,-0.82,-0.89,-0.57,-0.58,-0.58
171.57,0.21,0.22,0.83,0.83,-0.83,-0.81,-0.85,-0.62,-0.62,-0.61
173.29,0.14,0.14,0.79,0.79,-0.79,-0.79,-0.80,-0.65,-0.65,-0.65
175.02,0.07,0.07,0.76,0.75,-0.76,-0.77,-0.76,-0.68,-0.68,-0.68
176.77,0.00,0.00,0.72,0.72,-0.72,-0.75,-0.71,-0.72,-0.72,-0.72
178.54,-0.07,-0.07,0.68,0.68,-0.69,-0.74,-0.67,-0.75,-0.75,-0.75
180.32,-0.14,-0.13,0.64,0.65,-0.65,-0.72,-0.63,-0.78,-0.78,-0.78
182.13,-0.20,-0.20,0.61,0.61,-0.61,-0.70,-0.58,-0.81,-0.81,-0.81
183.95,-0.27,-0.27,0.57,0.57,-0.57,-0.69,-0.54,-0.83,-0.83,-0.84
185.79,-0.34,-0.34,0.53,0.53,-0.52,-0.67,-0.50,-0.86,-0.86,-0.87
187.65,-0.42,-0.42,0.48,0.48,-0.47,-0.65,-0.46,-0.89,-0.89,-0.90
189.52,-0.50,-0.50,0.43,0.43,-0.42,-0.63,-0.42,-0.92,-0.92,-0.93
191.42,-0.58,-0.58,0.38,0.37,-0.38,-0.62,-0.38,-0.95,-0.95,-0.95
193.33,-0.66,-0.65,0.32,0.32,-0.33,-0.60,-0.34,-0.99,-0.98,-0.98
195.27,-0.73,-0.73,0.28,0.28,-0.29,-0.58,-0.30,-1.01,-1.01,-1.00
197.22,-0.79,-0.79,0.24,0.24,-0.25,-0.57,-0.26,-1.04,-1.04,-1.03
199.19,-0.84,-0.84,0.22,0.22,-0.22,-0.55,-0.22,-1.06,-1.06,-1.05
201.18,-0.88,-0.88,0.20,0.20,-0.20,-0.53,-0.19,-1.08,-1.08,-1.07
203.19,-0.91,-0.91,0.19,0.19,-0.19,-0.52,-0.15,-1.10,-1.10,-1.10
205.23,-0.94,-0.93,0.18,0.18,-0.19,-0.50,-0.11,-1.12,-1.12,-1.12
207.28,-0.96,-0.96,0.18,0.18,-0.18,-0.48,-0.08,-1.14,-1.14,-1.14
209.35,-0.98,-0.98,0.18,0.18,-0.18,-0.47,-0.04,-1.16,-1.16,-1.16
211.44,-1.00,-1.00,0.18,0.18,-0.18,-0.45,-0.01,-1.17,-1.17,-1.18
213.56,-1.03,-1.02,0.17,0.17,-0.17,-0.43,0.02,-1.19,-1.19,-1.20
215.69,-1.06,-1.05,0.16,0.16,-0.16,-0.41,0.05,-1.21,-1.21,-1.22
217.85,-1.09,-1.09,0.15,0.14,-0.14,-0.40,0.08,-1.22,-1.22,-1.23
220.03,-1.13,-1.13,0.12,0.12,-0.11,-0.38,0.11,-1.24,-1.24,-1.25
222.23,-1.18,-1.18,0.09,0.09,-0.08,-0.36,0.14,-1.26,-1.26,-1.27
224.45,-1.23,-1.23,0.06,0.05,-0.05,-0.34,0.17,-1.27,-1.28,-1.28
226.70,-1.29,-1.28,0.01,0.01,-0.02,-0.33,0.19,-1.30,-1.30,-1.30
228.96,-1.34,-1.34,-0.02,-0.02,0.01,-0.31,0.22,-1.32,-1.32,-1.31
231.25,-1.39,-1.38,-0.06,-0.06,0.04,-0.29,0.24,-1.35,-1.34,-1.33
233.57,-1.42,-1.42,-0.07,-0.07,0.06,-0.27,0.26,-1.36,-1.36,-1.34
235.90,-1.45,-1.44,-0.08,-0.08,0.07,-0.26,0.28,-1.37,-1.37,-1.36
238.26,-1.46,-1.46,-0.08,-0.08,0.08,-0.24,0.30,-1.38,-1.38,-1.38
240.64,-1.47,-1.47,-0.08,-0.07,0.08,-0.22,0.32,-1.39,-1.39,-1.39
243.05,-1.47,-1.47,-0.06,-0.07,0.07,-0.20,0.33,-1.39,-1.40,-1.40
245.48,-1.48,-1.47,-0.06,-0.06,0.06,-0.18,0.34,-1.41,-1.41,-1.41
247.93,-1.48,-1.48,-0.05,-0.05,0.05,-0.16,0.36,-1.42,-1.42,-1.43
250.41,-1.49,-1.48,-0.05,-0.05,0.05,-0.15,0.36,-1.44,-1.44,-1.44
252.92,-1.49,-1.49,-0.04,-0.04,0.04,-0.13,0.37,-1.45,-1.45,-1.45
255.45,-1.49,-1.49,-0.03,-0.03,0.03,-0.11,0.38,-1.45,-1.46,-1.46
258.00,-1.50,-1.49,-0.03,-0.02,0.03,-0.09,0.38,-1.47,-1.46,-1.47
260.58,-1.50,-1.50,-0.02,-0.02,0.03,-0.07,0.38,-1.47,-1.47,-1.48
263.19,-1.51,-1.51,-0.02,-0.02,0.03,-0.05,0.38,-1.48,-1.48,-1.49
265.82,-1.53,-1.52,-0.03,-0.03,0.03,-0.03,0.38,-1.50,-1.49,-1.49
268.48,-1.54,-1.54,-0.03,-0.04,0.04,-0.01,0.38,-1.50,-1.50,-1.50
271.16,-1.56,-1.56,-0.04,-0.05,0.04,0.01,0.38,-1.51,-1.51,-1.51
273.87,-1.58,-1.58,-0.06,-0.06,0.05,0.03,0.37,-1.52,-1.52,-1.52
276.61,-1.60,-1.60,-0.07,-0.07,0.07,0.05,0.36,-1.53,-1.53,-1.53
279.38,-1.62,-1.61,-0.08,-0.08,0.08,0.07,0.36,-1.54,-1.54,-1.53
282.17,-1.63,-1.63,-0.08,-0.09,0.09,0.09,0.35,-1.54,-1.54,-1.54
284.99,-1.65,-1.64,-0.11,-0.11,0.10,0.11,0.34,-1.54,-1.54,-1.54
287.84,-1.66,-1.66,-0.12,-0.12,0.12,0.13,0.32,-1.54,-1.54,-1.54
290.72,-1.68,-1.67,-0.13,-0.13,0.13,0.15,0.31,-1.55,-1.54,-1.54
293.63,-1.69,-1.69,-0.14,-0.14,0.15,0.17,0.30,-1.54,-1.54,-1.55
296.57,-1.70,-1.70,-0.15,-0.16,0.16,0.19,0.29,-1.54,-1.54,-1.54
299.53,-1.72,-1.72,-0.18,-0.17,0.18,0.21,0.27,-1.54,-1.54,-1.54
302.53,-1.74,-1.73,-0.19,-0.19,0.19,0.23,0.26,-1.54,-1.54,-1.54
305.55,-1.76,-1.75,-0.22,-0.21,0.21,0.25,0.24,-1.55,-1.55,-1.54
308.61,-1.77,-1.77,-0.22,-0.23,0.23,0.27,0.23,-1.54,-1.54,-1.55
311.69,-1.79,-1.78,-0.25,-0.24,0.24,0.29,0.21,-1.54,-1.54,-1.54
314.81,-1.80,-1.80,-0.25,-0.26,0.26,0.31,0.20,-1.54,-1.54,-1.54
317.96,-1.82,-1.82,-0.28,-0.27,0.27,0.33,0.18,-1.54,-1.54,-1.54
321.14,-1.83,-1.83,-0.28,-0.29,0.28,0.35,0.16,-1.54,-1.55,-1.54
324.35,-1.85,-1.84,-0.31,-0.30,0.29,0.36,0.15,-1.55,-1.55,-1.54
327.59,-1.85,-1.85,-0.31,-0.31,0.30,0.38,0.13,-1.54,-1.54,-1.53
330.87,-1.85,-1.85,-0.31,-0.31,0.31,0.40,0.11,-1.53,-1.53,-1.54
334.18,-1.85,-1.85,-0.32,-0.32,0.32,0.41,0.10,-1.52,-1.53,-1.53
337.52,-1.86,-1.86,-0.32,-0.32,0.33,0.43,0.08,-1.52,-1.52,-1.53
340.90,-1.87,-1.86,-0.34,-0.34,0.35,0.44,0.06,-1.52,-1.52,-1.53
344.30,-1.88,-1.88,-0.36,-0.35,0.36,0.45,0.05,-1.52,-1.52,-1.52
347.75,-1.89,-1.89,-0.37,-0.37,0.37,0.47,0.03,-1.51,-1.52,-1.51
351.23,-1.91,-1.90,-0.39,-0.39,0.39,0.48,0.01,-1.52,-1.51,-1.52
354.74,-1.92,-1.91,-0.42,-0.41,0.40,0.49,-0.00,-1.51,-1.51,-1.50
358.28,-1.92,-1.92,-0.41,-0.42,0.42,0.49,-0.02,-1.50,-1.50,-1.50
361.87,-1.93,-1.92,-0.43,-0.43,0.43,0.50,-0.03,-1.50,-1.50,-1.50
365.49,-1.93,-1.93,-0.44,-0.43,0.43,0.51,-0.05,-1.49,-1.49,-1.49
369.14,-1.93,-1.93,-0.43,-0.44,0.44,0.51,-0.07,-1.49,-1.49,-1.49
372.83,-1.93,-1.92,-0.45,-0.44,0.44,0.51,-0.08,-1.49,-1.48,-1.47
376.56,-1.92,-1.92,-0.44,-0.44,0.44,0.51,-0.10,-1.47,-1.48,-1.48
380.33,-1.91,-1.91,-0.44,-0.44,0.44,0.51,-0.11,-1.46,-1.46,-1.47
384.13,-1.91,-1.90,-0.43,-0.44,0.45,0.51,-0.13,-1.46,-1.46,-1.47
387.97,-1.90,-1.90,-0.43,-0.44,0.45,0.51,-0.15,-1.45,-1.45,-1.46
391.85,-1.91,-1.90,-0.46,-0.45,0.45,0.50,-0.16,-1.46,-1.45,-1.45
395.77,-1.90,-1.90,-0.45,-0.45,0.45,0.50,-0.18,-1.45,-1.45,-1.45
399.73,-1.90,-1.89,-0.46,-0.46,0.45,0.49,-0.19,-1.45,-1.44,-1.44
403.72,-1.89,-1.89,-0.45,-0.45,0.45,0.48,-0.21,-1.44,-1.44,-1.43
407.76,-1.88,-1.88,-0.44,-0.45,0.45,0.47,-0.22,-1.43,-1.43,-1.43
411.84,-1.87,-1.87,-0.44,-0.44,0.44,0.45,-0.24,-1.42,-1.42,-1.43
415.96,-1.86,-1.86,-0.44,-0.44,0.44,0.44,-0.25,-1.42,-1.42,-1.42
420.12,-1.85,-1.84,-0.43,-0.43,0.43,0.42,-0.27,-1.42,-1.42,-1.42
424.32,-1.83,-1.83,-0.42,-0.42,0.42,0.41,-0.28,-1.41,-1.41,-1.41
428.56,-1.81,-1.81,-0.40,-0.41,0.40,0.39,-0.29,-1.40,-1.40,-1.40
432.85,-1.79,-1.79,-0.39,-0.39,0.39,0.37,-0.30,-1.40,-1.40,-1.39
437.18,-1.77,-1.76,-0.37,-0.37,0.37,0.35,-0.32,-1.39,-1.39,-1.39
441.55,-1.74,-1.74,-0.35,-0.35,0.35,0.32,-0.33,-1.38,-1.39,-1.39
445.96,-1.71,-1.70,-0.33,-0.33,0.33,0.30,-0.34,-1.38,-1.38,-1.38
450.42,-1.67,-1.67,-0.31,-0.31,0.30,0.27,-0.35,-1.36,-1.37,-1.36
454.93,-1.63,-1.63,-0.28,-0.28,0.27,0.25,-0.36,-1.35,-1.35,-1.35
459.48,-1.59,-1.59,-0.25,-0.24,0.24,0.22,-0.37,-1.34,-1.34,-1.34
464.07,-1.55,-1.55,-0.20,-0.21,0.21,0.19,-0.38,-1.34,-1.34,-1.34
468.71,-1.51,-1.51,-0.17,-0.17,0.18,0.16,-0.39,-1.33,-1.33,-1.33
473.40,-1.47,-1.47,-0.14,-0.14,0.15,0.13,-0.39,-1.32,-1.32,-1.32
478.13,-1.43,-1.43,-0.11,-0.11,0.11,0.10,-0.40,-1.31,-1.31,-1.32
482.91,-1.39,-1.39,-0.08,-0.08,0.08,0.07,-0.40,-1.31,-1.31,-1.31
487.74,-1.35,-1.35,-0.05,-0.05,0.05,0.03,-0.41,-1.30,-1.30,-1.30
492.62,-1.31,-1.31,-0.02,-0.02,0.02,-0.00,-0.41,-1.29,-1.29,-1.29
