frequency,raw,error,smoothed,error_smoothed,equalization,parametric_eq,equalized_raw,equalized_smoothed,target
20.00,-5.25,-7.52,-5.26,-7.52,6.00,1.81,0.75,0.74,2.27
20.20,-5.15,-7.42,-5.16,-7.42,6.00,1.87,0.85,0.84,2.27
20.40,-5.05,-7.32,-5.05,-7.32,6.00,1.92,0.95,0.95,2.27
20.61,-4.96,-7.23,-4.95,-7.23,6.00,1.98,1.04,1.05,2.27
20.81,-4.85,-7.13,-4.85,-7.13,6.00,2.04,1.15,1.15,2.27
21.02,-4.75,-7.03,-4.75,-7.03,6.00,2.10,1.25,1.25,2.28
21.23,-4.65,-6.93,-4.65,-6.93,6.00,2.16,1.35,1.35,2.28
21.44,-4.55,-6.83,-4.55,-6.83,6.00,2.23,1.45,1.45,2.28
21.66,-4.46,-6.74,-4.45,-6.74,6.00,2.29,1.54,1.55,2.28
21.87,-4.35,-6.64,-4.35,-6.64,6.00,2.36,1.65,1.65,2.29
22.09,-4.25,-6.54,-4.25,-6.54,6.00,2.43,1.75,1.75,2.29
22.31,-4.15,-6.44,-4.15,-6.44,6.00,2.50,1.85,1.85,2.29
22.54,-4.06,-6.35,-4.05,-6.34,6.00,2.58,1.94,1.95,2.29
22.76,-3.95,-6.25,-3.95,-6.25,5.99,2.65,2.03,2.03,2.29
22.99,-3.85,-6.15,-3.85,-6.15,5.96,2.73,2.11,2.11,2.30
23.22,-3.75,-6.05,-3.75,-6.05,5.92,2.81,2.17,2.17,2.30
23.45,-3.65,-5.95,-3.65,-5.95,5.87,2.89,2.22,2.22,2.30
23.69,-3.56,-5.86,-3.56,-5.86,5.81,2.98,2.25,2.25,2.30
23.92,-3.45,-5.76,-3.46,-5.76,5.74,3.06,2.28,2.28,2.30
24.16,-3.35,-5.66,-3.36,-5.67,5.66,3.15,2.30,2.30,2.31
24.40,-3.26,-5.57,-3.26,-5.57,5.57,3.23,2.31,2.31,2.31
24.65,-3.17,-5.48,-3.16,-5.47,5.47,3.32,2.31,2.31,2.31
24.89,-3.06,-5.38,-3.07,-5.38,5.38,3.41,2.32,2.31,2.31
25.14,-2.96,-5.28,-2.97,-5.28,5.28,3.50,2.32,2.32,2.32
25.39,-2.87,-5.19,-2.87,-5.19,5.19,3.59,2.32,2.32,2.32
25.65,-2.78,-5.10,-2.78,-5.10,5.10,3.68,2.32,2.32,2.32
25.91,-2.69,-5.01,-2.68,-5.00,5.00,3.77,2.32,2.32,2.32
26.16,-2.58,-4.91,-2.59,-4.91,4.91,3.86,2.33,2.32,2.32
26.43,-2.50,-4.82,-2.49,-4.82,4.82,3.95,2.32,2.33,2.33
26.69,-2.39,-4.72,-2.40,-4.72,4.72,4.04,2.33,2.33,2.33
26.96,-2.31,-4.64,-2.30,-4.63,4.63,4.12,2.32,2.33,2.33
27.23,-2.21,-4.54,-2.21,-4.54,4.54,4.20,2.33,2.33,2.33
27.50,-2.12,-4.45,-2.11,-4.44,4.44,4.28,2.33,2.33,2.33
27.77,-2.02,-4.36,-2.02,-4.35,4.35,4.36,2.33,2.33,2.33
28.05,-1.92,-4.26,-1.93,-4.26,4.26,4.43,2.34,2.33,2.34
28.33,-1.83,-4.17,-1.83,-4.17,4.17,4.50,2.34,2.34,2.34
28.62,-1.75,-4.08,-1.74,-4.08,4.08,4.56,2.33,2.34,2.34
28.90,-1.64,-3.98,-1.65,-3.99,3.99,4.62,2.34,2.34,2.34
29.19,-1.55,-3.89,-1.56,-3.90,3.90,4.67,2.35,2.34,2.34
29.48,-1.47,-3.82,-1.47,-3.81,3.81,4.71,2.34,2.34,2.34
29.78,-1.39,-3.73,-1.38,-3.73,3.73,4.74,2.34,2.34,2.34
30.08,-1.31,-3.65,-1.30,-3.64,3.64,4.77,2.33,2.34,2.34
30.38,-1.22,-3.56,-1.21,-3.56,3.56,4.79,2.34,2.34,2.34
30.68,-1.12,-3.47,-1.13,-3.47,3.47,4.80,2.35,2.34,2.34
30.99,-1.04,-3.38,-1.05,-3.39,3.39,4.80,2.36,2.34,2.34
31.30,-0.97,-3.31,-0.97,-3.32,3.32,4.79,2.35,2.34,2.34
31.61,-0.89,-3.24,-0.90,-3.24,3.24,4.77,2.34,2.34,2.34
31.93,-0.83,-3.17,-0.82,-3.16,3.16,4.75,2.34,2.34,2.34
32.24,-0.75,-3.10,-0.75,-3.09,3.09,4.71,2.34,2.34,2.34
32.57,-0.68,-3.02,-0.68,-3.02,3.02,4.67,2.34,2.34,2.34
32.89,-0.60,-2.94,-0.61,-2.95,2.95,4.62,2.34,2.34,2.34
33.22,-0.54,-2.88,-0.54,-2.88,2.88,4.56,2.33,2.34,2.34
33.55,-0.47,-2.81,-0.47,-2.81,2.81,4.49,2.34,2.34,2.34
33.89,-0.40,-2.74,-0.41,-2.74,2.74,4.42,2.34,2.34,2.34
34.23,-0.34,-2.68,-0.34,-2.67,2.67,4.34,2.33,2.33,2.34
34.57,-0.27,-2.61,-0.28,-2.61,2.61,4.25,2.33,2.33,2.34
34.92,-0.22,-2.55,-0.21,-2.54,2.54,4.16,2.33,2.33,2.33
35.27,-0.15,-2.48,-0.15,-2.48,2.48,4.06,2.33,2.33,2.33
35.62,-0.08,-2.42,-0.08,-2.41,2.41,3.96,2.33,2.33,2.33
35.97,-0.01,-2.34,-0.02,-2.35,2.35,3.86,2.33,2.33,2.33
36.33,0.05,-2.28,0.04,-2.28,2.28,3.75,2.33,2.33,2.33
36.70,0.10,-2.22,0.11,-2.22,2.22,3.64,2.32,2.32,2.32
37.06,0.17,-2.16,0.17,-2.16,2.16,3.53,2.32,2.32,2.32
37.43,0.23,-2.09,0.23,-2.09,2.09,3.41,2.32,2.32,2.32
37.81,0.29,-2.03,0.29,-2.03,2.03,3.30,2.31,2.31,2.32
38.19,0.34,-1.97,0.34,-1.97,1.97,3.18,2.31,2.31,2.31
38.57,0.41,-1.90,0.40,-1.90,1.90,3.07,2.31,2.31,2.31
38.95,0.47,-1.84,0.46,-1.84,1.84,2.95,2.31,2.30,2.30
39.34,0.53,-1.77,0.52,-1.78,1.78,2.83,2.31,2.30,2.30
39.74,0.58,-1.72,0.58,-1.72,1.72,2.71,2.29,2.30,2.30
40.14,0.62,-1.67,0.64,-1.66,1.66,2.60,2.28,2.29,2.29
40.54,0.68,-1.60,0.69,-1.59,1.59,2.48,2.28,2.29,2.29
40.94,0.75,-1.54,0.75,-1.53,1.53,2.37,2.28,2.28,2.28
41.35,0.81,-1.47,0.81,-1.47,1.47,2.25,2.28,2.28,2.28
41.76,0.88,-1.40,0.86,-1.41,1.41,2.14,2.28,2.27,2.27
42.18,0.93,-1.34,0.92,-1.34,1.34,2.03,2.27,2.27,2.27
42.60,0.99,-1.28,0.98,-1.28,1.28,1.92,2.27,2.26,2.26
43.03,1.04,-1.22,1.04,-1.22,1.22,1.81,2.25,2.26,2.26
43.46,1.10,-1.16,1.10,-1.15,1.15,1.70,2.25,2.25,2.25
43.90,1.14,-1.10,1.15,-1.09,1.09,1.59,2.24,2.24,2.25
44.33,1.21,-1.03,1.21,-1.03,1.03,1.49,2.23,2.24,2.24
44.78,1.27,-0.97,1.27,-0.96,0.96,1.38,2.23,2.23,2.23
45.23,1.32,-0.90,1.33,-0.90,0.90,1.28,2.22,2.22,2.23
45.68,1.39,-0.83,1.38,-0.83,0.83,1.17,2.22,2.21,2.22
46.13,1.45,-0.76,1.44,-0.77,0.77,1.07,2.21,2.21,2.21
46.60,1.49,-0.70,1.49,-0.70,0.70,0.97,2.20,2.20,2.20
47.06,1.56,-0.63,1.55,-0.64,0.64,0.87,2.19,2.19,2.19
47.53,1.61,-0.57,1.60,-0.57,0.57,0.77,2.18,2.18,2.18
48.01,1.66,-0.51,1.66,-0.51,0.51,0.68,2.17,2.17,2.17
48.49,1.71,-0.45,1.71,-0.45,0.45,0.58,2.15,2.16,2.16
48.97,1.76,-0.39,1.76,-0.38,0.38,0.49,2.14,2.14,2.14
49.46,1.81,-0.32,1.81,-0.32,0.32,0.39,2.13,2.13,2.13
49.96,1.86,-0.26,1.86,-0.26,0.26,0.30,2.12,2.12,2.12
50.46,1.91,-0.20,1.90,-0.20,0.20,0.21,2.11,2.10,2.10
50.96,1.96,-0.13,1.95,-0.14,0.14,0.12,2.10,2.09,2.09
51.47,2.00,-0.08,1.99,-0.08,0.08,0.03,2.08,2.07,2.07
51.99,2.04,-0.03,2.04,-0.02,0.02,-0.06,2.06,2.06,2.06
52.51,2.07,0.03,2.08,0.03,-0.03,-0.14,2.04,2.04,2.05
53.03,2.12,0.09,2.12,0.09,-0.09,-0.23,2.03,2.03,2.03
53.56,2.16,0.14,2.16,0.15,-0.15,-0.31,2.01,2.01,2.01
54.10,2.20,0.20,2.20,0.20,-0.20,-0.39,2.00,2.00,2.00
54.64,2.24,0.25,2.23,0.25,-0.25,-0.47,1.98,1.98,1.98
55.18,2.28,0.31,2.27,0.30,-0.30,-0.55,1.97,1.97,1.97
55.74,2.31,0.36,2.30,0.35,-0.35,-0.62,1.95,1.95,1.95
56.29,2.34,0.40,2.33,0.40,-0.40,-0.70,1.94,1.93,1.93
56.86,2.37,0.45,2.36,0.45,-0.45,-0.77,1.92,1.91,1.91
57.42,2.40,0.50,2.39,0.49,-0.49,-0.84,1.90,1.89,1.90
58.00,2.42,0.54,2.41,0.54,-0.54,-0.91,1.88,1.88,1.88
58.58,2.44,0.58,2.44,0.58,-0.58,-0.97,1.85,1.86,1.86
59.16,2.47,0.63,2.47,0.63,-0.63,-1.03,1.84,1.84,1.84
59.76,2.49,0.67,2.49,0.67,-0.67,-1.09,1.81,1.82,1.82
60.35,2.51,0.71,2.51,0.72,-0.72,-1.15,1.79,1.79,1.80
60.96,2.54,0.76,2.54,0.77,-0.77,-1.20,1.77,1.77,1.78
61.57,2.56,0.80,2.56,0.81,-0.81,-1.25,1.74,1.75,1.75
62.18,2.59,0.85,2.59,0.86,-0.86,-1.30,1.73,1.73,1.73
62.80,2.61,0.90,2.61,0.90,-0.90,-1.35,1.70,1.71,1.71
63.43,2.64,0.95,2.63,0.95,-0.95,-1.39,1.68,1.68,1.68
64.07,2.66,1.00,2.66,1.00,-1.00,-1.43,1.65,1.66,1.66
64.71,2.69,1.05,2.68,1.05,-1.05,-1.47,1.63,1.63,1.63
65.35,2.71,1.10,2.70,1.10,-1.10,-1.50,1.61,1.60,1.61
66.01,2.74,1.16,2.73,1.15,-1.15,-1.54,1.58,1.58,1.58
66.67,2.76,1.20,2.75,1.20,-1.20,-1.57,1.55,1.55,1.55
67.33,2.78,1.25,2.77,1.25,-1.25,-1.60,1.52,1.52,1.52
68.01,2.79,1.29,2.79,1.30,-1.30,-1.62,1.48,1.49,1.49
68.69,2.81,1.34,2.81,1.35,-1.35,-1.65,1.45,1.46,1.46
69.37,2.83,1.39,2.83,1.40,-1.40,-1.67,1.42,1.43,1.43
70.07,2.85,1.44,2.85,1.45,-1.45,-1.70,1.39,1.40,1.40
70.77,2.87,1.50,2.87,1.50,-1.50,-1.72,1.37,1.37,1.37
71.48,2.89,1.55,2.88,1.54,-1.54,-1.74,1.34,1.34,1.34
72.19,2.90,1.59,2.89,1.59,-1.59,-1.76,1.31,1.30,1.30
72.91,2.92,1.65,2.90,1.63,-1.63,-1.78,1.28,1.27,1.27
73.64,2.93,1.69,2.91,1.68,-1.68,-1.80,1.25,1.23,1.24
74.38,2.93,1.72,2.91,1.72,-1.72,-1.82,1.21,1.20,1.20
75.12,2.93,1.76,2.92,1.76,-1.76,-1.84,1.17,1.16,1.17
75.87,2.93,1.80,2.92,1.79,-1.79,-1.86,1.13,1.13,1.13
76.63,2.92,1.82,2.92,1.83,-1.83,-1.88,1.08,1.09,1.09
77.40,2.92,1.86,2.92,1.87,-1.87,-1.90,1.05,1.05,1.06
78.17,2.91,1.89,2.92,1.90,-1.90,-1.93,1.00,1.02,1.02
78.95,2.91,1.92,2.92,1.94,-1.94,-1.95,0.97,0.98,0.98
79.74,2.91,1.96,2.91,1.97,-1.97,-1.98,0.94,0.94,0.94
80.54,2.91,2.00,2.91,2.00,-2.00,-2.00,0.90,0.91,0.91
81.35,2.91,2.04,2.90,2.03,-2.03,-2.03,0.87,0.87,0.87
82.16,2.91,2.08,2.90,2.07,-2.07,-2.06,0.84,0.83,0.83
82.98,2.91,2.11,2.89,2.10,-2.10,-2.09,0.80,0.79,0.79
83.81,2.91,2.15,2.89,2.14,-2.14,-2.12,0.77,0.75,0.75
84.65,2.90,2.18,2.89,2.17,-2.17,-2.16,0.72,0.71,0.72
85.50,2.90,2.22,2.89,2.21,-2.21,-2.19,0.68,0.67,0.68
86.35,2.89,2.24,2.89,2.25,-2.25,-2.23,0.63,0.63,0.64
87.22,2.89,2.28,2.89,2.30,-2.30,-2.27,0.59,0.59,0.60
88.09,2.88,2.31,2.90,2.34,-2.34,-2.31,0.53,0.55,0.56
88.97,2.89,2.36,2.91,2.39,-2.39,-2.35,0.49,0.51,0.53
89.86,2.91,2.42,2.92,2.44,-2.44,-2.39,0.46,0.48,0.49
90.76,2.93,2.47,2.94,2.50,-2.50,-2.44,0.42,0.44,0.45
91.66,2.94,2.52,2.96,2.56,-2.56,-2.49,0.37,0.40,0.41
92.58,2.97,2.59,2.99,2.63,-2.63,-2.54,0.34,0.36,0.37
93.51,3.00,2.66,3.01,2.69,-2.69,-2.59,0.30,0.32,0.33
94.44,3.04,2.74,3.04,2.76,-2.76,-2.64,0.27,0.28,0.29
95.39,3.08,2.82,3.07,2.83,-2.83,-2.70,0.25,0.24,0.25
96.34,3.11,2.89,3.10,2.89,-2.89,-2.76,0.21,0.21,0.21
97.30,3.15,2.98,3.12,2.95,-2.95,-2.81,0.19,0.17,0.17
98.28,3.17,3.04,3.14,3.01,-3.01,-2.87,0.15,0.13,0.13
99.26,3.18,3.09,3.15,3.06,-3.06,-2.93,0.11,0.09,0.09
100.25,3.19,3.14,3.16,3.11,-3.11,-3.00,0.07,0.05,0.04
101.25,3.18,3.17,3.16,3.15,-3.15,-3.06,0.02,0.01,0.00
102.27,3.17,3.21,3.15,3.19,-3.19,-3.12,-0.02,-0.04,-0.04
103.29,3.16,3.24,3.13,3.22,-3.22,-3.19,-0.06,-0.08,-0.08
104.32,3.14,3.26,3.11,3.24,-3.24,-3.25,-0.11,-0.13,-0.13
105.37,3.11,3.27,3.08,3.26,-3.26,-3.32,-0.16,-0.18,-0.17
106.42,3.06,3.27,3.06,3.28,-3.28,-3.38,-0.22,-0.22,-0.21
107.48,3.02,3.27,3.03,3.29,-3.29,-3.44,-0.28,-0.27,-0.26
108.56,2.98,3.27,3.00,3.31,-3.31,-3.51,-0.34,-0.31,-0.30
109.64,2.95,3.29,2.97,3.33,-3.33,-3.57,-0.38,-0.36,-0.34
110.74,2.93,3.31,2.95,3.35,-3.35,-3.63,-0.42,-0.40,-0.38
111.85,2.90,3.32,2.93,3.37,-3.37,-3.69,-0.48,-0.44,-0.43
112.97,2.89,3.36,2.91,3.40,-3.40,-3.74,-0.51,-0.49,-0.47
114.10,2.88,3.39,2.90,3.43,-3.43,-3.80,-0.55,-0.53,-0.51
115.24,2.89,3.44,2.89,3.46,-3.46,-3.85,-0.58,-0.57,-0.56
116.39,2.90,3.50,2.89,3.50,-3.50,-3.89,-0.60,-0.61,-0.60
117.55,2.91,3.55,2.89,3.54,-3.54,-3.94,-0.63,-0.65,-0.64
118.73,2.91,3.59,2.89,3.58,-3.58,-3.98,-0.67,-0.69,-0.69
119.92,2.91,3.63,2.89,3.62,-3.62,-4.01,-0.72,-0.73,-0.73
121.12,2.91,3.67,2.89,3.66,-3.66,-4.04,-0.76,-0.77,-0.77
122.33,2.91,3.71,2.90,3.71,-3.71,-4.07,-0.80,-0.81,-0.81
123.55,2.91,3.75,2.90,3.75,-3.75,-4.09,-0.85,-0.85,-0.85
124.79,2.91,3.79,2.91,3.79,-3.79,-4.11,-0.89,-0.89,-0.89
126.03,2.91,3.83,2.91,3.84,-3.84,-4.12,-0.93,-0.93,-0.92
127.29,2.91,3.87,2.91,3.88,-3.88,-4.13,-0.97,-0.96,-0.96
128.57,2.91,3.90,2.92,3.92,-3.92,-4.13,-1.01,-1.00,-1.00
129.85,2.91,3.94,2.92,3.95,-3.95,-4.13,-1.05,-1.04,-1.03
131.15,2.91,3.97,2.92,3.99,-3.99,-4.13,-1.08,-1.07,-1.06
132.46,2.92,4.01,2.92,4.02,-4.02,-4.12,-1.11,-1.10,-1.10
133.79,2.92,4.05,2.92,4.05,-4.05,-4.11,-1.14,-1.13,-1.13
135.12,2.93,4.09,2.91,4.08,-4.08,-4.09,-1.15,-1.16,-1.16
136.48,2.93,4.12,2.91,4.10,-4.10,-4.07,-1.17,-1.19,-1.19
137.84,2.92,4.14,2.90,4.12,-4.12,-4.05,-1.20,-1.22,-1.22
139.22,2.91,4.16,2.88,4.13,-4.13,-4.02,-1.22,-1.25,-1.25
140.61,2.89,4.16,2.86,4.14,-4.14,-3.99,-1.25,-1.28,-1.28
142.02,2.86,4.16,2.84,4.15,-4.15,-3.97,-1.29,-1.31,-1.31
143.44,2.83,4.16,2.82,4.15,-4.15,-3.94,-1.33,-1.33,-1.33
144.87,2.79,4.14,2.79,4.15,-4.15,-3.90,-1.37,-1.36,-1.36
146.32,2.77,4.15,2.76,4.15,-4.15,-3.87,-1.39,-1.39,-1.38
147.78,2.73,4.13,2.73,4.15,-4.15,-3.84,-1.43,-1.42,-1.41
149.26,2.70,4.13,2.71,4.15,-4.15,-3.81,-1.46,-1.45,-1.43
150.75,2.67,4.12,2.68,4.15,-4.15,-3.78,-1.49,-1.47,-1.46
152.26,2.64,4.12,2.66,4.15,-4.15,-3.75,-1.52,-1.50,-1.48
153.78,2.61,4.11,2.64,4.16,-4.16,-3.72,-1.55,-1.52,-1.51
155.32,2.59,4.12,2.62,4.16,-4.16,-3.69,-1.58,-1.55,-1.53
156.88,2.59,4.14,2.60,4.17,-4.17,-3.66,-1.59,-1.57,-1.56
158.44,2.58,4.16,2.59,4.18,-4.18,-3.64,-1.60,-1.59,-1.58
160.03,2.58,4.18,2.57,4.19,-4.19,-3.61,-1.61,-1.62,-1.61
161.63,2.58,4.21,2.55,4.19,-4.19,-3.59,-1.62,-1.64,-1.63
163.24,2.57,4.22,2.54,4.20,-4.20,-3.57,-1.64,-1.66,-1.66
164.88,2.55,4.23,2.52,4.21,-4.21,-3.56,-1.66,-1.69,-1.68
166.53,2.53,4.23,2.50,4.21,-4.21,-3.54,-1.68,-1.71,-1.71
168.19,2.51,4.24,2.48,4.21,-4.21,-3.53,-1.71,-1.73,-1.73
169.87,2.47,4.22,2.46,4.21,-4.21,-3.52,-1.75,-1.75,-1.75
171.57,2.44,4.21,2.43,4.21,-4.21,-3.51,-1.77,-1.78,-1.77
173.29,2.41,4.20,2.41,4.21,-4.21,-3.51,-1.80,-1.80,-1.79
175.02,2.36,4.17,2.38,4.20,-4.20,-3.51,-1.84,-1.82,-1.81
176.77,2.33,4.16,2.36,4.19,-4.19,-3.51,-1.87,-1.84,-1.83
178.54,2.31,4.15,2.33,4.19,-4.19,-3.51,-1.88,-1.86,-1.85
180.32,2.30,4.16,2.31,4.18,-4.18,-3.52,-1.88,-1.87,-1.86
182.13,2.28,4.15,2.29,4.17,-4.17,-3.53,-1.90,-1.89,-1.88
183.95,2.26,4.15,2.27,4.16,-4.16,-3.54,-1.91,-1.90,-1.89
185.79,2.25,4.15,2.24,4.15,-4.15,-3.56,-1.91,-1.91,-1.90
187.65,2.24,4.15,2.22,4.14,-4.14,-3.57,-1.91,-1.92,-1.92
189.52,2.22,4.14,2.20,4.13,-4.13,-3.59,-1.92,-1.93,-1.93
191.42,2.21,4.14,2.18,4.12,-4.12,-3.62,-1.92,-1.94,-1.94
193.33,2.19,4.13,2.16,4.11,-4.11,-3.64,-1.93,-1.95,-1.95
195.27,2.16,4.11,2.14,4.10,-4.10,-3.67,-1.94,-1.96,-1.96
197.22,2.13,4.09,2.11,4.08,-4.08,-3.69,-1.96,-1.97,-1.96
199.19,2.09,4.06,2.09,4.07,-4.07,-3.73,-1.98,-1.98,-1.97
201.18,2.06,4.04,2.06,4.06,-4.06,-3.76,-2.00,-1.99,-1.98
203.19,2.03,4.02,2.04,4.04,-4.04,-3.79,-2.02,-2.00,-1.99
205.23,2.00,4.00,2.02,4.03,-4.03,-3.83,-2.03,-2.01,-2.00
207.28,1.98,3.99,2.00,4.02,-4.02,-3.86,-2.04,-2.02,-2.01
209.35,1.96,3.98,1.97,4.00,-4.00,-3.90,-2.05,-2.03,-2.02
211.44,1.95,3.98,1.95,3.99,-3.99,-3.93,-2.04,-2.04,-2.03
213.56,1.93,3.96,1.93,3.97,-3.97,-3.97,-2.05,-2.05,-2.04
215.69,1.91,3.96,1.90,3.96,-3.96,-4.01,-2.06,-2.06,-2.05
217.85,1.90,3.96,1.88,3.95,-3.95,-4.04,-2.05,-2.07,-2.06
220.03,1.89,3.95,1.86,3.93,-3.93,-4.08,-2.05,-2.07,-2.07
222.23,1.87,3.94,1.84,3.92,-3.92,-4.11,-2.05,-2.08,-2.08
224.45,1.84,3.92,1.81,3.90,-3.90,-4.14,-2.07,-2.09,-2.09
226.70,1.80,3.89,1.79,3.89,-3.89,-4.17,-2.09,-2.10,-2.10
228.96,1.76,3.86,1.76,3.87,-3.87,-4.20,-2.11,-2.10,-2.10
231.25,1.73,3.84,1.74,3.85,-3.85,-4.22,-2.13,-2.11,-2.11
233.57,1.70,3.81,1.71,3.83,-3.83,-4.25,-2.14,-2.12,-2.12
235.90,1.67,3.79,1.69,3.81,-3.81,-4.26,-2.15,-2.12,-2.12
238.26,1.65,3.77,1.67,3.79,-3.79,-4.28,-2.15,-2.13,-2.13
240.64,1.64,3.77,1.64,3.77,-3.77,-4.28,-2.14,-2.13,-2.13
243.05,1.63,3.76,1.62,3.75,-3.75,-4.29,-2.13,-2.14,-2.13
245.48,1.60,3.73,1.59,3.73,-3.73,-4.29,-2.14,-2.14,-2.14
247.93,1.58,3.72,1.57,3.71,-3.71,-4.28,-2.14,-2.15,-2.14
250.41,1.56,3.70,1.54,3.70,-3.70,-4.28,-2.14,-2.15,-2.14
252.92,1.54,3.68,1.52,3.68,-3.68,-4.26,-2.14,-2.15,-2.15
255.45,1.52,3.67,1.50,3.66,-3.66,-4.24,-2.14,-2.16,-2.15
258.00,1.49,3.64,1.47,3.64,-3.64,-4.22,-2.15,-2.16,-2.16
260.58,1.46,3.62,1.45,3.62,-3.62,-4.19,-2.16,-2.17,-2.16
263.19,1.43,3.60,1.43,3.60,-3.60,-4.15,-2.18,-2.18,-2.17
265.82,1.38,3.55,1.40,3.58,-3.58,-4.12,-2.21,-2.18,-2.18
268.48,1.36,3.54,1.38,3.57,-3.57,-4.08,-2.21,-2.19,-2.18
271.16,1.35,3.54,1.35,3.55,-3.55,-4.03,-2.20,-2.20,-2.19
273.87,1.32,3.51,1.33,3.53,-3.53,-3.98,-2.21,-2.20,-2.20
276.61,1.30,3.50,1.30,3.51,-3.51,-3.93,-2.21,-2.20,-2.20
279.38,1.28,3.48,1.28,3.49,-3.49,-3.88,-2.21,-2.21,-2.21
282.17,1.27,3.48,1.25,3.47,-3.47,-3.82,-2.20,-2.21,-2.21
284.99,1.25,3.46,1.23,3.45,-3.45,-3.76,-2.20,-2.22,-2.22
287.84,1.22,3.44,1.20,3.42,-3.42,-3.70,-2.21,-2.22,-2.22
290.72,1.20,3.42,1.18,3.40,-3.40,-3.64,-2.21,-2.23,-2.22
293.63,1.17,3.39,1.15,3.38,-3.38,-3.58,-2.21,-2.23,-2.22
296.57,1.14,3.36,1.13,3.35,-3.35,-3.51,-2.22,-2.23,-2.22
299.53,1.10,3.32,1.10,3.33,-3.33,-3.45,-2.24,-2.23,-2.23
302.53,1.07,3.29,1.08,3.31,-3.31,-3.39,-2.24,-2.23,-2.22
305.55,1.03,3.25,1.05,3.28,-3.28,-3.32,-2.26,-2.23,-2.22
308.61,1.01,3.23,1.03,3.26,-3.26,-3.26,-2.25,-2.23,-2.22
311.69,0.99,3.21,1.01,3.24,-3.24,-3.20,-2.25,-2.23,-2.22
314.81,0.98,3.19,0.99,3.21,-3.21,-3.14,-2.24,-2.22,-2.22
317.96,0.97,3.18,0.97,3.19,-3.19,-3.08,-2.22,-2.22,-2.22
321.14,0.96,3.17,0.95,3.17,-3.17,-3.02,-2.21,-2.22,-2.21
324.35,0.94,3.15,0.93,3.14,-3.14,-2.96,-2.21,-2.22,-2.21
327.59,0.93,3.13,0.91,3.12,-3.12,-2.90,-2.19,-2.21,-2.21
330.87,0.92,3.12,0.89,3.10,-3.10,-2.85,-2.18,-2.21,-2.21
334.18,0.89,3.09,0.86,3.07,-3.07,-2.80,-2.19,-2.21,-2.20
337.52,0.85,3.05,0.84,3.05,-3.05,-2.75,-2.20,-2.20,-2.20
340.90,0.83,3.03,0.82,3.02,-3.02,-2.70,-2.19,-2.20,-2.20
344.30,0.79,2.98,0.79,2.99,-2.99,-2.65,-2.21,-2.20,-2.20
347.75,0.76,2.95,0.77,2.97,-2.97,-2.61,-2.21,-2.20,-2.19
351.23,0.73,2.92,0.74,2.94,-2.94,-2.56,-2.21,-2.20,-2.19
354.74,0.71,2.90,0.72,2.91,-2.91,-2.52,-2.21,-2.20,-2.19
358.28,0.68,2.86,0.69,2.88,-2.88,-2.48,-2.21,-2.19,-2.19
361.87,0.67,2.85,0.66,2.85,-2.85,-2.44,-2.19,-2.19,-2.19
365.49,0.64,2.82,0.64,2.82,-2.82,-2.41,-2.19,-2.19,-2.18
369.14,0.62,2.80,0.61,2.79,-2.79,-2.38,-2.18,-2.18,-2.18
372.83,0.60,2.77,0.59,2.76,-2.76,-2.34,-2.17,-2.18,-2.18
376.56,0.57,2.74,0.56,2.73,-2.73,-2.31,-2.17,-2.17,-2.17
380.33,0.55,2.72,0.53,2.70,-2.70,-2.29,-2.16,-2.17,-2.17
384.13,0.53,2.69,0.51,2.67,-2.67,-2.26,-2.15,-2.17,-2.17
387.97,0.50,2.66,0.48,2.64,-2.64,-2.23,-2.15,-2.17,-2.16
391.85,0.47,2.62,0.45,2.62,-2.62,-2.21,-2.15,-2.16,-2.16
395.77,0.43,2.58,0.43,2.59,-2.59,-2.19,-2.16,-2.16,-2.15
399.73,0.40,2.54,0.41,2.56,-2.56,-2.17,-2.17,-2.15,-2.15
403.72,0.37,2.51,0.39,2.54,-2.54,-2.15,-2.17,-2.15,-2.14
407.76,0.35,2.48,0.37,2.51,-2.51,-2.13,-2.17,-2.14,-2.13
411.84,0.33,2.45,0.35,2.49,-2.49,-2.12,-2.17,-2.14,-2.13
415.96,0.31,2.43,0.34,2.47,-2.47,-2.10,-2.16,-2.13,-2.12
420.12,0.31,2.42,0.32,2.45,-2.45,-2.09,-2.14,-2.13,-2.12
424.32,0.31,2.42,0.30,2.43,-2.43,-2.08,-2.12,-2.12,-2.11
428.56,0.31,2.42,0.29,2.41,-2.41,-2.07,-2.10,-2.12,-2.11
432.85,0.31,2.41,0.27,2.39,-2.39,-2.06,-2.08,-2.11,-2.11
437.18,0.29,2.39,0.26,2.37,-2.37,-2.05,-2.08,-2.11,-2.11
441.55,0.27,2.37,0.24,2.34,-2.34,-2.04,-2.08,-2.11,-2.11
445.96,0.24,2.34,0.21,2.32,-2.32,-2.03,-2.08,-2.10,-2.11
450.42,0.20,2.30,0.19,2.29,-2.29,-2.02,-2.10,-2.10,-2.10
454.93,0.18,2.28,0.16,2.27,-2.27,-2.02,-2.09,-2.10,-2.10
459.48,0.14,2.24,0.13,2.24,-2.24,-2.01,-2.10,-2.10,-2.10
464.07,0.11,2.21,0.11,2.21,-2.21,-2.00,-2.11,-2.11,-2.10
468.71,0.08,2.18,0.08,2.18,-2.18,-2.00,-2.11,-2.11,-2.10
473.40,0.04,2.13,0.05,2.16,-2.16,-1.99,-2.12,-2.11,-2.10
478.13,0.02,2.11,0.03,2.13,-2.13,-1.98,-2.12,-2.11,-2.09
482.91,-0.01,2.08,0.01,2.11,-2.11,-1.98,-2.13,-2.10,-2.09
487.74,-0.02,2.06,0.00,2.09,-2.09,-1.97,-2.12,-2.09,-2.08
492.62,-0.03,2.04,-0.01,2.08,-2.08,-1.96,-2.11,-2.09,-2.08
497.55,-0.03,2.03,-0.01,2.07,-2.07,-1.95,-2.10,-2.08,-2.07
502.52,-0.03,2.03,-0.01,2.05,-2.05,-1.95,-2.09,-2.07,-2.06
507.55,-0.02,2.02,-0.02,2.04,-2.04,-1.94,-2.07,-2.06,-2.05
512.62,-0.00,2.03,-0.02,2.03,-2.03,-1.93,-2.04,-2.05,-2.04
517.75,0.01,2.03,-0.02,2.02,-2.02,-1.92,-2.02,-2.04,-2.03
522.93,0.01,2.02,-0.02,2.01,-2.01,-1.92,-2.00,-2.02,-2.02
528.16,0.01,2.02,-0.02,1.99,-1.99,-1.91,-1.98,-2.01,-2.01
533.44,-0.00,2.00,-0.03,1.97,-1.97,-1.90,-1.97,-2.00,-2.00
538.77,-0.02,1.97,-0.04,1.94,-1.94,-1.89,-1.97,-1.99,-1.99
544.16,-0.04,1.94,-0.06,1.92,-1.92,-1.88,-1.96,-1.98,-1.99
549.60,-0.07,1.90,-0.08,1.88,-1.88,-1.87,-1.96,-1.96,-1.98
555.10,-0.09,1.87,-0.11,1.85,-1.85,-1.86,-1.94,-1.96,-1.96
560.65,-0.13,1.82,-0.14,1.81,-1.81,-1.86,-1.94,-1.95,-1.95
566.25,-0.16,1.77,-0.17,1.77,-1.77,-1.85,-1.93,-1.94,-1.94
571.92,-0.20,1.72,-0.20,1.73,-1.73,-1.84,-1.93,-1.93,-1.92
577.64,-0.23,1.67,-0.23,1.69,-1.69,-1.84,-1.92,-1.92,-1.91
583.41,-0.26,1.63,-0.26,1.65,-1.65,-1.83,-1.91,-1.91,-1.90
589.25,-0.29,1.59,-0.28,1.61,-1.61,-1.82,-1.91,-1.89,-1.88
595.14,-0.32,1.54,-0.30,1.58,-1.58,-1.82,-1.90,-1.88,-1.87
601.09,-0.34,1.51,-0.32,1.55,-1.55,-1.82,-1.89,-1.87,-1.86
607.10,-0.35,1.49,-0.33,1.53,-1.53,-1.81,-1.88,-1.86,-1.85
613.17,-0.36,1.47,-0.35,1.51,-1.51,-1.81,-1.87,-1.85,-1.84
619.30,-0.35,1.47,-0.35,1.49,-1.49,-1.81,-1.85,-1.84,-1.83
625.50,-0.35,1.47,-0.36,1.48,-1.48,-1.81,-1.83,-1.84,-1.82
631.75,-0.34,1.47,-0.36,1.47,-1.47,-1.81,-1.82,-1.83,-1.82
638.07,-0.34,1.47,-0.36,1.47,-1.47,-1.82,-1.81,-1.83,-1.82
644.45,-0.34,1.47,-0.36,1.47,-1.47,-1.82,-1.81,-1.82,-1.82
650.89,-0.34,1.47,-0.35,1.47,-1.47,-1.83,-1.81,-1.82,-1.82
657.40,-0.34,1.48,-0.35,1.47,-1.47,-1.84,-1.81,-1.82,-1.82
663.98,-0.34,1.48,-0.35,1.47,-1.47,-1.84,-1.82,-1.82,-1.82
670.62,-0.34,1.48,-0.34,1.47,-1.47,-1.85,-1.82,-1.82,-1.83
677.32,-0.34,1.48,-0.34,1.47,-1.47,-1.87,-1.82,-1.82,-1.83
684.10,-0.34,1.48,-0.34,1.48,-1.48,-1.88,-1.82,-1.82,-1.83
690.94,-0.34,1.48,-0.34,1.48,-1.48,-1.89,-1.82,-1.82,-1.83
