frequency,raw,smoothed,error,error_smoothed,equalization,parametric_eq,fixed_band_eq,equalized_raw,equalized_smoothed,target
20.00,-6.47,-6.49,-9.94,-9.96,6.00,5.74,2.73,-0.47,-0.49,3.47
20.20,-6.30,-6.29,-9.80,-9.79,6.00,5.74,2.81,-0.30,-0.29,3.50
20.40,-6.13,-6.11,-9.66,-9.64,6.00,5.74,2.89,-0.13,-0.11,3.53
20.61,-5.96,-5.95,-9.51,-9.50,6.00,5.74,2.97,0.04,0.05,3.55
20.81,-5.79,-5.79,-9.37,-9.37,6.00,5.74,3.05,0.21,0.21,3.58
21.02,-5.64,-5.68,-9.25,-9.29,6.00,5.74,3.14,0.36,0.32,3.61
21.23,-5.64,-5.63,-9.26,-9.25,6.00,5.74,3.23,0.36,0.37,3.62
21.44,-5.64,-5.63,-9.27,-9.26,6.00,5.74,3.32,0.36,0.37,3.63
21.66,-5.64,-5.65,-9.28,-9.29,6.00,5.74,3.42,0.36,0.35,3.64
21.87,-5.64,-5.62,-9.28,-9.26,6.00,5.73,3.51,0.36,0.38,3.64
22.09,-5.57,-5.55,-9.22,-9.19,6.00,5.73,3.61,0.43,0.45,3.65
22.31,-5.41,-5.42,-9.06,-9.07,6.00,5.73,3.72,0.59,0.58,3.65
22.54,-5.26,-5.25,-8.91,-8.89,6.00,5.73,3.82,0.74,0.75,3.65
22.76,-5.10,-5.09,-8.74,-8.73,6.00,5.73,3.93,0.90,0.91,3.64
22.99,-4.94,-5.00,-8.58,-8.64,6.00,5.73,4.04,1.06,1.00,3.63
23.22,-4.99,-4.98,-8.62,-8.62,6.00,5.73,4.15,1.01,1.02,3.63
23.45,-5.05,-5.05,-8.68,-8.68,6.00,5.73,4.27,0.95,0.95,3.63
23.69,-5.12,-5.13,-8.75,-8.76,6.00,5.73,4.39,0.88,0.87,3.63
23.92,-5.18,-5.15,-8.81,-8.78,6.00,5.72,4.51,0.82,0.85,3.63
24.16,-5.12,-5.11,-8.76,-8.75,6.00,5.72,4.63,0.88,0.89,3.64
24.40,-5.00,-5.01,-8.64,-8.65,6.00,5.72,4.76,1.00,0.99,3.64
24.65,-4.88,-4.88,-8.51,-8.51,6.00,5.72,4.88,1.12,1.12,3.63
24.89,-4.76,-4.77,-8.39,-8.40,6.00,5.72,5.01,1.24,1.23,3.63
25.14,-4.68,-4.69,-8.31,-8.31,6.00,5.72,5.14,1.32,1.31,3.63
25.39,-4.63,-4.62,-8.26,-8.24,6.00,5.72,5.27,1.37,1.38,3.63
25.65,-4.57,-4.57,-8.20,-8.19,6.00,5.72,5.41,1.43,1.43,3.62
25.91,-4.52,-4.53,-8.14,-8.15,6.00,5.71,5.54,1.48,1.47,3.61
26.16,-4.51,-4.52,-8.12,-8.13,6.00,5.71,5.67,1.49,1.48,3.61
26.43,-4.53,-4.54,-8.14,-8.15,6.00,5.71,5.80,1.47,1.46,3.61
26.69,-4.55,-4.56,-8.16,-8.17,6.00,5.71,5.94,1.45,1.44,3.61
26.96,-4.57,-4.54,-8.18,-8.15,6.00,5.71,6.07,1.43,1.46,3.61
27.23,-4.46,-4.46,-8.07,-8.06,6.00,5.70,6.19,1.54,1.54,3.61
27.50,-4.32,-4.33,-7.93,-7.93,6.00,5.70,6.32,1.68,1.67,3.61
27.77,-4.18,-4.19,-7.77,-7.78,6.00,5.70,6.44,1.82,1.81,3.59
28.05,-4.07,-4.10,-7.66,-7.69,6.00,5.70,6.55,1.93,1.90,3.59
28.33,-4.05,-4.05,-7.63,-7.63,6.00,5.70,6.66,1.95,1.95,3.58
28.62,-4.04,-4.03,-7.62,-7.61,6.00,5.69,6.77,1.96,1.97,3.58
28.90,-4.02,-4.02,-7.60,-7.59,6.00,5.69,6.87,1.98,1.98,3.58
29.19,-3.99,-3.99,-7.56,-7.56,6.00,5.69,6.96,2.01,2.01,3.57
29.48,-3.94,-3.95,-7.52,-7.52,6.00,5.69,7.04,2.06,2.05,3.57
29.78,-3.90,-3.90,-7.47,-7.46,6.00,5.68,7.12,2.10,2.10,3.56
30.08,-3.83,-3.82,-7.39,-7.38,6.00,5.68,7.18,2.17,2.18,3.56
30.38,-3.73,-3.73,-7.28,-7.28,6.00,5.68,7.23,2.27,2.27,3.55
30.68,-3.63,-3.63,-7.18,-7.18,6.00,5.68,7.27,2.37,2.37,3.55
30.99,-3.53,-3.56,-7.07,-7.10,6.00,5.67,7.31,2.47,2.44,3.54
31.30,-3.53,-3.53,-7.06,-7.06,6.00,5.67,7.33,2.47,2.47,3.53
31.61,-3.53,-3.52,-7.06,-7.05,6.00,5.67,7.34,2.47,2.48,3.53
31.93,-3.53,-3.53,-7.05,-7.05,6.00,5.66,7.34,2.47,2.47,3.52
32.24,-3.52,-3.53,-7.03,-7.04,6.00,5.66,7.33,2.48,2.47,3.51
32.57,-3.50,-3.51,-7.01,-7.01,6.00,5.66,7.30,2.50,2.49,3.50
32.89,-3.48,-3.46,-6.98,-6.96,6.00,5.65,7.27,2.52,2.54,3.50
33.22,-3.38,-3.37,-6.87,-6.86,6.00,5.65,7.23,2.62,2.63,3.49
33.55,-3.26,-3.26,-6.75,-6.74,6.00,5.65,7.18,2.74,2.74,3.49
33.89,-3.13,-3.15,-6.60,-6.63,6.00,5.64,7.12,2.87,2.85,3.47
34.23,-3.07,-3.08,-6.54,-6.55,6.00,5.64,7.06,2.93,2.92,3.47
34.57,-3.04,-3.03,-6.50,-6.49,6.00,5.63,6.99,2.96,2.97,3.46
34.92,-3.01,-3.00,-6.46,-6.45,6.00,5.63,6.92,2.99,3.00,3.44
35.27,-2.96,-2.96,-6.40,-6.39,6.00,5.62,6.83,3.04,3.04,3.44
35.62,-2.91,-2.91,-6.34,-6.33,6.00,5.62,6.75,3.09,3.09,3.43
35.97,-2.85,-2.88,-6.26,-6.29,6.00,5.61,6.66,3.15,3.12,3.41
36.33,-2.87,-2.87,-6.28,-6.28,6.00,5.61,6.57,3.13,3.13,3.41
36.70,-2.89,-2.88,-6.29,-6.28,6.00,5.60,6.48,3.11,3.12,3.40
37.06,-2.90,-2.89,-6.28,-6.27,6.01,5.60,6.39,3.11,3.12,3.38
37.43,-2.86,-2.87,-6.24,-6.24,6.01,5.59,6.30,3.15,3.14,3.38
37.81,-2.82,-2.82,-6.18,-6.19,6.00,5.58,6.21,3.18,3.18,3.36
38.19,-2.77,-2.77,-6.12,-6.12,6.00,5.58,6.12,3.23,3.23,3.35
38.57,-2.72,-2.72,-6.07,-6.06,5.99,5.57,6.03,3.27,3.27,3.34
38.95,-2.67,-2.68,-6.00,-6.00,5.98,5.57,5.94,3.30,3.30,3.33
39.34,-2.64,-2.64,-5.95,-5.96,5.96,5.56,5.85,3.31,3.31,3.31
39.74,-2.62,-2.62,-5.92,-5.92,5.93,5.55,5.77,3.31,3.31,3.30
40.14,-2.60,-2.61,-5.89,-5.90,5.90,5.54,5.69,3.30,3.29,3.29
40.54,-2.59,-2.59,-5.87,-5.87,5.86,5.54,5.61,3.27,3.27,3.28
40.94,-2.57,-2.56,-5.84,-5.83,5.83,5.53,5.54,3.26,3.27,3.27
41.35,-2.53,-2.53,-5.79,-5.79,5.80,5.52,5.47,3.26,3.26,3.26
41.76,-2.49,-2.50,-5.74,-5.75,5.76,5.51,5.40,3.27,3.27,3.25
42.18,-2.47,-2.48,-5.71,-5.72,5.73,5.50,5.34,3.26,3.26,3.24
42.60,-2.47,-2.47,-5.70,-5.70,5.70,5.49,5.28,3.23,3.23,3.23
43.03,-2.47,-2.47,-5.69,-5.68,5.67,5.48,5.22,3.20,3.20,3.22
43.46,-2.46,-2.46,-5.66,-5.66,5.64,5.47,5.17,3.18,3.18,3.20
43.90,-2.44,-2.44,-5.62,-5.62,5.61,5.46,5.12,3.17,3.17,3.17
44.33,-2.42,-2.42,-5.58,-5.57,5.58,5.45,5.08,3.16,3.16,3.16
44.78,-2.39,-2.39,-5.53,-5.53,5.54,5.44,5.03,3.15,3.15,3.14
45.23,-2.37,-2.38,-5.49,-5.50,5.51,5.43,5.00,3.14,3.13,3.12
45.68,-2.37,-2.37,-5.47,-5.47,5.47,5.41,4.96,3.10,3.10,3.10
46.13,-2.36,-2.35,-5.44,-5.44,5.43,5.40,4.93,3.07,3.08,3.08
46.60,-2.33,-2.33,-5.41,-5.40,5.40,5.39,4.91,3.07,3.07,3.07
47.06,-2.30,-2.31,-5.36,-5.36,5.36,5.37,4.89,3.06,3.06,3.05
47.53,-2.29,-2.29,-5.33,-5.33,5.33,5.36,4.87,3.04,3.04,3.03
48.01,-2.28,-2.28,-5.30,-5.30,5.30,5.35,4.85,3.02,3.02,3.02
48.49,-2.28,-2.28,-5.27,-5.27,5.27,5.33,4.84,2.99,2.99,2.99
48.97,-2.28,-2.28,-5.24,-5.24,5.24,5.31,4.83,2.96,2.96,2.96
49.46,-2.28,-2.28,-5.21,-5.21,5.22,5.30,4.83,2.93,2.93,2.93
49.96,-2.28,-2.28,-5.18,-5.19,5.19,5.28,4.82,2.91,2.91,2.90
50.46,-2.28,-2.28,-5.17,-5.16,5.17,5.26,4.82,2.89,2.89,2.89
50.96,-2.28,-2.28,-5.15,-5.14,5.15,5.25,4.82,2.86,2.86,2.86
51.47,-2.28,-2.28,-5.11,-5.12,5.12,5.23,4.83,2.83,2.83,2.83
51.99,-2.28,-2.29,-5.09,-5.10,5.08,5.21,4.83,2.80,2.80,2.81
52.51,-2.28,-2.28,-5.07,-5.07,5.05,5.19,4.84,2.77,2.77,2.79
53.03,-2.28,-2.26,-5.05,-5.03,5.01,5.17,4.84,2.73,2.75,2.77
53.56,-2.22,-2.23,-4.97,-4.97,4.97,5.14,4.85,2.75,2.74,2.74
54.10,-2.18,-2.20,-4.90,-4.92,4.93,5.12,4.86,2.75,2.73,2.72
54.64,-2.18,-2.18,-4.87,-4.87,4.89,5.10,4.87,2.71,2.71,2.69
55.18,-2.18,-2.18,-4.85,-4.84,4.85,5.08,4.88,2.67,2.67,2.67
55.74,-2.18,-2.18,-4.82,-4.82,4.82,5.05,4.89,2.64,2.64,2.64
56.29,-2.18,-2.18,-4.80,-4.80,4.79,5.03,4.90,2.61,2.61,2.62
56.86,-2.18,-2.18,-4.77,-4.77,4.77,5.00,4.90,2.59,2.59,2.59
57.42,-2.18,-2.18,-4.75,-4.75,4.76,4.98,4.91,2.58,2.58,2.56
58.00,-2.18,-2.19,-4.73,-4.73,4.76,4.95,4.91,2.57,2.57,2.55
58.58,-2.21,-2.21,-4.74,-4.74,4.75,4.92,4.91,2.54,2.54,2.53
59.16,-2.24,-2.24,-4.75,-4.74,4.74,4.89,4.90,2.50,2.50,2.50
59.76,-2.27,-2.27,-4.76,-4.75,4.73,4.87,4.90,2.45,2.46,2.48
60.35,-2.28,-2.28,-4.73,-4.73,4.71,4.84,4.89,2.43,2.43,2.45
60.96,-2.28,-2.28,-4.71,-4.71,4.69,4.81,4.88,2.41,2.41,2.43
61.57,-2.28,-2.28,-4.67,-4.67,4.67,4.78,4.86,2.39,2.39,2.39
62.18,-2.28,-2.28,-4.63,-4.64,4.65,4.75,4.84,2.36,2.36,2.35
62.80,-2.28,-2.28,-4.61,-4.60,4.62,4.72,4.81,2.33,2.33,2.33
63.43,-2.28,-2.28,-4.57,-4.58,4.58,4.69,4.78,2.30,2.30,2.29
64.07,-2.28,-2.28,-4.55,-4.55,4.55,4.65,4.75,2.27,2.27,2.27
64.71,-2.28,-2.28,-4.52,-4.52,4.52,4.62,4.71,2.24,2.24,2.24
65.35,-2.28,-2.28,-4.49,-4.49,4.49,4.59,4.67,2.21,2.21,2.21
66.01,-2.28,-2.28,-4.47,-4.47,4.46,4.56,4.63,2.18,2.18,2.18
66.67,-2.28,-2.28,-4.44,-4.44,4.44,4.53,4.58,2.15,2.15,2.16
67.33,-2.28,-2.28,-4.41,-4.41,4.41,4.50,4.53,2.13,2.13,2.13
68.01,-2.28,-2.28,-4.38,-4.38,4.38,4.47,4.48,2.10,2.10,2.10
68.69,-2.28,-2.28,-4.35,-4.35,4.35,4.43,4.42,2.07,2.07,2.06
69.37,-2.28,-2.28,-4.31,-4.31,4.32,4.40,4.36,2.03,2.03,2.03
70.07,-2.28,-2.28,-4.28,-4.28,4.28,4.37,4.30,2.00,2.00,2.00
70.77,-2.28,-2.28,-4.26,-4.25,4.25,4.34,4.24,1.97,1.97,1.98
71.48,-2.28,-2.28,-4.22,-4.22,4.22,4.31,4.18,1.94,1.94,1.94
72.19,-2.28,-2.28,-4.19,-4.19,4.19,4.28,4.11,1.90,1.90,1.91
72.91,-2.28,-2.28,-4.15,-4.15,4.15,4.25,4.05,1.87,1.87,1.87
73.64,-2.28,-2.28,-4.11,-4.12,4.12,4.21,3.98,1.84,1.84,1.83
74.38,-2.28,-2.28,-4.09,-4.08,4.09,4.18,3.92,1.80,1.80,1.81
75.12,-2.28,-2.28,-4.05,-4.05,4.05,4.15,3.85,1.77,1.77,1.77
75.87,-2.28,-2.28,-4.02,-4.02,4.02,4.12,3.79,1.74,1.74,1.74
76.63,-2.28,-2.28,-3.99,-3.99,3.99,4.09,3.72,1.71,1.71,1.71
77.40,-2.28,-2.28,-3.96,-3.96,3.96,4.06,3.66,1.67,1.67,1.68
78.17,-2.28,-2.28,-3.92,-3.92,3.92,4.02,3.60,1.64,1.64,1.64
78.95,-2.28,-2.28,-3.89,-3.89,3.89,3.99,3.54,1.61,1.61,1.61
79.74,-2.28,-2.28,-3.86,-3.86,3.86,3.96,3.48,1.58,1.58,1.58
80.54,-2.28,-2.28,-3.83,-3.83,3.83,3.92,3.43,1.54,1.54,1.54
81.35,-2.28,-2.28,-3.79,-3.79,3.79,3.89,3.37,1.51,1.51,1.51
82.16,-2.28,-2.28,-3.76,-3.76,3.76,3.85,3.32,1.48,1.48,1.47
82.98,-2.28,-2.28,-3.73,-3.72,3.72,3.81,3.27,1.44,1.44,1.45
83.81,-2.28,-2.28,-3.68,-3.69,3.69,3.78,3.22,1.41,1.41,1.40
84.65,-2.28,-2.28,-3.64,-3.65,3.65,3.74,3.17,1.37,1.37,1.36
85.50,-2.28,-2.28,-3.62,-3.61,3.61,3.70,3.13,1.33,1.33,1.33
86.35,-2.28,-2.28,-3.58,-3.58,3.58,3.66,3.09,1.30,1.30,1.30
87.22,-2.28,-2.28,-3.54,-3.54,3.54,3.62,3.05,1.26,1.26,1.26
88.09,-2.28,-2.28,-3.50,-3.50,3.50,3.58,3.01,1.22,1.21,1.22
88.97,-2.28,-2.28,-3.47,-3.46,3.45,3.54,2.97,1.17,1.17,1.18
89.86,-2.28,-2.28,-3.42,-3.42,3.41,3.50,2.94,1.13,1.13,1.14
90.76,-2.27,-2.27,-3.36,-3.37,3.37,3.46,2.91,1.09,1.09,1.09
91.66,-2.27,-2.27,-3.33,-3.32,3.33,3.41,2.88,1.06,1.05,1.06
92.58,-2.27,-2.27,-3.28,-3.28,3.29,3.37,2.85,1.02,1.03,1.00
93.51,-2.27,-2.27,-3.24,-3.24,3.26,3.33,2.83,0.99,0.99,0.97
94.44,-2.27,-2.29,-3.20,-3.21,3.23,3.28,2.80,0.96,0.95,0.93
95.39,-2.31,-2.32,-3.19,-3.20,3.20,3.24,2.78,0.89,0.89,0.88
96.34,-2.37,-2.35,-3.20,-3.18,3.17,3.19,2.77,0.80,0.82,0.83
97.30,-2.38,-2.38,-3.16,-3.17,3.14,3.14,2.75,0.76,0.75,0.78
98.28,-2.39,-2.40,-3.13,-3.14,3.10,3.09,2.73,0.71,0.70,0.74
99.26,-2.40,-2.39,-3.09,-3.08,3.06,3.05,2.72,0.66,0.67,0.69
100.25,-2.38,-2.37,-3.03,-3.02,3.02,3.00,2.71,0.64,0.65,0.65
101.25,-2.34,-2.36,-2.94,-2.96,2.98,2.95,2.70,0.64,0.62,0.60
102.27,-2.35,-2.35,-2.91,-2.90,2.93,2.90,2.69,0.58,0.58,0.55
103.29,-2.37,-2.37,-2.87,-2.87,2.89,2.85,2.68,0.52,0.52,0.50
104.32,-2.39,-2.39,-2.85,-2.85,2.85,2.80,2.67,0.46,0.46,0.46
105.37,-2.41,-2.41,-2.83,-2.83,2.82,2.75,2.67,0.41,0.41,0.41
106.42,-2.43,-2.43,-2.80,-2.80,2.80,2.70,2.66,0.37,0.36,0.37
107.48,-2.46,-2.46,-2.78,-2.78,2.77,2.65,2.65,0.31,0.31,0.32
108.56,-2.48,-2.48,-2.75,-2.75,2.74,2.60,2.65,0.26,0.26,0.27
109.64,-2.50,-2.50,-2.72,-2.73,2.71,2.55,2.64,0.21,0.21,0.22
110.74,-2.52,-2.52,-2.70,-2.70,2.68,2.50,2.64,0.16,0.16,0.17
111.85,-2.54,-2.54,-2.67,-2.66,2.66,2.45,2.63,0.12,0.12,0.13
112.97,-2.55,-2.54,-2.61,-2.61,2.63,2.41,2.63,0.08,0.09,0.06
114.10,-2.55,-2.56,-2.57,-2.58,2.61,2.36,2.62,0.06,0.05,0.02
115.24,-2.58,-2.60,-2.54,-2.56,2.59,2.31,2.61,0.01,-0.01,-0.04
116.39,-2.66,-2.66,-2.57,-2.56,2.56,2.26,2.60,-0.10,-0.09,-0.09
117.55,-2.72,-2.71,-2.58,-2.56,2.54,2.21,2.59,-0.19,-0.17,-0.15
118.73,-2.74,-2.74,-2.54,-2.54,2.51,2.16,2.58,-0.24,-0.23,-0.20
119.92,-2.73,-2.74,-2.49,-2.49,2.47,2.11,2.57,-0.26,-0.27,-0.24
121.12,-2.72,-2.73,-2.43,-2.43,2.43,2.06,2.55,-0.29,-0.30,-0.30
122.33,-2.72,-2.72,-2.37,-2.37,2.38,2.02,2.53,-0.34,-0.34,-0.35
123.55,-2.71,-2.71,-2.32,-2.32,2.33,1.97,2.52,-0.38,-0.38,-0.39
124.79,-2.70,-2.70,-2.26,-2.26,2.27,1.92,2.49,-0.44,-0.44,-0.44
126.03,-2.69,-2.69,-2.20,-2.20,2.20,1.88,2.47,-0.49,-0.49,-0.49
127.29,-2.69,-2.69,-2.15,-2.14,2.14,1.83,2.44,-0.55,-0.54,-0.54
128.57,-2.68,-2.68,-2.08,-2.09,2.09,1.79,2.42,-0.59,-0.60,-0.60
129.85,-2.68,-2.68,-2.03,-2.03,2.03,1.74,2.39,-0.65,-0.65,-0.65
131.15,-2.67,-2.67,-1.97,-1.98,1.98,1.70,2.36,-0.69,-0.69,-0.70
132.46,-2.67,-2.67,-1.93,-1.93,1.93,1.66,2.32,-0.75,-0.74,-0.74
133.79,-2.66,-2.66,-1.88,-1.88,1.87,1.61,2.29,-0.79,-0.79,-0.78
135.12,-2.66,-2.66,-1.82,-1.83,1.83,1.57,2.25,-0.84,-0.83,-0.84
136.48,-2.65,-2.65,-1.78,-1.78,1.78,1.53,2.21,-0.87,-0.88,-0.87
137.84,-2.65,-2.65,-1.73,-1.73,1.73,1.49,2.17,-0.92,-0.92,-0.92
139.22,-2.65,-2.65,-1.68,-1.69,1.69,1.45,2.13,-0.96,-0.96,-0.97
140.61,-2.65,-2.65,-1.64,-1.65,1.65,1.41,2.09,-1.00,-1.00,-1.01
142.02,-2.65,-2.65,-1.62,-1.61,1.61,1.37,2.05,-1.04,-1.04,-1.03
143.44,-2.65,-2.65,-1.58,-1.57,1.57,1.34,2.00,-1.08,-1.08,-1.08
144.87,-2.65,-2.65,-1.53,-1.54,1.53,1.30,1.96,-1.12,-1.12,-1.12
146.32,-2.65,-2.65,-1.50,-1.50,1.49,1.26,1.91,-1.16,-1.16,-1.16
147.78,-2.65,-2.65,-1.47,-1.46,1.46,1.23,1.87,-1.20,-1.20,-1.18
149.26,-2.65,-2.65,-1.43,-1.42,1.42,1.19,1.82,-1.23,-1.23,-1.22
150.75,-2.65,-2.65,-1.38,-1.38,1.39,1.16,1.78,-1.26,-1.25,-1.27
152.26,-2.65,-2.65,-1.35,-1.34,1.37,1.13,1.73,-1.29,-1.28,-1.31
153.78,-2.65,-2.67,-1.31,-1.32,1.34,1.10,1.68,-1.31,-1.33,-1.34
155.32,-2.70,-2.70,-1.32,-1.32,1.31,1.07,1.64,-1.39,-1.39,-1.39
156.88,-2.74,-2.73,-1.32,-1.30,1.29,1.03,1.59,-1.46,-1.44,-1.42
158.44,-2.74,-2.74,-1.28,-1.28,1.26,1.01,1.55,-1.48,-1.48,-1.46
160.03,-2.74,-2.75,-1.24,-1.24,1.23,0.98,1.50,-1.51,-1.51,-1.51
161.63,-2.74,-2.74,-1.19,-1.20,1.20,0.95,1.46,-1.54,-1.54,-1.55
163.24,-2.75,-2.75,-1.16,-1.16,1.17,0.92,1.42,-1.58,-1.58,-1.59
164.88,-2.75,-2.75,-1.13,-1.13,1.14,0.89,1.37,-1.61,-1.61,-1.62
166.53,-2.75,-2.76,-1.09,-1.10,1.10,0.87,1.33,-1.65,-1.65,-1.66
168.19,-2.76,-2.76,-1.07,-1.07,1.07,0.84,1.29,-1.69,-1.69,-1.70
169.87,-2.77,-2.77,-1.04,-1.04,1.04,0.82,1.25,-1.74,-1.73,-1.73
171.57,-2.77,-2.77,-1.00,-1.01,1.00,0.80,1.21,-1.77,-1.77,-1.77
173.29,-2.78,-2.78,-0.98,-0.97,0.97,0.77,1.17,-1.81,-1.81,-1.81
175.02,-2.78,-2.78,-0.94,-0.94,0.94,0.75,1.13,-1.84,-1.85,-1.84
176.77,-2.79,-2.79,-0.91,-0.90,0.90,0.73,1.10,-1.89,-1.89,-1.89
178.54,-2.79,-2.79,-0.86,-0.87,0.86,0.71,1.06,-1.93,-1.93,-1.93
180.32,-2.79,-2.79,-0.83,-0.83,0.82,0.69,1.02,-1.97,-1.97,-1.96
182.13,-2.78,-2.78,-0.79,-0.78,0.78,0.67,0.99,-2.00,-2.00,-2.00
183.95,-2.77,-2.77,-0.73,-0.74,0.73,0.65,0.95,-2.04,-2.04,-2.04
185.79,-2.76,-2.76,-0.69,-0.69,0.69,0.63,0.92,-2.07,-2.07,-2.07
187.65,-2.74,-2.75,-0.63,-0.64,0.64,0.61,0.89,-2.10,-2.10,-2.11
189.52,-2.73,-2.73,-0.59,-0.59,0.59,0.60,0.86,-2.14,-2.14,-2.14
191.42,-2.72,-2.72,-0.55,-0.55,0.55,0.58,0.82,-2.18,-2.17,-2.17
193.33,-2.70,-2.70,-0.50,-0.51,0.50,0.57,0.79,-2.20,-2.20,-2.20
195.27,-2.69,-2.69,-0.46,-0.46,0.46,0.55,0.76,-2.23,-2.23,-2.23
197.22,-2.67,-2.67,-0.42,-0.41,0.42,0.54,0.74,-2.25,-2.25,-2.25
199.19,-2.66,-2.66,-0.37,-0.38,0.38,0.52,0.71,-2.28,-2.28,-2.29
201.18,-2.65,-2.65,-0.34,-0.34,0.35,0.51,0.68,-2.30,-2.30,-2.31
203.19,-2.65,-2.65,-0.33,-0.32,0.33,0.50,0.65,-2.33,-2.33,-2.32
205.23,-2.65,-2.65,-0.30,-0.31,0.30,0.49,0.63,-2.35,-2.35,-2.35
207.28,-2.65,-2.65,-0.30,-0.29,0.28,0.48,0.60,-2.37,-2.37,-2.36
209.35,-2.65,-2.65,-0.27,-0.27,0.27,0.47,0.58,-2.38,-2.38,-2.38
211.44,-2.65,-2.65,-0.25,-0.26,0.25,0.46,0.55,-2.40,-2.40,-2.40
213.56,-2.65,-2.65,-0.24,-0.25,0.24,0.45,0.53,-2.41,-2.41,-2.41
215.69,-2.66,-2.66,-0.25,-0.24,0.24,0.44,0.51,-2.43,-2.42,-2.41
217.85,-2.66,-2.66,-0.24,-0.24,0.24,0.43,0.48,-2.43,-2.42,-2.42
220.03,-2.66,-2.66,-0.23,-0.22,0.24,0.42,0.46,-2.42,-2.42,-2.44
222.23,-2.66,-2.66,-0.21,-0.22,0.25,0.41,0.44,-2.41,-2.41,-2.45
224.45,-2.67,-2.69,-0.23,-0.25,0.26,0.41,0.43,-2.41,-2.43,-2.44
226.70,-2.73,-2.72,-0.29,-0.28,0.27,0.40,0.41,-2.46,-2.45,-2.44
228.96,-2.76,-2.75,-0.32,-0.31,0.28,0.39,0.39,-2.48,-2.46,-2.44
231.25,-2.75,-2.76,-0.32,-0.32,0.29,0.39,0.37,-2.46,-2.46,-2.43
233.57,-2.74,-2.74,-0.31,-0.31,0.30,0.38,0.36,-2.44,-2.44,-2.43
235.90,-2.73,-2.73,-0.30,-0.30,0.30,0.38,0.35,-2.43,-2.43,-2.43
238.26,-2.71,-2.72,-0.28,-0.29,0.30,0.38,0.33,-2.41,-2.42,-2.43
240.64,-2.70,-2.70,-0.28,-0.28,0.29,0.37,0.32,-2.42,-2.42,-2.42
243.05,-2.69,-2.68,-0.28,-0.27,0.27,0.37,0.31,-2.42,-2.41,-2.41
245.48,-2.66,-2.66,-0.26,-0.26,0.26,0.37,0.30,-2.40,-2.40,-2.40
247.93,-2.63,-2.64,-0.25,-0.25,0.25,0.37,0.29,-2.38,-2.39,-2.38
250.41,-2.62,-2.62,-0.24,-0.24,0.25,0.37,0.28,-2.37,-2.37,-2.38
252.92,-2.60,-2.60,-0.24,-0.24,0.25,0.36,0.28,-2.35,-2.36,-2.36
255.45,-2.59,-2.59,-0.25,-0.25,0.25,0.36,0.27,-2.34,-2.34,-2.34
258.00,-2.58,-2.58,-0.26,-0.26,0.26,0.37,0.26,-2.33,-2.32,-2.32
260.58,-2.57,-2.57,-0.26,-0.27,0.27,0.37,0.26,-2.30,-2.30,-2.31
263.19,-2.57,-2.57,-0.28,-0.28,0.29,0.37,0.26,-2.28,-2.28,-2.29
265.82,-2.57,-2.57,-0.30,-0.30,0.31,0.37,0.26,-2.26,-2.27,-2.27
268.48,-2.58,-2.58,-0.33,-0.33,0.33,0.37,0.26,-2.25,-2.25,-2.25
271.16,-2.58,-2.58,-0.36,-0.35,0.35,0.38,0.26,-2.23,-2.23,-2.23
273.87,-2.58,-2.59,-0.37,-0.38,0.37,0.38,0.26,-2.21,-2.22,-2.21
276.61,-2.59,-2.59,-0.40,-0.40,0.39,0.39,0.26,-2.21,-2.21,-2.19
279.38,-2.59,-2.58,-0.42,-0.41,0.40,0.39,0.26,-2.19,-2.18,-2.17
282.17,-2.58,-2.57,-0.42,-0.41,0.42,0.40,0.26,-2.16,-2.15,-2.16
284.99,-2.52,-2.56,-0.39,-0.42,0.43,0.41,0.27,-2.09,-2.12,-2.13
287.84,-2.56,-2.55,-0.44,-0.44,0.44,0.42,0.27,-2.12,-2.11,-2.12
290.72,-2.56,-2.55,-0.47,-0.46,0.45,0.42,0.28,-2.11,-2.10,-2.09
293.63,-2.55,-2.55,-0.48,-0.48,0.46,0.43,0.28,-2.09,-2.09,-2.08
296.57,-2.53,-2.54,-0.48,-0.48,0.48,0.44,0.29,-2.06,-2.06,-2.05
299.53,-2.52,-2.52,-0.49,-0.49,0.49,0.46,0.30,-2.03,-2.03,-2.03
302.53,-2.51,-2.51,-0.49,-0.50,0.50,0.47,0.31,-2.01,-2.01,-2.02
305.55,-2.50,-2.50,-0.52,-0.51,0.52,0.48,0.31,-1.98,-1.98,-1.98
308.61,-2.49,-2.49,-0.53,-0.53,0.53,0.50,0.32,-1.96,-1.96,-1.97
311.69,-2.48,-2.48,-0.54,-0.55,0.55,0.51,0.33,-1.93,-1.93,-1.94
314.81,-2.48,-2.48,-0.58,-0.57,0.57,0.53,0.34,-1.91,-1.91,-1.90
317.96,-2.48,-2.48,-0.60,-0.59,0.59,0.55,0.35,-1.89,-1.89,-1.89
321.14,-2.48,-2.48,-0.61,-0.61,0.61,0.56,0.36,-1.87,-1.87,-1.87
324.35,-2.48,-2.48,-0.63,-0.63,0.63,0.58,0.37,-1.85,-1.85,-1.85
327.59,-2.48,-2.48,-0.66,-0.65,0.65,0.61,0.38,-1.83,-1.83,-1.83
330.87,-2.48,-2.48,-0.67,-0.67,0.68,0.63,0.40,-1.81,-1.81,-1.81
334.18,-2.48,-2.48,-0.69,-0.70,0.70,0.65,0.41,-1.78,-1.79,-1.79
337.52,-2.49,-2.49,-0.72,-0.72,0.72,0.68,0.42,-1.77,-1.77,-1.77
340.90,-2.49,-2.49,-0.75,-0.74,0.74,0.70,0.43,-1.75,-1.75,-1.75
344.30,-2.49,-2.49,-0.76,-0.76,0.76,0.73,0.45,-1.74,-1.74,-1.73
347.75,-2.49,-2.49,-0.78,-0.78,0.77,0.75,0.46,-1.72,-1.72,-1.71
351.23,-2.49,-2.49,-0.80,-0.80,0.79,0.78,0.47,-1.70,-1.70,-1.69
354.74,-2.48,-2.48,-0.81,-0.81,0.81,0.81,0.49,-1.67,-1.67,-1.68
358.28,-2.48,-2.47,-0.82,-0.81,0.83,0.84,0.50,-1.65,-1.64,-1.66
361.87,-2.47,-2.48,-0.83,-0.83,0.85,0.87,0.52,-1.62,-1.62,-1.64
365.49,-2.47,-2.50,-0.84,-0.87,0.88,0.90,0.53,-1.60,-1.62,-1.63
369.14,-2.54,-2.52,-0.92,-0.90,0.90,0.92,0.55,-1.65,-1.62,-1.62
372.83,-2.55,-2.54,-0.95,-0.93,0.92,0.95,0.56,-1.63,-1.62,-1.61
376.56,-2.54,-2.55,-0.94,-0.96,0.94,0.98,0.58,-1.60,-1.61,-1.60
380.33,-2.53,-2.54,-0.96,-0.96,0.96,1.00,0.60,-1.58,-1.58,-1.57
384.13,-2.53,-2.53,-0.97,-0.97,0.97,1.02,0.61,-1.56,-1.55,-1.56
387.97,-2.52,-2.52,-0.97,-0.97,0.99,1.04,0.63,-1.54,-1.54,-1.55
391.85,-2.52,-2.52,-0.98,-0.98,0.99,1.05,0.65,-1.53,-1.53,-1.54
395.77,-2.52,-2.52,-1.00,-0.99,1.00,1.07,0.66,-1.53,-1.53,-1.52
399.73,-2.52,-2.53,-1.01,-1.01,0.99,1.08,0.68,-1.53,-1.53,-1.52
403.72,-2.52,-2.52,-1.01,-1.01,0.99,1.08,0.70,-1.53,-1.52,-1.51
407.76,-2.51,-2.49,-1.01,-1.00,0.99,1.08,0.71,-1.52,-1.50,-1.50
411.84,-2.45,-2.47,-0.97,-0.98,0.99,1.08,0.73,-1.46,-1.47,-1.48
415.96,-2.43,-2.44,-0.96,-0.97,0.99,1.07,0.75,-1.44,-1.45,-1.47
420.12,-2.43,-2.42,-0.97,-0.96,0.99,1.06,0.76,-1.45,-1.44,-1.46
424.32,-2.42,-2.42,-0.97,-0.97,0.97,1.04,0.78,-1.45,-1.45,-1.45
428.56,-2.41,-2.42,-0.97,-0.97,0.95,1.03,0.79,-1.46,-1.47,-1.44
432.85,-2.40,-2.40,-0.97,-0.96,0.93,1.00,0.81,-1.47,-1.47,-1.44
437.18,-2.37,-2.35,-0.94,-0.93,0.90,0.98,0.82,-1.47,-1.45,-1.43
441.55,-2.27,-2.29,-0.86,-0.87,0.86,0.95,0.84,-1.41,-1.42,-1.41
445.96,-2.20,-2.21,-0.80,-0.81,0.82,0.93,0.85,-1.38,-1.39,-1.40
450.42,-2.15,-2.15,-0.76,-0.76,0.78,0.90,0.86,-1.37,-1.37,-1.39
454.93,-2.09,-2.09,-0.72,-0.71,0.73,0.87,0.87,-1.36,-1.36,-1.37
459.48,-2.03,-2.02,-0.67,-0.67,0.68,0.84,0.88,-1.35,-1.34,-1.36
464.07,-1.96,-1.97,-0.62,-0.63,0.64,0.81,0.89,-1.32,-1.33,-1.34
468.71,-1.91,-1.93,-0.59,-0.61,0.61,0.78,0.89,-1.30,-1.32,-1.32
473.40,-1.91,-1.89,-0.60,-0.58,0.59,0.75,0.90,-1.33,-1.30,-1.31
478.13,-1.85,-1.84,-0.56,-0.54,0.56,0.71,0.90,-1.29,-1.28,-1.29
482.91,-1.76,-1.78,-0.48,-0.50,0.51,0.69,0.91,-1.25,-1.27,-1.29
