frequency,raw,error,smoothed,error_smoothed,equalization,parametric_eq,equalized_raw,equalized_smoothed,target
20,-30.07,-24.33,-30.13,-24.39,6.00,2.69,-24.07,-24.13,-5.73
21,-29.19,-23.45,-29.25,-23.52,6.00,3.09,-23.19,-23.25,-5.73
22,-28.40,-22.66,-28.41,-22.68,6.00,3.54,-22.40,-22.41,-5.73
23,-27.68,-21.94,-27.59,-21.86,6.00,4.02,-21.68,-21.59,-5.73
24,-26.92,-21.18,-26.80,-21.07,6.00,4.53,-20.92,-20.80,-5.73
25,-26.16,-20.42,-26.04,-20.30,6.00,5.06,-20.16,-20.04,-5.73
26,-25.32,-19.58,-25.30,-19.57,6.00,5.60,-19.32,-19.30,-5.73
27,-24.59,-18.85,-24.59,-18.86,6.00,6.11,-18.59,-18.59,-5.73
28,-23.93,-18.19,-23.91,-18.17,6.00,6.58,-17.93,-17.91,-5.73
29,-23.27,-17.53,-23.25,-17.52,6.00,6.97,-17.27,-17.25,-5.73
30,-22.53,-16.79,-22.62,-16.89,6.00,7.26,-16.53,-16.62,-5.73
31,-21.95,-16.21,-22.02,-16.29,6.00,7.42,-15.95,-16.02,-5.73
32,-21.40,-15.66,-21.45,-15.72,6.00,7.46,-15.40,-15.45,-5.73
33,-20.84,-15.10,-20.92,-15.18,6.00,7.40,-14.84,-14.92,-5.73
34,-20.35,-14.61,-20.41,-14.67,6.00,7.25,-14.35,-14.41,-5.73
35,-20.02,-14.28,-19.92,-14.19,6.00,7.05,-14.02,-13.92,-5.73
36,-19.39,-13.65,-19.47,-13.73,6.00,6.81,-13.39,-13.47,-5.73
37,-19.06,-13.32,-19.04,-13.30,6.00,6.57,-13.06,-13.04,-5.73
38,-18.60,-12.86,-18.62,-12.89,6.00,6.32,-12.60,-12.62,-5.73
39,-18.23,-12.49,-18.23,-12.50,6.00,6.10,-12.23,-12.23,-5.73
40,-17.86,-12.12,-17.85,-12.12,6.00,5.89,-11.86,-11.85,-5.73
41,-17.58,-11.84,-17.48,-11.75,6.00,5.71,-11.58,-11.48,-5.73
42,-17.15,-11.41,-17.13,-11.39,6.00,5.55,-11.15,-11.13,-5.73
43,-16.77,-11.03,-16.78,-11.04,6.00,5.42,-10.77,-10.78,-5.73
44,-16.48,-10.74,-16.43,-10.70,6.00,5.31,-10.48,-10.43,-5.73
45,-16.04,-10.30,-16.09,-10.35,6.00,5.23,-10.04,-10.09,-5.73
46,-15.80,-10.06,-15.75,-10.01,6.00,5.17,-9.80,-9.75,-5.73
47,-15.39,-9.65,-15.41,-9.68,6.00,5.13,-9.39,-9.41,-5.73
48,-15.15,-9.41,-15.08,-9.34,6.00,5.11,-9.15,-9.08,-5.73
49,-14.76,-9.02,-14.74,-9.01,6.00,5.10,-8.76,-8.74,-5.73
50,-14.40,-8.66,-14.41,-8.68,6.00,5.10,-8.40,-8.41,-5.73
51,-14.11,-8.37,-14.08,-8.35,6.00,5.11,-8.11,-8.08,-5.73
52,-13.76,-8.02,-13.76,-8.02,6.00,5.13,-7.76,-7.76,-5.73
53,-13.41,-7.67,-13.43,-7.70,6.00,5.16,-7.41,-7.43,-5.73
54,-13.15,-7.41,-13.12,-7.38,6.00,5.18,-7.15,-7.12,-5.73
55,-12.80,-7.06,-12.81,-7.07,6.00,5.20,-6.80,-6.81,-5.73
56,-12.49,-6.75,-12.50,-6.77,6.00,5.22,-6.49,-6.50,-5.73
57,-12.24,-6.50,-12.21,-6.47,5.96,5.23,-6.28,-6.25,-5.73
58,-11.88,-6.14,-11.92,-6.19,5.86,5.23,-6.01,-6.06,-5.73
59,-11.63,-5.89,-11.64,-5.91,5.73,5.21,-5.90,-5.92,-5.73
60,-11.34,-5.60,-11.38,-5.64,5.56,5.18,-5.78,-5.82,-5.73
61,-11.15,-5.41,-11.12,-5.39,5.36,5.14,-5.79,-5.76,-5.73
62,-10.84,-5.10,-10.88,-5.14,5.14,5.08,-5.70,-5.73,-5.73
63,-10.62,-4.88,-10.64,-4.91,4.91,5.00,-5.71,-5.73,-5.73
64,-10.44,-4.70,-10.42,-4.68,4.68,4.91,-5.76,-5.73,-5.73
65,-10.26,-4.52,-10.20,-4.47,4.47,4.81,-5.79,-5.73,-5.73
66,-9.94,-4.20,-10.00,-4.26,4.26,4.69,-5.68,-5.73,-5.73
67,-9.77,-4.03,-9.80,-4.07,4.07,4.56,-5.70,-5.73,-5.73
68,-9.60,-3.86,-9.61,-3.88,3.88,4.42,-5.72,-5.73,-5.73
69,-9.43,-3.69,-9.43,-3.70,3.70,4.28,-5.73,-5.73,-5.73
70,-9.27,-3.53,-9.26,-3.52,3.52,4.12,-5.75,-5.73,-5.73
71,-9.11,-3.37,-9.09,-3.35,3.35,3.97,-5.76,-5.73,-5.73
72,-8.95,-3.21,-8.92,-3.19,3.19,3.80,-5.76,-5.73,-5.73
73,-8.80,-3.06,-8.76,-3.02,3.02,3.64,-5.78,-5.73,-5.73
74,-8.63,-2.89,-8.60,-2.87,2.87,3.48,-5.76,-5.73,-5.73
75,-8.34,-2.60,-8.44,-2.71,2.71,3.31,-5.63,-5.73,-5.73
76,-8.34,-2.60,-8.29,-2.56,2.56,3.15,-5.78,-5.73,-5.73
77,-8.05,-2.31,-8.14,-2.40,2.40,2.98,-5.64,-5.73,-5.73
78,-8.01,-2.27,-7.99,-2.26,2.26,2.82,-5.75,-5.73,-5.73
79,-7.90,-2.16,-7.84,-2.11,2.11,2.66,-5.79,-5.73,-5.73
80,-7.76,-2.02,-7.69,-1.96,1.96,2.50,-5.80,-5.73,-5.73
81,-7.56,-1.82,-7.55,-1.82,1.82,2.35,-5.74,-5.73,-5.73
82,-7.36,-1.62,-7.41,-1.67,1.67,2.20,-5.69,-5.73,-5.73
83,-7.33,-1.59,-7.27,-1.53,1.53,2.05,-5.80,-5.73,-5.73
84,-7.06,-1.32,-7.13,-1.39,1.39,1.90,-5.67,-5.73,-5.73
85,-7.04,-1.30,-6.99,-1.26,1.26,1.76,-5.78,-5.73,-5.73
86,-6.85,-1.11,-6.86,-1.13,1.13,1.62,-5.72,-5.73,-5.73
87,-6.71,-0.97,-6.74,-1.00,1.00,1.48,-5.71,-5.73,-5.73
88,-6.66,-0.92,-6.61,-0.88,0.88,1.35,-5.78,-5.73,-5.73
89,-6.40,-0.66,-6.50,-0.76,0.76,1.22,-5.64,-5.73,-5.73
90,-6.39,-0.65,-6.39,-0.65,0.65,1.09,-5.74,-5.73,-5.73
91,-6.31,-0.57,-6.28,-0.55,0.55,0.96,-5.76,-5.73,-5.73
92,-6.18,-0.44,-6.18,-0.45,0.45,0.83,-5.73,-5.73,-5.73
93,-6.07,-0.33,-6.09,-0.35,0.35,0.71,-5.71,-5.73,-5.73
94,-6.07,-0.33,-6.00,-0.27,0.27,0.59,-5.80,-5.73,-5.73
95,-5.90,-0.16,-5.92,-0.18,0.18,0.47,-5.72,-5.73,-5.73
96,-5.74,-0.00,-5.84,-0.10,0.10,0.36,-5.64,-5.73,-5.73
97,-5.74,-0.00,-5.76,-0.03,0.03,0.25,-5.71,-5.73,-5.73
98,-5.74,-0.00,-5.69,0.04,-0.04,0.14,-5.78,-5.73,-5.73
99,-5.68,0.06,-5.62,0.11,-0.11,0.03,-5.79,-5.73,-5.73
100,-5.57,0.17,-5.56,0.18,-0.18,-0.08,-5.75,-5.73,-5.73
101,-5.46,0.28,-5.49,0.24,-0.24,-0.18,-5.70,-5.73,-5.73
102,-5.42,0.32,-5.43,0.30,-0.30,-0.28,-5.72,-5.73,-5.73
104,-5.42,0.32,-5.37,0.36,-0.36,-0.48,-5.78,-5.73,-5.73
105,-5.34,0.40,-5.31,0.42,-0.42,-0.57,-5.76,-5.73,-5.73
106,-5.23,0.51,-5.25,0.48,-0.48,-0.66,-5.71,-5.73,-5.73
107,-5.13,0.61,-5.20,0.54,-0.54,-0.75,-5.67,-5.73,-5.73
108,-5.09,0.65,-5.14,0.59,-0.59,-0.83,-5.68,-5.73,-5.73
109,-5.09,0.65,-5.08,0.65,-0.65,-0.92,-5.74,-5.73,-5.73
110,-5.09,0.65,-5.03,0.70,-0.70,-1.00,-5.79,-5.73,-5.73
111,-5.04,0.70,-4.97,0.76,-0.76,-1.07,-5.80,-5.73,-5.73
112,-4.94,0.80,-4.92,0.81,-0.81,-1.14,-5.75,-5.73,-5.73
113,-4.84,0.90,-4.86,0.87,-0.87,-1.21,-5.71,-5.73,-5.73
114,-4.77,0.97,-4.81,0.92,-0.92,-1.28,-5.69,-5.73,-5.73
115,-4.77,0.97,-4.76,0.98,-0.98,-1.34,-5.75,-5.73,-5.73
117,-4.77,0.97,-4.70,1.03,-1.03,-1.45,-5.80,-5.73,-5.73
118,-4.67,1.07,-4.65,1.08,-1.08,-1.50,-5.75,-5.73,-5.73
119,-4.58,1.16,-4.60,1.13,-1.13,-1.54,-5.71,-5.73,-5.73
120,-4.48,1.26,-4.55,1.18,-1.18,-1.59,-5.66,-5.73,-5.73
121,-4.44,1.30,-4.50,1.23,-1.23,-1.62,-5.67,-5.73,-5.73
123,-4.44,1.30,-4.46,1.28,-1.28,-1.69,-5.72,-5.73,-5.73
124,-4.44,1.30,-4.41,1.32,-1.32,-1.71,-5.76,-5.73,-5.73
125,-4.44,1.30,-4.37,1.36,-1.36,-1.74,-5.80,-5.73,-5.73
126,-4.42,1.32,-4.33,1.40,-1.40,-1.76,-5.82,-5.73,-5.73
128,-4.28,1.46,-4.29,1.44,-1.44,-1.79,-5.72,-5.73,-5.73
129,-4.28,1.46,-4.26,1.48,-1.48,-1.79,-5.76,-5.73,-5.73
130,-4.23,1.51,-4.23,1.51,-1.51,-1.80,-5.74,-5.73,-5.73
131,-4.14,1.60,-4.20,1.54,-1.54,-1.80,-5.68,-5.73,-5.73
133,-4.12,1.62,-4.17,1.56,-1.56,-1.80,-5.68,-5.73,-5.73
134,-4.12,1.62,-4.15,1.58,-1.58,-1.80,-5.70,-5.73,-5.73
135,-4.12,1.62,-4.14,1.60,-1.60,-1.79,-5.72,-5.73,-5.73
137,-4.12,1.62,-4.12,1.61,-1.61,-1.77,-5.73,-5.73,-5.73
138,-4.12,1.62,-4.12,1.62,-1.62,-1.76,-5.74,-5.73,-5.73
140,-4.12,1.62,-4.11,1.62,-1.62,-1.73,-5.74,-5.73,-5.73
141,-4.12,1.62,-4.11,1.63,-1.63,-1.71,-5.74,-5.73,-5.73
142,-4.12,1.62,-4.11,1.63,-1.63,-1.69,-5.75,-5.73,-5.73
144,-4.12,1.62,-4.11,1.63,-1.63,-1.65,-5.75,-5.73,-5.73
145,-4.12,1.62,-4.11,1.63,-1.63,-1.63,-5.75,-5.73,-5.73
147,-4.12,1.62,-4.11,1.63,-1.63,-1.58,-5.75,-5.73,-5.73
148,-4.12,1.62,-4.11,1.63,-1.63,-1.56,-5.75,-5.73,-5.73
150,-4.12,1.62,-4.11,1.63,-1.63,-1.51,-5.75,-5.73,-5.73
151,-4.12,1.62,-4.10,1.63,-1.63,-1.49,-5.75,-5.73,-5.73
153,-4.12,1.62,-4.11,1.63,-1.63,-1.44,-5.75,-5.73,-5.73
154,-4.12,1.62,-4.11,1.63,-1.63,-1.41,-5.75,-5.73,-5.73
156,-4.12,1.62,-4.11,1.62,-1.62,-1.37,-5.74,-5.73,-5.73
157,-4.12,1.62,-4.12,1.61,-1.61,-1.34,-5.73,-5.73,-5.73
159,-4.12,1.62,-4.13,1.60,-1.60,-1.29,-5.72,-5.73,-5.73
160,-4.12,1.62,-4.15,1.58,-1.58,-1.27,-5.70,-5.73,-5.73
162,-4.12,1.62,-4.17,1.56,-1.56,-1.22,-5.68,-5.73,-5.73
164,-4.12,1.62,-4.20,1.54,-1.54,-1.18,-5.66,-5.73,-5.73
165,-4.12,1.62,-4.23,1.51,-1.51,-1.16,-5.63,-5.73,-5.73
167,-4.25,1.49,-4.26,1.48,-1.48,-1.11,-5.73,-5.73,-5.73
169,-4.38,1.36,-4.29,1.45,-1.45,-1.07,-5.82,-5.73,-5.73
170,-4.44,1.30,-4.32,1.41,-1.41,-1.05,-5.85,-5.73,-5.73
172,-4.44,1.30,-4.36,1.38,-1.38,-1.01,-5.82,-5.73,-5.73
174,-4.44,1.30,-4.39,1.35,-1.35,-0.97,-5.78,-5.73,-5.73
175,-4.44,1.30,-4.42,1.31,-1.31,-0.96,-5.75,-5.73,-5.73
177,-4.44,1.30,-4.45,1.28,-1.28,-0.92,-5.72,-5.73,-5.73
179,-4.44,1.30,-4.49,1.25,-1.25,-0.89,-5.69,-5.73,-5.73
181,-4.44,1.30,-4.52,1.21,-1.21,-0.85,-5.65,-5.73,-5.73
183,-4.47,1.27,-4.56,1.18,-1.18,-0.82,-5.65,-5.73,-5.73
184,-4.53,1.21,-4.59,1.14,-1.14,-0.81,-5.67,-5.73,-5.73
186,-4.65,1.09,-4.63,1.11,-1.11,-0.78,-5.75,-5.73,-5.73
188,-4.77,0.97,-4.67,1.07,-1.07,-0.75,-5.84,-5.73,-5.73
190,-4.77,0.97,-4.71,1.03,-1.03,-0.72,-5.80,-5.73,-5.73
192,-4.77,0.97,-4.75,0.99,-0.99,-0.70,-5.75,-5.73,-5.73
194,-4.77,0.97,-4.79,0.94,-0.94,-0.67,-5.71,-5.73,-5.73
196,-4.77,0.97,-4.83,0.90,-0.90,-0.65,-5.67,-5.73,-5.73
198,-4.87,0.87,-4.87,0.86,-0.86,-0.63,-5.73,-5.73,-5.73
200,-4.93,0.81,-4.91,0.82,-0.82,-0.60,-5.75,-5.73,-5.73
202,-4.93,0.81,-4.95,0.78,-0.78,-0.58,-5.71,-5.73,-5.73
204,-5.05,0.69,-4.99,0.74,-0.74,-0.56,-5.79,-5.73,-5.73
206,-5.09,0.65,-5.03,0.70,-0.70,-0.54,-5.79,-5.73,-5.73
208,-5.09,0.65,-5.07,0.67,-0.67,-0.52,-5.75,-5.73,-5.73
210,-5.09,0.65,-5.11,0.62,-0.62,-0.50,-5.71,-5.73,-5.73
212,-5.09,0.65,-5.15,0.58,-0.58,-0.48,-5.67,-5.73,-5.73
214,-5.10,0.64,-5.19,0.54,-0.54,-0.46,-5.64,-5.73,-5.73
216,-5.20,0.54,-5.24,0.50,-0.50,-0.45,-5.69,-5.73,-5.73
218,-5.31,0.43,-5.28,0.45,-0.45,-0.43,-5.76,-5.73,-5.73
221,-5.42,0.32,-5.33,0.40,-0.40,-0.40,-5.82,-5.73,-5.73
223,-5.42,0.32,-5.38,0.35,-0.35,-0.38,-5.77,-5.73,-5.73
225,-5.42,0.32,-5.43,0.31,-0.31,-0.36,-5.72,-5.73,-5.73
227,-5.44,0.30,-5.48,0.26,-0.26,-0.34,-5.69,-5.73,-5.73
229,-5.54,0.20,-5.53,0.21,-0.21,-0.32,-5.75,-5.73,-5.73
232,-5.58,0.16,-5.58,0.16,-0.16,-0.29,-5.74,-5.73,-5.73
234,-5.62,0.12,-5.63,0.11,-0.11,-0.27,-5.73,-5.73,-5.73
236,-5.72,0.02,-5.68,0.06,-0.06,-0.25,-5.78,-5.73,-5.73
239,-5.74,-0.00,-5.72,0.01,-0.01,-0.22,-5.75,-5.73,-5.73
241,-5.74,-0.00,-5.77,-0.04,0.04,-0.20,-5.70,-5.73,-5.73
244,-5.77,-0.03,-5.82,-0.09,0.09,-0.17,-5.68,-5.73,-5.73
246,-5.86,-0.12,-5.87,-0.14,0.14,-0.14,-5.72,-5.73,-5.73
248,-5.95,-0.21,-5.92,-0.19,0.19,-0.12,-5.76,-5.73,-5.73
251,-6.07,-0.33,-5.98,-0.24,0.24,-0.08,-5.83,-5.73,-5.73
253,-6.07,-0.33,-6.03,-0.30,0.30,-0.06,-5.77,-5.73,-5.73
256,-6.07,-0.33,-6.09,-0.35,0.35,-0.02,-5.72,-5.73,-5.73
259,-6.07,-0.33,-6.14,-0.41,0.41,0.02,-5.66,-5.73,-5.73
261,-6.07,-0.33,-6.20,-0.47,0.47,0.05,-5.60,-5.73,-5.73
264,-6.28,-0.54,-6.26,-0.53,0.53,0.09,-5.75,-5.73,-5.73
266,-6.39,-0.65,-6.32,-0.59,0.59,0.12,-5.80,-5.73,-5.73
269,-6.39,-0.65,-6.38,-0.65,0.65,0.16,-5.74,-5.73,-5.73
272,-6.39,-0.65,-6.43,-0.70,0.70,0.20,-5.69,-5.73,-5.73
274,-6.43,-0.69,-6.49,-0.75,0.75,0.24,-5.68,-5.73,-5.73
277,-6.55,-0.81,-6.53,-0.80,0.80,0.28,-5.75,-5.73,-5.73
280,-6.68,-0.94,-6.58,-0.84,0.84,0.33,-5.84,-5.73,-5.73
283,-6.71,-0.97,-6.61,-0.88,0.88,0.38,-5.83,-5.73,-5.73
286,-6.71,-0.97,-6.65,-0.91,0.91,0.43,-5.80,-5.73,-5.73
288,-6.71,-0.97,-6.68,-0.94,0.94,0.46,-5.77,-5.73,-5.73
291,-6.71,-0.97,-6.70,-0.97,0.97,0.51,-5.74,-5.73,-5.73
294,-6.71,-0.97,-6.73,-0.99,0.99,0.56,-5.72,-5.73,-5.73
297,-6.71,-0.97,-6.75,-1.02,1.02,0.62,-5.69,-5.73,-5.73
300,-6.71,-0.97,-6.78,-1.05,1.05,0.67,-5.66,-5.73,-5.73
303,-6.71,-0.97,-6.81,-1.07,1.07,0.72,-5.64,-5.73,-5.73
306,-6.71,-0.97,-6.84,-1.10,1.10,0.78,-5.61,-5.73,-5.73
309,-6.82,-1.08,-6.87,-1.13,1.13,0.83,-5.68,-5.73,-5.73
312,-6.92,-1.18,-6.90,-1.17,1.17,0.89,-5.75,-5.73,-5.73
316,-7.04,-1.30,-6.93,-1.20,1.20,0.97,-5.84,-5.73,-5.73
319,-7.04,-1.30,-6.96,-1.22,1.22,1.02,-5.82,-5.73,-5.73
322,-7.04,-1.30,-6.98,-1.25,1.25,1.08,-5.79,-5.73,-5.73
325,-7.04,-1.30,-7.00,-1.27,1.27,1.14,-5.77,-5.73,-5.73
328,-7.04,-1.30,-7.02,-1.28,1.28,1.20,-5.76,-5.73,-5.73
332,-7.04,-1.30,-7.03,-1.29,1.29,1.28,-5.75,-5.73,-5.73
335,-7.04,-1.30,-7.03,-1.30,1.30,1.34,-5.74,-5.73,-5.73
338,-7.04,-1.30,-7.04,-1.30,1.30,1.40,-5.73,-5.73,-5.73
342,-7.04,-1.30,-7.04,-1.31,1.31,1.48,-5.73,-5.73,-5.73
345,-7.04,-1.30,-7.05,-1.31,1.31,1.54,-5.72,-5.73,-5.73
349,-7.04,-1.30,-7.06,-1.32,1.32,1.63,-5.72,-5.73,-5.73
352,-7.04,-1.30,-7.07,-1.33,1.33,1.69,-5.71,-5.73,-5.73
356,-7.04,-1.30,-7.08,-1.35,1.35,1.78,-5.69,-5.73,-5.73
359,-7.04,-1.30,-7.10,-1.37,1.37,1.84,-5.67,-5.73,-5.73
363,-7.04,-1.30,-7.13,-1.39,1.39,1.93,-5.64,-5.73,-5.73
366,-7.11,-1.37,-7.16,-1.42,1.42,2.00,-5.69,-5.73,-5.73
370,-7.23,-1.49,-7.19,-1.46,1.46,2.08,-5.77,-5.73,-5.73
374,-7.35,-1.61,-7.23,-1.49,1.49,2.17,-5.86,-5.73,-5.73
377,-7.36,-1.62,-7.26,-1.53,1.53,2.24,-5.83,-5.73,-5.73
381,-7.36,-1.62,-7.30,-1.57,1.57,2.33,-5.79,-5.73,-5.73
385,-7.36,-1.62,-7.34,-1.61,1.61,2.42,-5.75,-5.73,-5.73
389,-7.36,-1.62,-7.39,-1.65,1.65,2.51,-5.71,-5.73,-5.73
393,-7.36,-1.62,-7.43,-1.70,1.70,2.60,-5.66,-5.73,-5.73
397,-7.37,-1.63,-7.47,-1.74,1.74,2.69,-5.63,-5.73,-5.73
401,-7.49,-1.75,-7.52,-1.79,1.79,2.77,-5.70,-5.73,-5.73
405,-7.60,-1.86,-7.57,-1.83,1.83,2.86,-5.77,-5.73,-5.73
409,-7.69,-1.95,-7.62,-1.88,1.88,2.95,-5.81,-5.73,-5.73
413,-7.69,-1.95,-7.67,-1.93,1.93,3.03,-5.76,-5.73,-5.73
417,-7.69,-1.95,-7.72,-1.98,1.98,3.11,-5.70,-5.73,-5.73
421,-7.71,-1.97,-7.77,-2.04,2.04,3.20,-5.67,-5.73,-5.73
425,-7.82,-2.08,-7.82,-2.09,2.09,3.27,-5.73,-5.73,-5.73
430,-7.95,-2.21,-7.88,-2.14,2.14,3.37,-5.81,-5.73,-5.73
434,-8.01,-2.27,-7.93,-2.20,2.20,3.44,-5.81,-5.73,-5.73
438,-8.01,-2.27,-7.98,-2.25,2.25,3.51,-5.76,-5.73,-5.73
443,-8.01,-2.27,-8.04,-2.30,2.30,3.59,-5.71,-5.73,-5.73
447,-8.01,-2.27,-8.09,-2.36,2.36,3.64,-5.65,-5.73,-5.73
451,-8.01,-2.27,-8.14,-2.41,2.41,3.70,-5.60,-5.73,-5.73
456,-8.25,-2.51,-8.19,-2.46,2.46,3.76,-5.79,-5.73,-5.73
460,-8.34,-2.60,-8.24,-2.51,2.51,3.80,-5.83,-5.73,-5.73
465,-8.34,-2.60,-8.29,-2.56,2.56,3.84,-5.78,-5.73,-5.73
470,-8.34,-2.60,-8.34,-2.61,2.61,3.88,-5.73,-5.73,-5.73
474,-8.34,-2.60,-8.39,-2.66,2.66,3.90,-5.68,-5.73,-5.73
479,-8.36,-2.62,-8.44,-2.70,2.70,3.91,-5.66,-5.73,-5.73
484,-8.48,-2.74,-8.48,-2.75,2.75,3.92,-5.73,-5.73,-5.73
489,-8.59,-2.85,-8.53,-2.79,2.79,3.92,-5.80,-5.73,-5.73
494,-8.66,-2.92,-8.57,-2.83,2.83,3.90,-5.83,-5.73,-5.73
499,-8.66,-2.92,-8.61,-2.87,2.87,3.88,-5.78,-5.73,-5.73
504,-8.66,-2.92,-8.65,-2.92,2.92,3.84,-5.74,-5.73,-5.73
509,-8.66,-2.92,-8.69,-2.96,2.96,3.80,-5.70,-5.73,-5.73
514,-8.66,-2.92,-8.73,-3.00,3.00,3.74,-5.66,-5.73,-5.73
519,-8.66,-2.92,-8.77,-3.04,3.04,3.68,-5.62,-5.73,-5.73
524,-8.72,-2.98,-8.81,-3.08,3.08,3.61,-5.64,-5.73,-5.73
529,-8.83,-3.09,-8.85,-3.12,3.12,3.53,-5.71,-5.73,-5.73
535,-8.96,-3.22,-8.88,-3.15,3.15,3.43,-5.81,-5.73,-5.73
540,-8.98,-3.24,-8.92,-3.18,3.18,3.33,-5.80,-5.73,-5.73
545,-8.98,-3.24,-8.94,-3.21,3.21,3.23,-5.77,-5.73,-5.73
551,-8.98,-3.24,-8.96,-3.23,3.23,3.10,-5.75,-5.73,-5.73
556,-8.98,-3.24,-8.97,-3.24,3.24,2.99,-5.74,-5.73,-5.73
562,-8.98,-3.24,-8.98,-3.24,3.24,2.85,-5.74,-5.73,-5.73
568,-8.98,-3.24,-8.97,-3.24,3.24,2.71,-5.74,-5.73,-5.73
573,-8.98,-3.24,-8.96,-3.22,3.22,2.58,-5.76,-5.73,-5.73
579,-8.98,-3.24,-8.94,-3.20,3.20,2.43,-5.78,-5.73,-5.73
585,-8.97,-3.23,-8.91,-3.17,3.17,2.28,-5.80,-5.73,-5.73
591,-8.86,-3.12,-8.87,-3.13,3.13,2.12,-5.73,-5.73,-5.73
596,-8.76,-3.02,-8.82,-3.09,3.09,1.99,-5.67,-5.73,-5.73
602,-8.66,-2.92,-8.77,-3.04,3.04,1.83,-5.62,-5.73,-5.73
608,-8.66,-2.92,-8.72,-2.98,2.98,1.67,-5.68,-5.73,-5.73
615,-8.66,-2.92,-8.66,-2.92,2.92,1.48,-5.74,-5.73,-5.73
621,-8.62,-2.88,-8.59,-2.85,2.85,1.32,-5.77,-5.73,-5.73
627,-8.51,-2.77,-8.51,-2.78,2.78,1.16,-5.73,-5.73,-5.73
633,-8.41,-2.67,-8.42,-2.69,2.69,1.00,-5.72,-5.73,-5.73
639,-8.34,-2.60,-8.33,-2.59,2.59,0.84,-5.75,-5.73,-5.73
646,-8.34,-2.60,-8.22,-2.49,2.49,0.65,-5.85,-5.73,-5.73
652,-8.13,-2.39,-8.11,-2.37,2.37,0.49,-5.76,-5.73,-5.73
659,-7.95,-2.21,-7.98,-2.24,2.24,0.31,-5.71,-5.73,-5.73
665,-7.85,-2.11,-7.84,-2.10,2.10,0.15,-5.75,-5.73,-5.73
672,-7.73,-1.99,-7.68,-1.95,1.95,-0.04,-5.78,-5.73,-5.73
679,-7.54,-1.80,-7.52,-1.79,1.79,-0.22,-5.75,-5.73,-5.73
686,-7.31,-1.57,-7.35,-1.62,1.62,-0.40,-5.69,-5.73,-5.73
692,-7.11,-1.37,-7.17,-1.43,1.43,-0.55,-5.68,-5.73,-5.73
699,-6.96,-1.22,-6.98,-1.24,1.24,-0.73,-5.72,-5.73,-5.73
706,-6.82,-1.08,-6.78,-1.05,1.05,-0.91,-5.77,-5.73,-5.73
713,-6.60,-0.86,-6.57,-0.84,0.84,-1.08,-5.76,-5.73,-5.73
721,-6.35,-0.61,-6.36,-0.63,0.63,-1.28,-5.72,-5.73,-5.73
728,-6.13,-0.39,-6.15,-0.41,0.41,-1.46,-5.72,-5.73,-5.73
735,-5.91,-0.17,-5.92,-0.19,0.19,-1.63,-5.72,-5.73,-5.73
742,-5.70,0.04,-5.69,0.04,-0.04,-1.80,-5.74,-5.73,-5.73
750,-5.46,0.28,-5.46,0.28,-0.28,-2.00,-5.74,-5.73,-5.73
757,-5.25,0.49,-5.22,0.52,-0.52,-2.17,-5.76,-5.73,-5.73
765,-5.01,0.73,-4.98,0.76,-0.76,-2.36,-5.77,-5.73,-5.73
773,-4.78,0.96,-4.73,1.00,-1.00,-2.55,-5.78,-5.73,-5.73
780,-4.56,1.18,-4.49,1.25,-1.25,-2.72,-5.81,-5.73,-5.73
788,-4.21,1.53,-4.24,1.49,-1.49,-2.90,-5.70,-5.73,-5.73
796,-3.95,1.79,-4.00,1.73,-1.73,-3.09,-5.68,-5.73,-5.73
804,-3.73,2.01,-3.77,1.97,-1.97,-3.27,-5.70,-5.73,-5.73
812,-3.50,2.24,-3.54,2.20,-2.20,-3.46,-5.70,-5.73,-5.73
820,-3.28,2.46,-3.31,2.42,-2.42,-3.63,-5.70,-5.73,-5.73
828,-3.06,2.68,-3.09,2.64,-2.64,-3.81,-5.70,-5.73,-5.73
837,-2.82,2.92,-2.88,2.85,-2.85,-4.01,-5.67,-5.73,-5.73
845,-2.71,3.03,-2.68,3.05,-3.05,-4.18,-5.76,-5.73,-5.73
853,-2.55,3.19,-2.49,3.25,-3.25,-4.34,-5.80,-5.73,-5.73
862,-2.32,3.42,-2.30,3.44,-3.44,-4.52,-5.76,-5.73,-5.73
871,-2.08,3.66,-2.11,3.62,-3.62,-4.70,-5.70,-5.73,-5.73
879,-1.94,3.80,-1.94,3.80,-3.80,-4.85,-5.74,-5.73,-5.73
888,-1.81,3.93,-1.76,3.97,-3.97,-5.01,-5.78,-5.73,-5.73
897,-1.58,4.16,-1.60,4.14,-4.14,-5.17,-5.72,-5.73,-5.73
906,-1.44,4.30,-1.43,4.30,-4.30,-5.32,-5.74,-5.73,-5.73
915,-1.29,4.45,-1.27,4.46,-4.46,-5.46,-5.75,-5.73,-5.73
924,-1.07,4.67,-1.12,4.62,-4.62,-5.58,-5.68,-5.73,-5.73
933,-0.95,4.79,-0.97,4.77,-4.77,-5.70,-5.72,-5.73,-5.73
943,-0.82,4.92,-0.82,4.91,-4.91,-5.83,-5.73,-5.73,-5.73
952,-0.72,5.02,-0.68,5.06,-5.06,-5.92,-5.77,-5.73,-5.73
962,-0.60,5.14,-0.54,5.19,-5.19,-6.02,-5.79,-5.73,-5.73
971,-0.44,5.30,-0.41,5.33,-5.33,-6.10,-5.77,-5.73,-5.73
981,-0.22,5.52,-0.28,5.46,-5.46,-6.17,-5.67,-5.73,-5.73
991,-0.10,5.64,-0.15,5.58,-5.58,-6.23,-5.68,-5.73,-5.73
1001,0.01,5.75,-0.03,5.70,-5.70,-6.27,-5.69,-5.73,-5.73
1011,0.10,5.84,0.08,5.82,-5.82,-6.30,-5.72,-5.73,-5.73
1021,0.10,5.84,0.19,5.93,-5.93,-6.32,-5.83,-5.73,-5.73
1031,0.27,6.01,0.30,6.04,-6.04,-6.33,-5.76,-5.73,-5.73
1041,0.42,6.16,0.40,6.14,-6.14,-6.32,-5.72,-5.73,-5.73
1052,0.42,6.16,0.50,6.24,-6.24,-6.31,-5.82,-5.73,-5.73
1062,0.61,6.35,0.59,6.33,-6.33,-6.28,-5.72,-5.73,-5.73
1073,0.75,6.49,0.68,6.42,-6.42,-6.25,-5.66,-5.73,-5.73
1084,0.75,6.49,0.76,6.49,-6.49,-6.20,-5.74,-5.73,-5.73
1094,0.75,6.49,0.83,6.57,-6.57,-6.16,-5.82,-5.73,-5.73
1105,0.86,6.60,0.90,6.63,-6.63,-6.10,-5.77,-5.73,-5.73
1116,1.07,6.81,0.95,6.68,-6.68,-6.03,-5.61,-5.73,-5.73
1128,1.07,6.81,0.99,6.73,-6.73,-5.96,-5.66,-5.73,-5.73
1139,1.07,6.81,1.03,6.76,-6.76,-5.88,-5.69,-5.73,-5.73
1150,1.07,6.81,1.06,6.79,-6.79,-5.81,-5.72,-5.73,-5.73
1162,1.07,6.81,1.07,6.81,-6.81,-5.72,-5.74,-5.73,-5.73
1173,1.07,6.81,1.09,6.82,-6.82,-5.64,-5.75,-5.73,-5.73
1185,1.07,6.81,1.09,6.83,-6.83,-5.56,-5.75,-5.73,-5.73
1197,1.07,6.81,1.09,6.83,-6.83,-5.47,-5.76,-5.73,-5.73
1209,1.07,6.81,1.09,6.83,-6.83,-5.38,-5.75,-5.73,-5.73
1221,1.07,6.81,1.09,6.82,-6.82,-5.30,-5.75,-5.73,-5.73
1233,1.07,6.81,1.08,6.82,-6.82,-5.21,-5.75,-5.73,-5.73
1246,1.07,6.81,1.08,6.81,-6.81,-5.13,-5.74,-5.73,-5.73
1258,1.07,6.81,1.08,6.81,-6.81,-5.05,-5.74,-5.73,-5.73
1271,1.07,6.81,1.07,6.81,-6.81,-4.97,-5.74,-5.73,-5.73
1283,1.07,6.81,1.07,6.81,-6.81,-4.89,-5.73,-5.73,-5.73
1296,1.07,6.81,1.07,6.80,-6.80,-4.82,-5.73,-5.73,-5.73
1309,1.07,6.81,1.07,6.80,-6.80,-4.74,-5.73,-5.73,-5.73
1322,1.07,6.81,1.07,6.80,-6.80,-4.68,-5.73,-5.73,-5.73
1335,1.07,6.81,1.07,6.80,-6.80,-4.61,-5.73,-5.73,-5.73
1349,1.07,6.81,1.07,6.80,-6.80,-4.54,-5.73,-5.73,-5.73
1362,1.07,6.81,1.07,6.80,-6.80,-4.49,-5.73,-5.73,-5.73
1376,1.07,6.81,1.07,6.80,-6.80,-4.43,-5.73,-5.73,-5.73
1390,1.07,6.81,1.07,6.81,-6.81,-4.38,-5.74,-5.73,-5.73
1404,1.07,6.81,1.08,6.81,-6.81,-4.33,-5.74,-5.73,-5.73
1418,1.07,6.81,1.08,6.81,-6.81,-4.28,-5.74,-5.73,-5.73
1432,1.07,6.81,1.08,6.82,-6.82,-4.24,-5.75,-5.73,-5.73
1446,1.07,6.81,1.09,6.82,-6.82,-4.20,-5.75,-5.73,-5.73
1461,1.07,6.81,1.09,6.83,-6.83,-4.17,-5.76,-5.73,-5.73
1475,1.07,6.81,1.10,6.83,-6.83,-4.14,-5.76,-5.73,-5.73
1490,1.07,6.81,1.10,6.83,-6.83,-4.11,-5.76,-5.73,-5.73
1505,1.07,6.81,1.09,6.83,-6.83,-4.08,-5.76,-5.73,-5.73
