frequency,raw,error,smoothed,error_smoothed,equalization,equalized_raw,equalized_smoothed,target
20,-2.3564549827326093,-6.477075733340523,-2.3383172131598644,-6.458956208338123,6.505125745953528,4.1486707632209185,4.166808532793663,4.120620750607913
21,-2.047019807927123,-6.199254952636455,-2.042702597823741,-6.194927118337352,6.2182935689407195,4.171273761013596,4.1755909711169785,4.152235144709332
22,-1.702719350548693,-5.883167830572189,-1.7656620992669314,-5.9460885176280485,5.955990656739056,4.253271306190363,4.1903285574721245,4.180448480023496
23,-1.551857281583169,-5.757116631904707,-1.5071957174894353,-5.71244040621021,5.715549262870169,4.163691981287,4.208353545380734,4.205259350321538
24,-1.2394289306689064,-5.466095027123142,-1.2673034524912508,-5.493982784083832,5.49468295861197,4.255254027943064,4.2273795061207196,4.2266660964542355
25,-1.0489837183647706,-5.293650493270569,-1.0466807618060068,-5.2914194625403805,5.29141946254038,4.242435744175609,4.244738700734373,4.244666774905798
26,-0.8478342930774094,-5.10709341712767,-0.844628995283188,-5.1040474015246495,5.104047401524649,4.256213108447239,4.25941840624146,4.259259124050261
27,-0.6466848677900485,-4.91719434150059,-0.6603882804404573,-4.9310983781699385,4.9310983781699385,4.28441351037989,4.270710097729481,4.270509473710542
28,-0.4821192431996048,-4.760480883785553,-0.4927253990448655,-4.771319700233823,4.771319700233823,4.289200457034219,4.278594301188957,4.278361640585948
29,-0.3453716685422243,-4.628158360053936,-0.3399649261597686,-4.623000947051137,4.623000947051136,4.277629278508912,4.283036020891368,4.282786691511712
30,-0.2196764899147196,-4.503414178575514,-0.20032768978009388,-4.484311144417859,4.484311144417859,4.26463465450314,4.283983454637765,4.2837376886607945
31,-0.04323659192797488,-4.324383458802854,-0.07194344085830462,-4.353308467698222,4.3533084676982226,4.310071875770248,4.281365026839918,4.281146866874879
32,0.05733812071570357,-4.217586160810761,0.04695284582827129,-4.228136687138338,4.2281366871383375,4.285474807854041,4.275089532966609,4.274924281526465
33,0.0951823059799857,-4.1697763144282085,0.1578904512414374,-4.107157517143596,4.107157517143597,4.202339823123583,4.265047968385034,4.264958620408194
34,0.25848754600306184,-3.992644509931976,0.2620814039238163,-3.9890359004442493,3.9890359004442493,4.247523446447311,4.251117304368066,4.251132055935038
35,0.3590622586467381,-3.874252302611398,0.36032854778847756,-3.8728382320191272,3.8728382320191272,4.231900490665866,4.233166779807605,4.233314561258136
36,0.5022525739366451,-3.7091225435666795,0.4529839189204853,-3.758082421255753,3.7580824212557524,4.260334995192397,4.211066340176238,4.211375117503325
37,0.5602116839340965,-3.6249805210027253,0.539954193523988,-3.6447431588390584,3.6447431588390575,4.204954842773154,4.184697352363045,4.185192204936822
38,0.5602116839340963,-3.5944547672053475,0.6207864533027696,-3.5331790194629913,3.533179019462992,4.093390703397088,4.153965472765762,4.154666451139444
39,0.6690929916094719,-3.450642098236293,0.6948602081621151,-3.42395518852224,3.42395518852224,4.093048180131712,4.118815396684355,4.119735089845765
40,0.761361109221419,-3.3190266526980445,0.7616664001730162,-3.3175807314259087,3.317580731425908,4.078941840647326,4.079247131598924,4.0803877619194635
41,0.872972640641295,-3.1637122713997683,0.8211138561732167,-3.21421934405581,3.2142193440558096,4.087191984697105,4.035333200229026,4.036684912041063
42,0.8619358218649955,-3.126839606088591,0.8737631934933794,-3.1134728091611352,3.1134728091611366,3.975408631026132,3.987236002654516,3.9887754279535863
43,1.0027404195677547,-2.9341734658116314,0.9208872004483271,-3.0143372000362882,3.0143372000362882,4.017077619604043,3.935224400484615,3.9369138853793864
44,0.9625105345138973,-2.918965568303462,0.9643038633483396,-2.915384593429609,2.915384593429608,3.877895127943505,3.8796884567779477,3.881476102817359
45,0.9625105345145157,-2.8604613059845545,1.0060061069108484,-2.815145099717423,2.8151450997174234,3.777655634231939,3.821151206628272,3.8229718404990702
46,0.9950775227972575,-2.7669759123271103,1.0476911773275144,-2.7125851613917598,2.712585161391759,3.7076626841890166,3.7602763387192732,3.762053435124368
47,1.0211425392794393,-2.678376649447567,1.0903346641915737,-2.6075360829538754,2.6075360829538754,3.6286786222333145,3.697870747145449,3.699519188727006
48,1.163659959692471,-2.472650773611174,1.1339399043677467,-2.5009411604444227,2.5009411604444227,3.6646011201368935,3.6348810648121694,3.6363107333036453
49,1.1636599597249313,-2.409843581441696,1.1775308596955294,-2.394852650328704,2.394852650328703,3.5585126100536346,3.5723835100242325,3.573503541166627
50,1.3245795002075418,-2.1877106542015383,1.2193754788103366,-2.292191181576472,2.292191181576472,3.616770681784014,3.5115666603868085,3.5122901544090803
51,1.2642346731632135,-2.189721365440249,1.2573630253851538,-2.1963440760221307,2.1963440760221298,3.460578749185343,3.4537071014072835,3.453956038603463
52,1.264234673775145,-2.1356136777033026,1.2894326677778567,-2.1107055979837277,2.1107055979837277,3.374940271758873,3.4001382657615844,3.3998483514784477
53,1.2642346737532444,-2.0871036418820617,1.3139592656360681,-2.038253898324217,2.0382538983242178,3.302488572077462,3.352213163960286,3.351338315635306
54,1.2642346719763735,-2.0455435960076995,1.3300287851635484,-1.9812333011479555,1.9812333011479555,3.245467973124329,3.311262086311504,3.309778267984073
55,1.445269150243082,-1.8311856966195037,1.3375624487625966,-1.9409842578905145,1.9409842578905145,3.386253408133596,3.278546706653111,3.2764548468625856
56,1.3648093732886344,-1.8877307133248933,1.3372717272736856,-1.9179405904108207,1.9179405904108213,3.2827499636994557,3.255212317684507,3.2525400866135277
57,1.3648093672533892,-1.874233066569564,1.3304530581115621,-1.9117870970028572,1.9117870970028565,3.2765964642562455,3.242240155114419,3.239042433822953
58,1.3648093689261227,-1.8719504816962056,1.3186693441046637,-1.921732561667742,1.9217325616677423,3.286541930593865,3.240401905772406,3.2367598506223283
59,1.1636599629209465,-2.0825772528576767,1.3034101062299088,-1.946808424118524,1.946808424118524,3.1104683870394707,3.250218530348433,3.2462372157786232
60,1.26423472149027,-2.0034954433617695,1.2858499890000907,-1.986075468070037,1.986075468070037,3.250310189560307,3.271925457070128,3.26773016485204
61,1.2642347944148844,-2.036942528435981,1.2668085112603453,-2.038637505923027,2.0386375059230275,3.3028723003379117,3.305446017183373,3.301177322850865
62,1.2642348750919374,-2.0819477106047657,1.246941524888352,-2.1034331770472647,2.1034331770472643,3.3676680521392015,3.3503747019356163,3.346182585696703
63,1.2642349143383431,-2.137773795544822,1.2270870329214014,-2.178884402794581,2.178884402794581,3.4431193171329237,3.4059714357159825,3.4020087098831655
64,1.2642348304500854,-2.2033481617152084,1.2085940971320681,-2.2625735017913344,2.262573501791335,3.52680833224142,3.4711675989234028,3.4675829921652936
65,1.2642345240660013,-2.277280762672688,1.1934347452390202,-2.351149274385963,2.351149274385963,3.6153837984519646,3.5445840196249834,3.541515286738689
66,1.088923592403155,-2.53320445172496,1.18396218522143,-2.440598427189014,2.4405984271890153,3.5295220195921706,3.6245606124104452,3.6221280441281154
67,1.122912026159911,-2.584585468063297,1.1823193990595207,-2.5268774050266414,2.5268774050266405,3.6497894311865515,3.709196804086161,3.707497494223208
68,1.163657357651486,-2.6318472084831077,1.1896631033783134,-2.6067382742466343,2.6067382742466343,3.77039563189812,3.7964013776249477,3.7955045661345936
69,1.1636567765667782,-2.720236892859506,1.2054784215176417,-2.6784714957367575,2.678471495736758,3.842128272303536,3.8839499172544,3.8838936694262842
70,1.1636573249147144,-2.8066797560629575,1.2272675459351645,-2.742280129155859,2.742280129155859,3.9059374540705734,3.9695476750910235,3.970337080977672
71,1.3541652621710114,-2.698337148417143,1.250792521159819,-2.800102901315555,2.800102901315556,4.1542681634865675,4.050895422475374,4.052502410588154
72,1.3288605319895825,-2.7992599395787225,1.2708744343851184,-2.8548812734262197,2.85488127342622,4.183741805415803,4.125755707811338,4.128120471568305
73,1.2642489450142345,-2.930801922884548,1.2825599900509388,-2.9094569311453,2.9094569311453,4.173705876159534,4.192016921196239,4.195050867898782
74,1.2642600854641914,-2.9870826418948875,1.2823282459600926,-2.9654244266901575,2.9654244266901584,4.22968451215435,4.247752672650251,4.251342727359079
75,1.2684933026136442,-3.0267949503117264,1.268973860418406,-3.0223003576950256,3.022300357695025,4.290793660308669,4.291274218113431,4.295288252925371
76,1.4050811219224586,-2.9203859962555594,1.2438822389936628,-3.0772917730271967,3.0772917730271976,4.482372894949656,4.32117401202086,4.325467118178018
77,1.1636949813852253,-3.177085194356426,1.2105870689835345,-3.1257718549414997,3.1257718549415,4.289466836326725,4.336358923925035,4.340780175741651
78,1.1636672107927601,-3.176804244608239,1.1737225123153048,-3.162349681669941,3.162349681669941,4.326016892462701,4.336072193985245,4.3404714554009995
79,1.1628736216348943,-3.1612643502124005,1.1376833511675069,-3.182220379651337,3.1822203796513375,4.345094001286232,4.319903730818845,4.3241379718472945
80,0.9221418708859869,-3.3695855401721695,1.1054161620295728,-3.1823726121404947,3.1823726121404956,4.104514483026483,4.287788774170068,4.291727411058156
81,1.045723667182263,-3.197800622533105,1.0777325959214492,-3.162262624878091,3.1622626248780916,4.207986292060355,4.239995220799541,4.243524289715368
82,1.062696158343526,-3.117429498455568,1.0533605603947755,-3.123739596793493,3.1237395967934933,4.186435755137019,4.177100157188269,4.180125656799094
83,1.0625827320893124,-3.0398250754056066,1.0296867130995881,-3.0702698195893907,3.0702698195893916,4.132852551678704,4.09995653268898,4.102407807494919
84,1.0625360697131394,-2.948949719257483,1.0038914276821866,-3.0057602519422613,3.0057602519422617,4.068296321655401,4.009651679624448,4.011485788970623
85,1.0610440121663434,-2.8476236715321934,0.9740398747905579,-2.933420734115976,2.9334207341159764,3.9944647462823197,3.9074606089065345,3.908667683698537
86,0.9623280230327234,-2.833077730627493,0.9397313972922479,-2.8550668832330963,2.8550668832330968,3.81739490626582,3.7947982805253444,3.795405753660216
87,0.8880861381513486,-2.7851603812307775,0.9021090522244765,-2.7710664003288468,2.771066400328847,3.6591525384801957,3.673175452553324,3.673246519382126
88,0.863161719555057,-2.680620019300147,0.8633005534720599,-2.680860710589689,2.6808607105896893,3.5440224301447465,3.5441612640617493,3.543781738855204
89,0.7467197350622048,-2.6618823207767006,0.8255767516432593,-2.5837753407525845,2.5837753407525845,3.330495075814789,3.409352092395844,3.4086020558389056
90,0.6042499375919904,-2.665004884282832,0.7905820562994283,-2.4797593639915005,2.479759363991501,3.0840093015834915,3.2703414202909293,3.2692548218748225
91,0.7666817406219532,-2.3605255407841423,0.758897883900749,-2.3697837922346308,2.3697837922346303,3.1364655328565836,3.128681676135379,3.1272072814060956
92,0.8758179787078264,-2.107997987261809,0.7300096300469119,-2.2558196450818735,2.255819645081873,3.1316376237896995,2.985829275128785,2.9838159659696353
93,0.8975575186675261,-1.942745274014701,0.7025680637762503,-2.1405024017521916,2.1405024017521916,3.038059920419718,2.843070465528442,2.8403027926822273
94,0.6683511261857292,-2.0293868977560146,0.6747557152209053,-2.0266816311823748,2.0266816311823748,2.695032757368104,2.70143734640328,2.697738023941744
95,0.4856278329866724,-2.071402103610751,0.6446079043200077,-1.917028365837961,1.9170283658379605,2.402656198824633,2.561636270157968,2.5570299365974236
96,0.4251474453354432,-1.9937733381884954,0.6102432925297598,-1.8137749362896285,1.8137749362896283,2.2389223816250716,2.424018228819388,2.4189207835239386
97,0.5574941578706909,-1.7264942603544489,0.5700471650110428,-1.7185696900626866,1.7185696900626866,2.2760638479333775,2.2886168550737294,2.2839884182251398
98,0.6638231828256701,-1.488829616324474,0.5228648801668441,-1.6323974666984813,1.6323974666984813,2.2962206495241513,2.1552623468653254,2.152652799150144
99,0.6689910858252031,-1.3561954101213134,0.46820579831039866,-1.5555470809094065,1.5555470809094065,2.2245381667346096,2.0237528792198054,2.0251864959465165
100,0.42276256848273824,-1.4789657136691372,0.4063824459950075,-1.4876562787437262,1.4876562787437266,1.910418847226465,1.894038724738734,1.9017282821518755
101,0.25638388107737337,-1.5259150307459675,0.33848415816423294,-1.4278760541231468,1.427876054123147,1.6842599352005203,1.7663602122873798,1.7822989118233408
102,0.12372083840746229,-1.5430973944268276,0.26614134906039,-1.3751458422634149,1.3751458422634142,1.4988666806708766,1.641287191323804,1.6668182328342898
104,0.3288163018523846,-1.1643419499393604,0.1911451339988653,-1.3284901213729903,1.3284901213729903,1.657306423225375,1.5196352553718555,1.493158251791745
105,-0.056920378930580176,-1.4418587491591028,0.11507636117586816,-1.2871978820723973,1.2871978820723973,1.2302775031418172,1.4022742432482653,1.3849383702285227
106,-0.01870511716330511,-1.2988248767697077,0.039107351422453675,-1.2507757365703644,1.2507757365703642,1.2320706194070592,1.2898830879928178,1.2801197596064027
107,0.14942706628316996,-1.0289625683694996,-0.03594413379202497,-1.2186711229911538,1.218671122991154,1.368098189274324,1.182726989199129,1.1783896346526697
108,0.014594515610209555,-1.0648219377030081,-0.10936211274344111,-1.189891018821427,1.1898910188214267,1.2044855344316363,1.0805289060779855,1.0794164533132178
109,-0.24151396889432517,-1.2243771309095015,-0.18024382054363658,-1.1627221656106395,1.16272216561064,0.9212081967163147,0.9824783450670034,0.9828631620151764
110,-0.29823588087769115,-1.1866347123776917,-0.2473598269519697,-1.1347366139069666,1.1347366139069663,0.8365007330292752,0.8873767869549967,0.8883988315000004
111,-0.3930870305092986,-1.1887956671114355,-0.3092674356168677,-1.1031439587950271,1.1031439587950271,0.7100569282857285,0.7938765231781595,0.7957086366021369
112,-0.40557550135339643,-1.1100776825577154,-0.3646497576974218,-1.0653925131656592,1.0653925131656594,0.659817011812263,0.7007427554682376,0.7045021812043191
113,-0.41445150849778584,-1.0289717097514295,-0.4127397787091708,-1.0198059226618166,1.0198059226618166,0.6053544141640308,0.6070661439526458,0.6145202012536437
114,-0.39677114145278625,-0.9223108387716664,-0.4536486475464895,-0.9660227785472744,0.9660227785472744,0.5692516370944881,0.5123741310007849,0.5255396973188802
115,-0.2838972865054024,-0.7212748440898593,-0.48846391685527807,-0.905089208401389,0.9050892084013891,0.6211919218959867,0.416625291546111,0.43737755758445696
117,-0.7483599066890946,-1.0435399270917416,-0.5190870818559824,-0.8391950289389767,0.8391950289389765,0.09083512224988188,0.32010794708299406,0.2951800204026471
118,-0.6283204977344042,-0.8377194488438339,-0.5478876009593392,-0.771177099411307,0.7711770994113069,0.14285660167690262,0.22328949845196766,0.20939895110942963
119,-0.5712638154049928,-0.6954518173321417,-0.5773091578549776,-0.7039783570076579,0.7039783570076578,0.13271454160266494,0.12666919915268016,0.12418800192714885
120,-0.46556648407532475,-0.5050915711572636,-0.6095541045480533,-0.6402288462645014,0.6402288462645014,0.17466236218917663,0.03067474171644813,0.0395250870819388
121,-0.5361976256636519,-0.4916237682296921,-0.6464143831009905,-0.5820333622959699,0.58203336229597,0.0458357366323181,-0.0643810208050205,-0.04457385743395981
123,-0.8652884685060068,-0.6898314134351321,-0.689244081995259,-0.5309522503583625,0.5309522503583627,-0.33433621814764414,-0.1582918316368963,-0.17545705507087472
124,-0.693795885273231,-0.4368541776639695,-0.7390126500389338,-0.4880898736558643,0.48808987365586437,-0.20570601161736662,-0.2509227763830694,-0.2569417076092615
125,-0.7404222642324257,-0.40280291060474205,-0.7963602676034172,-0.454185682261959,0.4541856822619589,-0.28623658197046686,-0.3421745853414583,-0.3376193536276837
126,-1.0498260078347441,-0.6324531795426804,-0.8616001877132483,-0.429636033032912,0.429636033032912,-0.6201899748018321,-0.43196415468033633,-0.4173728282920637
128,-0.8495365775117921,-0.31264053518599566,-0.9346609047148233,-0.4144378524605401,0.4144378524605402,-0.4350987250512519,-0.5202230522542831,-0.5368960423257965
129,-0.8738695683748655,-0.26076936164111164,-1.01500563219896,-0.40810189804919567,0.4081018980491958,-0.46576767032566974,-0.6069037341497643,-0.6131002067337539
130,-1.0947937082031622,-0.4068036694026087,-1.1015900755029022,-0.40961047463490374,0.40961047463490374,-0.6851832335682585,-0.6919796008679985,-0.6879900388005535
131,-1.1942404049009676,-0.4328033168642538,-1.1929170863972638,-0.41748630343542154,0.41748630343542154,-0.7767541014655461,-0.7754307829618423,-0.7614370880367138
133,-1.4100389967824967,-0.5422647328173089,-1.2872167867713764,-0.4299984256961885,0.4299984256961887,-0.980040571086308,-0.8572183610751878,-0.8677742639651878
134,-1.4792731583390963,-0.5424956389141529,-1.38273348973493,-0.4454746357734779,0.4454746357734779,-1.0337985225656183,-0.937258853961452,-0.9367775194249435
135,-1.3567168680690327,-0.35266788868220655,-1.478053540903053,-0.4626405604617244,0.46264056046172447,-0.8940763076073082,-1.0154129804413285,-1.0040489793868261
137,-1.514567916643662,-0.4152998411946809,-1.5723776370259661,-0.48088074696720423,0.4808807469672041,-1.033687169676458,-1.091496890058762,-1.0992680754489812
138,-1.6662418539762065,-0.5044638220381854,-1.6656378452012688,-0.5003241880025971,0.5003241880025973,-1.1659176659736092,-1.1653136571986715,-1.161778031938021
140,-1.8318334416490782,-0.5828836111683127,-1.7583856412292076,-0.5216926186979964,0.5216926186979964,-1.3101408229510818,-1.2366930225312112,-1.2489498304807656
141,-1.8807816986116341,-0.5740719767655933,-1.8514334181012781,-0.5459102051437096,0.5459102051437097,-1.3348714934679244,-1.3055232129575685,-1.3067097218460408
142,-1.9156985733709997,-0.5530799190263209,-1.9453090342159363,-0.5735467020275501,0.5735467020275502,-1.3421518713434495,-1.371762332188386,-1.3626186543446788
144,-2.0306668187111248,-0.591343443683727,-2.0396578717915763,-0.6042316532211617,0.6042316532211616,-1.4264351654899632,-1.4354262185704147,-1.4393233750273977
145,-2.067019296517976,-0.5763654919283336,-2.1327752964569484,-0.6362153653785925,0.6362153653785925,-1.4308039311393836,-1.496559931078356,-1.4906538045896425
147,-2.1972213113353813,-0.6369781569445321,-2.221453106434935,-0.6662468726808417,0.6662468726808417,-1.5309744386545396,-1.5552062337540933,-1.5602431543908493
148,-2.235904696010657,-0.6287273315871795,-2.301266572196927,-0.6898824176690712,0.689882417669071,-1.5460222783415858,-1.6113841545278562,-1.6071773644234773
150,-2.404985871471137,-0.7349019341766101,-2.367321420825819,-0.7022366839492343,0.7022366839492344,-1.7027491875219025,-1.6650847368765846,-1.6700839372945269
151,-2.543573285186354,-0.8308214476440385,-2.415348390325727,-0.6990659455819319,0.6990659455819319,-1.844507339604422,-1.7162824447437952,-1.7127518375423154
153,-2.5558652410175995,-0.7865530353787715,-2.442917030979408,-0.677963381974493,0.677963381974493,-1.8779018590431065,-1.764953649004915,-1.769312205638828
154,-2.5338081907790184,-0.7260675779226182,-2.450475582207847,-0.639384214009999,0.639384214009999,-1.8944239767690194,-1.8110913681978478,-1.8077406128564002
156,-2.311854857310061,-0.45369816003425045,-2.4419291758820094,-0.5872206892447569,0.5872206892447569,-1.7246341680653041,-1.8547084866372525,-1.8581566972758106
157,-2.3111933437728807,-0.4189402460733058,-2.4245471197280306,-0.52871909348533,0.5287190934853299,-1.7824742502875508,-1.8958280262427007,-1.8922530976995748
159,-2.5521908619968032,-0.6155960173198269,-2.4081262332415423,-0.4736607573015871,0.4736607573015871,-2.0785301046952163,-1.9344654759399553,-1.9365948446769763
