frequency,raw,smoothed,error,error_smoothed,equalization,parametric_eq,fixed_band_eq,equalized_raw,equalized_smoothed,target
20.00,7.05,7.05,-2.92,-2.92,2.92,2.10,0.80,9.97,9.98,9.97
20.20,7.09,7.08,-2.87,-2.88,2.88,2.09,0.83,9.97,9.96,9.96
20.40,7.12,7.12,-2.83,-2.83,2.83,2.09,0.85,9.95,9.95,9.95
20.61,7.15,7.15,-2.79,-2.79,2.79,2.08,0.88,9.94,9.94,9.94
20.81,7.18,7.18,-2.75,-2.75,2.74,2.08,0.91,9.92,9.93,9.93
21.02,7.22,7.22,-2.70,-2.70,2.70,2.07,0.94,9.92,9.92,9.92
21.23,7.25,7.25,-2.66,-2.66,2.66,2.07,0.96,9.91,9.91,9.91
21.44,7.28,7.28,-2.62,-2.62,2.62,2.06,0.99,9.90,9.90,9.90
21.66,7.31,7.31,-2.58,-2.58,2.57,2.05,1.02,9.88,9.88,9.88
21.87,7.34,7.34,-2.53,-2.53,2.53,2.05,1.06,9.87,9.87,9.87
22.09,7.37,7.37,-2.49,-2.49,2.50,2.04,1.09,9.87,9.86,9.86
22.31,7.40,7.40,-2.45,-2.45,2.46,2.04,1.12,9.86,9.86,9.85
22.54,7.42,7.42,-2.42,-2.42,2.42,2.03,1.15,9.84,9.84,9.84
22.76,7.45,7.45,-2.38,-2.39,2.39,2.02,1.19,9.84,9.83,9.83
22.99,7.47,7.47,-2.36,-2.35,2.35,2.02,1.22,9.82,9.82,9.83
23.22,7.50,7.50,-2.32,-2.32,2.31,2.01,1.26,9.81,9.81,9.82
23.45,7.52,7.52,-2.29,-2.29,2.28,2.00,1.30,9.80,9.80,9.81
23.69,7.55,7.55,-2.25,-2.25,2.24,2.00,1.34,9.79,9.79,9.79
23.92,7.58,7.58,-2.20,-2.21,2.21,1.99,1.37,9.79,9.78,9.78
24.16,7.60,7.60,-2.17,-2.17,2.17,1.98,1.41,9.77,9.78,9.77
24.40,7.63,7.63,-2.13,-2.14,2.14,1.97,1.45,9.77,9.77,9.76
24.65,7.65,7.65,-2.11,-2.11,2.11,1.97,1.49,9.76,9.76,9.76
24.89,7.68,7.68,-2.08,-2.08,2.08,1.96,1.53,9.76,9.75,9.76
25.14,7.70,7.70,-2.06,-2.05,2.05,1.95,1.57,9.75,9.75,9.75
25.39,7.72,7.72,-2.02,-2.02,2.02,1.94,1.61,9.74,9.75,9.74
25.65,7.75,7.75,-1.99,-2.00,2.00,1.94,1.66,9.75,9.74,9.74
25.91,7.77,7.77,-1.97,-1.97,1.97,1.93,1.70,9.74,9.74,9.74
26.16,7.79,7.79,-1.95,-1.95,1.95,1.92,1.74,9.74,9.74,9.74
26.43,7.81,7.81,-1.93,-1.93,1.93,1.91,1.78,9.74,9.74,9.74
26.69,7.83,7.83,-1.91,-1.91,1.90,1.90,1.82,9.73,9.73,9.73
26.96,7.85,7.85,-1.88,-1.88,1.88,1.89,1.85,9.73,9.73,9.73
27.23,7.87,7.87,-1.86,-1.86,1.86,1.88,1.89,9.73,9.73,9.73
27.50,7.89,7.89,-1.84,-1.83,1.83,1.88,1.93,9.72,9.72,9.73
27.77,7.92,7.92,-1.81,-1.81,1.81,1.87,1.96,9.72,9.72,9.72
28.05,7.94,7.94,-1.77,-1.78,1.78,1.86,2.00,9.72,9.71,9.71
28.33,7.96,7.96,-1.75,-1.75,1.75,1.85,2.03,9.71,9.71,9.71
28.62,7.98,7.98,-1.72,-1.72,1.72,1.84,2.05,9.70,9.70,9.70
28.90,8.00,8.00,-1.70,-1.69,1.69,1.83,2.08,9.69,9.69,9.69
29.19,8.02,8.02,-1.66,-1.66,1.66,1.82,2.10,9.68,9.68,9.68
29.48,8.04,8.04,-1.63,-1.64,1.64,1.81,2.12,9.68,9.67,9.67
29.78,8.05,8.05,-1.62,-1.61,1.62,1.80,2.14,9.66,9.67,9.66
30.08,8.06,8.06,-1.59,-1.59,1.60,1.79,2.16,9.66,9.66,9.65
30.38,8.07,8.07,-1.58,-1.58,1.58,1.78,2.17,9.65,9.65,9.65
30.68,8.08,8.08,-1.57,-1.56,1.57,1.77,2.18,9.64,9.64,9.64
30.99,8.09,8.09,-1.55,-1.55,1.55,1.75,2.18,9.64,9.64,9.64
31.30,8.10,8.09,-1.54,-1.54,1.54,1.74,2.18,9.64,9.64,9.64
31.61,8.10,8.10,-1.53,-1.53,1.53,1.73,2.18,9.63,9.64,9.63
31.93,8.11,8.11,-1.53,-1.53,1.53,1.72,2.17,9.63,9.64,9.64
32.24,8.12,8.12,-1.52,-1.52,1.52,1.71,2.16,9.64,9.63,9.63
32.57,8.13,8.12,-1.50,-1.51,1.51,1.70,2.15,9.64,9.63,9.63
32.89,8.13,8.13,-1.51,-1.50,1.50,1.68,2.14,9.63,9.63,9.64
33.22,8.14,8.14,-1.49,-1.49,1.49,1.67,2.12,9.63,9.63,9.63
33.55,8.15,8.15,-1.48,-1.48,1.47,1.66,2.09,9.62,9.62,9.63
33.89,8.16,8.16,-1.45,-1.46,1.46,1.65,2.07,9.62,9.62,9.61
34.23,8.17,8.17,-1.44,-1.44,1.44,1.63,2.04,9.61,9.61,9.61
34.57,8.18,8.17,-1.42,-1.42,1.42,1.62,2.01,9.60,9.60,9.60
34.92,8.18,8.18,-1.41,-1.40,1.40,1.61,1.98,9.58,9.58,9.59
35.27,8.19,8.19,-1.38,-1.38,1.38,1.59,1.95,9.57,9.57,9.57
35.62,8.20,8.20,-1.35,-1.36,1.36,1.58,1.91,9.55,9.55,9.55
35.97,8.21,8.20,-1.33,-1.33,1.33,1.56,1.87,9.54,9.54,9.54
36.33,8.21,8.21,-1.31,-1.31,1.30,1.55,1.84,9.51,9.52,9.52
36.70,8.22,8.22,-1.28,-1.28,1.28,1.53,1.80,9.50,9.50,9.49
37.06,8.23,8.22,-1.25,-1.25,1.25,1.52,1.76,9.48,9.47,9.48
37.43,8.23,8.23,-1.22,-1.22,1.22,1.50,1.72,9.45,9.45,9.45
37.81,8.24,8.24,-1.19,-1.19,1.19,1.49,1.68,9.43,9.43,9.43
38.19,8.24,8.24,-1.17,-1.17,1.17,1.47,1.63,9.40,9.41,9.40
38.57,8.25,8.25,-1.14,-1.14,1.14,1.46,1.59,9.39,9.39,9.39
38.95,8.25,8.25,-1.12,-1.11,1.12,1.44,1.55,9.36,9.37,9.37
39.34,8.26,8.26,-1.09,-1.09,1.09,1.42,1.51,9.35,9.35,9.35
39.74,8.26,8.26,-1.07,-1.07,1.07,1.41,1.47,9.33,9.33,9.33
40.14,8.26,8.26,-1.05,-1.05,1.05,1.39,1.43,9.31,9.31,9.31
40.54,8.27,8.27,-1.03,-1.03,1.03,1.37,1.39,9.30,9.30,9.30
40.94,8.27,8.27,-1.02,-1.01,1.01,1.36,1.35,9.28,9.28,9.29
41.35,8.28,8.28,-0.99,-1.00,1.00,1.34,1.32,9.28,9.27,9.27
41.76,8.28,8.28,-0.98,-0.98,0.98,1.32,1.28,9.26,9.26,9.26
42.18,8.29,8.29,-0.97,-0.97,0.97,1.30,1.24,9.26,9.26,9.26
42.60,8.29,8.29,-0.96,-0.96,0.96,1.28,1.21,9.25,9.25,9.25
43.03,8.29,8.29,-0.95,-0.95,0.95,1.26,1.17,9.24,9.24,9.23
43.46,8.29,8.29,-0.94,-0.94,0.94,1.24,1.14,9.23,9.23,9.23
43.90,8.29,8.29,-0.94,-0.94,0.94,1.23,1.10,9.22,9.22,9.23
44.33,8.29,8.29,-0.93,-0.93,0.93,1.21,1.07,9.22,9.22,9.22
44.78,8.29,8.29,-0.92,-0.92,0.92,1.19,1.04,9.21,9.21,9.21
45.23,8.29,8.28,-0.92,-0.92,0.92,1.16,1.01,9.20,9.20,9.21
45.68,8.28,8.28,-0.91,-0.91,0.91,1.14,0.98,9.19,9.19,9.19
46.13,8.28,8.28,-0.90,-0.90,0.90,1.12,0.95,9.18,9.18,9.18
46.60,8.28,8.28,-0.89,-0.89,0.89,1.10,0.92,9.17,9.17,9.17
47.06,8.28,8.28,-0.88,-0.88,0.88,1.08,0.90,9.16,9.15,9.15
47.53,8.28,8.27,-0.86,-0.86,0.86,1.06,0.87,9.14,9.14,9.14
48.01,8.27,8.27,-0.85,-0.85,0.85,1.04,0.84,9.12,9.12,9.12
48.49,8.27,8.27,-0.83,-0.83,0.83,1.01,0.82,9.10,9.10,9.10
48.97,8.27,8.27,-0.81,-0.82,0.81,0.99,0.79,9.08,9.08,9.08
49.46,8.27,8.27,-0.79,-0.79,0.79,0.97,0.77,9.06,9.06,9.06
49.96,8.26,8.26,-0.77,-0.77,0.78,0.94,0.75,9.03,9.04,9.03
50.46,8.26,8.26,-0.75,-0.75,0.76,0.92,0.73,9.02,9.01,9.01
50.96,8.25,8.25,-0.73,-0.74,0.74,0.89,0.70,8.99,8.99,8.98
51.47,8.24,8.24,-0.72,-0.72,0.72,0.87,0.68,8.96,8.96,8.96
51.99,8.23,8.23,-0.71,-0.70,0.70,0.84,0.66,8.93,8.93,8.94
52.51,8.23,8.22,-0.68,-0.69,0.68,0.82,0.64,8.91,8.91,8.91
53.03,8.22,8.22,-0.67,-0.67,0.67,0.79,0.62,8.88,8.88,8.89
53.56,8.21,8.21,-0.65,-0.65,0.65,0.77,0.60,8.85,8.86,8.86
54.10,8.21,8.21,-0.63,-0.63,0.63,0.74,0.58,8.84,8.84,8.84
54.64,8.21,8.20,-0.60,-0.60,0.61,0.71,0.56,8.82,8.81,8.81
55.18,8.20,8.20,-0.58,-0.58,0.59,0.68,0.54,8.78,8.79,8.78
55.74,8.19,8.19,-0.56,-0.56,0.57,0.66,0.52,8.75,8.76,8.75
56.29,8.18,8.18,-0.55,-0.54,0.55,0.63,0.50,8.72,8.73,8.72
56.86,8.17,8.17,-0.53,-0.53,0.53,0.60,0.48,8.70,8.69,8.69
57.42,8.16,8.15,-0.50,-0.51,0.51,0.57,0.46,8.67,8.66,8.66
58.00,8.14,8.14,-0.49,-0.49,0.49,0.54,0.44,8.63,8.63,8.63
58.58,8.13,8.13,-0.47,-0.47,0.47,0.51,0.42,8.60,8.60,8.60
59.16,8.12,8.11,-0.44,-0.45,0.45,0.48,0.40,8.57,8.56,8.56
59.76,8.10,8.10,-0.43,-0.43,0.42,0.45,0.38,8.52,8.52,8.53
60.35,8.09,8.09,-0.40,-0.40,0.40,0.42,0.36,8.49,8.49,8.49
60.96,8.08,8.08,-0.38,-0.37,0.37,0.39,0.33,8.45,8.45,8.46
61.57,8.07,8.07,-0.34,-0.34,0.34,0.36,0.31,8.41,8.41,8.41
62.18,8.06,8.06,-0.31,-0.31,0.31,0.33,0.29,8.37,8.37,8.37
62.80,8.04,8.04,-0.29,-0.28,0.29,0.29,0.26,8.32,8.33,8.33
63.43,8.03,8.03,-0.25,-0.25,0.26,0.26,0.24,8.29,8.28,8.28
64.07,8.01,8.01,-0.23,-0.23,0.23,0.23,0.21,8.24,8.24,8.23
64.71,7.99,7.99,-0.20,-0.20,0.20,0.19,0.19,8.19,8.19,8.19
65.35,7.97,7.97,-0.18,-0.18,0.18,0.16,0.16,8.14,8.14,8.15
66.01,7.95,7.95,-0.15,-0.15,0.15,0.12,0.13,8.10,8.10,8.10
66.67,7.93,7.93,-0.12,-0.12,0.12,0.09,0.10,8.05,8.05,8.05
67.33,7.91,7.91,-0.10,-0.10,0.10,0.05,0.07,8.01,8.01,8.01
68.01,7.89,7.88,-0.07,-0.07,0.07,0.02,0.04,7.96,7.96,7.96
68.69,7.86,7.86,-0.05,-0.04,0.04,-0.02,0.01,7.90,7.90,7.91
69.37,7.84,7.84,-0.02,-0.02,0.01,-0.06,-0.02,7.85,7.86,7.85
70.07,7.83,7.82,0.02,0.02,-0.02,-0.09,-0.06,7.81,7.81,7.81
70.77,7.81,7.81,0.05,0.05,-0.05,-0.13,-0.09,7.76,7.76,7.76
71.48,7.79,7.79,0.09,0.08,-0.08,-0.17,-0.12,7.70,7.71,7.70
72.19,7.77,7.77,0.12,0.12,-0.12,-0.21,-0.16,7.65,7.65,7.65
72.91,7.75,7.75,0.15,0.15,-0.15,-0.24,-0.19,7.60,7.60,7.60
73.64,7.73,7.73,0.19,0.19,-0.19,-0.28,-0.23,7.54,7.54,7.54
74.38,7.71,7.71,0.23,0.22,-0.22,-0.32,-0.27,7.48,7.48,7.48
75.12,7.69,7.69,0.27,0.26,-0.26,-0.36,-0.30,7.43,7.43,7.42
75.87,7.66,7.66,0.29,0.30,-0.30,-0.40,-0.34,7.36,7.37,7.37
76.63,7.64,7.64,0.33,0.33,-0.33,-0.44,-0.38,7.31,7.30,7.31
77.40,7.61,7.61,0.37,0.37,-0.37,-0.48,-0.42,7.24,7.24,7.24
78.17,7.59,7.59,0.41,0.41,-0.41,-0.53,-0.46,7.18,7.18,7.18
78.95,7.56,7.56,0.44,0.45,-0.44,-0.57,-0.50,7.11,7.12,7.12
79.74,7.54,7.54,0.49,0.48,-0.48,-0.61,-0.54,7.06,7.05,7.05
80.54,7.51,7.51,0.52,0.52,-0.52,-0.65,-0.59,6.99,6.99,6.98
81.35,7.48,7.48,0.55,0.56,-0.56,-0.69,-0.63,6.92,6.92,6.92
82.16,7.45,7.45,0.59,0.60,-0.60,-0.74,-0.67,6.85,6.85,6.85
82.98,7.42,7.42,0.64,0.64,-0.63,-0.78,-0.72,6.78,6.79,6.78
83.81,7.40,7.39,0.68,0.68,-0.67,-0.82,-0.76,6.73,6.72,6.72
84.65,7.36,7.36,0.71,0.71,-0.71,-0.86,-0.81,6.65,6.65,6.65
85.50,7.33,7.33,0.75,0.75,-0.75,-0.91,-0.85,6.58,6.58,6.58
86.35,7.30,7.30,0.78,0.78,-0.79,-0.95,-0.90,6.51,6.51,6.52
87.22,7.27,7.27,0.83,0.82,-0.83,-1.00,-0.95,6.44,6.44,6.44
88.09,7.24,7.24,0.86,0.87,-0.87,-1.04,-1.00,6.37,6.37,6.37
88.97,7.21,7.21,0.91,0.91,-0.91,-1.08,-1.05,6.30,6.30,6.30
89.86,7.18,7.18,0.95,0.95,-0.95,-1.13,-1.10,6.23,6.23,6.23
90.76,7.14,7.14,0.99,0.99,-0.99,-1.17,-1.15,6.15,6.15,6.15
91.66,7.11,7.11,1.03,1.03,-1.04,-1.22,-1.20,6.07,6.07,6.08
92.58,7.08,7.08,1.08,1.08,-1.08,-1.26,-1.25,6.00,6.00,6.00
93.51,7.05,7.04,1.13,1.13,-1.13,-1.31,-1.31,5.92,5.92,5.92
94.44,7.01,7.01,1.17,1.18,-1.18,-1.35,-1.36,5.83,5.84,5.84
95.39,6.98,6.98,1.22,1.22,-1.22,-1.40,-1.42,5.75,5.75,5.75
96.34,6.95,6.94,1.28,1.27,-1.28,-1.44,-1.47,5.67,5.67,5.67
97.30,6.91,6.91,1.32,1.33,-1.33,-1.49,-1.53,5.58,5.59,5.59
98.28,6.88,6.87,1.38,1.38,-1.38,-1.53,-1.59,5.50,5.50,5.49
99.26,6.84,6.84,1.43,1.43,-1.43,-1.57,-1.64,5.41,5.41,5.41
100.25,6.80,6.80,1.47,1.48,-1.48,-1.62,-1.70,5.32,5.32,5.33
101.25,6.77,6.76,1.54,1.53,-1.53,-1.66,-1.76,5.24,5.24,5.23
102.27,6.73,6.73,1.58,1.58,-1.58,-1.71,-1.81,5.15,5.15,5.15
103.29,6.69,6.69,1.62,1.63,-1.63,-1.75,-1.87,5.06,5.06,5.06
104.32,6.65,6.65,1.67,1.67,-1.67,-1.79,-1.93,4.98,4.98,4.98
105.37,6.61,6.61,1.71,1.72,-1.72,-1.83,-1.99,4.89,4.89,4.89
106.42,6.58,6.57,1.77,1.77,-1.76,-1.88,-2.04,4.81,4.81,4.81
107.48,6.54,6.54,1.81,1.81,-1.81,-1.92,-2.10,4.73,4.73,4.73
108.56,6.50,6.50,1.86,1.85,-1.85,-1.96,-2.15,4.65,4.65,4.64
109.64,6.46,6.46,1.89,1.89,-1.89,-2.00,-2.21,4.56,4.56,4.57
110.74,6.42,6.42,1.94,1.94,-1.94,-2.04,-2.26,4.48,4.48,4.48
111.85,6.38,6.38,1.98,1.98,-1.98,-2.08,-2.31,4.40,4.40,4.40
112.97,6.34,6.34,2.02,2.02,-2.02,-2.12,-2.36,4.31,4.31,4.32
114.10,6.30,6.30,2.07,2.07,-2.07,-2.16,-2.40,4.23,4.23,4.23
115.24,6.26,6.26,2.11,2.11,-2.11,-2.20,-2.45,4.15,4.15,4.15
116.39,6.22,6.22,2.16,2.16,-2.16,-2.24,-2.49,4.06,4.06,4.06
117.55,6.18,6.18,2.20,2.20,-2.20,-2.28,-2.53,3.97,3.97,3.98
118.73,6.14,6.14,2.25,2.25,-2.25,-2.32,-2.56,3.89,3.88,3.88
119.92,6.09,6.09,2.29,2.30,-2.30,-2.35,-2.59,3.79,3.79,3.79
121.12,6.05,6.05,2.34,2.35,-2.34,-2.39,-2.63,3.70,3.71,3.70
122.33,6.01,6.01,2.39,2.39,-2.39,-2.42,-2.65,3.62,3.61,3.61
123.55,5.97,5.97,2.44,2.44,-2.44,-2.46,-2.67,3.53,3.52,3.53
124.79,5.92,5.92,2.48,2.48,-2.49,-2.49,-2.69,3.43,3.43,3.44
126.03,5.88,5.88,2.53,2.53,-2.53,-2.52,-2.71,3.34,3.35,3.35
127.29,5.84,5.84,2.58,2.58,-2.58,-2.56,-2.72,3.26,3.26,3.25
128.57,5.80,5.79,2.63,2.63,-2.62,-2.59,-2.73,3.17,3.17,3.17
129.85,5.75,5.75,2.66,2.67,-2.67,-2.62,-2.74,3.08,3.09,3.08
131.15,5.71,5.71,2.71,2.71,-2.71,-2.65,-2.74,3.00,3.00,3.00
132.46,5.67,5.66,2.75,2.75,-2.74,-2.68,-2.74,2.93,2.92,2.92
133.79,5.62,5.62,2.77,2.78,-2.78,-2.71,-2.74,2.84,2.84,2.85
135.12,5.58,5.58,2.81,2.81,-2.81,-2.73,-2.73,2.77,2.77,2.76
136.48,5.53,5.53,2.83,2.83,-2.84,-2.76,-2.72,2.69,2.69,2.69
137.84,5.49,5.49,2.86,2.86,-2.86,-2.78,-2.71,2.63,2.62,2.63
139.22,5.44,5.44,2.88,2.88,-2.89,-2.81,-2.70,2.55,2.56,2.56
140.61,5.40,5.40,2.91,2.91,-2.91,-2.83,-2.69,2.49,2.49,2.49
142.02,5.36,5.36,2.93,2.93,-2.93,-2.85,-2.67,2.43,2.43,2.43
143.44,5.31,5.31,2.95,2.95,-2.95,-2.88,-2.66,2.36,2.36,2.36
144.87,5.27,5.27,2.97,2.97,-2.97,-2.90,-2.64,2.30,2.30,2.30
146.32,5.22,5.22,2.98,2.98,-2.99,-2.92,-2.63,2.23,2.23,2.24
147.78,5.18,5.18,3.00,3.00,-3.00,-2.93,-2.61,2.18,2.17,2.17
149.26,5.13,5.13,3.01,3.02,-3.02,-2.95,-2.59,2.11,2.11,2.11
150.75,5.09,5.09,3.03,3.03,-3.03,-2.97,-2.58,2.06,2.06,2.06
152.26,5.05,5.04,3.05,3.05,-3.04,-2.98,-2.56,2.00,2.00,2.00
153.78,5.00,5.00,3.06,3.06,-3.06,-3.00,-2.54,1.94,1.94,1.94
155.32,4.96,4.96,3.07,3.07,-3.07,-3.01,-2.53,1.89,1.89,1.89
156.88,4.91,4.91,3.08,3.08,-3.08,-3.03,-2.51,1.83,1.83,1.83
158.44,4.87,4.87,3.09,3.09,-3.09,-3.04,-2.50,1.78,1.78,1.78
160.03,4.82,4.82,3.09,3.09,-3.10,-3.05,-2.49,1.72,1.72,1.73
161.63,4.77,4.77,3.10,3.10,-3.11,-3.06,-2.48,1.66,1.67,1.67
163.24,4.73,4.73,3.12,3.11,-3.11,-3.07,-2.47,1.62,1.61,1.61
164.88,4.68,4.68,3.12,3.12,-3.12,-3.07,-2.47,1.56,1.56,1.56
166.53,4.64,4.63,3.13,3.12,-3.12,-3.08,-2.46,1.52,1.51,1.51
168.19,4.59,4.59,3.12,3.12,-3.12,-3.09,-2.46,1.46,1.46,1.47
169.87,4.54,4.54,3.12,3.12,-3.13,-3.09,-2.46,1.41,1.42,1.42
171.57,4.50,4.49,3.13,3.12,-3.12,-3.10,-2.46,1.37,1.37,1.37
173.29,4.45,4.45,3.12,3.12,-3.12,-3.10,-2.46,1.33,1.33,1.32
175.02,4.40,4.40,3.12,3.12,-3.12,-3.10,-2.46,1.28,1.29,1.28
176.77,4.36,4.35,3.12,3.11,-3.11,-3.10,-2.47,1.25,1.24,1.24
178.54,4.31,4.31,3.11,3.11,-3.11,-3.10,-2.48,1.20,1.20,1.20
180.32,4.26,4.26,3.09,3.10,-3.10,-3.10,-2.49,1.16,1.16,1.16
182.13,4.22,4.22,3.09,3.09,-3.09,-3.10,-2.50,1.13,1.13,1.13
183.95,4.17,4.17,3.08,3.08,-3.08,-3.09,-2.52,1.09,1.09,1.09
185.79,4.13,4.13,3.07,3.07,-3.07,-3.09,-2.53,1.06,1.06,1.06
187.65,4.08,4.08,3.06,3.06,-3.06,-3.09,-2.55,1.02,1.02,1.02
189.52,4.04,4.04,3.05,3.05,-3.05,-3.08,-2.57,0.99,0.98,0.99
191.42,3.99,3.99,3.04,3.04,-3.04,-3.07,-2.59,0.95,0.95,0.95
193.33,3.95,3.95,3.03,3.03,-3.03,-3.07,-2.61,0.92,0.92,0.91
195.27,3.90,3.90,3.02,3.02,-3.02,-3.06,-2.64,0.88,0.88,0.88
197.22,3.86,3.86,3.00,3.00,-3.00,-3.05,-2.66,0.85,0.85,0.85
199.19,3.82,3.81,2.99,2.99,-2.99,-3.04,-2.69,0.83,0.82,0.82
201.18,3.77,3.77,2.97,2.97,-2.98,-3.03,-2.72,0.79,0.80,0.80
203.19,3.73,3.73,2.96,2.96,-2.96,-3.01,-2.75,0.77,0.77,0.77
205.23,3.69,3.69,2.94,2.94,-2.94,-3.00,-2.78,0.74,0.74,0.74
207.28,3.65,3.65,2.93,2.93,-2.93,-2.99,-2.81,0.72,0.72,0.72
209.35,3.61,3.60,2.91,2.91,-2.91,-2.97,-2.84,0.70,0.69,0.69
211.44,3.56,3.56,2.89,2.90,-2.90,-2.96,-2.87,0.66,0.67,0.67
213.56,3.52,3.52,2.88,2.88,-2.88,-2.94,-2.90,0.64,0.64,0.64
215.69,3.48,3.48,2.86,2.86,-2.86,-2.92,-2.93,0.62,0.62,0.61
217.85,3.44,3.43,2.85,2.84,-2.84,-2.90,-2.95,0.60,0.59,0.59
220.03,3.39,3.39,2.82,2.82,-2.82,-2.89,-2.98,0.57,0.57,0.57
222.23,3.35,3.35,2.80,2.80,-2.80,-2.87,-3.01,0.55,0.55,0.55
224.45,3.31,3.31,2.78,2.78,-2.77,-2.85,-3.03,0.53,0.53,0.53
226.70,3.27,3.26,2.76,2.75,-2.75,-2.83,-3.05,0.51,0.51,0.51
228.96,3.22,3.22,2.72,2.73,-2.73,-2.80,-3.07,0.49,0.49,0.49
231.25,3.18,3.18,2.70,2.70,-2.71,-2.78,-3.09,0.47,0.47,0.48
233.57,3.14,3.14,2.68,2.68,-2.69,-2.76,-3.10,0.45,0.45,0.46
235.90,3.10,3.10,2.68,2.67,-2.67,-2.73,-3.11,0.43,0.43,0.42
238.26,3.06,3.06,2.65,2.65,-2.64,-2.71,-3.11,0.42,0.41,0.41
240.64,3.02,3.01,2.63,2.63,-2.62,-2.68,-3.11,0.40,0.40,0.39
243.05,2.97,2.97,2.59,2.60,-2.59,-2.66,-3.11,0.37,0.38,0.38
245.48,2.93,2.93,2.57,2.57,-2.57,-2.63,-3.11,0.36,0.36,0.36
247.93,2.89,2.89,2.54,2.54,-2.54,-2.60,-3.10,0.35,0.34,0.35
250.41,2.85,2.85,2.51,2.51,-2.52,-2.58,-3.08,0.33,0.33,0.33
252.92,2.81,2.81,2.49,2.49,-2.49,-2.55,-3.06,0.32,0.32,0.32
255.45,2.77,2.77,2.46,2.46,-2.46,-2.52,-3.03,0.30,0.31,0.31
258.00,2.74,2.73,2.44,2.44,-2.44,-2.49,-3.01,0.30,0.29,0.30
260.58,2.70,2.70,2.41,2.42,-2.42,-2.46,-2.97,0.28,0.28,0.28
263.19,2.66,2.66,2.40,2.40,-2.39,-2.43,-2.94,0.26,0.27,0.26
265.82,2.63,2.62,2.38,2.37,-2.37,-2.39,-2.89,0.26,0.25,0.25
268.48,2.59,2.59,2.35,2.35,-2.35,-2.36,-2.85,0.24,0.24,0.24
271.16,2.55,2.55,2.33,2.33,-2.33,-2.33,-2.80,0.22,0.22,0.22
273.87,2.52,2.52,2.31,2.31,-2.31,-2.30,-2.75,0.21,0.21,0.21
276.61,2.49,2.48,2.30,2.29,-2.29,-2.26,-2.69,0.20,0.19,0.19
279.38,2.45,2.45,2.27,2.27,-2.27,-2.23,-2.63,0.18,0.18,0.18
282.17,2.42,2.42,2.25,2.25,-2.25,-2.19,-2.57,0.17,0.17,0.16
284.99,2.39,2.39,2.22,2.22,-2.23,-2.16,-2.51,0.16,0.16,0.17
287.84,2.36,2.35,2.20,2.20,-2.20,-2.12,-2.44,0.16,0.15,0.16
290.72,2.32,2.32,2.18,2.18,-2.18,-2.09,-2.38,0.14,0.14,0.14
293.63,2.29,2.29,2.16,2.16,-2.16,-2.05,-2.31,0.13,0.13,0.13
296.57,2.26,2.26,2.13,2.13,-2.13,-2.01,-2.24,0.13,0.12,0.12
299.53,2.23,2.23,2.10,2.11,-2.11,-1.97,-2.17,0.12,0.12,0.13
302.53,2.20,2.20,2.09,2.08,-2.08,-1.94,-2.10,0.11,0.11,0.11
305.55,2.17,2.17,2.05,2.06,-2.06,-1.90,-2.03,0.11,0.11,0.11
308.61,2.14,2.14,2.04,2.04,-2.03,-1.86,-1.95,0.10,0.10,0.10
311.69,2.11,2.10,2.01,2.01,-2.01,-1.82,-1.88,0.10,0.10,0.10
314.81,2.07,2.07,1.98,1.98,-1.98,-1.78,-1.81,0.09,0.09,0.09
317.96,2.04,2.04,1.95,1.95,-1.95,-1.74,-1.74,0.09,0.09,0.09
321.14,2.01,2.00,1.92,1.92,-1.92,-1.70,-1.67,0.09,0.08,0.08
324.35,1.97,1.97,1.89,1.89,-1.89,-1.66,-1.60,0.08,0.08,0.08
327.59,1.94,1.94,1.85,1.86,-1.86,-1.62,-1.53,0.08,0.08,0.08
330.87,1.90,1.90,1.82,1.82,-1.82,-1.58,-1.46,0.08,0.08,0.08
334.18,1.86,1.86,1.78,1.79,-1.79,-1.53,-1.39,0.07,0.07,0.07
337.52,1.82,1.82,1.75,1.75,-1.75,-1.49,-1.32,0.07,0.07,0.07
340.90,1.78,1.78,1.71,1.71,-1.71,-1.45,-1.25,0.07,0.07,0.06
344.30,1.74,1.74,1.67,1.67,-1.66,-1.41,-1.19,0.07,0.07,0.07
347.75,1.69,1.69,1.61,1.62,-1.62,-1.36,-1.12,0.07,0.07,0.08
351.23,1.64,1.64,1.58,1.57,-1.57,-1.32,-1.05,0.07,0.07,0.06
354.74,1.59,1.59,1.51,1.52,-1.52,-1.28,-0.99,0.07,0.07,0.08
358.28,1.54,1.54,1.47,1.47,-1.47,-1.23,-0.93,0.07,0.07,0.06
361.87,1.48,1.48,1.41,1.41,-1.41,-1.19,-0.86,0.07,0.07,0.07
365.49,1.42,1.42,1.35,1.35,-1.35,-1.14,-0.80,0.07,0.07,0.07
369.14,1.36,1.36,1.29,1.29,-1.29,-1.10,-0.74,0.07,0.07,0.06
372.83,1.29,1.29,1.22,1.22,-1.23,-1.06,-0.68,0.06,0.07,0.07
376.56,1.23,1.22,1.16,1.16,-1.16,-1.01,-0.62,0.07,0.07,0.07
380.33,1.15,1.15,1.08,1.09,-1.09,-0.97,-0.56,0.06,0.07,0.07
384.13,1.08,1.08,1.03,1.02,-1.01,-0.92,-0.50,0.07,0.07,0.05
387.97,1.00,1.00,0.94,0.94,-0.93,-0.88,-0.44,0.06,0.06,0.06
391.85,0.92,0.92,0.85,0.85,-0.85,-0.83,-0.39,0.06,0.06,0.07
395.77,0.83,0.83,0.76,0.77,-0.77,-0.78,-0.33,0.06,0.06,0.06
399.73,0.75,0.75,0.69,0.68,-0.69,-0.74,-0.27,0.06,0.06,0.06
403.72,0.66,0.66,0.60,0.60,-0.60,-0.69,-0.22,0.06,0.06,0.06
407.76,0.58,0.58,0.52,0.52,-0.51,-0.65,-0.17,0.06,0.06,0.06
411.84,0.49,0.49,0.43,0.43,-0.42,-0.60,-0.11,0.06,0.06,0.06
415.96,0.40,0.40,0.34,0.34,-0.34,-0.55,-0.06,0.06,0.06,0.06
420.12,0.30,0.30,0.25,0.25,-0.25,-0.51,-0.01,0.05,0.06,0.05
424.32,0.21,0.21,0.16,0.16,-0.16,-0.46,0.04,0.05,0.05,0.05
428.56,0.12,0.11,0.07,0.07,-0.07,-0.42,0.09,0.05,0.05,0.05
432.85,0.02,0.02,-0.03,-0.02,0.02,-0.37,0.14,0.04,0.04,0.05
437.18,-0.06,-0.06,-0.10,-0.10,0.10,-0.32,0.18,0.04,0.04,0.03
441.55,-0.14,-0.15,-0.17,-0.18,0.18,-0.28,0.23,0.04,0.03,0.03
445.96,-0.22,-0.22,-0.25,-0.25,0.25,-0.23,0.27,0.02,0.03,0.03
450.42,-0.28,-0.28,-0.32,-0.32,0.31,-0.18,0.32,0.03,0.03,0.04
454.93,-0.33,-0.34,-0.37,-0.37,0.36,-0.14,0.36,0.03,0.02,0.04
459.48,-0.38,-0.38,-0.42,-0.41,0.40,-0.09,0.40,0.02,0.03,0.04
464.07,-0.41,-0.41,-0.44,-0.44,0.44,-0.05,0.44,0.03,0.03,0.02
468.71,-0.44,-0.44,-0.46,-0.47,0.47,0.00,0.47,0.03,0.03,0.02
473.40,-0.47,-0.47,-0.49,-0.49,0.50,0.05,0.51,0.03,0.03,0.02
478.13,-0.49,-0.49,-0.51,-0.51,0.52,0.09,0.54,0.03,0.02,0.02
482.91,-0.51,-0.51,-0.53,-0.54,0.53,0.14,0.58,0.02,0.02,0.02
487.74,-0.53,-0.53,-0.56,-0.55,0.55,0.18,0.61,0.02,0.02,0.03
492.62,-0.54,-0.54,-0.57,-0.57,0.57,0.23,0.64,0.02,0.02,0.03
497.55,-0.55,-0.55,-0.58,-0.58,0.58,0.27,0.66,0.03,0.03,0.03
502.52,-0.56,-0.56,-0.59,-0.59,0.60,0.32,0.69,0.03,0.03,0.02
507.55,-0.57,-0.58,-0.61,-0.61,0.61,0.36,0.71,0.04,0.03,0.03
512.62,-0.59,-0.59,-0.62,-0.62,0.62,0.41,0.73,0.03,0.03,0.03
517.75,-0.60,-0.60,-0.64,-0.64,0.63,0.45,0.76,0.03,0.03,0.04
522.93,-0.61,-0.61,-0.65,-0.65,0.65,0.50,0.77,0.03,0.03,0.04
528.16,-0.62,-0.62,-0.66,-0.66,0.66,0.54,0.79,0.04,0.04,0.04
533.44,-0.63,-0.63,-0.67,-0.67,0.68,0.59,0.81,0.04,0.04,0.04
538.77,-0.64,-0.64,-0.68,-0.68,0.69,0.63,0.82,0.05,0.05,0.04
544.16,-0.65,-0.65,-0.70,-0.70,0.71,0.67,0.84,0.06,0.05,0.05
549.60,-0.67,-0.67,-0.73,-0.73,0.73,0.71,0.85,0.06,0.06,0.06
555.10,-0.68,-0.68,-0.75,-0.75,0.75,0.76,0.86,0.06,0.06,0.07
